3.00117 20337
3.02128 19465
3.0414 19379
3.06151 18634
3.08162 18028
3.10174 17715
3.12185 17232
3.14197 16722
3.16208 15865
3.18219 15987
3.20231 14890
3.22242 14716
3.24253 14410
3.26265 13770
3.28276 13350
3.30288 13008
3.32299 12520
3.3431 11971
3.36322 11427
3.38333 11263
3.40344 10755
3.42356 10614
3.44367 10312
3.46379 9716
3.4839 9663
3.50401 9124
3.52413 8877
3.54424 8793
3.56435 7883
3.58447 7844
3.60458 7509
3.62469 7249
3.64481 7293
3.66492 6752
3.68504 6586
3.70515 6140
3.72526 6198
3.74538 5841
3.76549 5268
3.7856 5399
3.80572 5053
3.82583 4797
3.84595 4837
3.86606 4377
3.88617 4265
3.90629 4020
3.9264 3915
3.94651 3727
3.96663 3354
3.98674 3470
4.00686 3134
4.02697 3090
4.04708 3007
4.0672 2639
4.08731 2722
4.10742 2597
4.12754 2409
4.14765 2409
4.16776 2038
4.18788 2108
4.20799 2066
4.22811 1945
4.24822 1959
4.26833 1808
4.28845 1763
4.30856 1601
4.32867 1736
4.34879 1655
4.3689 1436
4.38902 1487
4.40913 1503
4.42924 1462
4.44936 1482
4.46947 1240
4.48958 1291
4.5097 1236
4.52981 1176
4.54992 1186
4.57004 1117
4.59015 1118
4.61027 1092
4.63038 1078
4.65049 1090
4.67061 956
4.69072 958
4.71083 1003
4.73095 950
4.75106 924
4.77118 862
4.79129 951
4.8114 851
4.83152 843
4.85163 805
4.87174 779
4.89186 765
4.91197 816
4.93209 728
4.9522 726
4.97231 684
4.99243 649
5.01254 612
5.03265 712
5.05277 649
5.07288 612
5.09299 571
5.11311 610
5.13322 504
5.15334 579
5.17345 498
5.19356 517
5.21368 576
5.23379 516
5.2539 459
5.27402 469
5.29413 450
5.31425 458
5.33436 437
5.35447 390
5.37459 401
5.3947 420
5.41481 407
5.43493 412
5.45504 372
5.47516 381
5.49527 347
5.51538 389
5.5355 378
5.55561 285
5.57572 294
5.59584 286
5.61595 358
5.63606 321
5.65618 272
5.67629 278
5.69641 257
5.71652 288
5.73663 301
5.75675 242
5.77686 256
5.79697 240
5.81709 269
5.8372 245
5.85732 224
5.87743 218
5.89754 222
5.91766 243
5.93777 213
5.95788 210
5.978 224
5.99811 233
6.01823 231
6.03834 202
6.05845 230
6.07857 212
6.09868 200
6.11879 213
6.13891 184
6.15902 186
6.17913 181
6.19925 184
6.21936 182
6.23948 176
6.25959 192
6.2797 176
6.29982 210
6.31993 200
6.34004 210
6.36016 169
6.38027 191
6.40039 185
6.4205 215
6.44061 167
6.46073 167
6.48084 175
6.50095 155
6.52107 172
6.54118 177
6.56129 164
6.58141 176
6.60152 166
6.62164 194
6.64175 162
6.66186 175
6.68198 151
6.70209 153
6.7222 183
6.74232 163
6.76243 177
6.78255 162
6.80266 173
6.82277 173
6.84289 173
6.863 179
6.88311 160
6.90323 190
6.92334 153
6.94346 168
6.96357 164
6.98368 166
7.0038 167
7.02391 173
7.04402 188
7.06414 161
7.08425 193
7.10436 189
7.12448 165
7.14459 185
7.16471 164
7.18482 169
7.20493 160
7.22505 163
7.24516 159
7.26527 166
7.28539 142
7.3055 167
7.32562 185
7.34573 180
7.36584 168
7.38596 190
7.40607 182
7.42618 178
7.4463 178
7.46641 203
7.48653 156
7.50664 157
7.52675 172
7.54687 159
7.56698 168
7.58709 191
7.60721 154
7.62732 174
7.64743 191
7.66755 161
7.68766 170
7.70778 187
7.72789 202
7.748 184
7.76812 186
7.78823 192
7.80834 193
7.82846 182
7.84857 185
7.86869 163
7.8888 163
7.90891 207
7.92903 174
7.94914 187
7.96925 187
7.98937 199
8.00948 198
8.0296 190
8.04971 198
8.06982 190
8.08994 193
8.11005 203
8.13016 182
8.15028 180
8.17039 193
8.1905 225
8.21062 196
8.23073 179
8.25085 198
8.27096 184
8.29107 167
8.31119 178
8.3313 193
8.35141 186
8.37153 174
8.39164 192
8.41176 209
8.43187 199
8.45198 181
8.4721 211
8.49221 218
8.51232 205
8.53244 223
8.55255 212
8.57266 214
8.59278 179
8.61289 209
8.63301 202
8.65312 206
8.67323 190
8.69335 215
8.71346 191
8.73357 220
8.75369 180
8.7738 230
8.79392 211
8.81403 218
8.83414 200
8.85426 220
8.87437 234
8.89448 209
8.9146 212
8.93471 200
8.95483 209
8.97494 223
8.99505 223
9.01517 203
9.03528 218
9.05539 202
9.07551 217
9.09562 214
9.11573 193
9.13585 192
9.15596 218
9.17608 211
9.19619 235
9.2163 202
9.23642 183
9.25653 208
9.27664 238
9.29676 225
9.31687 218
9.33699 213
9.3571 216
9.37721 211
9.39733 195
9.41744 201
9.43755 217
9.45767 217
9.47778 206
9.4979 206
9.51801 211
9.53812 223
9.55824 235
9.57835 203
9.59846 211
9.61858 230
9.63869 226
9.6588 189
9.67892 189
9.69903 244
9.71915 210
9.73926 203
9.75937 218
9.77949 241
9.7996 214
9.81971 199
9.83983 201
9.85994 180
9.88006 204
9.90017 244
9.92028 214
9.9404 209
9.96051 218
9.98062 236
10.00074 227
10.02085 200
10.04097 213
10.06108 198
10.08119 201
10.10131 188
10.12142 197
10.14153 204
10.16165 217
10.18176 203
10.20187 190
10.22199 205
10.2421 195
10.26222 222
10.28233 223
10.30244 198
10.32256 202
10.34267 177
10.36278 209
10.3829 195
10.40301 180
10.42313 196
10.44324 245
10.46335 187
10.48347 200
10.50358 200
10.52369 199
10.54381 209
10.56392 205
10.58403 193
10.60415 227
10.62426 198
10.64438 215
10.66449 203
10.6846 219
10.70472 235
10.72483 220
10.74494 184
10.76506 205
10.78517 212
10.80529 205
10.8254 217
10.84551 200
10.86563 212
10.88574 230
10.90585 230
10.92597 214
10.94608 226
10.9662 228
10.98631 216
11.00642 217
11.02654 201
11.04665 203
11.06676 195
11.08688 183
11.10699 225
11.1271 178
11.14722 206
11.16733 186
11.18745 209
11.20756 221
11.22767 263
11.24779 222
11.2679 223
11.28801 177
11.30813 215
11.32824 180
11.34836 216
11.36847 195
11.38858 231
11.4087 209
11.42881 205
11.44892 224
11.46904 213
11.48915 211
11.50927 203
11.52938 188
11.54949 211
11.56961 198
11.58972 189
11.60983 206
11.62995 215
11.65006 192
11.67017 236
11.69029 194
11.7104 183
11.73052 184
11.75063 247
11.77074 238
11.79086 215
11.81097 200
11.83108 207
11.8512 206
11.87131 239
11.89143 217
11.91154 236
11.93165 212
11.95177 245
11.97188 211
11.99199 233
12.01211 198
12.03222 245
12.05234 237
12.07245 274
12.09256 247
12.11268 223
12.13279 239
12.1529 276
12.17302 249
12.19313 268
12.21324 277
12.23336 309
12.25347 301
12.27359 285
12.2937 277
12.31381 316
12.33393 282
12.35404 258
12.37415 281
12.39427 239
12.41438 230
12.4345 289
12.45461 221
12.47472 225
12.49484 227
12.51495 221
12.53506 234
12.55518 227
12.57529 217
12.5954 235
12.61552 215
12.63563 215
12.65575 203
12.67586 213
12.69597 209
12.71609 188
12.7362 202
12.75631 188
12.77643 199
12.79654 212
12.81666 212
12.83677 184
12.85688 200
12.877 192
12.89711 181
12.91722 205
12.93734 202
12.95745 181
12.97757 182
12.99768 191
13.01779 183
13.03791 202
13.05802 203
13.07813 206
13.09825 218
13.11836 215
13.13847 188
13.15859 179
13.1787 152
13.19882 195
13.21893 190
13.23904 165
13.25916 198
13.27927 185
13.29938 192
13.3195 203
13.33961 192
13.35973 160
13.37984 215
13.39995 188
13.42007 182
13.44018 202
13.46029 213
13.48041 199
13.50052 194
13.52064 213
13.54075 204
13.56086 202
13.58098 188
13.60109 178
13.6212 193
13.64132 197
13.66143 177
13.68154 214
13.70166 165
13.72177 193
13.74189 195
13.762 194
13.78211 207
13.80223 212
13.82234 173
13.84245 154
13.86257 156
13.88268 176
13.9028 201
13.92291 188
13.94302 165
13.96314 184
13.98325 182
14.00336 212
14.02348 193
14.04359 171
14.06371 204
14.08382 211
14.10393 162
14.12405 204
14.14416 172
14.16427 180
14.18439 204
14.2045 166
14.22461 193
14.24473 182
14.26484 166
14.28496 210
14.30507 184
14.32518 178
14.3453 194
14.36541 186
14.38552 177
14.40564 178
14.42575 171
14.44587 180
14.46598 184
14.48609 185
14.50621 174
14.52632 183
14.54643 182
14.56655 164
14.58666 172
14.60677 175
14.62689 171
14.647 171
14.66712 167
14.68723 192
14.70734 179
14.72746 169
14.74757 170
14.76768 179
14.7878 189
14.80791 163
14.82803 178
14.84814 171
14.86825 165
14.88837 173
14.90848 164
14.92859 186
14.94871 169
14.96882 202
14.98894 171
15.00905 169
15.02916 174
15.04928 163
15.06939 183
15.0895 164
15.10962 166
15.12973 144
15.14984 189
15.16996 168
15.19007 164
15.21019 147
15.2303 195
15.25041 215
15.27053 197
15.29064 173
15.31075 174
15.33087 173
15.35098 166
15.3711 168
15.39121 178
15.41132 183
15.43144 173
15.45155 164
15.47166 149
15.49178 199
15.51189 150
15.53201 177
15.55212 195
15.57223 170
15.59235 182
15.61246 163
15.63257 182
15.65269 174
15.6728 143
15.69291 151
15.71303 196
15.73314 161
15.75326 154
15.77337 173
15.79348 159
15.8136 157
15.83371 186
15.85382 157
15.87394 171
15.89405 202
15.91417 168
15.93428 203
15.95439 200
15.97451 149
15.99462 177
16.01473 176
16.03485 156
16.05496 194
16.07508 192
16.09519 175
16.1153 154
16.13542 166
16.15553 141
16.17564 163
16.19576 174
16.21587 128
16.23598 164
16.2561 153
16.27621 168
16.29633 136
16.31644 165
16.33655 129
16.35667 162
16.37678 178
16.39689 177
16.41701 186
16.43712 150
16.45724 157
16.47735 179
16.49746 174
16.51758 164
16.53769 154
16.5578 146
16.57792 166
16.59803 173
16.61814 181
16.63826 155
16.65837 161
16.67849 161
16.6986 193
16.71871 138
16.73883 149
16.75894 180
16.77905 163
16.79917 157
16.81928 156
16.8394 158
16.85951 157
16.87962 144
16.89974 167
16.91985 180
16.93996 142
16.96008 144
16.98019 165
17.00031 145
17.02042 160
17.04053 139
17.06065 164
17.08076 165
17.10087 162
17.12099 152
17.1411 160
17.16121 150
17.18133 168
17.20144 156
17.22156 144
17.24167 143
17.26178 154
17.2819 151
17.30201 171
17.32212 153
17.34224 174
17.36235 150
17.38247 164
17.40258 178
17.42269 138
17.44281 166
17.46292 176
17.48303 167
17.50315 159
17.52326 176
17.54338 150
17.56349 144
17.5836 187
17.60372 170
17.62383 164
17.64394 177
17.66406 165
17.68417 167
17.70428 161
17.7244 158
17.74451 153
17.76463 168
17.78474 151
17.80485 178
17.82497 136
17.84508 171
17.86519 165
17.88531 151
17.90542 160
17.92554 135
17.94565 166
17.96576 178
17.98588 160
18.00599 172
18.0261 162
18.04622 157
18.06633 151
18.08645 169
18.10656 142
18.12667 132
18.14679 138
18.1669 189
18.18701 168
18.20713 137
18.22724 153
18.24735 152
18.26747 147
18.28758 152
18.3077 171
18.32781 157
18.34792 160
18.36804 137
18.38815 160
18.40826 170
18.42838 180
18.44849 151
18.46861 170
18.48872 162
18.50883 154
18.52895 187
18.54906 166
18.56917 156
18.58929 162
18.6094 176
18.62951 159
18.64963 169
18.66974 158
18.68986 172
18.70997 150
18.73008 149
18.7502 188
18.77031 169
18.79042 169
18.81054 176
18.83065 170
18.85077 163
18.87088 176
18.89099 153
18.91111 175
18.93122 156
18.95133 161
18.97145 160
18.99156 146
19.01168 156
19.03179 141
19.0519 164
19.07202 175
19.09213 157
19.11224 155
19.13236 167
19.15247 160
19.17258 155
19.1927 174
19.21281 136
19.23293 161
19.25304 171
19.27315 162
19.29327 143
19.31338 179
19.33349 144
19.35361 150
19.37372 140
19.39384 183
19.41395 181
19.43406 171
19.45418 183
19.47429 154
19.4944 176
19.51452 170
19.53463 161
19.55475 202
19.57486 182
19.59497 191
19.61509 167
19.6352 184
19.65531 187
19.67543 152
19.69554 185
19.71565 206
19.73577 186
19.75588 201
19.776 189
19.79611 217
19.81622 238
19.83634 206
19.85645 233
19.87656 245
19.89668 232
19.91679 228
19.93691 246
19.95702 226
19.97713 223
19.99725 272
20.01736 204
20.03747 250
20.05759 264
20.0777 245
20.09782 283
20.11793 260
20.13804 271
20.15816 275
20.17827 271
20.19838 267
20.2185 319
20.23861 291
20.25872 291
20.27884 268
20.29895 316
20.31907 302
20.33918 305
20.35929 366
20.37941 324
20.39952 352
20.41963 340
20.43975 382
20.45986 388
20.47998 419
20.50009 430
20.5202 403
20.54032 440
20.56043 513
20.58054 557
20.60066 607
20.62077 783
20.64088 933
20.661 1204
20.68111 1556
20.70123 2077
20.72134 2754
20.74145 3716
20.76157 4745
20.78168 5858
20.80179 6978
20.82191 7596
20.84202 7403
20.86214 6750
20.88225 5486
20.90236 3864
20.92248 2628
20.94259 1731
20.9627 1024
20.98282 757
21.00293 579
21.02305 520
21.04316 473
21.06327 458
21.08339 419
21.1035 429
21.12361 341
21.14373 344
21.16384 294
21.18395 271
21.20407 306
21.22418 315
21.2443 302
21.26441 284
21.28452 310
21.30464 268
21.32475 269
21.34486 253
21.36498 256
21.38509 248
21.40521 244
21.42532 259
21.44543 234
21.46555 263
21.48566 252
21.50577 250
21.52589 230
21.546 243
21.56612 234
21.58623 242
21.60634 211
21.62646 243
21.64657 217
21.66668 195
21.6868 225
21.70691 248
21.72702 202
21.74714 268
21.76725 203
21.78737 214
21.80748 212
21.82759 240
21.84771 220
21.86782 208
21.88793 207
21.90805 207
21.92816 239
21.94828 195
21.96839 200
21.9885 200
22.00862 207
22.02873 217
22.04884 237
22.06896 233
22.08907 222
22.10919 205
22.1293 215
22.14941 206
22.16953 192
22.18964 214
22.20975 205
22.22987 194
22.24998 199
22.27009 224
22.29021 210
22.31032 189
22.33044 215
22.35055 211
22.37066 189
22.39078 206
22.41089 181
22.431 209
22.45112 204
22.47123 198
22.49135 179
22.51146 231
22.53157 196
22.55169 197
22.5718 196
22.59191 188
22.61203 171
22.63214 217
22.65225 168
22.67237 182
22.69248 194
22.7126 181
22.73271 195
22.75282 177
22.77294 172
22.79305 171
22.81316 178
22.83328 186
22.85339 204
22.87351 175
22.89362 184
22.91373 180
22.93385 197
22.95396 193
22.97407 184
22.99419 186
23.0143 226
23.03442 165
23.05453 167
23.07464 193
23.09476 188
23.11487 181
23.13498 201
23.1551 174
23.17521 177
23.19532 189
23.21544 184
23.23555 198
23.25567 185
23.27578 158
23.29589 178
23.31601 176
23.33612 177
23.35623 183
23.37635 195
23.39646 159
23.41658 222
23.43669 190
23.4568 182
23.47692 207
23.49703 166
23.51714 178
23.53726 218
23.55737 170
23.57749 188
23.5976 179
23.61771 183
23.63783 170
23.65794 168
23.67805 168
23.69817 179
23.71828 179
23.73839 189
23.75851 179
23.77862 208
23.79874 202
23.81885 203
23.83896 237
23.85908 194
23.87919 238
23.8993 246
23.91942 260
23.93953 253
23.95965 225
23.97976 277
23.99987 265
24.01999 227
24.0401 232
24.06021 213
24.08033 199
24.10044 198
24.12056 196
24.14067 164
24.16078 210
24.1809 228
24.20101 167
24.22112 174
24.24124 195
24.26135 223
24.28146 185
24.30158 192
24.32169 179
24.34181 200
24.36192 210
24.38203 177
24.40215 190
24.42226 233
24.44237 181
24.46249 189
24.4826 200
24.50272 196
24.52283 186
24.54294 217
24.56306 227
24.58317 199
24.60328 200
24.6234 212
24.64351 199
24.66362 266
24.68374 220
24.70385 233
24.72397 223
24.74408 219
24.76419 246
24.78431 228
24.80442 240
24.82453 252
24.84465 242
24.86476 256
24.88488 230
24.90499 248
24.9251 265
24.94522 199
24.96533 210
24.98544 228
25.00556 217
25.02567 222
25.04579 187
25.0659 240
25.08601 214
25.10613 224
25.12624 225
25.14635 226
25.16647 214
25.18658 241
25.20669 211
25.22681 255
25.24692 228
25.26704 233
25.28715 221
25.30726 211
25.32738 216
25.34749 225
25.3676 201
25.38772 222
25.40783 227
25.42795 247
25.44806 230
25.46817 260
25.48829 247
25.5084 245
25.52851 255
25.54863 253
25.56874 259
25.58886 298
25.60897 313
25.62908 298
25.6492 332
25.66931 357
25.68942 409
25.70954 416
25.72965 435
25.74976 447
25.76988 464
25.78999 445
25.81011 411
25.83022 427
25.85033 487
25.87045 488
25.89056 510
25.91067 501
25.93079 449
25.9509 562
25.97102 488
25.99113 550
26.01124 541
26.03136 603
26.05147 660
26.07158 664
26.0917 703
26.11181 755
26.13193 763
26.15204 853
26.17215 948
26.19227 984
26.21238 1093
26.23249 1091
26.25261 1199
26.27272 1346
26.29283 1505
26.31295 1737
26.33306 1957
26.35318 2229
26.37329 2931
26.3934 3602
26.41352 4702
26.43363 6084
26.45374 8091
26.47386 10667
26.49397 13966
26.51409 17833
26.5342 22181
26.55431 26644
26.57443 30735
26.59454 33881
26.61465 33946
26.63477 31465
26.65488 26332
26.67499 20395
26.69511 14752
26.71522 10403
26.73534 6651
26.75545 3876
26.77556 2617
26.79568 2050
26.81579 1736
26.8359 1517
26.85602 1369
26.87613 1284
26.89625 1133
26.91636 1002
26.93647 964
26.95659 858
26.9767 757
26.99681 678
27.01693 649
27.03704 616
27.05716 596
27.07727 570
27.09738 531
27.1175 516
27.13761 473
27.15772 462
27.17784 442
27.19795 414
27.21806 470
27.23818 430
27.25829 415
27.27841 439
27.29852 418
27.31863 392
27.33875 426
27.35886 386
27.37897 371
27.39909 379
27.4192 390
27.43932 352
27.45943 364
27.47954 347
27.49966 358
27.51977 327
27.53988 337
27.56 324
27.58011 320
27.60023 315
27.62034 342
27.64045 326
27.66057 326
27.68068 306
27.70079 302
27.72091 300
27.74102 267
27.76113 311
27.78125 276
27.80136 253
27.82148 290
27.84159 232
27.8617 264
27.88182 258
27.90193 268
27.92204 267
27.94216 268
27.96227 268
27.98239 268
28.0025 216
28.02261 270
28.04273 248
28.06284 255
28.08295 250
28.10307 267
28.12318 250
28.1433 251
28.16341 288
28.18352 280
28.20364 237
28.22375 276
28.24386 245
28.26398 237
28.28409 233
28.3042 255
28.32432 256
28.34443 228
28.36455 240
28.38466 231
28.40477 224
28.42489 234
28.445 245
28.46511 258
28.48523 224
28.50534 249
28.52546 218
28.54557 210
28.56568 256
28.5858 217
28.60591 205
28.62602 215
28.64614 207
28.66625 244
28.68636 226
28.70648 214
28.72659 233
28.74671 228
28.76682 222
28.78693 206
28.80705 222
28.82716 212
28.84727 211
28.86739 210
28.8875 218
28.90762 218
28.92773 212
28.94784 236
28.96796 196
28.98807 219
29.00818 204
29.0283 183
29.04841 221
29.06853 220
29.08864 195
29.10875 203
29.12887 191
29.14898 200
29.16909 224
29.18921 183
29.20932 178
29.22943 216
29.24955 212
29.26966 211
29.28978 221
29.30989 243
29.33 227
29.35012 204
29.37023 185
29.39034 211
29.41046 187
29.43057 217
29.45069 211
29.4708 233
29.49091 193
29.51103 190
29.53114 174
29.55125 211
29.57137 181
29.59148 184
29.6116 173
29.63171 202
29.65182 179
29.67194 211
29.69205 194
29.71216 174
29.73228 182
29.75239 192
29.7725 194
29.79262 206
29.81273 206
29.83285 199
29.85296 186
29.87307 197
29.89319 169
29.9133 190
29.93341 205
29.95353 199
29.97364 214
29.99376 207
30.01387 194
30.03398 202
30.0541 194
30.07421 177
30.09432 196
30.11444 193
30.13455 174
30.15467 204
30.17478 192
30.19489 186
30.21501 196
30.23512 219
30.25523 192
30.27535 187
30.29546 168
30.31557 189
30.33569 211
30.3558 191
30.37592 197
30.39603 188
30.41614 181
30.43626 200
30.45637 192
30.47648 194
30.4966 167
30.51671 172
30.53683 193
30.55694 152
30.57705 170
30.59717 164
30.61728 186
30.63739 158
30.65751 168
30.67762 185
30.69773 152
30.71785 220
30.73796 167
30.75808 194
30.77819 175
30.7983 172
30.81842 178
30.83853 153
30.85864 159
30.87876 203
30.89887 189
30.91899 176
30.9391 175
30.95921 174
30.97933 167
30.99944 178
31.01955 203
31.03967 176
31.05978 160
31.0799 178
31.10001 181
31.12012 187
31.14024 176
31.16035 155
31.18046 146
31.20058 178
31.22069 192
31.2408 190
31.26092 165
31.28103 177
31.30115 161
31.32126 162
31.34137 135
31.36149 153
31.3816 184
31.40171 162
31.42183 166
31.44194 178
31.46206 149
31.48217 174
31.50228 169
31.5224 165
31.54251 169
31.56262 180
31.58274 170
31.60285 160
31.62297 159
31.64308 168
31.66319 145
31.68331 153
31.70342 146
31.72353 153
31.74365 160
31.76376 144
31.78387 172
31.80399 179
31.8241 144
31.84422 173
31.86433 139
31.88444 165
31.90456 149
31.92467 143
31.94478 161
31.9649 143
31.98501 136
32.00513 144
32.02524 178
32.04535 151
32.06547 160
32.08558 176
32.10569 156
32.12581 181
32.14592 161
32.16604 170
32.18615 167
32.20626 147
32.22638 178
32.24649 165
32.2666 173
32.28672 163
32.30683 170
32.32694 151
32.34706 161
32.36717 153
32.38729 168
32.4074 157
32.42751 137
32.44763 159
32.46774 153
32.48785 168
32.50797 149
32.52808 149
32.5482 160
32.56831 166
32.58842 156
32.60854 166
32.62865 143
32.64876 150
32.66888 152
32.68899 160
32.7091 164
32.72922 173
32.74933 191
32.76945 161
32.78956 156
32.80967 159
32.82979 174
32.8499 154
32.87001 165
32.89013 145
32.91024 162
32.93036 171
32.95047 157
32.97058 168
32.9907 169
33.01081 138
33.03092 170
33.05104 164
33.07115 160
33.09127 158
33.11138 156
33.13149 154
33.15161 140
33.17172 134
33.19183 149
33.21195 160
33.23206 146
33.25217 151
33.27229 147
33.2924 132
33.31252 154
33.33263 144
33.35274 127
33.37286 129
33.39297 151
33.41308 143
33.4332 131
33.45331 151
33.47343 153
33.49354 139
33.51365 123
33.53377 135
33.55388 156
33.57399 158
33.59411 123
33.61422 184
33.63434 134
33.65445 137
33.67456 128
33.69468 149
33.71479 134
33.7349 138
33.75502 131
33.77513 137
33.79524 124
33.81536 144
33.83547 145
33.85559 137
33.8757 119
33.89581 137
33.91593 128
33.93604 154
33.95615 135
33.97627 129
33.99638 131
34.0165 151
34.03661 111
34.05672 123
34.07684 136
34.09695 148
34.11706 140
34.13718 146
34.15729 133
34.17741 156
34.19752 133
34.21763 120
34.23775 137
34.25786 149
34.27797 138
34.29809 146
34.3182 146
34.33831 142
34.35843 131
34.37854 134
34.39866 141
34.41877 131
34.43888 137
34.459 124
34.47911 162
34.49922 133
34.51934 122
34.53945 141
34.55957 136
34.57968 137
34.59979 130
34.61991 164
34.64002 144
34.66013 159
34.68025 133
34.70036 159
34.72047 160
34.74059 150
34.7607 152
34.78082 158
34.80093 151
34.82104 146
34.84116 160
34.86127 170
34.88138 155
34.9015 182
34.92161 157
34.94173 161
34.96184 168
34.98195 161
35.00207 148
35.02218 157
35.04229 150
35.06241 165
35.08252 169
35.10264 163
35.12275 167
35.14286 161
35.16298 152
35.18309 167
35.2032 158
35.22332 174
35.24343 171
35.26354 182
35.28366 174
35.30377 186
35.32389 152
35.344 158
35.36411 131
35.38423 162
35.40434 168
35.42445 175
35.44457 189
35.46468 164
35.4848 149
35.50491 180
35.52502 183
35.54514 191
35.56525 198
35.58536 185
35.60548 192
35.62559 183
35.64571 188
35.66582 182
35.68593 168
35.70605 187
35.72616 165
35.74627 180
35.76639 175
35.7865 164
35.80661 217
35.82673 167
35.84684 189
35.86696 199
35.88707 183
35.90718 197
35.9273 176
35.94741 165
35.96752 203
35.98764 196
36.00775 201
36.02787 192
36.04798 222
36.06809 236
36.08821 242
36.10832 231
36.12843 236
36.14855 271
36.16866 262
36.18878 260
36.20889 303
36.229 337
36.24912 368
36.26923 422
36.28934 525
36.30946 553
36.32957 735
36.34968 801
36.3698 1018
36.38991 1246
36.41003 1386
36.43014 1657
36.45025 1984
36.47037 2041
36.49048 2170
36.51059 2176
36.53071 2118
36.55082 1816
36.57094 1499
36.59105 1290
36.61116 1060
36.63128 842
36.65139 616
36.6715 466
36.69162 333
36.71173 310
36.73184 271
36.75196 246
36.77207 251
36.79219 238
36.8123 215
36.83241 205
36.85253 196
36.87264 211
36.89275 207
36.91287 195
36.93298 185
36.9531 171
36.97321 190
36.99332 163
37.01344 177
37.03355 158
37.05366 179
37.07378 191
37.09389 190
37.11401 177
37.13412 158
37.15423 175
37.17435 136
37.19446 145
37.21457 139
37.23469 151
37.2548 157
37.27491 129
37.29503 153
37.31514 154
37.33526 162
37.35537 178
37.37548 185
37.3956 173
37.41571 156
37.43582 165
37.45594 154
37.47605 161
37.49617 176
37.51628 157
37.53639 140
37.55651 162
37.57662 166
37.59673 146
37.61685 144
37.63696 147
37.65708 156
37.67719 157
37.6973 154
37.71742 164
37.73753 152
37.75764 166
37.77776 147
37.79787 179
37.81798 133
37.8381 164
37.85821 183
37.87833 173
37.89844 165
37.91855 149
37.93867 159
37.95878 153
37.97889 152
37.99901 173
38.01912 186
38.03924 160
38.05935 171
38.07946 158
38.09958 187
38.11969 163
38.1398 176
38.15992 156
38.18003 175
38.20015 159
38.22026 152
38.24037 158
38.26049 174
38.2806 154
38.30071 148
38.32083 160
38.34094 158
38.36105 196
38.38117 180
38.40128 162
38.4214 179
38.44151 152
38.46162 148
38.48174 172
38.50185 189
38.52196 177
38.54208 172
38.56219 190
38.58231 155
38.60242 202
38.62253 172
38.64265 168
38.66276 151
38.68287 194
38.70299 171
38.7231 202
38.74321 179
38.76333 172
38.78344 191
38.80356 177
38.82367 171
38.84378 164
38.8639 188
38.88401 181
38.90412 172
38.92424 177
38.94435 175
38.96447 201
38.98458 195
39.00469 249
39.02481 224
39.04492 215
39.06503 216
39.08515 240
39.10526 275
39.12538 304
39.14549 298
39.1656 393
39.18572 419
39.20583 490
39.22594 526
39.24606 626
39.26617 785
39.28628 943
39.3064 1138
39.32651 1286
39.34663 1517
39.36674 1680
39.38685 1967
39.40697 2061
39.42708 2222
39.44719 2036
39.46731 1783
39.48742 1469
39.50754 1180
39.52765 1060
39.54776 949
39.56788 743
39.58799 554
39.6081 392
39.62822 327
39.64833 289
39.66845 256
39.68856 271
39.70867 224
39.72879 226
39.7489 240
39.76901 237
39.78913 238
39.80924 212
39.82935 212
39.84947 228
39.86958 228
39.8897 217
39.90981 238
39.92992 202
39.95004 224
39.97015 250
39.99026 251
40.01038 285
40.03049 361
40.05061 382
40.07072 417
40.09083 411
40.11095 553
40.13106 624
40.15117 765
40.17129 843
40.1914 999
40.21152 1099
40.23163 1064
40.25174 1116
40.27186 1156
40.29197 975
40.31208 788
40.3322 669
40.35231 657
40.37242 549
40.39254 437
40.41265 355
40.43277 257
40.45288 213
40.47299 210
40.49311 167
40.51322 182
40.53333 173
40.55345 168
40.57356 147
40.59368 174
40.61379 160
40.6339 168
40.65402 162
40.67413 181
40.69424 180
40.71436 166
40.73447 197
40.75458 154
40.7747 147
40.79481 169
40.81493 148
40.83504 166
40.85515 153
40.87527 167
40.89538 145
40.91549 149
40.93561 151
40.95572 167
40.97584 166
40.99595 180
41.01606 169
41.03618 161
41.05629 179
41.0764 155
41.09652 177
41.11663 147
41.13675 166
41.15686 184
41.17697 160
41.19709 143
41.2172 166
41.23731 149
41.25743 159
41.27754 156
41.29765 155
41.31777 166
41.33788 158
41.358 154
41.37811 163
41.39822 170
41.41834 168
41.43845 152
41.45856 148
41.47868 136
41.49879 144
41.51891 151
41.53902 177
41.55913 165
41.57925 173
41.59936 159
41.61947 168
41.63959 137
41.6597 167
41.67982 162
41.69993 153
41.72004 173
41.74016 156
41.76027 186
41.78038 154
41.8005 187
41.82061 141
41.84072 178
41.86084 140
41.88095 176
41.90107 170
41.92118 204
41.94129 178
41.96141 171
41.98152 171
42.00163 184
42.02175 180
42.04186 183
42.06198 199
42.08209 236
42.1022 244
42.12232 250
42.14243 292
42.16254 318
42.18266 385
42.20277 411
42.22289 529
42.243 603
42.26311 667
42.28323 806
42.30334 970
42.32345 1099
42.34357 1236
42.36368 1364
42.38379 1428
42.40391 1468
42.42402 1466
42.44414 1341
42.46425 1089
42.48436 961
42.50448 845
42.52459 796
42.5447 641
42.56482 521
42.58493 367
42.60505 306
42.62516 256
42.64527 192
42.66539 203
42.6855 207
42.70561 196
42.72573 192
42.74584 169
42.76595 170
42.78607 161
42.80618 154
42.8263 138
42.84641 163
42.86652 160
42.88664 146
42.90675 174
42.92686 162
42.94698 165
42.96709 146
42.98721 160
43.00732 157
43.02743 150
43.04755 138
43.06766 139
43.08777 160
43.10789 156
43.128 138
43.14812 139
43.16823 135
43.18834 137
43.20846 142
43.22857 138
43.24868 146
43.2688 145
43.28891 139
43.30902 125
43.32914 133
43.34925 154
43.36937 146
43.38948 142
43.40959 141
43.42971 167
43.44982 154
43.46993 134
43.49005 148
43.51016 155
43.53028 136
43.55039 160
43.5705 144
43.59062 126
43.61073 152
43.63084 155
43.65096 135
43.67107 136
43.69119 130
43.7113 111
43.73141 141
43.75153 139
43.77164 150
43.79175 117
43.81187 139
43.83198 150
43.85209 143
43.87221 122
43.89232 127
43.91244 138
43.93255 131
43.95266 128
43.97278 130
43.99289 143
44.013 140
44.03312 142
44.05323 142
44.07335 134
44.09346 126
44.11357 147
44.13369 130
44.1538 137
44.17391 116
44.19403 126
44.21414 152
44.23426 143
44.25437 114
44.27448 134
44.2946 118
44.31471 135
44.33482 125
44.35494 162
44.37505 134
44.39516 134
44.41528 128
44.43539 134
44.45551 147
44.47562 141
44.49573 139
44.51585 130
44.53596 117
44.55607 119
44.57619 129
44.5963 141
44.61642 136
44.63653 136
44.65664 124
44.67676 128
44.69687 138
44.71698 148
44.7371 118
44.75721 136
44.77732 136
44.79744 140
44.81755 144
44.83767 140
44.85778 144
44.87789 120
44.89801 133
44.91812 146
44.93823 157
44.95835 161
44.97846 161
44.99858 147
45.01869 120
45.0388 125
45.05892 141
45.07903 131
45.09914 131
45.11926 140
45.13937 123
45.15949 153
45.1796 161
45.19971 134
45.21983 161
45.23994 145
45.26005 165
45.28017 172
45.30028 168
45.32039 167
45.34051 187
45.36062 180
45.38074 181
45.40085 172
45.42096 203
45.44108 198
45.46119 214
45.4813 237
45.50142 245
45.52153 301
45.54165 286
45.56176 402
45.58187 423
45.60199 513
45.6221 552
45.64221 708
45.66233 763
45.68244 881
45.70256 911
45.72267 1021
45.74278 1020
45.7629 935
45.78301 958
45.80312 836
45.82324 733
45.84335 610
45.86346 541
45.88358 493
45.90369 401
45.92381 318
45.94392 238
45.96403 213
45.98415 164
46.00426 193
46.02437 152
46.04449 174
46.0646 161
46.08472 156
46.10483 157
46.12494 152
46.14506 150
46.16517 140
46.18528 128
46.2054 137
46.22551 139
46.24563 141
46.26574 151
46.28585 151
46.30597 131
46.32608 137
46.34619 134
46.36631 142
46.38642 138
46.40653 139
46.42665 143
46.44676 115
46.46688 146
46.48699 124
46.5071 133
46.52722 134
46.54733 134
46.56744 131
46.58756 126
46.60767 139
46.62779 141
46.6479 130
46.66801 134
46.68813 137
46.70824 143
46.72835 124
46.74847 134
46.76858 128
46.78869 122
46.80881 136
46.82892 128
46.84904 136
46.86915 144
46.88926 121
46.90938 129
46.92949 131
46.9496 109
46.96972 131
46.98983 130
47.00995 119
47.03006 144
47.05017 131
47.07029 172
47.0904 120
47.11051 126
47.13063 126
47.15074 127
47.17086 110
47.19097 113
47.21108 126
47.2312 140
47.25131 130
47.27142 106
47.29154 118
47.31165 127
47.33176 120
47.35188 109
47.37199 135
47.39211 122
47.41222 128
47.43233 114
47.45245 128
47.47256 106
47.49267 141
47.51279 130
47.5329 123
47.55302 131
47.57313 123
47.59324 114
47.61336 131
47.63347 118
47.65358 128
47.6737 120
47.69381 124
47.71393 121
47.73404 142
47.75415 119
47.77427 113
47.79438 136
47.81449 130
47.83461 130
47.85472 131
47.87483 137
47.89495 131
47.91506 144
47.93518 132
47.95529 124
47.9754 145
47.99552 120
48.01563 101
48.03574 118
48.05586 115
48.07597 146
48.09609 122
48.1162 132
48.13631 115
48.15643 128
48.17654 119
48.19665 134
48.21677 145
48.23688 135
48.257 145
48.27711 144
48.29722 107
48.31734 147
48.33745 120
48.35756 130
48.37768 149
48.39779 140
48.4179 130
48.43802 134
48.45813 119
48.47825 145
48.49836 141
48.51847 148
48.53859 156
48.5587 125
48.57881 138
48.59893 135
48.61904 157
48.63916 141
48.65927 149
48.67938 136
48.6995 158
48.71961 132
48.73972 150
48.75984 152
48.77995 140
48.80006 130
48.82018 153
48.84029 146
48.86041 176
48.88052 123
48.90063 148
48.92075 152
48.94086 147
48.96097 156
48.98109 142
49.0012 155
49.02132 156
49.04143 142
49.06154 137
49.08166 142
49.10177 138
49.12188 163
49.142 165
49.16211 161
49.18223 157
49.20234 175
49.22245 166
49.24257 142
49.26268 147
49.28279 145
49.30291 152
49.32302 171
49.34313 170
49.36325 163
49.38336 172
49.40348 152
49.42359 168
49.4437 192
49.46382 188
49.48393 175
49.50404 173
49.52416 203
49.54427 198
49.56439 198
49.5845 208
49.60461 236
49.62473 266
49.64484 237
49.66495 267
49.68507 309
49.70518 298
49.7253 358
49.74541 368
49.76552 387
49.78564 451
49.80575 506
49.82586 541
49.84598 674
49.86609 759
49.8862 971
49.90632 1044
49.92643 1279
49.94655 1583
49.96666 1756
49.98677 2239
50.00689 2459
50.027 2767
50.04711 3000
50.06723 3193
50.08734 3283
50.10746 3191
50.12757 2909
50.14768 2452
50.1678 2067
50.18791 1851
50.20802 1690
50.22814 1493
50.24825 1360
50.26837 1102
50.28848 815
50.30859 615
50.32871 417
50.34882 362
50.36893 291
50.38905 310
50.40916 302
50.42927 270
50.44939 266
50.4695 242
50.48962 288
50.50973 264
50.52984 243
50.54996 246
50.57007 249
50.59018 245
50.6103 256
50.63041 223
50.65053 221
50.67064 215
50.69075 232
50.71087 172
50.73098 189
50.75109 185
50.77121 188
50.79132 161
50.81143 149
50.83155 164
50.85166 166
50.87178 152
50.89189 155
50.912 141
50.93212 150
50.95223 132
50.97234 151
50.99246 130
51.01257 137
51.03269 137
51.0528 172
51.07291 143
51.09303 119
51.11314 151
51.13325 128
51.15337 125
51.17348 130
51.1936 145
51.21371 126
51.23382 121
51.25394 143
51.27405 128
51.29416 119
51.31428 130
51.33439 132
51.3545 101
51.37462 133
51.39473 132
51.41485 132
51.43496 123
51.45507 124
51.47519 116
51.4953 125
51.51541 141
51.53553 138
51.55564 122
51.57576 136
51.59587 115
51.61598 107
51.6361 119
51.65621 124
51.67632 114
51.69644 144
51.71655 120
51.73667 115
51.75678 112
51.77689 111
51.79701 111
51.81712 130
51.83723 126
51.85735 134
51.87746 124
51.89757 136
51.91769 140
51.9378 109
51.95792 120
51.97803 121
51.99814 111
52.01826 116
52.03837 123
52.05848 127
52.0786 129
52.09871 136
52.11883 120
52.13894 126
52.15905 120
52.17917 111
52.19928 117
52.21939 143
52.23951 121
52.25962 112
52.27974 121
52.29985 118
52.31996 135
52.34008 119
52.36019 121
52.3803 102
52.40042 131
52.42053 111
52.44064 116
52.46076 113
52.48087 113
52.50099 114
52.5211 112
52.54121 115
52.56133 123
52.58144 130
52.60155 117
52.62167 131
52.64178 139
52.6619 124
52.68201 132
52.70212 114
52.72224 109
52.74235 124
52.76246 131
52.78258 133
52.80269 127
52.8228 149
52.84292 139
52.86303 132
52.88315 124
52.90326 132
52.92337 117
52.94349 136
52.9636 138
52.98371 131
53.00383 135
53.02394 132
53.04406 126
53.06417 120
53.08428 148
53.1044 146
53.12451 138
53.14462 106
53.16474 130
53.18485 133
53.20497 111
53.22508 122
53.24519 128
53.26531 129
53.28542 119
53.30553 141
53.32565 122
53.34576 160
53.36587 137
53.38599 118
53.4061 120
53.42622 129
53.44633 135
53.46644 130
53.48656 143
53.50667 119
53.52678 134
53.5469 125
53.56701 134
53.58713 133
53.60724 121
53.62735 146
53.64747 150
53.66758 149
53.68769 126
53.70781 130
53.72792 119
53.74804 148
53.76815 151
53.78826 147
53.80838 139
53.82849 116
53.8486 124
53.86872 155
53.88883 138
53.90894 146
53.92906 129
53.94917 132
53.96929 127
53.9894 135
54.00951 134
54.02963 120
54.04974 154
54.06985 135
54.08997 139
54.11008 138
54.1302 148
54.15031 140
54.17042 151
54.19054 140
54.21065 156
54.23076 153
54.25088 153
54.27099 163
54.29111 178
54.31122 156
54.33133 166
54.35145 163
54.37156 178
54.39167 179
54.41179 167
54.4319 181
54.45201 198
54.47213 238
54.49224 237
54.51236 238
54.53247 224
54.55258 273
54.5727 293
54.59281 294
54.61292 363
54.63304 406
54.65315 462
54.67327 523
54.69338 598
54.71349 729
54.73361 799
54.75372 919
54.77383 993
54.79395 1026
54.81406 1024
54.83417 970
54.85429 908
54.8744 823
54.89452 722
54.91463 643
54.93474 626
54.95486 608
54.97497 581
54.99508 506
55.0152 463
55.03531 406
55.05543 356
55.07554 321
55.09565 306
55.11577 323
55.13588 371
55.15599 397
55.17611 401
55.19622 458
55.21634 527
55.23645 485
55.25656 506
55.27668 572
55.29679 436
55.3169 456
55.33702 393
55.35713 395
55.37724 351
55.39736 310
55.41747 328
55.43759 316
55.4577 269
55.47781 241
55.49793 205
55.51804 176
55.53815 163
55.55827 160
55.57838 139
55.5985 134
55.61861 148
55.63872 140
55.65884 152
55.67895 140
55.69906 144
55.71918 130
55.73929 132
55.75941 143
55.77952 133
55.79963 117
55.81975 124
55.83986 141
55.85997 138
55.88009 128
55.9002 134
55.92031 111
55.94043 125
55.96054 136
55.98066 128
56.00077 111
56.02088 125
56.041 128
56.06111 153
56.08122 139
56.10134 123
56.12145 137
56.14157 119
56.16168 118
56.18179 129
56.20191 117
56.22202 115
56.24213 135
56.26225 145
56.28236 125
56.30248 120
56.32259 142
56.3427 131
56.36282 115
56.38293 115
56.40304 119
56.42316 116
56.44327 118
56.46338 114
56.4835 135
56.50361 122
56.52373 122
56.54384 137
56.56395 119
56.58407 132
56.60418 131
56.62429 116
56.64441 127
56.66452 106
56.68464 130
56.70475 125
56.72486 124
56.74498 121
56.76509 132
56.7852 150
56.80532 113
56.82543 102
56.84554 131
56.86566 119
56.88577 110
56.90589 139
56.926 141
56.94611 129
56.96623 131
56.98634 127
57.00645 127
57.02657 123
57.04668 151
57.0668 175
57.08691 176
57.10702 167
57.12714 148
57.14725 193
57.16736 159
57.18748 166
57.20759 155
57.22771 154
57.24782 163
57.26793 125
57.28805 137
57.30816 143
57.32827 133
57.34839 132
57.3685 129
57.38861 113
57.40873 129
57.42884 120
57.44896 125
57.46907 106
57.48918 99
57.5093 115
57.52941 128
57.54952 118
57.56964 125
57.58975 125
57.60987 138
57.62998 122
57.65009 117
57.67021 132
57.69032 115
57.71043 116
57.73055 132
57.75066 111
57.77078 120
57.79089 125
57.811 128
57.83112 119
57.85123 97
57.87134 131
57.89146 125
57.91157 131
57.93168 130
57.9518 127
57.97191 118
57.99203 95
58.01214 137
58.03225 122
58.05237 124
58.07248 118
58.09259 106
58.11271 133
58.13282 123
58.15294 118
58.17305 119
58.19316 124
58.21328 111
58.23339 125
58.2535 115
58.27362 121
58.29373 121
58.31385 123
58.33396 103
58.35407 108
58.37419 136
58.3943 126
58.41441 124
58.43453 122
58.45464 125
58.47475 165
58.49487 127
58.51498 116
58.5351 123
58.55521 132
58.57532 134
58.59544 118
58.61555 128
58.63566 115
58.65578 94
58.67589 140
58.69601 129
58.71612 116
58.73623 117
58.75635 134
58.77646 120
58.79657 138
58.81669 118
58.8368 113
58.85691 121
58.87703 110
58.89714 163
58.91726 122
58.93737 120
58.95748 135
58.9776 131
58.99771 119
59.01782 116
59.03794 133
59.05805 144
59.07817 164
59.09828 132
59.11839 140
59.13851 139
59.15862 147
59.17873 149
59.19885 164
59.21896 117
59.23908 156
59.25919 131
59.2793 146
59.29942 191
59.31953 178
59.33964 159
59.35976 180
59.37987 158
59.39998 183
59.4201 182
59.44021 212
59.46033 216
59.48044 226
59.50055 242
59.52067 242
59.54078 267
59.56089 289
59.58101 310
59.60112 365
59.62124 440
59.64135 471
59.66146 548
59.68158 651
59.70169 713
59.7218 867
59.74192 1024
59.76203 1117
59.78215 1355
59.80226 1512
59.82237 1697
59.84249 1808
59.8626 2005
59.88271 1964
59.90283 2030
59.92294 1890
59.94305 1645
59.96317 1439
59.98328 1349
60.0034 1132
60.02351 1098
60.04362 1031
60.06374 1013
60.08385 880
60.10396 767
60.12408 596
60.14419 474
60.16431 348
60.18442 297
60.20453 251
60.22465 237
60.24476 230
60.26487 194
60.28499 203
60.3051 210
60.32522 185
60.34533 155
60.36544 142
60.38556 176
60.40567 168
60.42578 150
60.4459 152
60.46601 146
60.48612 129
60.50624 132
60.52635 132
60.54647 126
60.56658 129
60.58669 147
60.60681 143
60.62692 122
60.64703 128
60.66715 126
60.68726 135
60.70738 138
60.72749 124
60.7476 139
60.76772 115
60.78783 148
60.80794 119
60.82806 132
60.84817 139
60.86828 115
60.8884 133
60.90851 129
60.92863 122
60.94874 112
60.96885 99
60.98897 150
61.00908 106
61.02919 92
61.04931 118
61.06942 128
61.08954 115
61.10965 116
61.12976 124
61.14988 101
61.16999 123
61.1901 107
61.21022 100
61.23033 114
61.25045 128
61.27056 136
61.29067 117
61.31079 127
61.3309 97
61.35101 128
61.37113 104
61.39124 109
61.41135 98
61.43147 108
61.45158 112
61.4717 108
61.49181 104
61.51192 135
61.53204 116
61.55215 138
61.57226 110
61.59238 133
61.61249 136
61.63261 120
61.65272 111
61.67283 124
61.69295 117
61.71306 108
61.73317 129
61.75329 131
61.7734 105
61.79352 135
61.81363 134
61.83374 127
61.85386 119
61.87397 112
61.89408 112
61.9142 126
61.93431 114
61.95442 109
61.97454 124
61.99465 113
62.01477 135
62.03488 124
62.05499 124
62.07511 137
62.09522 141
62.11533 132
62.13545 143
62.15556 132
62.17568 130
62.19579 143
62.2159 155
62.23602 152
62.25613 121
62.27624 133
62.29636 132
62.31647 130
62.33659 149
62.3567 134
62.37681 138
62.39693 137
62.41704 116
62.43715 121
62.45727 105
62.47738 132
62.49749 138
62.51761 119
62.53772 126
62.55784 124
62.57795 126
62.59806 119
62.61818 116
62.63829 99
62.6584 116
62.67852 127
62.69863 122
62.71875 123
62.73886 117
62.75897 128
62.77909 100
62.7992 115
62.81931 125
62.83943 133
62.85954 115
62.87965 121
62.89977 124
62.91988 102
62.94 122
62.96011 102
62.98022 105
63.00034 120
63.02045 108
63.04056 101
63.06068 94
63.08079 128
63.10091 132
63.12102 144
63.14113 123
63.16125 130
63.18136 120
63.20147 136
63.22159 124
63.2417 118
63.26182 122
63.28193 112
63.30204 132
63.32216 121
63.34227 117
63.36238 93
63.3825 143
63.40261 121
63.42272 141
63.44284 135
63.46295 123
63.48307 137
63.50318 132
63.52329 126
63.54341 149
63.56352 144
63.58363 106
63.60375 124
63.62386 122
63.64398 168
63.66409 172
63.6842 155
63.70432 155
63.72443 164
63.74454 201
63.76466 207
63.78477 234
63.80489 251
63.825 272
63.84511 329
63.86523 337
63.88534 341
63.90545 437
63.92557 422
63.94568 458
63.96579 456
63.98591 451
64.00602 427
64.02614 364
64.04625 327
64.06636 305
64.08648 301
64.10659 309
64.1267 291
64.14682 284
64.16693 247
64.18705 202
64.20716 200
64.22727 173
64.24739 145
64.2675 146
64.28761 137
64.30773 127
64.32784 131
64.34796 137
64.36807 135
64.38818 124
64.4083 119
64.42841 120
64.44852 116
64.46864 133
64.48875 104
64.50886 115
64.52898 118
64.54909 126
64.56921 102
64.58932 114
64.60943 83
64.62955 118
64.64966 122
64.66977 103
64.68989 117
64.71 107
64.73012 119
64.75023 108
64.77034 116
64.79046 123
64.81057 122
64.83068 122
64.8508 88
64.87091 123
64.89102 103
64.91114 107
64.93125 117
64.95137 124
64.97148 119
64.99159 106
65.01171 126
65.03182 121
65.05193 94
65.07205 112
65.09216 102
65.11228 125
65.13239 112
65.1525 158
65.17262 129
65.19273 97
65.21284 119
65.23296 118
65.25307 106
65.27319 121
65.2933 123
65.31341 122
65.33353 142
65.35364 111
65.37375 117
65.39387 125
65.41398 140
65.43409 141
65.45421 136
65.47432 129
65.49444 137
65.51455 113
65.53466 150
65.55478 148
65.57489 163
65.595 170
65.61512 166
65.63523 181
65.65535 194
65.67546 215
65.69557 206
65.71569 179
65.7358 222
65.75591 206
65.77603 200
65.79614 171
65.81626 173
65.83637 161
65.85648 145
65.8766 144
65.89671 161
65.91682 165
65.93694 155
65.95705 163
65.97716 159
65.99728 135
66.01739 135
66.03751 128
66.05762 126
66.07773 132
66.09785 137
66.11796 131
66.13807 125
66.15819 113
66.1783 129
66.19842 115
66.21853 119
66.23864 106
66.25876 115
66.27887 118
66.29898 115
66.3191 128
66.33921 129
66.35933 121
66.37944 121
66.39955 117
66.41967 132
66.43978 121
66.45989 123
66.48001 114
66.50012 138
66.52023 116
66.54035 109
66.56046 122
66.58058 109
66.60069 122
66.6208 121
66.64092 134
66.66103 137
66.68114 130
66.70126 119
66.72137 131
66.74149 132
66.7616 114
66.78171 131
66.80183 147
66.82194 146
66.84205 132
66.86217 120
66.88228 142
66.90239 134
66.92251 132
66.94262 152
66.96274 165
66.98285 152
67.00296 136
67.02308 139
67.04319 148
67.0633 170
67.08342 183
67.10353 181
67.12365 154
67.14376 169
67.16387 164
67.18399 172
67.2041 179
67.22421 176
67.24433 215
67.26444 223
67.28456 222
67.30467 239
67.32478 245
67.3449 254
67.36501 296
67.38512 296
67.40524 319
67.42535 348
67.44546 390
67.46558 453
67.48569 526
67.50581 582
67.52592 649
67.54603 796
67.56615 899
67.58626 960
67.60637 1123
67.62649 1167
67.6466 1229
67.66672 1250
67.68683 1210
67.70694 1126
67.72706 1068
67.74717 950
67.76728 933
67.7874 914
67.80751 956
67.82763 982
67.84774 991
67.86785 1004
67.88797 1115
67.90808 1039
67.92819 1122
67.94831 1203
67.96842 1247
67.98853 1348
68.00865 1483
68.02876 1620
68.04888 1603
68.06899 1671
68.0891 1690
68.10922 1678
68.12933 1654
68.14944 1602
68.16956 1519
68.18967 1505
68.20979 1520
68.2299 1513
68.25001 1483
68.27013 1409
68.29024 1351
68.31035 1147
68.33047 998
68.35058 802
68.3707 697
68.39081 727
68.41092 621
68.43104 580
68.45115 528
68.47126 514
68.49138 422
68.51149 400
68.5316 294
68.55172 261
68.57183 237
68.59195 244
68.61206 198
68.63217 202
68.65229 171
68.6724 184
68.69251 175
68.71263 207
68.73274 162
68.75286 159
68.77297 182
68.79308 166
68.8132 140
68.83331 152
68.85342 145
68.87354 147
68.89365 147
68.91376 125
68.93388 138
68.95399 125
68.97411 142
68.99422 136
69.01433 143
69.03445 136
69.05456 145
69.07467 131
69.09479 122
69.1149 114
69.13502 114
69.15513 123
69.17524 117
69.19536 109
69.21547 120
69.23558 129
69.2557 121
69.27581 136
69.29593 139
69.31604 131
69.33615 114
69.35627 116
69.37638 113
69.39649 126
69.41661 123
69.43672 130
69.45683 119
69.47695 114
69.49706 114
69.51718 123
69.53729 130
69.5574 131
69.57752 110
69.59763 127
69.61774 122
69.63786 103
69.65797 110
69.67809 114
69.6982 125
69.71831 97
69.73843 132
69.75854 98
69.77865 132
69.79877 111
69.81888 125
69.839 104
69.85911 105
69.87922 103
69.89934 120
69.91945 95
69.93956 109
69.95968 116
69.97979 113
69.9999 123
70.02002 92
70.04013 111
70.06025 92
70.08036 98
70.10047 135
70.12059 98
70.1407 109
70.16081 121
70.18093 101
70.20104 114
70.22116 124
70.24127 107
70.26138 118
70.2815 110
70.30161 105
70.32172 105
70.34184 98
70.36195 113
70.38207 115
70.40218 105
70.42229 105
70.44241 132
70.46252 117
70.48263 109
70.50275 113
70.52286 113
70.54297 108
70.56309 114
70.5832 119
70.60332 125
70.62343 101
70.64354 84
70.66366 138
70.68377 117
70.70388 136
70.724 126
70.74411 89
70.76423 97
70.78434 107
70.80445 110
70.82457 117
70.84468 104
70.86479 111
70.88491 119
70.90502 106
70.92513 112
70.94525 109
70.96536 103
70.98548 100
71.00559 103
71.0257 105
71.04582 97
71.06593 120
71.08604 93
71.10616 114
71.12627 98
71.14639 100
71.1665 101
71.18661 110
71.20673 107
71.22684 104
71.24695 108
71.26707 94
71.28718 104
71.3073 102
71.32741 103
71.34752 94
71.36764 103
71.38775 111
71.40786 108
71.42798 108
71.44809 100
71.4682 104
71.48832 111
71.50843 93
71.52855 99
71.54866 95
71.56877 98
71.58889 115
71.609 99
71.62911 90
71.64923 109
71.66934 115
71.68946 108
71.70957 105
71.72968 110
71.7498 106
71.76991 119
71.79002 108
71.81014 94
71.83025 105
71.85037 107
71.87048 117
71.89059 109
71.91071 110
71.93082 99
71.95093 122
71.97105 96
71.99116 106
72.01127 90
72.03139 113
72.0515 96
72.07162 105
72.09173 103
72.11184 117
72.13196 105
72.15207 106
72.17218 104
72.1923 115
72.21241 107
72.23253 111
72.25264 104
72.27275 106
72.29287 117
72.31298 110
72.33309 101
72.35321 95
72.37332 113
72.39344 99
72.41355 112
72.43366 93
72.45378 108
72.47389 109
72.494 111
72.51412 113
72.53423 97
72.55434 95
72.57446 131
72.59457 106
72.61469 91
72.6348 112
72.65491 102
72.67503 93
72.69514 102
72.71525 124
72.73537 115
72.75548 116
72.7756 101
72.79571 90
72.81582 115
72.83594 115
72.85605 118
72.87616 120
72.89628 118
72.91639 101
72.9365 123
72.95662 120
72.97673 120
72.99685 128
73.01696 134
73.03707 131
73.05719 149
73.0773 145
73.09741 174
73.11753 168
73.13764 165
73.15776 178
73.17787 220
73.19798 215
73.2181 260
73.23821 273
73.25832 347
73.27844 309
73.29855 360
73.31867 365
73.33878 399
73.35889 439
73.37901 456
73.39912 471
73.41923 437
73.43935 470
73.45946 407
73.47957 348
73.49969 311
73.5198 282
73.53992 274
73.56003 291
73.58014 278
73.60026 321
73.62037 272
73.64048 245
73.6606 251
73.68071 213
73.70083 199
73.72094 159
73.74105 151
73.76117 127
73.78128 123
73.80139 111
73.82151 130
73.84162 130
73.86174 113
73.88185 109
73.90196 107
73.92208 112
73.94219 110
73.9623 109
73.98242 119
74.00253 110
74.02264 122
74.04276 101
74.06287 108
74.08299 113
74.1031 111
74.12321 108
74.14333 111
74.16344 111
74.18355 103
74.20367 121
74.22378 116
74.2439 107
74.26401 102
74.28412 118
74.30424 113
74.32435 97
74.34446 108
74.36458 101
74.38469 104
74.40481 92
74.42492 90
74.44503 115
74.46515 95
74.48526 111
74.50537 94
74.52549 100
74.5456 113
74.56571 86
74.58583 104
74.60594 129
74.62606 103
74.64617 106
74.66628 100
74.6864 117
74.70651 125
74.72662 98
74.74674 98
74.76685 93
74.78697 126
74.80708 114
74.82719 112
74.84731 115
74.86742 109
74.88753 117
74.90765 112
74.92776 107
74.94787 104
74.96799 113
74.9881 119
75.00822 102
