3.00117 20591
3.02128 19751
3.0414 19203
3.06151 18754
3.08162 18406
3.10174 17884
3.12185 17463
3.14197 16833
3.16208 16347
3.18219 15807
3.20231 15846
3.22242 14738
3.24253 14693
3.26265 14238
3.28276 13897
3.30288 13667
3.32299 12978
3.3431 12736
3.36322 12151
3.38333 11858
3.40344 11597
3.42356 10954
3.44367 10896
3.46379 10275
3.4839 10047
3.50401 9997
3.52413 9248
3.54424 9226
3.56435 8985
3.58447 8548
3.60458 8106
3.62469 7698
3.64481 7540
3.66492 7321
3.68504 6991
3.70515 6994
3.72526 6491
3.74538 6316
3.76549 6120
3.7856 5660
3.80572 5616
3.82583 5232
3.84595 5150
3.86606 4894
3.88617 4709
3.90629 4612
3.9264 4173
3.94651 4194
3.96663 3899
3.98674 3669
4.00686 3675
4.02697 3322
4.04708 3497
4.0672 3151
4.08731 2987
4.10742 3045
4.12754 2720
4.14765 2666
4.16776 2476
4.18788 2478
4.20799 2402
4.22811 2181
4.24822 2186
4.26833 2066
4.28845 2047
4.30856 2123
4.32867 1819
4.34879 1837
4.3689 1799
4.38902 1846
4.40913 1754
4.42924 1592
4.44936 1560
4.46947 1597
4.48958 1450
4.5097 1596
4.52981 1407
4.54992 1525
4.57004 1406
4.59015 1325
4.61027 1359
4.63038 1158
4.65049 1253
4.67061 1226
4.69072 1199
4.71083 1235
4.73095 1103
4.75106 1159
4.77118 1093
4.79129 1045
4.8114 997
4.83152 1071
4.85163 984
4.87174 991
4.89186 944
4.91197 970
4.93209 915
4.9522 826
4.97231 941
4.99243 926
5.01254 916
5.03265 824
5.05277 764
5.07288 848
5.09299 749
5.11311 789
5.13322 758
5.15334 698
5.17345 729
5.19356 705
5.21368 703
5.23379 665
5.2539 667
5.27402 648
5.29413 652
5.31425 616
5.33436 611
5.35447 620
5.37459 604
5.3947 632
5.41481 568
5.43493 591
5.45504 539
5.47516 608
5.49527 554
5.51538 534
5.5355 460
5.55561 469
5.57572 487
5.59584 486
5.61595 456
5.63606 483
5.65618 453
5.67629 410
5.69641 479
5.71652 434
5.73663 439
5.75675 473
5.77686 500
5.79697 422
5.81709 461
5.8372 428
5.85732 465
5.87743 446
5.89754 400
5.91766 412
5.93777 413
5.95788 416
5.978 381
5.99811 384
6.01823 394
6.03834 415
6.05845 380
6.07857 373
6.09868 390
6.11879 371
6.13891 388
6.15902 417
6.17913 385
6.19925 418
6.21936 372
6.23948 382
6.25959 363
6.2797 357
6.29982 353
6.31993 382
6.34004 445
6.36016 364
6.38027 314
6.40039 431
6.4205 353
6.44061 363
6.46073 371
6.48084 392
6.50095 381
6.52107 366
6.54118 319
6.56129 366
6.58141 370
6.60152 389
6.62164 376
6.64175 364
6.66186 344
6.68198 350
6.70209 351
6.7222 352
6.74232 338
6.76243 336
6.78255 348
6.80266 343
6.82277 338
6.84289 350
6.863 385
6.88311 369
6.90323 347
6.92334 319
6.94346 358
6.96357 358
6.98368 380
7.0038 345
7.02391 358
7.04402 331
7.06414 344
7.08425 341
7.10436 358
7.12448 391
7.14459 330
7.16471 352
7.18482 359
7.20493 371
7.22505 351
7.24516 368
7.26527 369
7.28539 383
7.3055 371
7.32562 373
7.34573 377
7.36584 402
7.38596 399
7.40607 372
7.42618 381
7.4463 364
7.46641 332
7.48653 395
7.50664 312
7.52675 342
7.54687 350
7.56698 343
7.58709 349
7.60721 377
7.62732 346
7.64743 352
7.66755 334
7.68766 372
7.70778 369
7.72789 355
7.748 369
7.76812 370
7.78823 357
7.80834 356
7.82846 356
7.84857 357
7.86869 339
7.8888 384
7.90891 351
7.92903 348
7.94914 322
7.96925 351
7.98937 353
8.00948 317
8.0296 325
8.04971 305
8.06982 367
8.08994 360
8.11005 352
8.13016 367
8.15028 342
8.17039 367
8.1905 327
8.21062 350
8.23073 306
8.25085 325
8.27096 352
8.29107 343
8.31119 308
8.3313 348
8.35141 327
8.37153 336
8.39164 335
8.41176 329
8.43187 353
8.45198 347
8.4721 306
8.49221 339
8.51232 338
8.53244 372
8.55255 336
8.57266 306
8.59278 351
8.61289 353
8.63301 329
8.65312 357
8.67323 331
8.69335 327
8.71346 325
8.73357 332
8.75369 358
8.7738 368
8.79392 339
8.81403 362
8.83414 364
8.85426 350
8.87437 326
8.89448 313
8.9146 334
8.93471 328
8.95483 299
8.97494 340
8.99505 350
9.01517 336
9.03528 334
9.05539 277
9.07551 315
9.09562 306
9.11573 326
9.13585 365
9.15596 328
9.17608 363
9.19619 302
9.2163 321
9.23642 338
9.25653 336
9.27664 350
9.29676 286
9.31687 322
9.33699 332
9.3571 326
9.37721 334
9.39733 308
9.41744 334
9.43755 342
9.45767 297
9.47778 308
9.4979 353
9.51801 317
9.53812 315
9.55824 324
9.57835 298
9.59846 309
9.61858 308
9.63869 302
9.6588 297
9.67892 323
9.69903 311
9.71915 311
9.73926 319
9.75937 330
9.77949 314
9.7996 365
9.81971 316
9.83983 305
9.85994 324
9.88006 299
9.90017 321
9.92028 320
9.9404 312
9.96051 324
9.98062 339
10.00074 336
10.02085 323
10.04097 340
10.06108 313
10.08119 338
10.10131 340
10.12142 310
10.14153 345
10.16165 315
10.18176 320
10.20187 287
10.22199 328
10.2421 303
10.26222 339
10.28233 300
10.30244 306
10.32256 298
10.34267 326
10.36278 322
10.3829 326
10.40301 341
10.42313 293
10.44324 313
10.46335 348
10.48347 313
10.50358 321
10.52369 348
10.54381 318
10.56392 308
10.58403 322
10.60415 323
10.62426 287
10.64438 315
10.66449 317
10.6846 348
10.70472 337
10.72483 306
10.74494 339
10.76506 334
10.78517 347
10.80529 341
10.8254 323
10.84551 316
10.86563 375
10.88574 346
10.90585 337
10.92597 311
10.94608 320
10.9662 330
10.98631 337
11.00642 339
11.02654 365
11.04665 332
11.06676 367
11.08688 338
11.10699 347
11.1271 360
11.14722 387
11.16733 382
11.18745 335
11.20756 336
11.22767 331
11.24779 362
11.2679 330
11.28801 384
11.30813 332
11.32824 357
11.34836 345
11.36847 362
11.38858 336
11.4087 318
11.42881 366
11.44892 359
11.46904 339
11.48915 367
11.50927 372
11.52938 384
11.54949 377
11.56961 396
11.58972 403
11.60983 378
11.62995 393
11.65006 381
11.67017 363
11.69029 424
11.7104 400
11.73052 456
11.75063 441
11.77074 421
11.79086 452
11.81097 444
11.83108 439
11.8512 501
11.87131 461
11.89143 463
11.91154 521
11.93165 529
11.95177 505
11.97188 512
11.99199 567
12.01211 534
12.03222 579
12.05234 562
12.07245 567
12.09256 664
12.11268 594
12.13279 685
12.1529 700
12.17302 760
12.19313 755
12.21324 750
12.23336 758
12.25347 749
12.27359 733
12.2937 744
12.31381 759
12.33393 709
12.35404 733
12.37415 707
12.39427 683
12.41438 647
12.4345 629
12.45461 633
12.47472 595
12.49484 627
12.51495 529
12.53506 510
12.55518 451
12.57529 484
12.5954 486
12.61552 468
12.63563 454
12.65575 431
12.67586 433
12.69597 361
12.71609 377
12.7362 387
12.75631 377
12.77643 357
12.79654 373
12.81666 364
12.83677 350
12.85688 359
12.877 329
12.89711 388
12.91722 329
12.93734 328
12.95745 304
12.97757 315
12.99768 312
13.01779 395
13.03791 350
13.05802 357
13.07813 327
13.09825 335
13.11836 334
13.13847 334
13.15859 321
13.1787 363
13.19882 314
13.21893 290
13.23904 268
13.25916 336
13.27927 301
13.29938 329
13.3195 317
13.33961 321
13.35973 319
13.37984 321
13.39995 291
13.42007 295
13.44018 326
13.46029 319
13.48041 303
13.50052 314
13.52064 364
13.54075 338
13.56086 332
13.58098 365
13.60109 347
13.6212 365
13.64132 341
13.66143 318
13.68154 328
13.70166 324
13.72177 322
13.74189 313
13.762 248
13.78211 285
13.80223 294
13.82234 286
13.84245 279
13.86257 268
13.88268 300
13.9028 302
13.92291 305
13.94302 325
13.96314 269
13.98325 283
14.00336 303
14.02348 274
14.04359 288
14.06371 291
14.08382 299
14.10393 268
14.12405 309
14.14416 277
14.16427 285
14.18439 258
14.2045 294
14.22461 275
14.24473 292
14.26484 268
14.28496 273
14.30507 261
14.32518 296
14.3453 267
14.36541 293
14.38552 293
14.40564 276
14.42575 285
14.44587 271
14.46598 282
14.48609 267
14.50621 262
14.52632 262
14.54643 299
14.56655 256
14.58666 292
14.60677 275
14.62689 269
14.647 260
14.66712 249
14.68723 262
14.70734 295
14.72746 286
14.74757 300
14.76768 255
14.7878 301
14.80791 298
14.82803 274
14.84814 323
14.86825 314
14.88837 360
14.90848 316
14.92859 293
14.94871 268
14.96882 287
14.98894 297
15.00905 299
15.02916 293
15.04928 308
15.06939 329
15.0895 265
15.10962 282
15.12973 275
15.14984 313
15.16996 279
15.19007 260
15.21019 281
15.2303 264
15.25041 291
15.27053 271
15.29064 272
15.31075 273
15.33087 284
15.35098 289
15.3711 282
15.39121 300
15.41132 293
15.43144 295
15.45155 325
15.47166 293
15.49178 313
15.51189 299
15.53201 275
15.55212 296
15.57223 321
15.59235 312
15.61246 280
15.63257 290
15.65269 293
15.6728 271
15.69291 294
15.71303 269
15.73314 276
15.75326 277
15.77337 273
15.79348 277
15.8136 260
15.83371 287
15.85382 262
15.87394 263
15.89405 241
15.91417 267
15.93428 286
15.95439 287
15.97451 270
15.99462 281
16.01473 283
16.03485 283
16.05496 306
16.07508 298
16.09519 258
16.1153 278
16.13542 269
16.15553 289
16.17564 277
16.19576 238
16.21587 274
16.23598 287
16.2561 279
16.27621 271
16.29633 272
16.31644 253
16.33655 248
16.35667 286
16.37678 253
16.39689 248
16.41701 280
16.43712 278
16.45724 290
16.47735 272
16.49746 267
16.51758 305
16.53769 278
16.5578 275
16.57792 268
16.59803 250
16.61814 251
16.63826 285
16.65837 261
16.67849 269
16.6986 270
16.71871 234
16.73883 274
16.75894 267
16.77905 246
16.79917 278
16.81928 263
16.8394 261
16.85951 285
16.87962 291
16.89974 279
16.91985 246
16.93996 264
16.96008 314
16.98019 287
17.00031 279
17.02042 272
17.04053 275
17.06065 287
17.08076 279
17.10087 268
17.12099 296
17.1411 268
17.16121 280
17.18133 278
17.20144 240
17.22156 272
17.24167 302
17.26178 253
17.2819 264
17.30201 244
17.32212 262
17.34224 247
17.36235 298
17.38247 290
17.40258 259
17.42269 246
17.44281 273
17.46292 289
17.48303 248
17.50315 277
17.52326 264
17.54338 269
17.56349 306
17.5836 275
17.60372 263
17.62383 307
17.64394 272
17.66406 278
17.68417 246
17.70428 273
17.7244 282
17.74451 279
17.76463 283
17.78474 271
17.80485 279
17.82497 285
17.84508 257
17.86519 270
17.88531 266
17.90542 283
17.92554 272
17.94565 296
17.96576 302
17.98588 319
18.00599 295
18.0261 303
18.04622 280
18.06633 311
18.08645 265
18.10656 312
18.12667 305
18.14679 332
18.1669 304
18.18701 287
18.20713 323
18.22724 326
18.24735 353
18.26747 301
18.28758 296
18.3077 343
18.32781 314
18.34792 326
18.36804 291
18.38815 315
18.40826 324
18.42838 284
18.44849 288
18.46861 334
18.48872 273
18.50883 272
18.52895 285
18.54906 274
18.56917 288
18.58929 287
18.6094 261
18.62951 278
18.64963 264
18.66974 290
18.68986 294
18.70997 265
18.73008 303
18.7502 279
18.77031 258
18.79042 291
18.81054 299
18.83065 291
18.85077 291
18.87088 284
18.89099 278
18.91111 306
18.93122 294
18.95133 304
18.97145 290
18.99156 329
19.01168 299
19.03179 317
19.0519 274
19.07202 309
19.09213 315
19.11224 306
19.13236 315
19.15247 311
19.17258 324
19.1927 317
19.21281 337
19.23293 353
19.25304 330
19.27315 327
19.29327 333
19.31338 341
19.33349 318
19.35361 341
19.37372 406
19.39384 345
19.41395 347
19.43406 348
19.45418 359
19.47429 392
19.4944 378
19.51452 370
19.53463 373
19.55475 377
19.57486 413
19.59497 429
19.61509 440
19.6352 450
19.65531 446
19.67543 495
19.69554 531
19.71565 528
19.73577 604
19.75588 632
19.776 620
19.79611 630
19.81622 663
19.83634 710
19.85645 682
19.87656 683
19.89668 709
19.91679 713
19.93691 735
19.95702 709
19.97713 712
19.99725 707
20.01736 697
20.03747 718
20.05759 667
20.0777 673
20.09782 625
20.11793 678
20.13804 640
20.15816 699
20.17827 621
20.19838 668
20.2185 672
20.23861 644
20.25872 700
20.27884 657
20.29895 713
20.31907 698
20.33918 712
20.35929 670
20.37941 677
20.39952 677
20.41963 722
20.43975 721
20.45986 719
20.47998 671
20.50009 692
20.5202 755
20.54032 785
20.56043 826
20.58054 812
20.60066 934
20.62077 935
20.64088 1026
20.661 1142
20.68111 1312
20.70123 1426
20.72134 1649
20.74145 1759
20.76157 1942
20.78168 2061
20.80179 2273
20.82191 2372
20.84202 2359
20.86214 2165
20.88225 2000
20.90236 1707
20.92248 1502
20.94259 1338
20.9627 1134
20.98282 1068
21.00293 1029
21.02305 936
21.04316 932
21.06327 796
21.08339 793
21.1035 773
21.12361 781
21.14373 716
21.16384 714
21.18395 654
21.20407 637
21.22418 698
21.2443 646
21.26441 596
21.28452 610
21.30464 669
21.32475 589
21.34486 624
21.36498 672
21.38509 644
21.40521 554
21.42532 598
21.44543 589
21.46555 551
21.48566 579
21.50577 562
21.52589 586
21.546 545
21.56612 515
21.58623 550
21.60634 538
21.62646 538
21.64657 559
21.66668 486
21.6868 523
21.70691 523
21.72702 492
21.74714 558
21.76725 499
21.78737 557
21.80748 527
21.82759 482
21.84771 519
21.86782 504
21.88793 478
21.90805 499
21.92816 513
21.94828 489
21.96839 502
21.9885 510
22.00862 491
22.02873 500
22.04884 499
22.06896 468
22.08907 454
22.10919 476
22.1293 468
22.14941 520
22.16953 469
22.18964 476
22.20975 499
22.22987 541
22.24998 572
22.27009 490
22.29021 505
22.31032 487
22.33044 466
22.35055 513
22.37066 468
22.39078 444
22.41089 495
22.431 502
22.45112 473
22.47123 487
22.49135 422
22.51146 473
22.53157 478
22.55169 456
22.5718 434
22.59191 484
22.61203 488
22.63214 445
22.65225 489
22.67237 468
22.69248 455
22.7126 413
22.73271 424
22.75282 454
22.77294 430
22.79305 436
22.81316 441
22.83328 455
22.85339 422
22.87351 445
22.89362 472
22.91373 469
22.93385 472
22.95396 420
22.97407 427
22.99419 462
23.0143 491
23.03442 518
23.05453 551
23.07464 535
23.09476 532
23.11487 495
23.13498 548
23.1551 581
23.17521 557
23.19532 575
23.21544 528
23.23555 521
23.25567 445
23.27578 482
23.29589 454
23.31601 395
23.33612 438
23.35623 408
23.37635 443
23.39646 450
23.41658 428
23.43669 425
23.4568 407
23.47692 410
23.49703 386
23.51714 410
23.53726 408
23.55737 430
23.57749 444
23.5976 422
23.61771 407
23.63783 391
23.65794 430
23.67805 432
23.69817 475
23.71828 444
23.73839 446
23.75851 438
23.77862 465
23.79874 467
23.81885 506
23.83896 499
23.85908 542
23.87919 581
23.8993 570
23.91942 603
23.93953 603
23.95965 594
23.97976 612
23.99987 563
24.01999 567
24.0401 570
24.06021 513
24.08033 515
24.10044 521
24.12056 424
24.14067 481
24.16078 495
24.1809 461
24.20101 494
24.22112 531
24.24124 566
24.26135 508
24.28146 529
24.30158 519
24.32169 497
24.34181 572
24.36192 566
24.38203 553
24.40215 559
24.42226 532
24.44237 509
24.46249 524
24.4826 564
24.50272 578
24.52283 577
24.54294 620
24.56306 581
24.58317 627
24.60328 629
24.6234 694
24.64351 685
24.66362 644
24.68374 665
24.70385 725
24.72397 687
24.74408 681
24.76419 727
24.78431 702
24.80442 737
24.82453 780
24.84465 754
24.86476 727
24.88488 701
24.90499 732
24.9251 705
24.94522 682
24.96533 732
24.98544 629
25.00556 638
25.02567 633
25.04579 632
25.0659 594
25.08601 613
25.10613 597
25.12624 562
25.14635 574
25.16647 567
25.18658 603
25.20669 567
25.22681 549
25.24692 589
25.26704 577
25.28715 528
25.30726 615
25.32738 518
25.34749 581
25.3676 608
25.38772 602
25.40783 612
25.42795 630
25.44806 667
25.46817 623
25.48829 685
25.5084 639
25.52851 606
25.54863 678
25.56874 602
25.58886 666
25.60897 619
25.62908 608
25.6492 556
25.66931 593
25.68942 584
25.70954 581
25.72965 526
25.74976 482
25.76988 514
25.78999 546
25.81011 496
25.83022 522
25.85033 505
25.87045 563
25.89056 536
25.91067 494
25.93079 521
25.9509 499
25.97102 515
25.99113 512
26.01124 533
26.03136 614
26.05147 570
26.07158 562
26.0917 578
26.11181 635
26.13193 718
26.15204 708
26.17215 779
26.19227 814
26.21238 897
26.23249 978
26.25261 1124
26.27272 1271
26.29283 1335
26.31295 1552
26.33306 1893
26.35318 2293
26.37329 2533
26.3934 2837
26.41352 3237
26.43363 3844
26.45374 4342
26.47386 4993
26.49397 5747
26.51409 6611
26.5342 7338
26.55431 7853
26.57443 8113
26.59454 8388
26.61465 8089
26.63477 7160
26.65488 6479
26.67499 5259
26.69511 4326
26.71522 3329
26.73534 2572
26.75545 1936
26.77556 1552
26.79568 1334
26.81579 1120
26.8359 953
26.85602 877
26.87613 866
26.89625 848
26.91636 836
26.93647 865
26.95659 800
26.9767 745
26.99681 830
27.01693 822
27.03704 748
27.05716 752
27.07727 749
27.09738 749
27.1175 660
27.13761 681
27.15772 660
27.17784 661
27.19795 678
27.21806 738
27.23818 724
27.25829 811
27.27841 795
27.29852 857
27.31863 878
27.33875 971
27.35886 1029
27.37897 957
27.39909 973
27.4192 1040
27.43932 936
27.45943 920
27.47954 767
27.49966 842
27.51977 694
27.53988 623
27.56 592
27.58011 462
27.60023 458
27.62034 467
27.64045 453
27.66057 443
27.68068 426
27.70079 436
27.72091 409
27.74102 390
27.76113 403
27.78125 391
27.80136 382
27.82148 366
27.84159 361
27.8617 416
27.88182 377
27.90193 414
27.92204 386
27.94216 393
27.96227 380
27.98239 367
28.0025 376
28.02261 385
28.04273 337
28.06284 367
28.08295 353
28.10307 362
28.12318 373
28.1433 345
28.16341 367
28.18352 365
28.20364 348
28.22375 344
28.24386 360
28.26398 373
28.28409 354
28.3042 344
28.32432 340
28.34443 366
28.36455 383
28.38466 400
28.40477 349
28.42489 348
28.445 347
28.46511 341
28.48523 334
28.50534 338
28.52546 346
28.54557 366
28.56568 395
28.5858 362
28.60591 363
28.62602 363
28.64614 344
28.66625 371
28.68636 381
28.70648 322
28.72659 371
28.74671 335
28.76682 345
28.78693 341
28.80705 364
28.82716 328
28.84727 372
28.86739 344
28.8875 354
28.90762 314
28.92773 389
28.94784 358
28.96796 357
28.98807 382
29.00818 305
29.0283 363
29.04841 371
29.06853 378
29.08864 345
29.10875 364
29.12887 341
29.14898 343
29.16909 379
29.18921 359
29.20932 358
29.22943 352
29.24955 382
29.26966 398
29.28978 403
29.30989 381
29.33 401
29.35012 395
29.37023 428
29.39034 403
29.41046 395
29.43057 411
29.45069 389
29.4708 392
29.49091 374
29.51103 377
29.53114 355
29.55125 379
29.57137 358
29.59148 350
29.6116 365
29.63171 354
29.65182 355
29.67194 388
29.69205 362
29.71216 321
29.73228 356
29.75239 368
29.7725 347
29.79262 332
29.81273 371
29.83285 365
29.85296 352
29.87307 378
29.89319 364
29.9133 393
29.93341 349
29.95353 383
29.97364 402
29.99376 388
30.01387 370
30.03398 391
30.0541 417
30.07421 439
30.09432 420
30.11444 460
30.13455 456
30.15467 481
30.17478 458
30.19489 417
30.21501 430
30.23512 453
30.25523 438
30.27535 404
30.29546 400
30.31557 376
30.33569 346
30.3558 368
30.37592 340
30.39603 324
30.41614 374
30.43626 357
30.45637 344
30.47648 352
30.4966 371
30.51671 367
30.53683 379
30.55694 365
30.57705 402
30.59717 370
30.61728 406
30.63739 396
30.65751 420
30.67762 476
30.69773 450
30.71785 418
30.73796 456
30.75808 421
30.77819 463
30.7983 441
30.81842 403
30.83853 382
30.85864 406
30.87876 397
30.89887 373
30.91899 347
30.9391 332
30.95921 350
30.97933 304
30.99944 321
31.01955 321
31.03967 345
31.05978 317
31.0799 327
31.10001 320
31.12012 280
31.14024 310
31.16035 309
31.18046 272
31.20058 275
31.22069 289
31.2408 300
31.26092 325
31.28103 288
31.30115 295
31.32126 306
31.34137 304
31.36149 296
31.3816 318
31.40171 337
31.42183 313
31.44194 327
31.46206 302
31.48217 315
31.50228 302
31.5224 306
31.54251 305
31.56262 321
31.58274 290
31.60285 305
31.62297 308
31.64308 324
31.66319 297
31.68331 307
31.70342 292
31.72353 313
31.74365 268
31.76376 300
31.78387 320
31.80399 303
31.8241 313
31.84422 320
31.86433 313
31.88444 308
31.90456 314
31.92467 326
31.94478 326
31.9649 314
31.98501 347
32.00513 322
32.02524 335
32.04535 342
32.06547 358
32.08558 365
32.10569 378
32.12581 339
32.14592 334
32.16604 324
32.18615 333
32.20626 337
32.22638 342
32.24649 337
32.2666 348
32.28672 364
32.30683 383
32.32694 346
32.34706 341
32.36717 374
32.38729 333
32.4074 355
32.42751 343
32.44763 339
32.46774 365
32.48785 314
32.50797 370
32.52808 299
32.5482 346
32.56831 340
32.58842 320
32.60854 297
32.62865 299
32.64876 299
32.66888 304
32.68899 337
32.7091 307
32.72922 307
32.74933 288
32.76945 285
32.78956 295
32.80967 315
32.82979 347
32.8499 319
32.87001 317
32.89013 351
32.91024 315
32.93036 337
32.95047 346
32.97058 316
32.9907 322
33.01081 273
33.03092 329
33.05104 331
33.07115 336
33.09127 312
33.11138 305
33.13149 314
33.15161 307
33.17172 347
33.19183 330
33.21195 320
33.23206 352
33.25217 298
33.27229 346
33.2924 305
33.31252 336
33.33263 305
33.35274 316
33.37286 336
33.39297 331
33.41308 303
33.4332 357
33.45331 339
33.47343 297
33.49354 336
33.51365 362
33.53377 296
33.55388 335
33.57399 351
33.59411 342
33.61422 330
33.63434 337
33.65445 303
33.67456 337
33.69468 348
33.71479 358
33.7349 323
33.75502 329
33.77513 402
33.79524 359
33.81536 348
33.83547 397
33.85559 376
33.8757 397
33.89581 373
33.91593 345
33.93604 374
33.95615 380
33.97627 385
33.99638 394
34.0165 449
34.03661 443
34.05672 414
34.07684 439
34.09695 431
34.11706 444
34.13718 469
34.15729 448
34.17741 440
34.19752 453
34.21763 424
34.23775 423
34.25786 410
34.27797 406
34.29809 395
34.3182 374
34.33831 410
34.35843 393
34.37854 389
34.39866 379
34.41877 431
34.43888 374
34.459 372
34.47911 374
34.49922 443
34.51934 409
34.53945 437
34.55957 441
34.57968 384
34.59979 460
34.61991 453
34.64002 465
34.66013 491
34.68025 461
34.70036 486
34.72047 487
34.74059 557
34.7607 532
34.78082 509
34.80093 546
34.82104 551
34.84116 537
34.86127 558
34.88138 588
34.9015 612
34.92161 588
34.94173 619
34.96184 522
34.98195 559
35.00207 549
35.02218 557
35.04229 524
35.06241 556
35.08252 568
35.10264 553
35.12275 534
35.14286 554
35.16298 522
35.18309 529
35.2032 485
35.22332 508
35.24343 529
35.26354 565
35.28366 497
35.30377 530
35.32389 532
35.344 499
35.36411 536
35.38423 506
35.40434 541
35.42445 587
35.44457 548
35.46468 569
35.4848 594
35.50491 568
35.52502 583
35.54514 604
35.56525 594
35.58536 560
35.60548 579
35.62559 576
35.64571 568
35.66582 532
35.68593 541
35.70605 528
35.72616 538
35.74627 531
35.76639 541
35.7865 447
35.80661 476
35.82673 496
35.84684 536
35.86696 533
35.88707 505
35.90718 517
35.9273 499
35.94741 510
35.96752 553
35.98764 495
36.00775 439
36.02787 521
36.04798 501
36.06809 473
36.08821 496
36.10832 457
36.12843 500
36.14855 465
36.16866 453
36.18878 482
36.20889 501
36.229 478
36.24912 570
36.26923 549
36.28934 611
36.30946 596
36.32957 656
36.34968 647
36.3698 728
36.38991 709
36.41003 834
36.43014 885
36.45025 874
36.47037 903
36.49048 921
36.51059 940
36.53071 840
36.55082 901
36.57094 716
36.59105 614
36.61116 627
36.63128 587
36.65139 545
36.6715 541
36.69162 470
36.71173 492
36.73184 449
36.75196 447
36.77207 470
36.79219 494
36.8123 485
36.83241 464
36.85253 503
36.87264 496
36.89275 496
36.91287 449
36.93298 477
36.9531 469
36.97321 449
36.99332 457
37.01344 433
37.03355 479
37.05366 471
37.07378 433
37.09389 455
37.11401 428
37.13412 455
37.15423 462
37.17435 415
37.19446 427
37.21457 426
37.23469 417
37.2548 432
37.27491 403
37.29503 439
37.31514 404
37.33526 445
37.35537 416
37.37548 436
37.3956 451
37.41571 421
37.43582 431
37.45594 490
37.47605 463
37.49617 477
37.51628 418
37.53639 463
37.55651 432
37.57662 444
37.59673 486
37.61685 446
37.63696 468
37.65708 432
37.67719 458
37.6973 456
37.71742 458
37.73753 443
37.75764 440
37.77776 427
37.79787 457
37.81798 438
37.8381 439
37.85821 424
37.87833 434
37.89844 454
37.91855 456
37.93867 418
37.95878 438
37.97889 443
37.99901 443
38.01912 467
38.03924 487
38.05935 490
38.07946 478
38.09958 507
38.11969 504
38.1398 476
38.15992 482
38.18003 534
38.20015 512
38.22026 499
38.24037 535
38.26049 578
38.2806 544
38.30071 552
38.32083 523
38.34094 561
38.36105 549
38.38117 537
38.40128 612
38.4214 577
38.44151 596
38.46162 542
38.48174 571
38.50185 576
38.52196 526
38.54208 554
38.56219 537
38.58231 482
38.60242 476
38.62253 477
38.64265 467
38.66276 475
38.68287 477
38.70299 416
38.7231 438
38.74321 498
38.76333 458
38.78344 457
38.80356 454
38.82367 417
38.84378 405
38.8639 393
38.88401 461
38.90412 409
38.92424 458
38.94435 435
38.96447 446
38.98458 427
39.00469 482
39.02481 524
39.04492 479
39.06503 531
39.08515 529
39.10526 512
39.12538 547
39.14549 559
39.1656 584
39.18572 641
39.20583 620
39.22594 620
39.24606 632
39.26617 753
39.28628 711
39.3064 733
39.32651 784
39.34663 846
39.36674 871
39.38685 817
39.40697 894
39.42708 914
39.44719 831
39.46731 809
39.48742 689
39.50754 641
39.52765 593
39.54776 598
39.56788 493
39.58799 501
39.6081 433
39.62822 409
39.64833 436
39.66845 372
39.68856 381
39.70867 392
39.72879 381
39.7489 353
39.76901 382
39.78913 339
39.80924 349
39.82935 397
39.84947 383
39.86958 400
39.8897 372
39.90981 383
39.92992 395
39.95004 394
39.97015 386
39.99026 419
40.01038 461
40.03049 428
40.05061 440
40.07072 467
40.09083 484
40.11095 460
40.13106 556
40.15117 546
40.17129 575
40.1914 576
40.21152 599
40.23163 608
40.25174 559
40.27186 536
40.29197 527
40.31208 549
40.3322 506
40.35231 426
40.37242 477
40.39254 417
40.41265 412
40.43277 398
40.45288 364
40.47299 390
40.49311 377
40.51322 365
40.53333 393
40.55345 318
40.57356 405
40.59368 354
40.61379 347
40.6339 356
40.65402 344
40.67413 320
40.69424 346
40.71436 366
40.73447 389
40.75458 354
40.7747 326
40.79481 295
40.81493 357
40.83504 351
40.85515 369
40.87527 384
40.89538 389
40.91549 396
40.93561 337
40.95572 357
40.97584 371
40.99595 364
41.01606 358
41.03618 317
41.05629 385
41.0764 368
41.09652 333
41.11663 376
41.13675 365
41.15686 342
41.17697 342
41.19709 348
41.2172 364
41.23731 362
41.25743 366
41.27754 366
41.29765 359
41.31777 362
41.33788 387
41.358 366
41.37811 348
41.39822 377
41.41834 382
41.43845 322
41.45856 354
41.47868 368
41.49879 372
41.51891 384
41.53902 398
41.55913 396
41.57925 394
41.59936 434
41.61947 405
41.63959 430
41.6597 438
41.67982 437
41.69993 434
41.72004 420
41.74016 445
41.76027 420
41.78038 455
41.8005 419
41.82061 413
41.84072 420
41.86084 397
41.88095 395
41.90107 374
41.92118 381
41.94129 352
41.96141 332
41.98152 361
42.00163 319
42.02175 370
42.04186 329
42.06198 373
42.08209 367
42.1022 366
42.12232 366
42.14243 388
42.16254 370
42.18266 450
42.20277 483
42.22289 432
42.243 485
42.26311 558
42.28323 513
42.30334 563
42.32345 575
42.34357 623
42.36368 610
42.38379 619
42.40391 619
42.42402 608
42.44414 616
42.46425 532
42.48436 520
42.50448 475
42.52459 464
42.5447 446
42.56482 397
42.58493 409
42.60505 402
42.62516 354
42.64527 350
42.66539 318
42.6855 371
42.70561 353
42.72573 323
42.74584 343
42.76595 322
42.78607 299
42.80618 324
42.8263 317
42.84641 334
42.86652 302
42.88664 333
42.90675 304
42.92686 301
42.94698 300
42.96709 291
42.98721 302
43.00732 301
43.02743 283
43.04755 298
43.06766 296
43.08777 304
43.10789 293
43.128 293
43.14812 339
43.16823 295
43.18834 273
43.20846 286
43.22857 264
43.24868 259
43.2688 287
43.28891 282
43.30902 295
43.32914 293
43.34925 288
43.36937 303
43.38948 313
43.40959 311
43.42971 322
43.44982 321
43.46993 312
43.49005 261
43.51016 299
43.53028 284
43.55039 299
43.5705 293
43.59062 292
43.61073 286
43.63084 291
43.65096 288
43.67107 291
43.69119 297
43.7113 286
43.73141 291
43.75153 259
43.77164 275
43.79175 280
43.81187 321
43.83198 282
43.85209 279
43.87221 296
43.89232 285
43.91244 293
43.93255 298
43.95266 279
43.97278 319
43.99289 308
44.013 309
44.03312 268
44.05323 291
44.07335 269
44.09346 290
44.11357 311
44.13369 302
44.1538 316
44.17391 331
44.19403 323
44.21414 295
44.23426 313
44.25437 335
44.27448 291
44.2946 333
44.31471 293
44.33482 305
44.35494 297
44.37505 280
44.39516 307
44.41528 300
44.43539 302
44.45551 307
44.47562 309
44.49573 297
44.51585 350
44.53596 331
44.55607 327
44.57619 293
44.5963 315
44.61642 319
44.63653 343
44.65664 305
44.67676 290
44.69687 282
44.71698 287
44.7371 321
44.75721 330
44.77732 289
44.79744 305
44.81755 317
44.83767 297
44.85778 305
44.87789 295
44.89801 322
44.91812 308
44.93823 307
44.95835 348
44.97846 312
44.99858 350
45.01869 315
45.0388 341
45.05892 345
45.07903 349
45.09914 324
45.11926 307
45.13937 360
45.15949 336
45.1796 346
45.19971 365
45.21983 366
45.23994 363
45.26005 347
45.28017 391
45.30028 384
45.32039 396
45.34051 370
45.36062 395
45.38074 427
45.40085 405
45.42096 426
45.44108 416
45.46119 430
45.4813 454
45.50142 449
45.52153 499
45.54165 498
45.56176 470
45.58187 455
45.60199 526
45.6221 497
45.64221 499
45.66233 584
45.68244 567
45.70256 561
45.72267 595
45.74278 531
45.7629 575
45.78301 521
45.80312 522
45.82324 470
45.84335 437
45.86346 465
45.88358 395
45.90369 438
45.92381 374
45.94392 346
45.96403 363
45.98415 321
46.00426 314
46.02437 353
46.04449 339
46.0646 332
46.08472 313
46.10483 317
46.12494 294
46.14506 331
46.16517 310
46.18528 324
46.2054 330
46.22551 314
46.24563 314
46.26574 314
46.28585 338
46.30597 303
46.32608 304
46.34619 338
46.36631 307
46.38642 318
46.40653 305
46.42665 290
46.44676 310
46.46688 306
46.48699 289
46.5071 309
46.52722 350
46.54733 340
46.56744 309
46.58756 302
46.60767 283
46.62779 293
46.6479 324
46.66801 275
46.68813 315
46.70824 308
46.72835 340
46.74847 323
46.76858 314
46.78869 303
46.80881 332
46.82892 315
46.84904 337
46.86915 333
46.88926 326
46.90938 312
46.92949 336
46.9496 289
46.96972 301
46.98983 355
47.00995 324
47.03006 353
47.05017 362
47.07029 362
47.0904 309
47.11051 349
47.13063 286
47.15074 369
47.17086 329
47.19097 311
47.21108 310
47.2312 340
47.25131 323
47.27142 362
47.29154 331
47.31165 350
47.33176 339
47.35188 318
47.37199 314
47.39211 337
47.41222 335
47.43233 299
47.45245 330
47.47256 364
47.49267 348
47.51279 305
47.5329 348
47.55302 325
47.57313 319
47.59324 303
47.61336 350
47.63347 313
47.65358 327
47.6737 339
47.69381 343
47.71393 348
47.73404 323
47.75415 302
47.77427 322
47.79438 349
47.81449 308
47.83461 333
47.85472 313
47.87483 306
47.89495 317
47.91506 308
47.93518 325
47.95529 328
47.9754 341
47.99552 293
48.01563 338
48.03574 303
48.05586 301
48.07597 305
48.09609 287
48.1162 297
48.13631 321
48.15643 288
48.17654 309
48.19665 311
48.21677 300
48.23688 294
48.257 313
48.27711 287
48.29722 301
48.31734 302
48.33745 304
48.35756 313
48.37768 286
48.39779 306
48.4179 319
48.43802 273
48.45813 292
48.47825 307
48.49836 323
48.51847 318
48.53859 301
48.5587 295
48.57881 278
48.59893 318
48.61904 269
48.63916 297
48.65927 295
48.67938 339
48.6995 326
48.71961 315
48.73972 344
48.75984 361
48.77995 319
48.80006 312
48.82018 319
48.84029 303
48.86041 328
48.88052 325
48.90063 327
48.92075 309
48.94086 293
48.96097 337
48.98109 331
49.0012 323
49.02132 315
49.04143 305
49.06154 274
49.08166 332
49.10177 291
49.12188 344
49.142 325
49.16211 330
49.18223 312
49.20234 325
49.22245 306
49.24257 298
49.26268 293
49.28279 279
49.30291 308
49.32302 302
49.34313 308
49.36325 304
49.38336 281
49.40348 324
49.42359 327
49.4437 304
49.46382 317
49.48393 337
49.50404 327
49.52416 345
49.54427 325
49.56439 316
49.5845 345
49.60461 332
49.62473 357
49.64484 378
49.66495 372
49.68507 405
49.70518 473
49.7253 410
49.74541 463
49.76552 445
49.78564 505
49.80575 451
49.82586 580
49.84598 552
49.86609 618
49.8862 714
49.90632 709
49.92643 808
49.94655 841
49.96666 897
49.98677 1044
50.00689 1028
50.027 1097
50.04711 1060
50.06723 1161
50.08734 1098
50.10746 1027
50.12757 1037
50.14768 962
50.1678 882
50.18791 794
50.20802 763
50.22814 672
50.24825 642
50.26837 593
50.28848 526
50.30859 494
50.32871 474
50.34882 407
50.36893 458
50.38905 387
50.40916 472
50.42927 443
50.44939 409
50.4695 413
50.48962 407
50.50973 402
50.52984 392
50.54996 427
50.57007 404
50.59018 421
50.6103 405
50.63041 401
50.65053 355
50.67064 373
50.69075 392
50.71087 381
50.73098 369
50.75109 342
50.77121 347
50.79132 370
50.81143 340
50.83155 346
50.85166 375
50.87178 328
50.89189 318
50.912 327
50.93212 319
50.95223 300
50.97234 299
50.99246 310
51.01257 300
51.03269 305
51.0528 312
51.07291 277
51.09303 320
51.11314 283
51.13325 322
51.15337 292
51.17348 309
51.1936 297
51.21371 289
51.23382 295
51.25394 274
51.27405 287
51.29416 306
51.31428 317
51.33439 310
51.3545 265
51.37462 257
51.39473 274
51.41485 282
51.43496 261
51.45507 276
51.47519 268
51.4953 285
51.51541 268
51.53553 278
51.55564 271
51.57576 257
51.59587 275
51.61598 263
51.6361 271
51.65621 307
51.67632 274
51.69644 280
51.71655 250
51.73667 263
51.75678 273
51.77689 264
51.79701 273
51.81712 236
51.83723 269
51.85735 263
51.87746 268
51.89757 263
51.91769 277
51.9378 261
51.95792 264
51.97803 264
51.99814 281
52.01826 279
52.03837 284
52.05848 275
52.0786 270
52.09871 273
52.11883 305
52.13894 254
52.15905 308
52.17917 246
52.19928 274
52.21939 255
52.23951 296
52.25962 269
52.27974 303
52.29985 276
52.31996 297
52.34008 257
52.36019 304
52.3803 287
52.40042 278
52.42053 290
52.44064 258
52.46076 305
52.48087 275
52.50099 324
52.5211 313
52.54121 299
52.56133 322
52.58144 291
52.60155 350
52.62167 303
52.64178 280
52.6619 292
52.68201 276
52.70212 282
52.72224 310
52.74235 315
52.76246 293
52.78258 278
52.80269 282
52.8228 294
52.84292 298
52.86303 281
52.88315 285
52.90326 271
52.92337 279
52.94349 295
52.9636 297
52.98371 283
53.00383 320
53.02394 294
53.04406 348
53.06417 288
53.08428 307
53.1044 308
53.12451 284
53.14462 297
53.16474 288
53.18485 294
53.20497 301
53.22508 291
53.24519 288
53.26531 301
53.28542 305
53.30553 307
53.32565 299
53.34576 301
53.36587 286
53.38599 300
53.4061 291
53.42622 303
53.44633 332
53.46644 330
53.48656 342
53.50667 322
53.52678 320
53.5469 338
53.56701 326
53.58713 308
53.60724 317
53.62735 332
53.64747 312
53.66758 312
53.68769 340
53.70781 317
53.72792 326
53.74804 328
53.76815 359
53.78826 348
53.80838 336
53.82849 344
53.8486 333
53.86872 295
53.88883 345
53.90894 321
53.92906 334
53.94917 331
53.96929 367
53.9894 323
54.00951 333
54.02963 354
54.04974 342
54.06985 332
54.08997 361
54.11008 363
54.1302 331
54.15031 336
54.17042 378
54.19054 384
54.21065 363
54.23076 378
54.25088 391
54.27099 401
54.29111 363
54.31122 422
54.33133 386
54.35145 401
54.37156 376
54.39167 387
54.41179 401
54.4319 442
54.45201 394
54.47213 409
54.49224 403
54.51236 451
54.53247 460
54.55258 440
54.5727 452
54.59281 455
54.61292 499
54.63304 527
54.65315 518
54.67327 522
54.69338 574
54.71349 609
54.73361 620
54.75372 565
54.77383 583
54.79395 645
54.81406 624
54.83417 595
54.85429 557
54.8744 611
54.89452 578
54.91463 568
54.93474 573
54.95486 553
54.97497 481
54.99508 545
55.0152 454
55.03531 506
55.05543 471
55.07554 477
55.09565 460
55.11577 459
55.13588 467
55.15599 510
55.17611 507
55.19622 511
55.21634 475
55.23645 505
55.25656 503
55.27668 463
55.29679 495
55.3169 471
55.33702 447
55.35713 491
55.37724 439
55.39736 433
55.41747 414
55.43759 382
55.4577 400
55.47781 417
55.49793 396
55.51804 381
55.53815 410
55.55827 382
55.57838 380
55.5985 324
55.61861 360
55.63872 335
55.65884 358
55.67895 306
55.69906 326
55.71918 336
55.73929 317
55.75941 340
55.77952 323
55.79963 335
55.81975 312
55.83986 322
55.85997 328
55.88009 347
55.9002 299
55.92031 324
55.94043 321
55.96054 330
55.98066 324
56.00077 293
56.02088 313
56.041 298
56.06111 312
56.08122 298
56.10134 335
56.12145 328
56.14157 334
56.16168 301
56.18179 315
56.20191 330
56.22202 324
56.24213 321
56.26225 307
56.28236 302
56.30248 334
56.32259 330
56.3427 331
56.36282 316
56.38293 308
56.40304 346
56.42316 364
56.44327 356
56.46338 315
56.4835 346
56.50361 332
56.52373 341
56.54384 290
56.56395 300
56.58407 315
56.60418 339
56.62429 313
56.64441 332
56.66452 312
56.68464 325
56.70475 314
56.72486 340
56.74498 321
56.76509 311
56.7852 334
56.80532 318
56.82543 316
56.84554 333
56.86566 314
56.88577 290
56.90589 311
56.926 295
56.94611 289
56.96623 315
56.98634 326
57.00645 293
57.02657 333
57.04668 299
57.0668 304
57.08691 317
57.10702 331
57.12714 295
57.14725 332
57.16736 319
57.18748 323
57.20759 322
57.22771 331
57.24782 308
57.26793 341
57.28805 313
57.30816 328
57.32827 313
57.34839 342
57.3685 310
57.38861 286
57.40873 311
57.42884 275
57.44896 293
57.46907 301
57.48918 333
57.5093 283
57.52941 290
57.54952 304
57.56964 264
57.58975 315
57.60987 312
57.62998 292
57.65009 298
57.67021 267
57.69032 264
57.71043 281
57.73055 285
57.75066 299
57.77078 284
57.79089 312
57.811 280
57.83112 254
57.85123 281
57.87134 306
57.89146 303
57.91157 298
57.93168 263
57.9518 267
57.97191 299
57.99203 280
58.01214 280
58.03225 287
58.05237 303
58.07248 295
58.09259 297
58.11271 305
58.13282 290
58.15294 306
58.17305 308
58.19316 264
58.21328 315
58.23339 283
58.2535 292
58.27362 311
58.29373 305
58.31385 316
58.33396 294
58.35407 306
58.37419 302
58.3943 264
58.41441 295
58.43453 315
58.45464 303
58.47475 333
58.49487 279
58.51498 312
58.5351 302
58.55521 309
58.57532 287
58.59544 311
58.61555 310
58.63566 269
58.65578 306
58.67589 321
58.69601 295
58.71612 300
58.73623 319
58.75635 294
58.77646 292
58.79657 305
58.81669 292
58.8368 304
58.85691 300
58.87703 304
58.89714 307
58.91726 304
58.93737 286
58.95748 260
58.9776 290
58.99771 294
59.01782 266
59.03794 315
59.05805 291
59.07817 318
59.09828 269
59.11839 303
59.13851 291
59.15862 287
59.17873 316
59.19885 274
59.21896 317
59.23908 303
59.25919 333
59.2793 304
59.29942 310
59.31953 345
59.33964 353
59.35976 324
59.37987 332
59.39998 361
59.4201 349
59.44021 379
59.46033 372
59.48044 381
59.50055 399
59.52067 414
59.54078 391
59.56089 433
59.58101 453
59.60112 480
59.62124 475
59.64135 485
59.66146 551
59.68158 554
59.70169 598
59.7218 604
59.74192 657
59.76203 673
59.78215 774
59.80226 797
59.82237 803
59.84249 878
59.8626 883
59.88271 814
59.90283 841
59.92294 816
59.94305 805
59.96317 685
59.98328 684
60.0034 616
60.02351 599
60.04362 579
60.06374 562
60.08385 501
60.10396 451
60.12408 445
60.14419 411
60.16431 389
60.18442 389
60.20453 347
60.22465 349
60.24476 365
60.26487 326
60.28499 331
60.3051 325
60.32522 325
60.34533 325
60.36544 345
60.38556 327
60.40567 344
60.42578 315
60.4459 321
60.46601 304
60.48612 272
60.50624 276
60.52635 339
60.54647 335
60.56658 289
60.58669 315
60.60681 333
60.62692 304
60.64703 283
60.66715 312
60.68726 297
60.70738 299
60.72749 318
60.7476 305
60.76772 318
60.78783 308
60.80794 305
60.82806 342
60.84817 307
60.86828 304
60.8884 318
60.90851 335
60.92863 302
60.94874 331
60.96885 327
60.98897 342
61.00908 322
61.02919 315
61.04931 326
61.06942 335
61.08954 321
61.10965 332
61.12976 309
61.14988 312
61.16999 313
61.1901 330
61.21022 304
61.23033 298
61.25045 330
61.27056 289
61.29067 310
61.31079 333
61.3309 308
61.35101 304
61.37113 318
61.39124 291
61.41135 316
61.43147 313
61.45158 310
61.4717 289
61.49181 279
61.51192 309
61.53204 303
61.55215 305
61.57226 309
61.59238 280
61.61249 335
61.63261 319
61.65272 340
61.67283 290
61.69295 322
61.71306 314
61.73317 317
61.75329 347
61.7734 342
61.79352 349
61.81363 333
61.83374 326
61.85386 333
61.87397 354
61.89408 345
61.9142 383
61.93431 370
61.95442 377
61.97454 386
61.99465 360
62.01477 430
62.03488 388
62.05499 383
62.07511 436
62.09522 409
62.11533 436
62.13545 438
62.15556 434
62.17568 461
62.19579 466
62.2159 445
62.23602 434
62.25613 433
62.27624 446
62.29636 435
62.31647 480
62.33659 434
62.3567 412
62.37681 411
62.39693 431
62.41704 427
62.43715 362
62.45727 414
62.47738 374
62.49749 407
62.51761 412
62.53772 380
62.55784 330
62.57795 366
62.59806 359
62.61818 375
62.63829 332
62.6584 393
62.67852 306
62.69863 338
62.71875 328
62.73886 323
62.75897 343
62.77909 296
62.7992 320
62.81931 323
62.83943 307
62.85954 337
62.87965 312
62.89977 292
62.91988 322
62.94 364
62.96011 342
62.98022 328
63.00034 345
63.02045 342
63.04056 327
63.06068 345
63.08079 304
63.10091 327
63.12102 372
63.14113 291
63.16125 309
63.18136 331
63.20147 314
63.22159 335
63.2417 302
63.26182 330
63.28193 277
63.30204 308
63.32216 322
63.34227 290
63.36238 283
63.3825 349
63.40261 337
63.42272 326
63.44284 309
63.46295 352
63.48307 321
63.50318 327
63.52329 303
63.54341 315
63.56352 353
63.58363 318
63.60375 356
63.62386 319
63.64398 364
63.66409 367
63.6842 376
63.70432 350
63.72443 375
63.74454 341
63.76466 348
63.78477 365
63.80489 367
63.825 375
63.84511 428
63.86523 406
63.88534 422
63.90545 434
63.92557 433
63.94568 430
63.96579 435
63.98591 423
64.00602 415
64.02614 394
64.04625 393
64.06636 354
64.08648 330
64.10659 350
64.1267 353
64.14682 356
64.16693 308
64.18705 306
64.20716 348
64.22727 285
64.24739 296
64.2675 292
64.28761 290
64.30773 265
64.32784 281
64.34796 248
64.36807 290
64.38818 265
64.4083 284
64.42841 299
64.44852 285
64.46864 271
64.48875 254
64.50886 290
64.52898 272
64.54909 291
64.56921 311
64.58932 296
64.60943 290
64.62955 282
64.64966 311
64.66977 289
64.68989 274
64.71 282
64.73012 278
64.75023 288
64.77034 284
64.79046 283
64.81057 272
64.83068 272
64.8508 254
64.87091 291
64.89102 243
64.91114 263
64.93125 295
64.95137 290
64.97148 295
64.99159 310
65.01171 293
65.03182 274
65.05193 306
65.07205 306
65.09216 310
65.11228 281
65.13239 252
65.1525 332
65.17262 294
65.19273 298
65.21284 296
65.23296 299
65.25307 301
65.27319 286
65.2933 298
65.31341 297
65.33353 292
65.35364 309
65.37375 284
65.39387 287
65.41398 267
65.43409 314
65.45421 276
65.47432 286
65.49444 289
65.51455 249
65.53466 281
65.55478 288
65.57489 249
65.595 288
65.61512 287
65.63523 300
65.65535 301
65.67546 302
65.69557 308
65.71569 287
65.7358 304
65.75591 285
65.77603 305
65.79614 275
65.81626 282
65.83637 267
65.85648 237
65.8766 282
65.89671 262
65.91682 303
65.93694 289
65.95705 267
65.97716 291
65.99728 255
66.01739 291
66.03751 261
66.05762 277
66.07773 285
66.09785 280
66.11796 273
66.13807 312
66.15819 294
66.1783 276
66.19842 314
66.21853 285
66.23864 295
66.25876 290
66.27887 297
66.29898 272
66.3191 293
66.33921 312
66.35933 299
66.37944 301
66.39955 272
66.41967 278
66.43978 300
66.45989 326
66.48001 298
66.50012 293
66.52023 278
66.54035 273
66.56046 261
66.58058 275
66.60069 271
66.6208 316
66.64092 296
66.66103 275
66.68114 292
66.70126 289
66.72137 292
66.74149 284
66.7616 288
66.78171 321
66.80183 292
66.82194 291
66.84205 284
66.86217 289
66.88228 303
66.90239 282
66.92251 270
66.94262 261
66.96274 258
66.98285 262
67.00296 295
67.02308 280
67.04319 286
67.0633 278
67.08342 280
67.10353 281
67.12365 281
67.14376 300
67.16387 300
67.18399 342
67.2041 297
67.22421 322
67.24433 336
67.26444 340
67.28456 325
67.30467 331
67.32478 353
67.3449 349
67.36501 374
67.38512 375
67.40524 385
67.42535 383
67.44546 431
67.46558 446
67.48569 443
67.50581 495
67.52592 501
67.54603 545
67.56615 568
67.58626 588
67.60637 559
67.62649 632
67.6466 648
67.66672 670
67.68683 607
67.70694 610
67.72706 635
67.74717 563
67.76728 637
67.7874 611
67.80751 574
67.82763 624
67.84774 624
67.86785 626
67.88797 625
67.90808 649
67.92819 653
67.94831 670
67.96842 736
67.98853 701
68.00865 725
68.02876 770
68.04888 798
68.06899 800
68.0891 807
68.10922 759
68.12933 750
68.14944 722
68.16956 699
68.18967 685
68.20979 668
68.2299 702
68.25001 603
68.27013 648
68.29024 624
68.31035 532
68.33047 518
68.35058 496
68.3707 435
68.39081 393
68.41092 412
68.43104 410
68.45115 383
68.47126 365
68.49138 339
68.51149 372
68.5316 348
68.55172 350
68.57183 303
68.59195 296
68.61206 336
68.63217 294
68.65229 290
68.6724 297
68.69251 284
68.71263 272
68.73274 293
68.75286 288
68.77297 295
68.79308 294
68.8132 280
68.83331 286
68.85342 279
68.87354 261
68.89365 282
68.91376 276
68.93388 255
68.95399 259
68.97411 288
68.99422 242
69.01433 272
69.03445 266
69.05456 294
69.07467 265
69.09479 297
69.1149 287
69.13502 302
69.15513 274
69.17524 275
69.19536 271
69.21547 256
69.23558 259
69.2557 258
69.27581 256
69.29593 260
69.31604 247
69.33615 254
69.35627 249
69.37638 243
69.39649 283
69.41661 286
69.43672 259
69.45683 259
69.47695 272
69.49706 269
69.51718 271
69.53729 269
69.5574 286
69.57752 261
69.59763 250
69.61774 266
69.63786 264
69.65797 254
69.67809 295
69.6982 263
69.71831 277
69.73843 270
69.75854 259
69.77865 278
69.79877 259
69.81888 255
69.839 302
69.85911 275
69.87922 241
69.89934 286
69.91945 283
69.93956 256
69.95968 300
69.97979 278
69.9999 277
70.02002 261
70.04013 289
70.06025 280
70.08036 262
70.10047 285
70.12059 260
70.1407 286
70.16081 283
70.18093 242
70.20104 286
70.22116 262
70.24127 297
70.26138 245
70.2815 279
70.30161 291
70.32172 289
70.34184 292
70.36195 277
70.38207 261
70.40218 283
70.42229 298
70.44241 255
70.46252 267
70.48263 287
70.50275 294
70.52286 253
70.54297 269
70.56309 265
70.5832 287
70.60332 237
70.62343 259
70.64354 305
70.66366 266
70.68377 288
70.70388 253
70.724 263
70.74411 250
70.76423 270
70.78434 269
70.80445 240
70.82457 278
70.84468 273
70.86479 273
70.88491 279
70.90502 276
70.92513 269
70.94525 287
70.96536 276
70.98548 264
71.00559 268
71.0257 252
71.04582 292
71.06593 270
71.08604 307
71.10616 247
71.12627 263
71.14639 253
71.1665 263
71.18661 275
71.20673 273
71.22684 279
71.24695 287
71.26707 268
71.28718 263
71.3073 282
71.32741 297
71.34752 253
71.36764 270
71.38775 267
71.40786 274
71.42798 280
71.44809 277
71.4682 269
71.48832 291
71.50843 277
71.52855 303
71.54866 303
71.56877 295
71.58889 257
71.609 292
71.62911 286
71.64923 291
71.66934 294
71.68946 277
71.70957 265
71.72968 255
71.7498 292
71.76991 287
71.79002 270
71.81014 282
71.83025 319
71.85037 282
71.87048 295
71.89059 300
71.91071 287
71.93082 303
71.95093 281
71.97105 292
71.99116 271
72.01127 294
72.03139 283
72.0515 294
72.07162 311
72.09173 285
72.11184 286
72.13196 294
72.15207 298
72.17218 306
72.1923 276
72.21241 290
72.23253 278
72.25264 297
72.27275 275
72.29287 279
72.31298 274
72.33309 275
72.35321 267
72.37332 291
72.39344 286
72.41355 302
72.43366 270
72.45378 293
72.47389 271
72.494 321
72.51412 267
72.53423 273
72.55434 284
72.57446 251
72.59457 271
72.61469 269
72.6348 270
72.65491 289
72.67503 269
72.69514 293
72.71525 322
72.73537 313
72.75548 254
72.7756 291
72.79571 247
72.81582 301
72.83594 261
72.85605 286
72.87616 261
72.89628 319
72.91639 258
72.9365 286
72.95662 286
72.97673 278
72.99685 292
73.01696 323
73.03707 310
73.05719 342
73.0773 331
73.09741 335
73.11753 355
73.13764 338
73.15776 355
73.17787 323
73.19798 357
73.2181 357
73.23821 345
73.25832 373
73.27844 378
73.29855 420
73.31867 408
73.33878 388
73.35889 409
73.37901 391
73.39912 382
73.41923 365
73.43935 397
73.45946 338
73.47957 357
73.49969 384
73.5198 336
73.53992 388
73.56003 338
73.58014 328
73.60026 331
73.62037 363
73.64048 334
73.6606 354
73.68071 316
73.70083 315
73.72094 316
73.74105 273
73.76117 295
73.78128 280
73.80139 275
73.82151 306
73.84162 299
73.86174 326
73.88185 310
73.90196 245
73.92208 278
73.94219 290
73.9623 251
73.98242 247
74.00253 266
74.02264 324
74.04276 247
74.06287 235
74.08299 289
74.1031 271
74.12321 272
74.14333 261
74.16344 277
74.18355 268
74.20367 275
74.22378 267
74.2439 246
74.26401 276
74.28412 253
74.30424 268
74.32435 283
74.34446 275
74.36458 267
74.38469 260
74.40481 245
74.42492 260
74.44503 285
74.46515 289
74.48526 269
74.50537 288
74.52549 265
74.5456 285
74.56571 261
74.58583 275
74.60594 290
74.62606 271
74.64617 263
74.66628 266
74.6864 294
74.70651 276
74.72662 274
74.74674 283
74.76685 265
74.78697 289
74.80708 273
74.82719 261
74.84731 298
74.86742 291
74.88753 268
74.90765 263
74.92776 254
74.94787 259
74.96799 276
74.9881 287
75.00822 274
