3.00117 20842.2638869262
3.02128 20052.6702129469
3.0414 19529
3.06151 19001.5550300893
3.08162 18031.4845385012
3.10174 17989.8668485693
3.12185 17546.6644779679
3.14197 16946.5719488389
3.16208 16576.7028326169
3.18219 15730.2177570027
3.20231 15678.8828446603
3.22242 15006.2127770335
3.24253 14423.456526828
3.26265 14063.5625206853
3.28276 13457.4374241006
3.30288 13417.4779060667
3.32299 12619.184557585
3.3431 12661
3.36322 11875.3658692018
3.38333 11667.8179671351
3.40344 11374.2465362603
3.42356 10983.8220273343
3.44367 10587.4886033078
3.46379 10279.1940464559
3.4839 9890
3.50401 9720.76570934872
3.52413 9046.33990651109
3.54424 8994.1239956446
3.56435 8780.50745865315
3.58447 8045.71770531103
3.60458 7886.15101629826
3.62469 7610.10790960815
3.64481 7453.86220761137
3.66492 6998.49362873587
3.68504 6639.74391973226
3.70515 6623.75239076192
3.72526 6339.74172039918
3.74538 6072.06207383495
3.76549 5989.2132525102
3.7856 5390
3.80572 5498.02743356483
3.82583 5227.50728803792
3.84595 5002.52320003138
3.86606 4733.763786001
3.88617 4374.23330652274
3.90629 4405.98696907434
3.9264 4266
3.94651 4003.92961308251
3.96663 3918.69785180216
3.98674 3661.84963932055
4.00686 3735.09322304358
4.02697 3457.5243203598
4.04708 3247.01190151569
4.0672 3249
4.08731 2914.96021089025
4.10742 3092.07529851726
4.12754 2911.53642487821
4.14765 2745.45316921834
4.16776 2542.28927366271
4.18788 2506.95152410451
4.20799 2536.03379420752
4.22811 2405.96037685705
4.24822 2386.94006400743
4.26833 2249.77937271806
4.28845 2142.80033471409
4.30856 2068.15093284821
4.32867 2019.97662593875
4.34879 2052.01756359946
4.3689 1948
4.38902 1931.03342962616
4.40913 2004.18524579584
4.42924 2050.6609685536
4.44936 1768.29487988509
4.46947 1795.0032997437
4.48958 1684.09401004713
4.5097 1694
4.52981 1738.97592030097
4.54992 1632.93384380132
4.57004 1615.89167653916
4.59015 1537.00815276758
4.61027 1608.93016748825
4.63038 1552.13781113344
4.65049 1430.01465008343
4.67061 1469.00345502679
4.69072 1414.95661915183
4.71083 1417.01741229441
4.73095 1410.96232796015
4.75106 1398.01582873926
4.77118 1378.05156230056
4.79129 1303.03462303349
4.8114 1284
4.83152 1336.97883655514
4.85163 1269.99186021059
4.87174 1311.93741513463
4.89186 1188.22578628321
4.91197 1181.85633281393
4.93209 1261.02649382634
4.9522 1121
4.97231 1181.03827390416
4.99243 1180.90735062927
5.01254 1120.98257226462
5.03265 1144.03419931816
5.05277 1091.03882167353
5.07288 1115.96663799581
5.09299 1115.01795587509
5.11311 1070.98804226186
5.13322 1080.0272118765
5.15334 1081.89555409666
5.17345 1017.99068835972
5.19356 1061.98501580011
5.21368 1032.98156716187
5.23379 1076.01981069358
5.2539 972
5.27402 1028.06351293712
5.29413 1019.89593127874
5.31425 962.042357351082
5.33436 1015.02633236118
5.35447 932.080948147906
5.37459 941.99463763972
5.3947 909
5.41481 882.020437423593
5.43493 952.033808717421
5.45504 901.856091587688
5.47516 882.881431034774
5.49527 950.032393389851
5.51538 854.058721482671
5.5355 892
5.55561 940.9930451745
5.57572 887.960547115004
5.59584 876.961603420594
5.61595 838.081446076696
5.63606 821.034577979222
5.65618 799.014650621027
5.67629 795.000880363943
5.69641 797.00786428043
5.71652 833.052342387889
5.73663 864.966729744679
5.75675 800.851178703221
5.77686 774.021659578882
5.79697 785.912262183317
5.81709 864.975937200554
5.8372 841
5.85732 752.964727563789
5.87743 775.046792324282
5.89754 780.987904112111
5.91766 772.031714548075
5.93777 746.052230665887
5.95788 738.943398067524
5.978 814
5.99811 768.994428473609
6.01823 789.942907107747
6.03834 702.931698064309
6.05845 750.855193103655
6.07857 767.0098896204
6.09868 755.019429584071
6.11879 727.017522693579
6.13891 705.005202205085
6.15902 732.008405285544
6.17913 710.960589068798
6.19925 690.93578939404
6.21936 677.939023764683
6.23948 733.96791015961
6.25959 719.018160020127
6.2797 700
6.29982 721.998169582938
6.31993 689.948276378266
6.34004 668.963248965037
6.36016 665.92745322818
6.38027 706.024386765349
6.40039 648.012230580156
6.4205 691
6.44061 730.997500337899
6.46073 677.86762919557
6.48084 619.0475200229
6.50095 682.980180381381
6.52107 611.119065920727
6.54118 597.944227451404
6.56129 675.975011680578
6.58141 662.9692081064
6.60152 622.035264791032
6.62164 687.990633462967
6.64175 619.941619721074
6.66186 650.030179546802
6.68198 585.020546371807
6.70209 624.988784318373
6.7222 598
6.74232 588.99141716809
6.76243 570.975989726639
6.78255 579.107327498381
6.80266 640.894720240858
6.82277 656.036411423351
6.84289 615.016427585693
6.863 599
6.88311 593.012512364368
6.90323 624.987922337579
6.92334 579.936022899795
6.94346 591.925272454911
6.96357 620.992641461068
6.98368 610.003064909379
7.0038 609
7.02391 569.998903540085
7.04402 604.022487717253
7.06414 592.961480786615
7.08425 586.990326855813
7.10436 591.998186548851
7.12448 582.022349567973
7.14459 554.012436459399
7.16471 557.023617788482
7.18482 603.985177329978
7.20493 537.932528365839
7.22505 552.099833069109
7.24516 570.038579604948
7.26527 538.007189496854
7.28539 564.988369440481
7.3055 566
7.32562 580.040335093915
7.34573 607.953054035728
7.36584 536.912168690665
7.38596 547.944293906309
7.40607 563.98023791133
7.42618 589.955200411873
7.4463 618
7.46641 543.971527694258
7.48653 537.026137522098
7.50664 543.974434550739
7.52675 525.005051504442
7.54687 547.950741121948
7.56698 567.004000818161
7.58709 553.000896594523
7.60721 557.992123840929
7.62732 520.969200139699
7.64743 523.051944969263
7.66755 558.006986486513
7.68766 539.990392488122
7.70778 570.983238896126
7.72789 554.014988217807
7.748 526
7.76812 510.023271150261
7.78823 557.046148335448
7.80834 548.939610975877
7.82846 526.998772363241
7.84857 551.944649569029
7.86869 567.014425445602
7.8888 525
7.90891 559.006408025196
7.92903 532.961724936716
7.94914 524.97580580039
7.96925 514.949601021005
7.98937 555.964170867033
8.00948 528.076671313787
8.0296 469
8.04971 543.013987091567
8.06982 506.977983314136
8.08994 533.060915417861
8.11005 519.846607980009
8.13016 474.916298798539
8.15028 574.941658559013
8.17039 557.015109710978
8.1905 549
8.21062 535.024754068845
8.23073 578.004119958919
8.25085 531.88729900286
8.27096 521.978703279976
8.29107 531.995857822956
8.31119 534.991415995506
8.3313 552
8.35141 528.004515702364
8.37153 554.976899709428
8.39164 504.967085137122
8.41176 529.986928937256
8.43187 524.925153656808
8.45198 599.000554357665
8.4721 518
8.49221 511.005156032176
8.51232 504.987968680908
8.53244 500.010012656585
8.55255 509.982866650638
8.57266 514.975487898458
8.59278 527.005201130287
8.61289 525.979276675947
8.63301 566.979304704057
8.65312 476.977662921213
8.67323 541.080419120777
8.69335 538.981551876747
8.71346 559.935230888727
8.73357 557.102703082087
8.75369 465.020785317056
8.7738 508
8.79392 574.013277265494
8.81403 535.912672406694
8.83414 508.045403484644
8.85426 544.017625030235
8.87437 498.026295880364
8.89448 530.960190160295
8.9146 542
8.93471 531.000840378843
8.95483 519.90682560518
8.97494 457.051439435581
8.99505 547.894335689045
9.01517 505.077695092782
9.03528 503.966440477235
9.05539 527.008454234265
9.07551 494.002193667802
9.09562 525.996490438389
9.11573 485.978332380906
9.13585 527.161691683497
9.15596 557.064991606684
9.17608 496.027520949757
9.19619 529.969106623794
9.2163 570
9.23642 528.93047129848
9.25653 482.021493037352
9.27664 538.079018432837
9.29676 541.986945346587
9.31687 565.973478191094
9.33699 549.02811911502
9.3571 498
9.37721 542.008821894002
9.39733 505.92310723895
9.41744 486.040852232784
9.43755 516.99429619204
9.45767 495.004210236297
9.47778 525.964369676408
9.4979 538
9.51801 514.988489024841
9.53812 507.010949135885
9.55824 531.054138854419
9.57835 533.902983488293
9.59846 485.017831129832
9.61858 521.960998639414
9.63869 538.992958390132
9.6588 551
9.67892 513.946310813453
9.69903 479.013003238217
9.71915 510.018254206614
9.73926 493.98648003857
9.75937 535.935230361115
9.77949 535.028500584722
9.7996 472
9.81971 529.031623181263
9.83983 535.915840061929
9.85994 472.987626200034
9.88006 522.91659520141
9.90017 527.995173900468
9.92028 546.982966647775
9.9404 540
9.96051 495.986388082486
9.98062 506.043015902664
10.00074 541.984903055299
10.02085 511.987258771874
10.04097 535.050561227861
10.06108 466.007183146535
10.08119 522.986875863858
10.10131 491.989966092542
10.12142 513.024356676338
10.14153 512.977835599373
10.16165 503.012236480157
10.18176 509.033248701555
10.20187 476.028424369867
10.22199 483.9911855949
10.2421 498
10.26222 515.018691806662
10.28233 529.005541279936
10.30244 530.022521664341
10.32256 538.043666079832
10.34267 496.038107368857
10.36278 507.966308885388
10.3829 531
10.40301 520.011050776746
10.42313 575.071995815077
10.44324 581.941366619653
10.46335 550.012959606549
10.48347 555.045433327818
10.50358 507.001783517631
10.52369 540.003805449061
10.54381 518.032638752039
10.56392 608.952604230454
10.58403 457.916801258446
10.60415 536.130839021178
10.62426 500.057296734562
10.64438 530.952867887379
10.66449 546.011321064192
10.6846 514
10.70472 537.02456214915
10.72483 540.984141003297
10.74494 523.957682469922
10.76506 505.02403088492
10.78517 533.851252380834
10.80529 618.023913964014
10.8254 482
10.84551 539.031507371335
10.86563 541.984425683731
10.88574 534.933220280808
10.90585 488.042136872148
10.92597 507.969268559907
10.94608 510.99642630874
10.9662 525
10.98631 531.99765844651
11.00642 514.972902581951
11.02654 491.987375547881
11.04665 501.966267747225
11.06676 512.970078872031
11.08688 548.933139487226
11.10699 584.035279416956
11.1271 460
11.14722 511.052569143224
11.16733 521.032261179779
11.18745 561.026901971212
11.20756 533.057337412409
11.22767 530.978298068386
11.24779 548.990775797602
11.2679 564
11.28801 539.956838779918
11.30813 456.019144069648
11.32824 543.090000653611
11.34836 519.009491687262
11.36847 551.003381938596
11.38858 521.976997207173
11.4087 584
11.42881 524.976156483959
11.44892 529.018334843732
11.46904 534.002355470951
11.48915 534.02022211673
11.50927 527.980051896189
11.52938 542.021335042696
11.54949 504.998217074816
11.56961 552.018385173579
11.58972 563.022362006012
11.60983 577.927066181446
11.62995 504.996857860594
11.65006 580.875335240717
11.67017 583.023518922106
11.69029 561.029613442671
11.7104 490
11.73052 542.102272206454
11.75063 612.974325910832
11.77074 544.949166675988
11.79086 576.977541699155
11.81097 548.015858449791
11.83108 575.97214907152
11.8512 563
11.87131 509.999644959618
11.89143 561.079526276635
11.91154 594.078444715605
11.93165 630.010628714971
11.95177 600.006761785438
11.97188 619.01073631311
11.99199 584.998577826202
12.01211 629.0145325554
12.03222 616.976247145489
12.05234 613.036536515541
12.07245 638.033766520751
12.09256 634.019315018217
12.11268 629.998793578779
12.13279 626.009533640579
12.1529 620
12.17302 679.999111056942
12.19313 614.91442907348
12.21324 617.082787460312
12.23336 645.038109429755
12.25347 614.957209061139
12.27359 687.983619066922
12.2937 660
12.31381 669.005665705805
12.33393 660.974189383048
12.35404 657.043483828986
12.37415 671.099388820336
12.39427 602.040057536827
12.41438 623.994069151458
12.4345 592
12.45461 608.026636537488
12.47472 638.953856617717
12.49484 537.844072139754
12.51495 531.902983424634
12.53506 579.903349332156
12.55518 595.043945254032
12.57529 534.004782563934
12.5954 573
12.61552 533.944001158491
12.63563 515.051999669972
12.65575 557.972815742507
12.67586 510.012183101808
12.69597 547.991572225327
12.71609 505.015467623027
12.7362 532
12.75631 578.985106110031
12.77643 497.920769863725
12.79654 514.095192052386
12.81666 532.072082398703
12.83677 481.003226301673
12.85688 515.00649923335
12.877 466
12.89711 509.027005809015
12.91722 534.003182828436
12.93734 517.919981100568
12.95745 495.891578011353
12.97757 562.998792416004
12.99768 487.072888869498
13.01779 484.971101793285
13.03791 539.999840267309
13.05802 494.973175074553
13.07813 515.049842656688
13.09825 529.995779451701
13.11836 507.100107356799
13.13847 464.98779185532
13.15859 512.982519889446
13.1787 508
13.19882 501.007783040452
13.21893 515.014154597796
13.23904 509.962475079001
13.25916 485.047294373572
13.27927 464.035446428319
13.29938 443.007193946593
13.3195 455
13.33961 492.025813438231
13.35973 531.99672578774
13.37984 502.979292894086
13.39995 515.017737678975
13.42007 478.053538904446
13.44018 470.981540378976
13.46029 493.99525257504
13.48041 497.010617137043
13.50052 514.96826031411
13.52064 458.984338551376
13.54075 506.092166083127
13.56086 505.005015008892
13.58098 514.003193810958
13.60109 485.022171642026
13.6212 475
13.64132 550.984387386472
13.66143 452.898035625449
13.68154 474.116571765271
13.70166 516.949107453704
13.72177 520.034981432328
13.74189 490.00628118832
13.762 499
13.78211 496.995023351341
13.80223 486.989722113356
13.82234 489.027087966146
13.84245 506.969496108219
13.86257 508.008686289273
13.88268 501.006896823791
13.9028 489
13.92291 471.005364249142
13.94302 493.99538761763
13.96314 469.003310623254
13.98325 507.901388072135
14.00336 519.020815271276
14.02348 488.057281071074
14.04359 455.974220065152
14.06371 522.977575903164
14.08382 405.978294824131
14.10393 492.059630644518
14.12405 450.991192938068
14.14416 507.956032397005
14.16427 474.023949738619
14.18439 495.997096664625
14.2045 478
14.22461 497.990710671816
14.24473 442.947625700315
14.26484 460.090450157115
14.28496 491.999926212533
14.30507 468.032773982454
14.32518 463.996287139875
14.3453 467
14.36541 473.003616104842
14.38552 483.014859632886
14.40564 488.962075582746
14.42575 470.937226367017
14.44587 511.02377764151
14.46598 442.047821616035
14.48609 453.98159683568
14.50621 476.001001155709
14.52632 474.014878898635
14.54643 501.019781800816
14.56655 493.979796942513
14.58666 492.015268559454
14.60677 472.040387078414
14.62689 454.997542890444
14.647 470
14.66712 466.023029985031
14.68723 503.007912261568
14.70734 473.958906470375
14.72746 481.971648470457
14.74757 483.013874371028
14.76768 479.983105144996
14.7878 490
14.80791 428.990556617784
14.82803 465.057924074623
14.84814 467.961166032058
14.86825 462.917741113091
14.88837 517.94465902049
14.90848 502.063827897804
14.92859 446.996660847436
14.94871 510.03039108054
14.96882 505.926062519092
14.98894 429.992243076498
15.00905 485.068901468244
15.02916 459.03962773147
15.04928 476.972257761531
15.06939 476.020221150684
15.0895 438
15.10962 504.053069363511
15.12973 496.918660177554
15.14984 441.957236343904
15.16996 454.971201915693
15.19007 454.996105416148
15.21019 462.001965350585
15.2303 444
15.25041 452.026435055909
15.27053 523.066067414863
15.29064 514.917177883458
15.31075 477.038507497231
15.33087 482.988214243596
15.35098 476.018997998336
15.3711 460
15.39121 471.002953127453
15.41132 465.99471169092
15.43144 472.036577159803
15.45155 483.042779560071
15.47166 451.0250575126
15.49178 467.977834549319
15.51189 482.99032492554
15.53201 493.989002047323
15.55212 448.967064867783
15.57223 447.020391378391
15.59235 464.058513155486
15.61246 477.035413941908
15.63257 453.973860891258
15.65269 494.000805452795
15.6728 456
15.69291 491.006195478598
15.71303 463.968734262717
15.73314 472.029000034746
15.75326 483.95529869702
15.77337 508.990511597049
15.79348 494.017628072188
15.8136 487
15.83371 477.987897130934
15.85382 458.011757235818
15.87394 495.056122919723
15.89405 485.108137617375
15.91417 450.979459802914
15.93428 492.987991627209
15.95439 462.014346845462
15.97451 454.99465628376
15.99462 444.017687828665
16.01473 485.044451955023
16.03485 483.957399168614
16.05496 471.006353809788
16.07508 473.999947458018
16.09519 480.983593621657
16.1153 521
16.13542 493.97032997576
16.15553 482.994665210288
16.17564 494.088009282844
16.19576 524.100163964547
16.21587 431.047834508514
16.23598 478.957287679283
16.2561 478
16.27621 512.025040105363
16.29633 534.952383383298
16.31644 476.944203198488
16.33655 486.999546814646
16.35667 469.990266804549
16.37678 490.017332705958
16.39689 450.996837729199
16.41701 502.013837795996
16.43712 474.954396398967
16.45724 457.041061659358
16.47735 495.05868559459
16.49746 485.061623251499
16.51758 461.998716546059
16.53769 485.985737465824
16.5578 500
16.57792 487.985315083693
16.59803 471.965681905999
16.61814 453.003450426675
16.63826 480.914970693409
16.65837 508.011812062559
16.67849 480.006854894026
16.6986 492
16.71871 477.973971643818
16.73883 424.990000306456
16.75894 462.062764346898
16.77905 476.910074004619
16.79917 519.008378693258
16.81928 470.03414005254
16.8394 483
16.85951 509.006147149061
16.87962 494.95201980193
16.89974 446.9890874677
16.91985 481.92297517698
16.93996 473.080476347515
16.96008 442.986049701061
16.98019 483.991476010822
17.00031 471.000770062491
17.02042 498.01869520807
17.04053 491.979364388173
17.06065 495.068675966246
17.08076 512.072624021129
17.10087 453.011502455652
17.12099 493.993623777407
17.1411 458
17.16121 462.002669522396
17.18133 448.970179914879
17.20144 447.059011775329
17.22156 487.964158202101
17.24167 481.995683730722
17.26178 498.996689909896
17.2819 483
17.30201 479.996063678412
17.32212 473.014673159482
17.34224 493.981997214426
17.36235 456.072799213111
17.38247 461.95478742334
17.40258 493.978186434927
17.42269 509.987029352023
17.44281 534.998375974258
17.46292 496.948128825734
17.48303 473.038643688323
17.50315 517.021837788194
17.52326 491.014119702238
17.54338 521.96558770114
17.56349 527.011567170495
17.5836 499
17.60372 508.008201467332
17.62383 511.020127853898
17.64394 533.025665647538
17.66406 520.075369939648
17.68417 486.003404266593
17.70428 514.968443737851
17.7244 533
17.74451 533.979863154511
17.76463 476.966350549391
17.78474 493.015964627175
17.80485 480.993835320422
17.82497 507.95980708834
17.84508 504.040922080969
17.86519 472.983717063684
17.88531 537.004453386141
17.90542 480.955436438699
17.92554 486.034670109683
17.94565 512.16959103541
17.96576 586.975429291898
17.98588 532.057870315133
18.00599 510.005314890523
18.0261 490
18.04622 483.030164211244
18.06633 529.031356243369
18.08645 510.923754875746
18.10656 490.03010474154
18.12667 485.975436944626
18.14679 510.993963237263
18.1669 497
18.18701 471.999393149551
18.20713 492.032691134962
18.22724 505.024954914707
18.24735 517.985624768546
18.26747 512.022016029878
18.28758 504.985810379296
18.3077 523
18.32781 492.993740427326
18.34792 504.002804891088
18.36804 489.984543305189
18.38815 499.959798231141
18.40826 504.029632532774
18.42838 487.992467415747
18.44849 509.000250498216
18.46861 476.980854338149
18.48872 464.019441562885
18.50883 495.021533779439
18.52895 483.956606184738
18.54906 491.90820696417
18.56917 542.9853261088
18.58929 503.025892887159
18.6094 481
18.62951 508.008611236908
18.64963 503.981010889814
18.66974 488.953352241081
18.68986 467.008543042754
18.70997 473.01065035037
18.73008 453.009002306256
18.7502 467
18.77031 482.999022144241
18.79042 476.009557857875
18.81054 497.011140115994
18.83065 490.967954958761
18.85077 518.986993307586
18.87088 501.017482157235
18.89099 496.003709927564
18.91111 483.998216603693
18.93122 489.000825679615
18.95133 486.009316376887
18.97145 492.965705526375
18.99156 478.944736686784
19.01168 523.007283655993
19.03179 468.015537248332
19.0519 497
19.07202 530.000462817974
19.09213 521.023708732351
19.11224 538.92653231496
19.13236 472.029311999108
19.15247 508.990479709397
19.17258 484.971653162313
19.1927 560
19.21281 526.98419053504
19.23293 530.007313124711
19.25304 527.024084818553
19.27315 545.020809973374
19.29327 518.00840841679
19.31338 543.972430741166
19.33349 547.00903755896
19.35361 517.983591780056
19.37372 506.027023866865
19.39384 552.052654282307
19.41395 545.966785400778
19.43406 550.952614291282
19.45418 580.97707520315
19.47429 590.997974106763
19.4944 575
19.51452 514.997296940598
19.53463 576.10683321973
19.55475 601.943127404967
19.57486 569.002195916571
19.59497 599.967917188818
19.61509 604.988430902298
19.6352 650
19.65531 663.004421754353
19.67543 668.979048293908
19.69554 665.105981660601
19.71565 734.010832252718
19.73577 676.004622840301
19.75588 731.989731746866
19.776 696
19.79611 784.028393887964
19.81622 769.971469762895
19.83634 768.019334971383
19.85645 774.988205034659
19.87656 764.080989052107
19.89668 730.973841893535
19.91679 791.9904250064
19.93691 758.990493871696
19.95702 777.012291746196
19.97713 766.990426764128
19.99725 791.138087834232
20.01736 826.077006739217
20.03747 744.062649490194
20.05759 747.015339665737
20.0777 704
20.09782 787.972382982768
20.11793 669.944789975738
20.13804 748.11272962598
20.15816 714.113972880815
20.17827 690.997792965166
20.19838 696.999803996858
20.2185 715
20.23861 776.98040824335
20.25872 672.961740468533
20.27884 738.152645475058
20.29895 752.078479103104
20.31907 720.007192355672
20.33918 727.024238242711
20.35929 687.996806463735
20.37941 740.018662020515
20.39952 741.002364952756
20.41963 749.974647830715
20.43975 724.036019749907
20.45986 756.045373500094
20.47998 699.995331892388
20.50009 768.97874163355
20.5202 745
20.54032 724.987506126538
20.56043 720.023557772703
20.58054 752.060856436837
20.60066 760.036161979938
20.62077 748.950871380003
20.64088 808.967001432045
20.661 810
20.68111 870.039499271284
20.70123 971.220739816535
20.72134 1129.21139518976
20.74145 1238.43096545687
20.76157 1618.33467625222
20.78168 2075.50384361518
20.80179 2567.79775741754
20.82191 2850.09829142841
20.84202 2972.01501038458
20.86214 2835.40132881644
20.88225 2411.78025480571
20.90236 1924.92942998067
20.92248 1502.36561681461
20.94259 1194.1261355735
20.9627 1005
20.98282 924.885332864055
21.00293 793.906536423884
21.02305 801.993292011068
21.04316 776.955585268336
21.06327 840.954654138371
21.08339 810.022111531924
21.1035 807
21.12361 856.000209119371
21.14373 790.857666500852
21.16384 748.114040831889
21.18395 851.879522352992
21.20407 832.995037608121
21.22418 878.981009343076
21.2443 853
21.26441 835.965053516939
21.28452 769.048188590698
21.30464 896.113314315197
21.32475 842.141969377349
21.34486 843.969627401026
21.36498 835.02484705531
21.38509 800.023519694031
21.40521 762.99907269031
21.42532 791.027688166064
21.44543 801.006682515561
21.46555 788.870941044108
21.48566 739.959785986462
21.50577 804.971008266813
21.52589 756.024574817476
21.546 740
21.56612 722.014452431291
21.58623 739.93844342912
21.60634 652.886560816389
21.62646 661.929787800748
21.64657 664.075968570205
21.66668 621.95163834701
21.6868 720
21.70691 637.95205689062
21.72702 640.121242778463
21.74714 766.992118761269
21.76725 644.232021949754
21.78737 642.99165835075
21.80748 632.962351435182
21.82759 696.997606801236
21.84771 632.971711446303
21.86782 629.018765609902
21.88793 645.026035097343
21.90805 654.973406993555
21.92816 632.02698660573
21.94828 658.923343414839
21.96839 746.975052019782
21.9885 747
22.00862 743.994942576547
22.02873 744.037085792835
22.04884 767.955745013833
22.06896 694.169270838076
22.08907 649.986258214501
22.10919 676.003073418793
22.1293 640
22.14941 646.988512521601
22.16953 605.002669726002
22.18964 649.044494089377
22.20975 614.158697130024
22.22987 591.907475166085
22.24998 680.983833027958
22.27009 614.030115734148
22.29021 611.00788726817
22.31032 613.997047564938
22.33044 607.974104387442
22.35055 588.950101865428
22.37066 589.922144972278
22.39078 625.028335014084
22.41089 551.020841014751
22.431 572
22.45112 581.987111679649
22.47123 565.995277715872
22.49135 579.041639606176
22.51146 604.89505940911
22.53157 642.058218443955
22.55169 564.009482020241
22.5718 613
22.59191 591.995264927068
22.61203 617.032864933751
22.63214 623.028455717904
22.65225 636.055225892353
22.67237 576.098983899364
22.69248 551.964752884074
22.7126 603
22.73271 571.000208110719
22.75282 620.043968882453
22.77294 616.921583223287
22.79305 568.104561233183
22.81316 560.920428058016
22.83328 605.007291374726
22.85339 561.005183242531
22.87351 593.006398332157
22.89362 571.991863587502
22.91373 592.02536289241
22.93385 592.000254990424
22.95396 590.046286671045
22.97407 562.991011711376
22.99419 608.972216997339
23.0143 642
23.03442 613.929315807101
23.05453 534.933621001825
23.07464 536.030463755215
23.09476 547.956057919525
23.11487 590.908860710143
23.13498 634.008346453154
23.1551 578
23.17521 547.006110124775
23.19532 578.017041142459
23.21544 569.976295560111
23.23555 560.057849873752
23.25567 530.02208447585
23.27578 544.962908962432
23.29589 574.999700640543
23.31601 567.013155693786
23.33612 605.986755982027
23.35623 549.963475518143
23.37635 578.068599507098
23.39646 580.986174249694
23.41658 600.986680889709
23.43669 598.004702637709
23.4568 588
23.47692 585.02858816019
23.49703 627.024990977778
23.51714 611.970205162712
23.53726 618.962119057743
23.55737 628.019648949584
23.57749 613.990650797334
23.5976 644
23.61771 575.961954271277
23.63783 558.092830308444
23.65794 641.045834733425
23.67805 602.055342140603
23.69817 636.919678347697
23.71828 666.998112322362
23.73839 649.012561414394
23.75851 635.001557079117
23.77862 652.021659974413
23.79874 657.957640823862
23.81885 626.970600016243
23.83896 635.994717596307
23.85908 621.016644866058
23.87919 622.987435670748
23.8993 654
23.91942 642.976284630625
23.93953 626.999596126267
23.95965 643.062341602051
23.97976 662.984457648946
23.99987 659.012748367615
24.01999 661.988376707444
24.0401 686
24.06021 653.984340866712
24.08033 643.001394471922
24.10044 658.079289084725
24.12056 692.026912829846
24.14067 652.006067534431
24.16078 671.033332157548
24.1809 614
24.20101 707.021815530953
24.22112 664.953157354667
24.24124 672.079001745585
24.26135 690.091190760959
24.28146 620.097561591958
24.30158 615.98966019065
24.32169 620.994843324053
24.34181 625.989108810594
24.36192 600.014109322071
24.38203 632.979576462483
24.40215 584.988235234406
24.42226 625.976856165385
24.44237 597.008835097626
24.46249 621.001602436699
24.4826 587
24.50272 629.07154618724
24.52283 661.922948458904
24.54294 594.058196302525
24.56306 685.987704217416
24.58317 588.108125939539
24.60328 614.930199709086
24.6234 656
24.64351 627.993144977407
24.66362 632.990550761888
24.68374 614.019369977544
24.70385 654.909936779567
24.72397 662.016151432064
24.74408 656.986876165331
24.76419 682.989570618177
24.78431 676.981570110839
24.80442 627.96237702337
24.82453 623.039480775206
24.84465 661.077494927331
24.86476 677.972958835701
24.88488 694.983918676431
24.90499 701.004587037217
24.9251 679
24.94522 675.040040566258
24.96533 722.997571882804
24.98544 678.955950906557
25.00556 696.97592510546
25.02567 687.998894085007
25.04579 708.989646993702
25.0659 721
25.08601 708.959771358956
25.10613 610.967865535583
25.12624 667.083037338152
25.14635 655.033297515184
25.16647 674.946963191049
25.18658 694.011762826823
25.20669 671.000046447918
25.22681 699.013488461594
25.24692 697.972670494633
25.26704 674.015439686935
25.28715 693.961886041937
25.30726 645.065995979686
25.32738 637.022529491056
25.34749 606.995136285744
25.3676 647
25.38772 630.005551864814
25.40783 669.045503590097
25.42795 674.010708700107
25.44806 669.094405244625
25.46817 600.054210451195
25.48829 621.974450911292
25.5084 652
25.52851 614.990334997608
25.54863 620.996994906115
25.56874 618.072479841728
25.58886 669.000046203597
25.60897 619.050307032529
25.62908 632.973526059025
25.6492 646
25.66931 651.998717817081
25.68942 641.990089698823
25.70954 643.030795232819
25.72965 657.01737730358
25.74976 629.058785415924
25.76988 621.980029068658
25.78999 645.999940031756
25.81011 614.97936490086
25.83022 604.03970381088
25.85033 655.002974632216
25.87045 606.902274223339
25.89056 618.906256817161
25.91067 665.958430922811
25.93079 675.993697515931
25.9509 681
25.97102 625.971585328842
25.99113 634.01041341417
26.01124 623.98914303175
26.03136 645.899542742214
26.05147 685.02042808102
26.07158 641.010275980394
26.0917 682
26.11181 707.012561603223
26.13193 734.013796308327
26.15204 728.001238839579
26.17215 754.873529945943
26.19227 796.996021138089
26.21238 765.031021602718
26.23249 767.982593893967
26.25261 826.036885934371
26.27272 864.959533474557
26.29283 814.078163145443
26.31295 948.201230737552
26.33306 921.109962100309
26.35318 927.920567780691
26.37329 1036.95843616014
26.3934 1077
26.41352 1164.16448236077
26.43363 1376.30301337301
26.45374 1593.61627118468
26.47386 2040.90570374502
26.49397 2681.87454951234
26.51409 3634.39711305313
26.5342 5125
26.55431 7039.04554984553
26.57443 9189.06403969886
26.59454 10913.5939926061
26.61465 11634.8275681671
26.63477 10970.1146395377
26.65488 9166.79710831734
26.67499 7506.86816988628
26.69511 5626.09082333318
26.71522 4012.58666766846
26.73534 2743.74541268423
26.75545 1794.25872126501
26.77556 1330.6100036839
26.79568 1119.09707131919
26.81579 1081.02531459461
26.8359 976
26.85602 877.953730498124
26.87613 874.012152214893
26.89625 867.959904393038
26.91636 832.137508691805
26.93647 771.992553415135
26.95659 792.035517445426
26.9767 664
26.99681 723.018547507411
27.01693 675.895315405766
27.03704 657.090712283499
27.05716 721.949604472787
27.07727 690.072289533263
27.09738 648.053242676003
27.1175 603
27.13761 650.026527197173
27.15772 657.950284070811
27.17784 593.957090315468
27.19795 623.915179356356
27.21806 625.043463228618
27.23818 597.027398313796
27.25829 591.983605887598
27.27841 637.007750289592
27.29852 618.985680203385
27.31863 623.00011242144
27.33875 617.020047129804
27.35886 633.004638220937
27.37897 626.953542477074
27.39909 687.978865494925
27.4192 687
27.43932 646.919020010627
27.45943 570.997808200775
27.47954 631.079300710885
27.49966 634.932862820618
27.51977 689.997237503237
27.53988 632.04939674082
27.56 626
27.58011 607.979659320673
27.60023 583.044810201106
27.62034 647.075964360089
27.64045 641.021970630113
27.66057 645.013517794956
27.68068 628.990905878026
27.70079 660.989874747345
27.72091 668.013191156588
27.74102 702.999641495173
27.76113 668.966751392279
27.78125 675.014069725688
27.80136 650.113369860648
27.82148 602.993512232773
27.84159 667.957921809488
27.8617 729
27.88182 734.98404441827
27.90193 724.023931844534
27.92204 751.000088010945
27.94216 722.043751399905
27.96227 714.034124715038
27.98239 675.013633900507
28.0025 659
28.02261 603.972401279449
28.04273 570.985829555915
28.06284 579.037043124449
28.08295 598.953242222261
28.10307 611.992623229195
28.12318 614.990557917568
28.1433 613
28.16341 569.0061333829
28.18352 628.035592662499
28.20364 608.928995023529
28.22375 595.020106472756
28.24386 606.011124082952
28.26398 587.009707484076
28.28409 579.018115560319
28.3042 535
28.32432 580.041222957851
28.34443 575.936623698503
28.36455 544.050779983783
28.38466 579.059714559393
28.40477 505.026088373318
28.42489 566.96850227778
28.445 579
28.46511 558.984127528288
28.48523 530.996259685094
28.50534 559.083969625754
28.52546 587.99118350527
28.54557 570.040673118863
28.56568 559.979524902025
28.5858 581
28.60591 539.002683839736
28.62602 585.012719408538
28.64614 550.958707511666
28.66625 564.974569346073
28.68636 545.075591392278
28.70648 523.981288592149
28.72659 564.988777949322
28.74671 554.99205726734
28.76682 545.984431300076
28.78693 527.996314289051
28.80705 540.019018753717
28.82716 532.031956068051
28.84727 510.049739957269
28.86739 483.99729628418
28.8875 522
28.90762 559.029377249709
28.92773 568.963148180638
28.94784 527.95231406304
28.96796 538.939415388625
28.98807 554.029563274612
29.00818 519.01090645582
29.0283 541
29.04841 545.997002286671
29.06853 544.012897918928
29.08864 546.949170880918
29.10875 508.035269181047
29.12887 521.988831978946
29.14898 514.994727328554
29.16909 531.000870571844
29.18921 507.990431695429
29.20932 509.012698927622
29.22943 517.997288567518
29.24955 520.068452515064
29.26966 546.048236745186
29.28978 496.999662493701
29.30989 550.981278634127
29.33 522
29.35012 466.010712225454
29.37023 531.089705833199
29.39034 542.959245081437
29.41046 524.992327499106
29.43057 545.978782615278
29.45069 543.00329412055
29.4708 535
29.49091 520.010183167815
29.51103 570.065521948768
29.53114 570.913684022384
29.55125 524.020161564541
29.57137 545.998347436583
29.59148 509.04092087444
29.6116 494
29.63171 526.031134532
29.65182 571.976363738206
29.67194 510.974591942615
29.69205 553.046045573116
29.71216 522.056042176162
29.73228 519.007747240649
29.75239 502.000341714576
29.7725 535
29.79262 569.970769324037
29.81273 509.975792179232
29.83285 554.116211326289
29.85296 559.047338382584
29.87307 537.004156602723
29.89319 547.999126687194
29.9133 538
29.93341 545.998583979759
29.95353 529.982960760824
29.97364 541.0670134694
29.99376 577.959517431379
30.01387 581.98876990324
30.03398 584.032282321605
30.0541 530
30.07421 536.01125887937
30.09432 552.008945735028
30.11444 553.990771979743
30.13455 547.013377642825
30.15467 546.992231393769
30.17478 546.018365531809
30.19489 541.973292979141
30.21501 618.00969820361
30.23512 565.940379641072
30.25523 547.010973056923
30.27535 553.986505382837
30.29546 546.971620908002
30.31557 585.933856396522
30.33569 599.017659875934
30.3558 542
30.37592 550.025111905072
30.39603 565.003247228792
30.41614 562.003961682161
30.43626 565.020113689047
30.45637 550.991880197454
30.47648 559.029629574758
30.4966 522
30.51671 593.011997841224
30.53683 538.891651564496
30.55694 515.064798712355
30.57705 565.942721924832
30.59717 544.056638535484
30.61728 529.979277774917
30.63739 559.99876875264
30.65751 559.028067627579
30.67762 641.014895466011
30.69773 566.861500986086
30.71785 526.028574450722
30.73796 558.954670827757
30.75808 584.926294906234
30.77819 660.008093827848
30.7983 556
30.81842 525.997268719482
30.83853 526.024936485691
30.85864 558.063793652149
30.87876 567.043759397586
30.89887 534.024201341681
30.91899 546.986736129973
30.9391 552
30.95921 506.999675140327
30.97933 545.02713149391
30.99944 516.915537152555
31.01955 518.817775064653
31.03967 605.975858704568
31.05978 540.073963750372
31.0799 517
31.10001 541.010315316652
31.12012 533.954080024739
31.14024 487.003683505498
31.16035 531.91918502115
31.18046 529.01193540908
31.20058 528.020417319492
31.22069 507.987488896468
31.2408 562
31.26092 527.947906440847
31.28103 516.074358985987
31.30115 582.038047155599
31.32126 538.089388487841
31.34137 519.036382598874
31.36149 492.996271498042
31.3816 524
31.40171 513.007581349127
31.42183 541.97569877148
31.44194 498.009058415366
31.46206 551.944897073115
31.48217 520.074026893565
31.50228 493.006228431015
31.5224 502
31.54251 520.002552658321
31.56262 519.009884291281
31.58274 544.054154813802
31.60285 550.064112222117
31.62297 514.021046981631
31.64308 528.981112061049
31.66319 546.98151460814
31.68331 586.001642508114
31.70342 545.946755944213
31.72353 526.046073976449
31.74365 578.065358570269
31.76376 565.037978921818
31.78387 559.010419410817
31.80399 543.009431434233
31.8241 533
31.84422 531.966759272145
31.86433 499.039917524733
31.88444 561.027496354194
31.90456 516.061154798002
31.92467 534.953297395159
31.94478 542.01635173789
31.9649 526
31.98501 552.008036895782
32.00513 531.918938262925
32.02524 483.994120453072
32.04535 520.918162520475
32.06547 517.044425382804
32.08558 502.967868842938
32.10569 554.992855240775
32.12581 533.000207518962
32.14592 567.020018087316
32.16604 549.940156487491
32.18615 532.995614042461
32.20626 538.99171111099
32.22638 530.023774388762
32.24649 522.978380586551
32.2666 580
32.28672 532.98699222905
32.30683 575.056312929819
32.32694 569.946042259667
32.34706 562.931133176356
32.36717 615.960132614544
32.38729 612.995610946256
32.4074 635
32.42751 605.995114099586
32.44763 632.052806534718
32.46774 654.024310902804
32.48785 661.986086191884
32.50797 674.957840041578
32.52808 680.064282097695
32.5482 594
32.56831 656.02103715557
32.58842 627.94533023708
32.60854 586.941322530471
32.62865 577.942899495823
32.64876 601.040244922055
32.66888 551.022451893329
32.68899 574.983915282881
32.7091 580
32.72922 565.016786238794
32.74933 597.005115812826
32.76945 580.035455462677
32.78956 625.947623112479
32.80967 605.06686280015
32.82979 573.002986903217
32.8499 597
32.87001 627.996025209112
32.89013 590.953963859842
32.91024 604.118762726299
32.93036 663.97881997141
32.95047 622.072849584447
32.97058 610.974605224003
32.9907 662
33.01081 695.981738899738
33.03092 644.026119359108
33.05104 721.013840491325
33.07115 646.118627862848
33.09127 679.90910090025
33.11138 704.021929280279
33.13149 677.989320703761
33.15161 735.014422947069
33.17172 717.982475134093
33.19183 717.985877375584
33.21195 680.861352555636
33.23206 656.901625248617
33.25217 732.978779433647
33.27229 674.027202138398
33.2924 684
33.31252 731.998358511801
33.33263 679.905574520019
33.35274 659.071499843586
33.37286 689.106116342963
33.39297 592.035441284496
33.41308 663.927778354925
33.4332 671
33.45331 653.006224052856
33.47343 679.005169476161
33.49354 644.899143985807
33.51365 606.048024197993
33.53377 604.987529650246
33.55388 610.999181254704
33.57399 598.0162202421
33.59411 568.000336137327
33.61422 591.008934831627
33.63434 578.992656687185
33.65445 585.977419575838
33.67456 579.914897529351
33.69468 643.988210516728
33.71479 591.028295564831
33.7349 575
33.75502 581.995210361498
33.77513 569.993344618707
33.79524 568.967548689798
33.81536 544.016107760546
33.83547 558.971814191694
33.85559 559.011156010174
33.8757 541
33.89581 579.007395810559
33.91593 552.939607772654
33.93604 528.994177600657
33.95615 538.974770227754
33.97627 536.024862761944
33.99638 533.958672768155
34.0165 583
34.03661 525.98478763637
34.05672 546.020102720211
34.07684 539.98339795444
34.09695 542.989654664915
34.11706 542.004487971549
34.13718 550.971308329981
34.15729 577.004065295894
34.17741 547.997505522605
34.19752 580.037184089586
34.21763 597.003657576876
34.23775 578.874727224798
34.25786 522.050812464477
34.27797 545.919389102644
34.29809 585.000831543643
34.3182 566
34.33831 604.003727260965
34.35843 572.967393321162
34.37854 579.010210102994
34.39866 564.050656102088
34.41877 546.003255270116
34.43888 567.954216720665
34.459 605
34.47911 567.98705844769
34.49922 572.010088461486
34.51934 576.018799973571
34.53945 594.948164486152
34.55957 614.964227146551
34.57968 620.041466131064
34.59979 563.006488540896
34.61991 596.010784023363
34.64002 595.022108722329
34.66013 642.041183240387
34.68025 635.975532078146
34.70036 638.000421781391
34.72047 638.970578005508
34.74059 664.998903661599
34.7607 655
34.78082 690.997639356105
34.80093 648.957751850586
34.82104 658.033554632334
34.84116 660.01219931837
34.86127 655.002116701623
34.88138 668.961457173823
34.9015 718
34.92161 721.989500656583
34.94173 704.010621038474
34.96184 730.033505362534
34.98195 731.976631348666
35.00207 736.05455366393
35.02218 686.997936007699
35.04229 737.983108553367
35.06241 724.9881502621
35.08252 714.992440440598
35.10264 710.018378796928
35.12275 715.934577361903
35.14286 683.96422124458
35.16298 751.937855132765
35.18309 772.001873217243
35.2032 753
35.22332 718.019066697688
35.24343 774.046178210132
35.26354 744.875915683858
35.28366 708.952890906609
35.30377 759.980502156063
35.32389 742.986841848862
35.344 788
35.36411 696.987722506284
35.38423 758.065434590667
35.40434 742.973764290987
35.42445 746.067054145754
35.44457 695.033815903591
35.46468 728.934048014421
35.4848 780
35.50491 756.984184395301
35.52502 739.994850282886
35.54514 755.092777022012
35.56525 801.989196125787
35.58536 783.955004855758
35.60548 851.945597457699
35.62559 850.02150020613
35.64571 794.973790192438
35.66582 769.010979886385
35.68593 798.026385582429
35.70605 786.930458492403
35.72616 775.944077894821
35.74627 811.018398759048
35.76639 758.016093233941
35.7865 762
35.80661 737.996771716329
35.82673 753.006407146306
35.84684 732.948485477959
35.86696 716.022937646292
35.88707 709.99515918526
35.90718 714.007467373053
35.9273 700
35.94741 724.024944206224
35.96752 749.952762042215
35.98764 664.925465784836
36.00775 701.867874995767
36.02787 714.041827648391
36.04798 685.988812483814
36.06809 706.02046675132
36.08821 631.995807638697
36.10832 698.050877927862
36.12843 684.944161004239
36.14855 672.05126933027
36.16866 708.946809760779
36.18878 700.043606090604
36.20889 657.003611326854
36.229 688
36.24912 691.965342602193
36.26923 636.924530388126
36.28934 642.17399843991
36.30946 739.981869522567
36.32957 683.002720398162
36.34968 753.960564073296
36.3698 736
36.38991 804.049869175686
36.41003 905.15446287987
36.43014 1000.14678553581
36.45025 1081.67429588245
36.47037 1217.91787874334
36.49048 1204.98146907057
36.51059 1279.97201070952
36.53071 1261.96387125471
36.55082 1160.87778962158
36.57094 1060.92243426749
36.59105 1075.05324520676
36.61116 1052.14563532335
36.63128 937.141542984436
36.65139 810.041635912034
36.6715 789
36.69162 808.94928183648
36.71173 711.909967600722
36.73184 712.003439583474
36.75196 682.071991164581
36.77207 661.014568604705
36.79219 670.979047004332
36.8123 729
36.83241 736.98758752347
36.85253 707.987473626444
36.87264 725.045267964099
36.89275 730.041247499714
36.91287 709.006646709957
36.93298 719.995758875446
36.9531 702
36.97321 669.990012664529
36.99332 678.041710399029
37.01344 706.927031046782
37.03355 645.977768485522
37.05366 716.938186618328
37.07378 670.060208171908
37.09389 636.01588709443
37.11401 608.001126105117
37.13412 642.040781170843
37.15423 659.984632398339
37.17435 642.000227229214
37.19446 666.938800430077
37.21457 657.116691243695
37.23469 560.019148912704
37.2548 601
37.27491 639.009633369635
37.29503 624.896114020257
37.31514 566.079510899198
37.33526 670.906419954275
37.35537 622.090764006712
37.37548 604.004809747872
37.3956 591
37.41571 589.0056913918
37.43582 605.009104733974
37.45594 601.981879744367
37.47605 588.058466085961
37.49617 567.002471997255
37.51628 575.008964112531
37.53639 563.985685983203
37.55651 604.991911671827
37.57662 552.000108022327
37.59673 622.100321935688
37.61685 629.912072654009
37.63696 600.977694224176
37.65708 640.976400938116
37.67719 624.018397857189
37.6973 598
37.71742 604.998911756382
37.73753 593.995583947923
37.75764 607.03790632162
37.77776 596.133095013779
37.79787 516.036289040589
37.81798 562.935731896849
37.8381 594
37.85821 590.008366520814
37.87833 613.989264434746
37.89844 588.011395979156
37.91855 618.009429529831
37.93867 577.035074314049
37.95878 582.01030288233
37.97889 563.987065832617
37.99901 612.999587709489
38.01912 554.950347025292
38.03924 565.112896679343
38.05935 615.007714782843
38.07946 584.02424143211
38.09958 600.996306451299
38.11969 574.016217279033
38.1398 557
38.15992 559.008783158758
38.18003 573.026909867083
38.20015 589.022508763075
38.22026 592.988764573067
38.24037 599.998099094984
38.26049 596.000838484227
38.2806 603
38.30071 624.01383827312
38.32083 641.986898627713
38.34094 614.960406934543
38.36105 616.966767006865
38.38117 617.040970899085
38.40128 598.957634157156
38.4214 654
38.44151 565.993724352493
38.46162 641.043742350132
38.48174 603.901270426723
38.50185 592.973495408912
38.52196 602.991511569594
38.54208 598.012572569934
38.56219 584.005314466919
38.58231 582.003661107674
38.60242 598.023152814782
38.62253 604.952992365997
38.64265 554.934126498065
38.66276 559.000652819107
38.68287 542.01646275298
38.70299 555.982414619358
38.7231 587
38.74321 565.988254776382
38.76333 561.017804613889
38.78344 590.095589615389
38.80356 615.083842493396
38.82367 541.039849343266
38.84378 588.929928722498
38.8639 619
38.88401 571.981524054739
38.90412 566.010644567453
38.92424 580.036592750384
38.94435 589.037979208484
38.96447 565.003468862033
38.98458 581.996620467796
39.00469 571.995114722351
39.02481 591.993646312877
39.04492 561.008142617936
39.06503 611.055646900905
39.08515 594.861477696903
39.10526 549.994559978653
39.12538 593.958059787949
39.14549 616.985242846201
39.1656 638
39.18572 578.971823252147
39.20583 597.028935051355
39.22594 592.985345620447
39.24606 607.914896163972
39.26617 651.980432394939
39.28628 646.978076936625
39.3064 697
39.32651 726.0401421199
39.34663 853.166853532421
39.36674 940.226666156275
39.38685 1087.66250970421
39.40697 1182.89452695045
39.42708 1203.07265102219
39.44719 1074.05229328419
39.46731 1035.99620781993
39.48742 1023.98560590772
39.50754 981.80760041794
39.52765 879.922649210505
39.54776 886.131548482301
39.56788 743.114239194555
39.58799 698.019301454065
39.6081 627
39.62822 593.035837754059
39.64833 646.991242811656
39.66845 575.840606119142
39.68856 549.061988138068
39.70867 513.99509625591
39.72879 560.97331707263
39.7489 580
39.76901 548.994981505821
39.78913 566.02730367107
39.80924 557.927828561353
39.82935 512.086443237985
39.84947 505.970597803185
39.86958 531.984314116238
39.8897 540
39.90981 569.008946924652
39.92992 564.983766433182
39.95004 557.022506389529
39.97015 581.945667307159
39.99026 581.053397925933
40.01038 562.971459213838
40.03049 621.982657456263
40.05061 609.986548729014
40.07072 599.004354904152
40.09083 607.000850066583
40.11095 603.013201729919
40.13106 614.001624456907
40.15117 633.864539681906
40.17129 752.973036222882
40.1914 747
40.21152 842.086026012894
40.23163 882.040747595539
40.25174 909.010548388062
40.27186 879.113663527776
40.29197 819.069349082206
40.31208 797.003166505257
40.3322 772
40.35231 669.975048578137
40.37242 692.042516605673
40.39254 704.968396909075
40.41265 660.185513038358
40.43277 588.053958969517
40.45288 588.994152677232
40.47299 583.001173037537
40.49311 581.991306819608
40.51322 560.003211827949
40.53333 588.03389607151
40.55345 574.877322262963
40.57356 543.915369193681
40.59368 616.994665706553
40.61379 562.004796687384
40.6339 610
40.65402 553.937657145451
40.67413 529.998174867023
40.69424 550.110926407199
40.71436 594.059631151257
40.73447 528.003397941612
40.75458 588.976615293404
40.7747 563
40.79481 608.991170244613
40.81493 528.933276162897
40.83504 567.141783832515
40.85515 599.07561155925
40.87527 550.001372663723
40.89538 584.011218437639
40.91549 530.006823622196
40.93561 571.013420360549
40.95572 557.989686601613
40.97584 573.040986089852
40.99595 591.067079717991
41.01606 613.017118956182
41.03618 576.03750573195
41.05629 548.017715575323
41.0764 534
41.09652 614.016788800076
41.11663 556.92071271601
41.13675 554.039607170754
41.15686 568.949793172466
41.17697 585.03589489003
41.19709 540.007805628009
41.2172 579
41.23731 618.988847694381
41.25743 558.941547763297
41.27754 571.070613994692
41.29765 572.157827667502
41.31777 508.951546132618
41.33788 602.974245396804
41.358 545
41.37811 581.009076959173
41.39822 561.002390106856
41.41834 581.950665590258
41.43845 523.042040504
41.45856 550.006619470656
41.47868 511.005330675542
41.49879 555.978815154063
41.51891 569.00450210958
41.53902 572.97237202774
41.55913 519.932619065355
41.57925 522.138511369007
41.59936 571.049101178937
41.61947 505.012514117854
41.63959 560.986261347828
41.6597 521
41.67982 514.047538811528
41.69993 582.068826832345
41.72004 580.937155976351
41.74016 555.995338335276
41.76027 567.029082401921
41.78038 515.046888069232
41.8005 507
41.82061 542.008165944398
41.84072 531.981448436795
41.86084 530.044260786273
41.88095 546.070274621966
41.90107 499.003236620973
41.92118 544.966613201271
41.94129 531.017870430151
41.96141 503.993631641779
41.98152 511.027043249574
42.00163 531.982222445786
42.02175 502.99079221353
42.04186 521.012270033161
42.06198 486.022468714642
42.08209 493.992326741536
42.1022 504
42.12232 507.967222150577
42.14243 469.017628516583
42.16254 523.061892556859
42.18266 514.996644038092
42.20277 541.971663196527
42.22289 542.996772632795
42.243 566
42.26311 604.033951040734
42.28323 679.058125896094
42.30334 663.911496102658
42.32345 675.678615230091
42.34357 859.828504154588
42.36368 873.994209158995
42.38379 936.95384591022
42.40391 1002.00346698744
42.42402 953.930537600976
42.44414 890.879138367119
42.46425 827.837634959786
42.48436 777.03887989581
42.50448 761.056603409192
42.52459 687.011309542017
42.5447 704
42.56482 637.969290462724
42.58493 637.923941950054
42.60505 542.874002802426
42.62516 557.972272188533
42.64527 544.998294214057
42.66539 556.012268224031
42.6855 508
42.70561 525.99421062689
42.72573 481.973013160456
42.74584 513.090302342807
42.76595 539.974444257643
42.78607 535.031066699917
42.80618 511.013834183494
42.8263 507
42.84641 501.007194703674
42.86652 511.964959985629
42.88664 469.060441634404
42.90675 548.939535132543
42.92686 497.087305879396
42.94698 508.969295269322
42.96709 523.000829297039
42.98721 515.998439070035
43.00732 514.990278994405
43.02743 504.009249683944
43.04755 529.067504411866
43.06766 528.084854758032
43.08777 473.036634773841
43.10789 494.979355105691
43.128 520
43.14812 497.969800313807
43.16823 487.034370726621
43.18834 521.014734809879
43.20846 497.044726199726
43.22857 496.984142062427
43.24868 498.016974166778
43.2688 477
43.28891 499.014530282948
43.30902 520.014361534056
43.32914 521.964142631258
43.34925 501.99072579664
43.36937 520.004198315904
43.38948 499.998333855786
43.40959 539.972158900425
43.42971 553.968347852845
43.44982 465.976570020299
43.46993 512.048085394526
43.49005 506.035940022468
43.51016 546.970577553503
43.53028 522.025676069175
43.55039 508.014200059682
43.5705 467
43.59062 463.996491506498
43.61073 467.058349253235
43.63084 530.090349230577
43.65096 525.092805243173
43.67107 487.977534638033
43.69119 534.992052450834
43.7113 500
43.73141 490.010300474822
43.75153 516.012065734156
43.77164 495.929800028102
43.79175 464.056249892851
43.81187 468.932772228027
43.83198 510.019694114592
43.85209 453.006738485113
43.87221 504.027767595158
43.89232 524.003108627405
43.91244 509.899624101582
43.93255 459.008614736589
43.95266 506.945326927108
43.97278 485.035390203753
43.99289 472.993600440453
44.013 495
44.03312 488.979056705568
44.05323 488.073479553612
44.07335 562.107905454358
44.09346 538.144544160837
44.11357 479.998158622297
44.13369 514.00239193969
44.1538 463
44.17391 491.0336442113
44.19403 537.981087172668
44.21414 489.959528944259
44.23426 511.968314474806
44.25437 499.024432572724
44.27448 496.995488087007
44.2946 492
44.31471 479.016264396093
44.33482 524.991114564932
44.35494 465.927898538003
44.37505 483.923336188554
44.39516 491.023787073727
44.41528 467.033647103054
44.43539 457.976005770929
44.45551 528.011778096254
44.47562 497.976985774191
44.49573 499.97756140454
44.51585 473.02035583721
44.53596 511.963812493357
44.55607 495.022595929782
44.57619 508.983443059924
44.5963 530
44.61642 491.968133232452
44.63653 492.040805825
44.65664 522.025400912324
44.67676 512.036489140129
44.69687 503.990137126651
44.71698 514.002183134547
44.7371 490
44.75721 465.007090404891
44.77732 498.006764962406
44.79744 477.994874513828
44.81755 503.946957385115
44.83767 504.007181589115
44.85778 508.987122792412
44.87789 521.996512610284
44.89801 527.006490882494
44.91812 535.98288318197
44.93823 500.966632957901
44.95835 510.071778958069
44.97846 531.0063518252
44.99858 514.004277297364
45.01869 523.001826007943
45.0388 496
45.05892 490.04446831654
45.07903 545.004982050606
45.09914 497.931348368756
45.11926 501.988622858547
45.13937 490.018211949052
45.15949 487.999472799092
45.1796 496
45.19971 537.020971922234
45.21983 555.978133075144
45.23994 526.972676616038
45.26005 537.961408088122
45.28017 538.022836172728
45.30028 517.017111360695
45.32039 503.01041487492
45.34051 499.023380839535
45.36062 557.998006374349
45.38074 502.945759315948
45.40085 530.068714020919
45.42096 523.046138619241
45.44108 505.009880120644
45.46119 509.988137691342
45.4813 537
45.50142 529.994193009233
45.52153 542.04170654279
45.54165 552.907885412121
45.56176 501.999334482668
45.58187 553.941753901673
45.60199 566.980716526034
45.6221 630
45.64221 631.008778393405
45.66233 672.032183887944
45.68244 674.049542090585
45.70256 741.82496818923
45.72267 803.981303468345
45.74278 780.023538038351
45.7629 785
45.78301 790.978282777925
45.80312 721.960669696401
45.82324 705.894249967691
45.84335 637.006131097692
45.86346 693.945610502742
45.88358 648.072934690723
45.90369 584.031823870368
45.92381 534.995121762307
45.94392 555.016199642615
45.96403 546.970997539777
45.98415 526.943796455
46.00426 504.037589178358
46.02437 497.982954199149
46.04449 520.988028601142
46.0646 516
46.08472 460.007771692714
46.10483 521.056433198044
46.12494 515.011179052455
46.14506 536.030580428052
46.16517 483.059944305063
46.18528 485.974316555195
46.2054 506
46.22551 493.987531929267
46.24563 476.006675462882
46.26574 502.062428517824
46.28585 519.002807377142
46.30597 504.031380956132
46.32608 494.986825467068
46.34619 516.996541832936
46.36631 498.985573313456
46.38642 483.007062447627
46.40653 495.987563568636
46.42665 482.057646197195
46.44676 524.000912496856
46.46688 473.0482721421
46.48699 471.980854903101
46.5071 511
46.52722 487.975776087835
46.54733 480.998533461583
46.56744 489.06238187304
46.58756 521.00921507436
46.60767 475.082150967453
46.62779 458.980712552315
46.6479 511
46.66801 472.986094417997
46.68813 478.007594116052
46.70824 471.002971798696
46.72835 492.916313572597
46.74847 508.037690987519
46.76858 468.00731064587
46.78869 491.996791714424
46.80881 475.001311551968
46.82892 500.007070983463
46.84904 467.895991941913
46.86915 444.084823644663
46.88926 514.88781230742
46.90938 524.020127661843
46.92949 496.016062823294
46.9496 479
46.96972 493.968805194702
46.98983 445.013201353861
47.00995 504.065637725433
47.03006 480.019031498662
47.05017 513.937695115886
47.07029 522.015612759865
47.0904 479
47.11051 492.012808290923
47.13063 500.976180827405
47.15074 477.991996961007
47.17086 503.918918154445
47.19097 522.040519911556
47.21108 480.00381720833
47.2312 518
47.25131 497.968557832375
47.27142 449.015528116232
47.29154 511.079672249256
47.31165 498.071545527825
47.33176 492.958483881838
47.35188 521.98301629976
47.37199 513.014456696436
47.39211 493.006094848077
47.41222 518.998112955247
47.43233 489.979361467026
47.45245 512.090705255193
47.47256 530.024199567546
47.49267 505.013507564572
47.51279 525.982002078631
47.5329 541
47.55302 504.008763314157
47.57313 537.975679924146
47.59324 472.926228175128
47.61336 501.887977987222
47.63347 535.998832885716
47.65358 514.023037449294
47.6737 506
47.69381 518.013875418633
47.71393 549.023314563589
47.73404 526.873325754662
47.75415 479.920007786721
47.77427 551.984809093426
47.79438 480.071964171981
47.81449 470.982077187927
47.83461 502.998536062942
47.85472 471.97875424624
47.87483 482.038067630136
47.89495 507.060630897713
47.91506 531.947027374929
47.93518 531.058848000911
47.95529 458.005855759199
47.9754 515
47.99552 516.956725511445
48.01563 467.962484140418
48.03574 472.018465046033
48.05586 484.922872579418
48.07597 530.981442556637
48.09609 498.024451695407
48.1162 485
48.13631 546.004033935159
48.15643 510.99888100266
48.17654 546.996561821596
48.19665 486.165964737825
48.21677 464.965693018214
48.23688 500.980646468953
48.257 496
48.27711 504.010083121907
48.29722 513.980664534926
48.31734 486.006794818312
48.33745 504.947899618552
48.35756 454.030666412824
48.37768 497.938478483435
48.39779 536.991543420987
48.4179 535
48.43802 514.992094922783
48.45813 516.994929171637
48.47825 503.971311521607
48.49836 510.937520840427
48.51847 541.004651664852
48.53859 517.00031622018
48.5587 538
48.57881 511.999578264574
48.59893 530.978784928884
48.61904 493.000848998889
48.63916 538.928112293908
48.65927 542.992928496017
48.67938 548.027940793983
48.6995 509
48.71961 543.996465582257
48.73972 491.971625824455
48.75984 525.128317563277
48.77995 559.071090468
48.80006 494.08628716906
48.82018 507.951638348709
48.84029 535.014038224431
48.86041 471.978340984726
48.88052 488.061270949027
48.90063 535.983929404765
48.92075 489.968050322627
48.94086 522.953971180755
48.96097 502.065248771115
48.98109 467.00802922835
49.0012 485
49.02132 547.027050787148
49.04143 528.948900465378
49.06154 513.015564488398
49.08166 525.017967265795
49.10177 511.962402907429
49.12188 550.016913477154
49.142 501
49.16211 571.019589958799
49.18223 527.870264192639
49.20234 471.016764024916
49.22245 520.920479250235
49.24257 511.024622275099
49.26268 509.00193628483
49.28279 511.986431226668
49.30291 541.995891120233
49.32302 517.020587422174
49.34313 576.041398957706
49.36325 547.902862973406
49.38336 534.988761700947
49.40348 533.028110830618
49.42359 504.991308432104
49.4437 558
49.46382 542.963730118397
49.48393 523.01141577293
49.50404 550.053840812474
49.52416 551.063292894539
49.54427 516.002799241408
49.56439 540.995522701288
49.5845 517
49.60461 518.02313134309
49.62473 579.046476544519
49.64484 561.92147862048
49.66495 539.975618793526
49.68507 563.990400810527
49.70518 554.990446622888
49.7253 572
49.74541 545.022043740068
49.76552 625.002832820726
49.78564 546.90028733991
49.80575 572.097898716355
49.82586 582.004841898603
49.84598 589.976042341824
49.86609 618.991521596473
49.8862 623
49.90632 629.988824587093
49.92643 623.056889105018
49.94655 715.284129831199
49.96666 808.877068920172
49.98677 870.842884984277
50.00689 1018.92698980037
50.027 1164
50.04711 1382.09724724167
50.06723 1511.10778898572
50.08734 1562.11024910312
50.10746 1598.06587107125
50.12757 1476.27026602057
50.14768 1261.25187332379
50.1678 1059
50.18791 1098.99790735602
50.20802 1037.00779086521
50.22814 1108.0003439607
50.24825 989.376362898223
50.26837 873.14758403984
50.28848 771.106762075029
50.30859 673.035783749083
50.32871 627.983043195445
50.34882 583.941499629904
50.36893 537.998940041457
50.38905 566.019667239067
50.40916 552.972327938773
50.42927 580.032181925744
50.44939 524.00706770292
50.4695 566
50.48962 559.97700580446
50.50973 537.958408330074
50.52984 520.029087057326
50.54996 557.942162850253
50.57007 568.976482915041
50.59018 584.014044943218
50.6103 539
50.63041 523.013746824471
50.65053 555.984408798561
50.67064 511.961783783593
50.69075 544.865907004541
50.71087 564.06054870108
50.73098 497.035020203456
50.75109 512.986005012052
50.77121 528.007784381992
50.79132 534.975394249453
50.81143 485.935988697029
50.83155 479.070967520775
50.85166 509.998679606407
50.87178 485.013351696054
50.89189 497.99156711513
50.912 505
50.93212 510.99962269451
50.95223 516.04316625686
50.97234 539.943752750529
50.99246 493.963587724905
51.01257 566.945792628371
51.03269 529.028912990931
51.0528 507
51.07291 522.987560786935
51.09303 483.017552244
51.11314 549.112401560501
51.13325 545.128317149153
51.15337 495.018167420058
51.17348 509.007974672758
51.1936 490
51.21371 556.015639697303
51.23382 523.946933681885
51.25394 496.003959227519
51.27405 499.073095416418
51.29416 456.008523306505
51.31428 490.978090574703
51.33439 488.992410023852
51.3545 530
51.37462 534.987148373332
51.39473 512.950313405208
51.41485 487.005248574178
51.43496 504.004130631022
51.45507 473.05344823367
51.47519 462.988911493796
51.4953 500
51.51541 504.996756951671
51.53553 488.94847672741
51.55564 448.953260059093
51.57576 455.941474912938
51.59587 488.961481034205
51.61598 499.003531943942
51.6361 493
51.65621 503.006820419658
51.67632 495.953869995774
51.69644 449.019359791472
51.71655 499.952164890924
51.73667 473.022040133138
51.75678 494.975416256439
51.77689 490.016431568351
51.79701 455.995279431358
51.81712 481.043877556678
51.83723 501.956754743193
51.85735 453.976579801572
51.87746 487.951018511216
51.89757 482.007714908805
51.91769 494.991543062681
51.9378 498
51.95792 476.988499731506
51.97803 485.03312874869
51.99814 500.989608151918
52.01826 482.020264266423
52.03837 495.953648052117
52.05848 511.026959571468
52.0786 470
52.09871 506.006870195326
52.11883 479.962816848895
52.13894 488.063844151183
52.15905 514.003909963823
52.17917 482.065549901217
52.19928 463.972872057662
52.21939 510.989237865673
52.23951 491.985220995364
52.25962 491.03712640422
52.27974 524.959100021187
52.29985 464.916255255946
52.31996 484.929931793607
52.34008 492.026003921838
52.36019 465.993787997596
52.3803 505
52.40042 485.987287466675
52.42053 495.009214541455
52.44064 483.964119599535
52.46076 468.029548411531
52.48087 459.991588929075
52.50099 479.98597855829
52.5211 501
52.54121 508.01863414814
52.56133 547.979906472362
52.58144 493.948189558422
52.60155 515.946467882745
52.62167 511.013382073557
52.64178 504.021506501125
52.6619 487
52.68201 530.00274783176
52.70212 492.972399634556
52.72224 506.066919164219
52.74235 534.952985790421
52.76246 539.020998747826
52.78258 530.98863373789
52.80269 560.984700561841
52.8228 553
52.84292 477.99416072949
52.86303 531.039275468704
52.88315 527.117947749197
52.90326 591.071653878757
52.92337 477.080098720948
52.94349 526.971165519993
52.9636 534
52.98371 535.999114164409
53.00383 523.976684335156
53.02394 523.050450439507
53.04406 551.00984508572
53.06417 535.950536195601
53.08428 596.990036400383
53.1044 566
53.12451 628.00716017798
53.14462 574.952305729025
53.16474 558.941215041895
53.18485 524.959607190377
53.20497 570.999049456934
53.22508 525.01833538568
53.24519 559.980165176116
53.26531 566.992504991406
53.28542 555.005395708421
53.30553 562.972256494047
53.32565 536.029459771921
53.34576 584.92646328543
53.36587 586.014935227505
53.38599 572.017844764438
53.4061 532
53.42622 563.042511330481
53.44633 575.954355893792
53.46644 535.996847719076
53.48656 576.921256323721
53.50667 572.073030215831
53.52678 534.969772119761
53.5469 608
53.56701 583.988343049801
53.58713 584.984749168191
53.60724 569.038218453755
53.62735 617.920436296498
53.64747 615.014088385736
53.66758 623.976331344584
53.68769 631.018781056066
53.70781 568.981284883798
53.72792 579.032236686835
53.74804 597.990014389619
53.76815 586.021181569866
53.78826 608.992260518665
53.80838 588.018078079363
53.82849 591.991161694304
53.8486 615
53.86872 641.016862408982
53.88883 625.90595034761
53.90894 560.989952562241
53.92906 613.906812752069
53.94917 615.030745516135
53.96929 618.974795474513
53.9894 671
54.00951 597.971687403992
54.02963 604.061209077165
54.04974 637.019660467532
54.06985 620.0805176191
54.08997 598.991452150281
54.11008 622.981843047413
54.1302 620
54.15031 605.996735648373
54.17042 618.035784418879
54.19054 649.989435035872
54.21065 618.036280586227
54.23076 621.046130667408
54.25088 582.000378093852
54.27099 614.996759967987
54.29111 576.979815355071
54.31122 577.041727520571
54.33133 627.03421678324
54.35145 611.928011260951
54.37156 590.035591980957
54.39167 581.983900172743
54.41179 602.993242650813
54.4319 604
54.45201 607.998931818474
54.47213 604.011496605647
54.49224 612.972908443305
54.51236 582.037751814012
54.53247 586.982453242707
54.55258 585.018959493185
54.5727 551
54.59281 528.010885005595
54.61292 588.066707331869
54.63304 621.983671294852
54.65315 601.980760426704
54.67327 641.944496944488
54.69338 655.99445745418
54.71349 679.972864616226
54.73361 737.009518012811
54.75372 722.99782371767
54.77383 771.13710421723
54.79395 842.986800301792
54.81406 798.973917611974
54.83417 871.940394745515
54.85429 822.051438299442
54.8744 735
54.89452 751.03879686382
54.91463 760.938879581985
54.93474 705.97925546031
54.95486 744.93157885988
54.97497 737.05117696091
54.99508 700.031902828711
55.0152 683
55.03531 676.980600523981
55.05543 618.945436335477
55.07554 612.987064014455
55.09565 597.008187455366
55.11577 591.068978249917
55.13588 537.988660352584
55.15599 599.986434851027
55.17611 577.999845625474
55.19622 613.0130750924
55.21634 601.033122194763
55.23645 656.123725516688
55.25656 677.970205336617
55.27668 696.987162782909
55.29679 683.025630301913
55.3169 622
55.33702 628.01333836868
55.35713 612.926793288766
55.37724 557.945575736721
55.39736 574.911858317918
55.41747 601.031143183347
55.43759 555.010166511775
55.4577 575
55.47781 577.995588147146
55.49793 569.993897650797
55.51804 558.936703762534
55.53815 523.023346358684
55.55827 538.985690185762
55.57838 519.040663397703
55.5985 501
55.61861 566.010887567195
55.63872 537.983412938148
55.65884 548.98787323851
55.67895 520.031772870531
55.69906 543.915980199313
55.71918 562.03002055284
55.73929 520.995176773692
55.75941 568.004569339714
55.77952 534.995408850346
55.79963 554.955857958722
55.81975 485.939290672061
55.83986 515.979328377564
55.85997 502.949506146981
55.88009 564.001068783647
55.9002 494
55.92031 507.019725481941
55.94043 537.033556701877
55.96054 540.944861510898
55.98066 505.014706891269
56.00077 527.972270602088
56.02088 518.027674476088
56.041 500
56.06111 528.011326881717
56.08122 531.996135606212
56.10134 536.033432918735
56.12145 537.119580810362
56.14157 485.961669420504
56.16168 565.968391770773
56.18179 523.020606352301
56.20191 523.002431957732
56.22202 504.967919161936
56.24213 473.965762826242
56.26225 486.167330287245
56.28236 561.965400887228
56.30248 529.008437903069
56.32259 554.003762978289
56.3427 511
56.36282 524.981284956844
56.38293 484.013744663065
56.40304 559.168190370054
56.42316 588.070675475134
56.44327 510.134018231747
56.46338 458.992399935154
56.4835 514
56.50361 546.986391479542
56.52373 502.003756159341
56.54384 554.077144431578
56.56395 537.130212333697
56.58407 492.022812800286
56.60418 509.967945820833
56.62429 530.998318480403
56.64441 516.987719779042
56.66452 500.002376131721
56.68464 517.030281736658
56.70475 515.961694653215
56.72486 502.991224682168
56.74498 517.996160004652
56.76509 512.994924989167
56.7852 535
56.80532 526.003632673329
56.82543 540.995814365341
56.84554 519.978915032351
56.86566 523.017392666914
56.88577 502.01247540503
56.90589 508.001472900929
56.926 495
56.94611 501.994088973783
56.96623 477.995980266973
56.98634 509.087445726848
57.00645 536.990921200705
57.02657 511.078768902415
57.04668 481.957655647248
57.0668 553
57.08691 497.986537021666
57.10702 534.04310400717
57.12714 533.923547998619
57.14725 501.964021659101
57.16736 546.960781924847
57.18748 527.017814317788
57.20759 534.992090224615
57.22771 540.99814950882
57.24782 532.993006486119
57.26793 529.998287926901
57.28805 527.991582800954
57.30816 517.048014815488
57.32827 494.998444250403
57.34839 510.999127275807
57.3685 504
57.38861 531.992723397363
57.40873 484.973866838759
57.42884 519.091751887436
57.44896 537.022021898102
57.46907 519.998711449626
57.48918 530.013453970818
57.5093 487
57.52941 468.005005228851
57.54952 504.056171463266
57.56964 538.954264747685
57.58975 497.956504635381
57.60987 563.958236685418
57.62998 522.056757793901
57.65009 497.99890405465
57.67021 516.015003092241
57.69032 533.98520036439
57.71043 503.989882772719
57.73055 534.105150890893
57.75066 559.989275536886
57.77078 539.048896079437
57.79089 495.001838907839
57.811 519
57.83112 501.006476579734
57.85123 523.978065066007
57.87134 491.043889976737
57.89146 555.956197103533
57.91157 499.129041799997
57.93168 467.940466228014
57.9518 564
57.97191 534.987404984334
57.99203 547.01306614319
58.01214 528.944458684179
58.03225 506.049308060315
58.05237 487.027542632381
58.07248 473.005354244825
58.09259 477.993570388722
58.11271 503.021729272556
58.13282 537.992382639256
58.15294 499.955775080231
58.17305 515.069487517455
58.19316 521.052639196328
58.21328 489.997204963435
58.23339 524.986548804397
58.2535 521
58.27362 506.990769779976
58.29373 505.010561717594
58.31385 520.049866682542
58.33396 534.000792987066
58.35407 508.081404250164
58.37419 453.012057429623
58.3943 474
58.41441 509.998779803061
58.43453 490.012519859142
58.45464 517.986334035173
58.47475 482.0118561335
58.49487 522.938947349282
58.51498 529.017706859839
58.5351 511
58.55521 513.99761883651
58.57532 499.99176263923
58.59544 496.973970125762
58.61555 482.97603881785
58.63566 499.038560538175
58.65578 453.02159709873
58.67589 472.986037689432
58.69601 486.004192549716
58.71612 500.019161182951
58.73623 521.029195020197
58.75635 531.996111064181
58.77646 506.115285850177
58.79657 440.063180987967
58.81669 444.978114974683
58.8368 502
58.85691 524.993556151229
58.87703 499.990395823603
58.89714 511.999757376909
58.91726 497.998029763088
58.93737 504.041397973426
58.95748 457.012720811783
58.9776 498
58.99771 535.002060789788
59.01782 520.99178460056
59.03794 521.979936818125
59.05805 502.020561139643
59.07817 522.931070577949
59.09828 560.002591769002
59.11839 521.020662715608
59.13851 510.009330785375
59.15862 524.978592868663
59.17873 481.974852227153
59.19885 508.095111942542
59.21896 524.020399626092
59.23908 506.003445218497
59.25919 517.997001353641
59.2793 517
59.29942 528.977545590397
59.31953 487.98618582544
59.33964 517.047586027581
59.35976 525.945573996832
59.37987 558.015758151529
59.39998 520.99978511213
59.4201 559
59.44021 522.978105891079
59.46033 509.020453845407
59.48044 531.026481652564
59.50055 543.90618847028
59.52067 588.98586705165
59.54078 563.018204210343
59.56089 562.008631117645
59.58101 519.97947825373
59.60112 508.020353808287
59.62124 540.038822973945
59.64135 553.090517441469
59.66146 599.970983410033
59.68158 567.052798195103
59.70169 534.998625152691
59.7218 563
59.74192 610.102176636759
59.76203 724.063417746627
59.78215 708.051879225724
59.80226 786.875585292165
59.82237 843.796644782458
59.84249 1026.94438678858
59.8626 1039
59.88271 1087.03049246116
59.90283 1146.11059224466
59.92294 1204.9926118314
59.94305 1109.42030828803
59.96317 935.19267617352
59.98328 859.064739433005
60.0034 808
60.02351 860.017285875554
60.04362 858.002571253075
60.06374 868.964040936229
60.08385 809.190515114343
60.10396 752.051636246371
60.12408 722.080483875317
60.14419 622.020035974118
60.16431 640.999376873831
60.18442 589.949318091142
60.20453 566.974804492502
60.22465 533.876549525484
60.24476 494.006467376834
60.26487 522.955171792359
60.28499 547.977541479517
60.3051 584
60.32522 517.97566461688
60.34533 554.053532100138
60.36544 540.899898064343
60.38556 493.034291360675
60.40567 509.960094568926
60.42578 522.002715748773
60.4459 504
60.46601 485.013301897188
60.48612 531.00780997115
60.50624 493.937586046482
60.52635 489.020321634974
60.54647 472.002492955024
60.56658 506.931675972229
60.58669 553.014979744588
60.60681 464.963204737618
60.62692 465.061918926629
60.64703 525.007652842312
60.66715 501.062156156564
60.68726 561.988503345778
60.70738 502.045121805419
60.72749 502.002213202984
60.7476 478
60.76772 492.00977582373
60.78783 484.985731096071
60.80794 486.020838622909
60.82806 501.963224125787
60.84817 506.036637632848
60.86828 475.998113654374
60.8884 506
60.90851 496.997036127545
60.92863 498.979226131797
60.94874 474.991060385222
60.96885 504.876825698626
60.98897 537.011719315484
61.00908 506.014730038343
61.02919 528.978637966302
61.04931 553.993514704232
61.06942 514.967289009849
61.08954 509.01923449823
61.10965 514.985663981161
61.12976 494.062446053811
61.14988 474.988546040275
61.16999 500.99692597341
61.1901 486
61.21022 510.033342017508
61.23033 540.046430430094
61.25045 553.935143963048
61.27056 524.944126010127
61.29067 589.967347923441
61.31079 543.030398478085
61.3309 517
61.35101 549.032128633554
61.37113 591.944660784031
61.39124 519.992566438056
61.41135 589.886605699953
61.43147 563.074236608785
61.45158 534.014424085551
61.4717 540
61.49181 583.003407529756
61.51192 564.005846777959
61.53204 595.011460922197
61.55215 560.10103082403
61.57226 539.022042756129
61.59238 539.975313440783
61.61249 571.994667205476
61.63261 553.987256027143
61.65272 542.001799040196
61.67283 553.023052251888
61.69295 556.953582724546
61.71306 546.918427651918
61.73317 603.010897961881
61.75329 546.007059644889
61.7734 590
61.79352 561.962329315075
61.81363 546.996370184272
61.83374 561.088999978459
61.85386 600.035199884408
61.87397 551.006451179868
61.89408 591.9894776661
61.9142 555
61.93431 562.001219323667
61.95442 551.003872314306
61.97454 579.065882011728
61.99465 580.122285332639
62.01477 530.970715749936
62.03488 606.949121727177
62.05499 600.008434246152
62.07511 614.018764421818
62.09522 635.974150292177
62.11533 585.973164202161
62.13545 596.953044280119
62.15556 551.02254734073
62.17568 593.944871811026
62.19579 611.015090076225
62.2159 563
62.23602 584.056852131906
62.25613 621.963181061067
62.27624 566.980438074755
62.29636 617.897415668163
62.31647 621.05174158232
62.33659 589.998325813698
62.3567 612
62.37681 574.987642414554
62.39693 587.045295063237
62.41704 599.956958386878
62.43715 558.07579841797
62.45727 560.960001143054
62.47738 578.016776250681
62.49749 547.999098216662
62.51761 580.007703155494
62.53772 563.984200787504
62.55784 557.964293145721
62.57795 540.038754509976
62.59806 572.004808250744
62.61818 542.997075817497
62.63829 571.00620771953
62.6584 526
62.67852 573.033915541657
62.69863 563.972086427409
62.71875 548.92213572253
62.73886 513.017547711784
62.75897 542.927097910538
62.77909 579.992862556446
62.7992 554
62.81931 496.013130358341
62.83943 569.018880096115
62.85954 504.899094712701
62.87965 519.892962359767
62.89977 548.98410219455
62.91988 558.968675740093
62.94 583
62.96011 511.983278652123
62.98022 531.013245399591
63.00034 515.984575500519
63.02045 516.067390456631
63.04056 487.935790827145
63.06068 560.967823266307
63.08079 527.022086956217
63.10091 519.009592778564
63.12102 543.015184418769
63.14113 544.99642494318
63.16125 553.06064875677
63.18136 582.962986706267
63.20147 568.080623736936
63.22159 517.998634836311
63.2417 556
63.26182 520.978753931906
63.28193 535.023477273669
63.30204 527.95881128255
63.32216 526.914670026741
63.34227 584.969965614838
63.36238 558.029854323455
63.3825 545
63.40261 519.998274311719
63.42272 540.018985910612
63.44284 545.004149006823
63.46295 545.030758052482
63.48307 520.041057276896
63.50318 516.961839463991
63.52329 560.003029437727
63.54341 513.988654154479
63.56352 542.043296197711
63.58363 559.980094531317
63.60375 543.031715579154
63.62386 566.038921557151
63.64398 518.009477187947
63.66409 544.004239745448
63.6842 517
63.70432 586.974620847167
63.72443 484.947383499891
63.74454 555.141982417981
63.76466 556.073886165864
63.78477 541.943517378699
63.80489 587.010769343969
63.825 526
63.84511 589.011961292738
63.86523 555.989273871594
63.88534 599.069950619869
63.90545 596.033450025172
63.92557 608.927762441963
63.94568 659.988435287487
63.96579 640.000828699168
63.98591 655.991514316936
64.00602 624.021703358817
64.02614 687.045798256702
64.04625 640.841738099635
64.06636 613.974693317503
64.08648 638.992874059352
64.10659 614.020525379266
64.1267 587
64.14682 618.045385443241
64.16693 647.997865280032
64.18705 618.907601398846
64.20716 582.094357849522
64.22727 543.996509552299
64.24739 564.008098558665
64.2675 515
64.28761 531.006922427497
64.30773 524.997689186038
64.32784 538.026668889707
64.34796 545.978497841355
64.36807 558.990710725796
64.38818 549.02647878898
64.4083 519
64.42841 508.992721121361
64.44852 499.018132979637
64.46864 533.02750449263
64.48875 516.05577020755
64.50886 503.028012760419
64.52898 485.014172508566
64.54909 486.988549978133
64.56921 517.009008535275
64.58932 521.006469470736
64.60943 517.938577367767
64.62955 467.997504707476
64.64966 513.934219096723
64.66977 505.030520222177
64.68989 500.995142276542
64.71 496
64.73012 447.010930482036
64.75023 522.119592455093
64.77034 550.960630787689
64.79046 508.084816619326
64.81057 487.001917895207
64.83068 501.970553243257
64.8508 525
64.87091 513.008011214218
64.89102 544.998812602404
64.91114 508.953223620956
64.93125 510.023859505016
64.95137 487.005783916302
64.97148 512.966257052383
64.99159 525.008842846573
65.01171 484.976755268173
65.03182 467.030613164165
65.05193 512.007154713438
65.07205 492.061809860866
65.09216 561.909676980743
65.11228 525.107279366751
65.13239 432.001881985948
65.1525 505
65.17262 515.002005947095
65.19273 525.988555877662
65.21284 498.961160306057
65.23296 493.026044429002
65.25307 480.973107432246
65.27319 513.998132006862
65.2933 481
65.31341 454.975706616916
65.33353 427.099168267899
65.35364 548.124761318434
65.37375 507.191395196332
65.39387 463.014728280467
65.41398 471.988918283276
65.43409 479.991883312109
65.45421 500.003764012282
65.47432 485.971491115917
65.49444 467.016086358689
65.51455 491.028760325019
65.53466 476.054179143229
65.55478 455.010507686703
65.57489 463.983388546363
65.595 508
65.61512 526.008826755783
65.63523 528.987400809211
65.65535 520.017097767425
65.67546 523.073257496479
65.69557 469.018678555213
65.71569 510.974904839534
65.7358 539
65.75591 556.000928281689
65.77603 547.998274884866
65.79614 534.880040748847
65.81626 464.01820244484
65.83637 520.917219188397
65.85648 521.041324484085
65.8766 476
65.89671 487.017943599401
65.91682 518.005814404194
65.93694 505.994945604576
65.95705 524.937511229551
65.97716 538.998162128007
65.99728 523.034479062426
66.01739 493.998624402256
66.03751 518.004214327805
66.05762 498.978349234003
66.07773 488.987483388194
66.09785 483.018245278055
66.11796 501.964378344459
66.13807 506.01506616256
66.15819 493.002198880557
66.1783 495
66.19842 486.004398777069
66.21853 500.003933454658
66.23864 474.904156608119
66.25876 448.926194783432
66.27887 518.952214616907
66.29898 492.035571092014
66.3191 483
66.33921 494.014832309432
66.35933 517.974202287149
66.37944 471.946299449081
66.39955 475.009030678627
66.41967 460.986977547577
66.43978 489.986512129702
66.45989 483.996939227483
66.48001 507.006358815567
66.50012 501.996664698557
66.52023 494.947183415298
66.54035 451.987092909324
66.56046 484.948086285994
66.58058 478.021186936365
66.60069 459.009367654993
66.6208 456
66.64092 506.037166456725
66.66103 512.986271751708
66.68114 492.921048093385
66.70126 466.940307335952
66.72137 519.003099034898
66.74149 456.026938456265
66.7616 460
66.78171 490.99615676531
66.80183 456.9703707648
66.82194 473.066508935734
66.84205 493.014815171466
66.86217 478.987740039466
66.88228 507.982165906364
66.90239 501.006875801228
66.92251 484.984260725476
66.94262 457.008327695008
66.96274 490.026450926454
66.98285 476.995386822961
67.00296 491.005711115236
67.02308 466.019541515761
67.04319 476.980407222552
67.0633 516
67.08342 503.99355827923
67.10353 506.980514241862
67.12365 483.996553859763
67.14376 497.022429172635
67.16387 472.979906876406
67.18399 514.994493941075
67.2041 479
67.22421 473.010804781382
67.24433 503.037055719256
67.26444 517.021655956203
67.28456 524.010810725318
67.30467 506.033121531028
67.32478 485.02266708551
67.3449 481
67.36501 530.002205070196
67.38512 492.979921985219
67.40524 517.074618709438
67.42535 535.009923324925
67.44546 530.959834707561
67.46558 551.028827228163
67.48569 506.988099411465
67.50581 583.014435403676
67.52592 538.955946259144
67.54603 551.078108345375
67.56615 619.186957259235
67.58626 678.939772619359
67.60637 689.976153378782
67.62649 750.939452349082
67.6466 867
67.66672 835.018233959377
67.68683 907.02847157597
67.70694 838.834214923266
67.72706 802.994906153888
67.74717 792.100334162408
67.76728 695.05695468688
67.7874 705
67.80751 712.985835600763
67.82763 674.983567444979
67.84774 705.097229924805
67.86785 741.959738646267
67.88797 735.035810624717
67.90808 715.001102943766
67.92819 733.987406806134
67.94831 734.98000572172
67.96842 686.994449743955
67.98853 736.098221475332
68.00865 793.150123396208
68.02876 851.920332029308
68.04888 900.897822662864
68.06899 1033.95276324373
68.0891 1040
68.10922 974.989698725399
68.12933 999.980650659016
68.14944 935.890131025519
68.16956 918.023568974915
68.18967 901.002972000842
68.20979 927.975303351686
68.2299 968
68.25001 958.011448336448
68.27013 1007.03081636812
68.29024 980.926363656578
68.31035 941.174006743931
68.33047 845.134808862824
68.35058 766.093334011111
68.3707 674
68.39081 667.99467106978
68.41092 646.006148252041
68.43104 677.026106331632
68.45115 647.867958564905
68.47126 614.97332948365
68.49138 643.015090640858
68.51149 581.027119451207
68.5316 555
68.55172 520.997820450726
68.57183 536.978695133452
68.59195 482.863130861877
68.61206 464.962933772198
68.63217 496.965940987121
68.65229 503.996414875931
68.6724 508
68.69251 479.997676081026
68.71263 502.02892088955
68.73274 514.057877156513
68.75286 541.037528731814
68.77297 491.034076345033
68.79308 510.980206307995
68.8132 503
68.83331 486.995492001923
68.85342 479.988006519767
68.87354 476.048412655785
68.89365 508.996113166576
68.91376 485.007462145528
68.93388 505.995875190057
68.95399 487.003360549888
68.97411 493.993437748566
68.99422 474.020369260207
69.01433 528.050024427477
69.03445 520.965605701803
69.05456 506.087269191404
69.07467 458.994716090627
69.09479 499.994412936803
69.1149 471
69.13502 488.002440329682
69.15513 467.990230085002
69.17524 487.041638984516
69.19536 493.998500906558
69.21547 495.000126604317
69.23558 493.003384847179
69.2557 486
69.27581 483.013249086959
69.29593 506.954803058929
69.31604 450.996332646321
69.33615 506.907221418398
69.35627 496.018670531949
69.37638 508.981373402043
69.39649 512.007150123843
69.41661 494.998424963596
69.43672 505.006053585021
69.45683 491.954834502172
69.47695 473.047281887805
69.49706 507.001610814421
69.51718 478.997960987188
69.53729 513.993298251677
69.5574 484
69.57752 466.006029727131
69.59763 486.033902874834
69.61774 492.968148635855
69.63786 472.001143691079
69.65797 486.00374394295
69.67809 466.003591696092
69.6982 478
69.71831 469.99488496322
69.73843 472.023579111805
69.75854 486.996259191702
69.77865 468.050020678238
69.79877 475.926305425003
69.81888 520.021523894006
69.839 458
69.85911 500.013647761283
69.87922 480.975684530569
69.89934 481.026703921292
69.91945 493.016900168758
69.93956 481.08035887152
69.95968 450.971253803522
69.97979 506.000230483238
69.9999 459
70.02002 510.023789682829
70.04013 479.955056080189
70.06025 476.994253621271
70.08036 461.034782525634
70.10047 457.977116132489
70.12059 475.999495625648
70.1407 465
70.16081 484.008151238107
70.18093 491.016107606781
70.20104 504.000961876625
70.22116 489.036964245632
70.24127 483.979219326431
70.26138 493.025090539808
70.2815 451
70.30161 470.001800144009
70.32172 446.985362905531
70.34184 454.01457130788
70.36195 459.939753332285
70.38207 483.025968246934
70.40218 434.0321466836
70.42229 449.976377384725
70.44241 489.003612090082
70.46252 470.986462220731
70.48263 475.007831382745
70.50275 475.011434964753
70.52286 482.999338117249
70.54297 474.013386343608
70.56309 473.995761258487
70.5832 484
70.60332 472.969169253269
70.62343 457.056900555595
70.64354 518.027442009746
70.66366 473.089431045618
70.68377 474.944486864125
70.70388 491.049734302088
70.724 423
70.74411 504.030079241301
70.76423 484.905637295459
70.78434 449.054767048266
70.80445 508.938341897778
70.82457 471.090863141006
70.84468 440.985251936042
70.86479 475.991860579389
70.88491 466.998911597895
70.90502 479.001454229078
70.92513 467.998910612655
70.94525 487.063689595283
70.96536 492.058993892736
70.98548 448.023905892893
71.00559 462.980784824212
71.0257 481
71.04582 431.994644466061
71.06593 476.057298107554
71.08604 476.973300042176
71.10616 466.029063986587
71.12627 449.017871073096
71.14639 450.991325462657
71.1665 466
71.18661 443.994458647439
71.20673 451.009580688264
71.22684 457.048635252589
71.24695 478.057700709759
71.26707 432.009889013298
71.28718 472.965808012548
71.3073 471
71.32741 475.013260670308
71.34752 498.991156233145
71.36764 470.993626282854
71.38775 490.01310106253
71.40786 458.029152081734
71.42798 469.996425961978
71.44809 457.001336680351
71.4682 469
71.48832 467.01613317085
71.50843 496.018089758677
71.52855 487.995400598321
71.54866 495.01524678468
71.56877 462.06778493706
71.58889 446.97743608699
71.609 511
71.62911 471.993216493501
71.64923 501.020610419726
71.66934 472.922495472515
71.68946 464.932457505363
71.70957 509.978663900903
71.72968 492.009792138624
71.7498 498
71.76991 461.982024074483
71.79002 455.02649676276
71.81014 493.045164157199
71.83025 492.016200861615
71.85037 492.995180265777
71.87048 487.021289716233
71.89059 467.996308043348
71.91071 499.013740715553
71.93082 488.945240225613
71.95093 448.058971549521
71.97105 524.005864087537
71.99116 459.0318244526
72.01127 513.952528917811
72.03139 482.020835707249
72.0515 471
72.07162 471.984703119041
72.09173 450.992000448298
72.11184 468.049736150582
72.13196 490.950106572118
72.15207 504.02623639195
72.17218 474.005510619897
72.1923 489
72.21241 463.998640706687
72.23253 484.002099534973
72.25264 462.987829404537
72.27275 489.898670718701
72.29287 514.006021207872
72.31298 484.042139327771
72.33309 453.004739954001
72.35321 456.999693450548
72.37332 459.02983481825
72.39344 501.025355103999
72.41355 481.969298194278
72.43366 490.986807920037
72.45378 485.005107263564
72.47389 486.999054467994
72.494 476
72.51412 450.005012095056
72.53423 494.094855418733
72.55434 533.985408931007
72.57446 492.079379735188
72.59457 491.938521573704
72.61469 529.007042860398
72.6348 479
72.65491 489.995475335505
72.67503 452.972778671082
72.69514 461.996624021278
72.71525 451.945406977889
72.73537 493.985475746851
72.75548 457.045348202731
72.7756 444
72.79571 480.012048461888
72.81582 485.003478111808
72.83594 500.043484341645
72.85605 503.091469098708
72.87616 459.989477701989
72.89628 500.990994029291
72.91639 467.010116996818
72.9365 478
72.95662 472.022259377078
72.97673 518.040955325619
72.99685 507.93928925928
73.01696 483.068569660206
73.03707 451.012518975008
73.05719 468.987173153946
73.0773 485
73.09741 489.00267108923
73.11753 498.015403583373
73.13764 493.936845781177
73.15776 455.023970203905
73.17787 483.925029657674
73.19798 523.982061452746
73.2181 512
73.23821 481.002926657918
73.25832 523.047550825061
73.27844 534.929915490146
73.29855 495.969651744155
73.31867 550.948535745113
73.33878 549.98800814785
73.35889 584.990438372885
73.37901 574.993099785397
73.39912 587.042152427985
73.41923 634.032063857995
73.43935 621.94137957898
73.45946 593.099003947686
73.47957 536.052161597918
73.49969 537.987908238363
73.5198 547
73.53992 508.00321551163
73.56003 550.038362114398
73.58014 555.069224882828
73.60026 601.024167063684
73.62037 537.060453248202
73.64048 543.000119932603
73.6606 526
73.68071 558.006398297189
73.70083 538.969260972922
73.72094 522.929499844544
73.74105 481.028182150403
73.76117 492.017838178673
73.78128 460.003682518638
73.80139 489.989762117009
73.82151 473.981798144351
73.84162 457.026715740658
73.86174 494.984583476509
73.88185 457.009138006185
73.90196 498.99003053582
73.92208 461.011757936704
73.94219 495.983519668397
73.9623 488
73.98242 453.99968026862
74.00253 484.043525303337
74.02264 488.977167478855
74.04276 468.061709336639
74.06287 440.016731164517
74.08299 457.977276590694
74.1031 488
74.12321 431.993386190616
74.14333 478.07598773773
74.16344 487.954946071794
74.18355 466.98338266214
74.20367 489.997008294905
74.22378 463.026380588648
74.2439 463
74.26401 490.007669386888
74.28412 478.963428681419
74.30424 442.981277845607
74.32435 466.90504501647
74.34446 483.046558642922
74.36458 448.001197671215
74.38469 485.981577776305
74.40481 490.991087103696
74.42492 464.971768473789
74.44503 446.999176988272
74.46515 463.061516569133
74.48526 477.016849948452
74.50537 457.013456559421
74.52549 469.988358804334
74.5456 476
74.56571 442.00156710054
74.58583 486.067358787968
74.60594 498.974328215843
74.62606 472.070128029117
74.64617 453.971429157219
74.66628 485.002574890888
74.6864 455
74.70651 485.012384086455
74.72662 490.010880177093
74.74674 504.982828695629
74.76685 481.008270279708
74.78697 492.025362866148
74.80708 460.988578916688
74.82719 505.993611964575
74.84731 474.989696580405
74.86742 477.986188133371
74.88753 446.988256173503
74.90765 470.053709229502
74.92776 471.013123165441
74.94787 474.970685233406
74.96799 499.992582718252
74.9881 499
75.00822 493.996147268747
