3.00117 19866
3.02128 19451
3.0414 18593
3.06151 18269
3.08162 17645
3.10174 17180
3.12185 16796
3.14197 16410
3.16208 15870
3.18219 15784
3.20231 14916
3.22242 14552
3.24253 13753
3.26265 13635
3.28276 13072
3.30288 12753
3.32299 12457
3.3431 11711
3.36322 11732
3.38333 11005
3.40344 10973
3.42356 10688
3.44367 9809
3.46379 9858
3.4839 9360
3.50401 9068
3.52413 8658
3.54424 8465
3.56435 8217
3.58447 7809
3.60458 7481
3.62469 7456
3.64481 6979
3.66492 6886
3.68504 6518
3.70515 6277
3.72526 6073
3.74538 5555
3.76549 5582
3.7856 5141
3.80572 5078
3.82583 4899
3.84595 4419
3.86606 4305
3.88617 4195
3.90629 4039
3.9264 3924
3.94651 3611
3.96663 3684
3.98674 3358
4.00686 3204
4.02697 3113
4.04708 2871
4.0672 2868
4.08731 2690
4.10742 2488
4.12754 2620
4.14765 2200
4.16776 2302
4.18788 2185
4.20799 2113
4.22811 2129
4.24822 1876
4.26833 1938
4.28845 1807
4.30856 1775
4.32867 1779
4.34879 1564
4.3689 1637
4.38902 1514
4.40913 1503
4.42924 1596
4.44936 1338
4.46947 1434
4.48958 1399
4.5097 1280
4.52981 1315
4.54992 1211
4.57004 1161
4.59015 1194
4.61027 1214
4.63038 1195
4.65049 1065
4.67061 1045
4.69072 1042
4.71083 1022
4.73095 996
4.75106 905
4.77118 921
4.79129 923
4.8114 909
4.83152 899
4.85163 809
4.87174 781
4.89186 811
4.91197 800
4.93209 750
4.9522 758
4.97231 688
4.99243 755
5.01254 706
5.03265 704
5.05277 680
5.07288 633
5.09299 613
5.11311 624
5.13322 656
5.15334 584
5.17345 536
5.19356 558
5.21368 564
5.23379 486
5.2539 509
5.27402 471
5.29413 521
5.31425 535
5.33436 510
5.35447 455
5.37459 431
5.3947 490
5.41481 412
5.43493 469
5.45504 410
5.47516 408
5.49527 368
5.51538 362
5.5355 401
5.55561 363
5.57572 361
5.59584 361
5.61595 376
5.63606 319
5.65618 345
5.67629 345
5.69641 300
5.71652 359
5.73663 299
5.75675 253
5.77686 291
5.79697 306
5.81709 288
5.8372 287
5.85732 310
5.87743 279
5.89754 263
5.91766 292
5.93777 293
5.95788 250
5.978 273
5.99811 262
6.01823 237
6.03834 256
6.05845 211
6.07857 256
6.09868 269
6.11879 253
6.13891 219
6.15902 256
6.17913 252
6.19925 214
6.21936 236
6.23948 222
6.25959 226
6.2797 262
6.29982 221
6.31993 199
6.34004 222
6.36016 221
6.38027 216
6.40039 240
6.4205 263
6.44061 260
6.46073 211
6.48084 227
6.50095 236
6.52107 181
6.54118 248
6.56129 213
6.58141 244
6.60152 216
6.62164 186
6.64175 206
6.66186 247
6.68198 219
6.70209 201
6.7222 211
6.74232 231
6.76243 219
6.78255 225
6.80266 214
6.82277 235
6.84289 219
6.863 218
6.88311 209
6.90323 204
6.92334 212
6.94346 215
6.96357 236
6.98368 227
7.0038 182
7.02391 191
7.04402 180
7.06414 193
7.08425 229
7.10436 228
7.12448 254
7.14459 224
7.16471 219
7.18482 211
7.20493 199
7.22505 198
7.24516 233
7.26527 198
7.28539 213
7.3055 231
7.32562 198
7.34573 204
7.36584 206
7.38596 203
7.40607 200
7.42618 220
7.4463 200
7.46641 233
7.48653 208
7.50664 226
7.52675 201
7.54687 206
7.56698 194
7.58709 218
7.60721 205
7.62732 242
7.64743 210
7.66755 229
7.68766 223
7.70778 211
7.72789 211
7.748 205
7.76812 230
7.78823 210
7.80834 240
7.82846 214
7.84857 189
7.86869 205
7.8888 221
7.90891 223
7.92903 201
7.94914 224
7.96925 265
7.98937 219
8.00948 224
8.0296 226
8.04971 217
8.06982 209
8.08994 229
8.11005 211
8.13016 219
8.15028 240
8.17039 244
8.1905 221
8.21062 211
8.23073 210
8.25085 242
8.27096 227
8.29107 231
8.31119 220
8.3313 221
8.35141 234
8.37153 212
8.39164 216
8.41176 212
8.43187 213
8.45198 214
8.4721 259
8.49221 203
8.51232 234
8.53244 217
8.55255 239
8.57266 237
8.59278 212
8.61289 241
8.63301 234
8.65312 239
8.67323 236
8.69335 268
8.71346 225
8.73357 242
8.75369 229
8.7738 209
8.79392 238
8.81403 228
8.83414 208
8.85426 269
8.87437 237
8.89448 238
8.9146 227
8.93471 216
8.95483 263
8.97494 230
8.99505 268
9.01517 234
9.03528 260
9.05539 234
9.07551 240
9.09562 233
9.11573 254
9.13585 197
9.15596 230
9.17608 220
9.19619 285
9.2163 237
9.23642 256
9.25653 240
9.27664 235
9.29676 214
9.31687 247
9.33699 241
9.3571 223
9.37721 242
9.39733 239
9.41744 215
9.43755 234
9.45767 220
9.47778 224
9.4979 240
9.51801 236
9.53812 244
9.55824 232
9.57835 252
9.59846 241
9.61858 243
9.63869 233
9.6588 232
9.67892 233
9.69903 254
9.71915 252
9.73926 230
9.75937 229
9.77949 234
9.7996 218
9.81971 236
9.83983 242
9.85994 243
9.88006 239
9.90017 231
9.92028 254
9.9404 226
9.96051 222
9.98062 189
10.00074 261
10.02085 226
10.04097 246
10.06108 239
10.08119 241
10.10131 233
10.12142 209
10.14153 265
10.16165 206
10.18176 223
10.20187 229
10.22199 218
10.2421 255
10.26222 254
10.28233 250
10.30244 227
10.32256 236
10.34267 248
10.36278 234
10.3829 219
10.40301 228
10.42313 225
10.44324 214
10.46335 241
10.48347 235
10.50358 247
10.52369 267
10.54381 233
10.56392 244
10.58403 250
10.60415 253
10.62426 249
10.64438 245
10.66449 219
10.6846 232
10.70472 208
10.72483 254
10.74494 233
10.76506 244
10.78517 248
10.80529 267
10.8254 218
10.84551 236
10.86563 230
10.88574 236
10.90585 235
10.92597 259
10.94608 204
10.9662 248
10.98631 235
11.00642 248
11.02654 223
11.04665 225
11.06676 257
11.08688 224
11.10699 240
11.1271 226
11.14722 244
11.16733 267
11.18745 228
11.20756 241
11.22767 237
11.24779 218
11.2679 239
11.28801 245
11.30813 251
11.32824 226
11.34836 213
11.36847 232
11.38858 237
11.4087 248
11.42881 230
11.44892 233
11.46904 209
11.48915 257
11.50927 240
11.52938 248
11.54949 247
11.56961 242
11.58972 220
11.60983 224
11.62995 246
11.65006 246
11.67017 242
11.69029 279
11.7104 241
11.73052 245
11.75063 236
11.77074 229
11.79086 238
11.81097 237
11.83108 281
11.8512 250
11.87131 238
11.89143 212
11.91154 230
11.93165 218
11.95177 265
11.97188 264
11.99199 254
12.01211 265
12.03222 248
12.05234 270
12.07245 258
12.09256 273
12.11268 256
12.13279 257
12.1529 281
12.17302 224
12.19313 249
12.21324 266
12.23336 280
12.25347 265
12.27359 299
12.2937 281
12.31381 279
12.33393 277
12.35404 251
12.37415 264
12.39427 292
12.41438 252
12.4345 244
12.45461 236
12.47472 252
12.49484 249
12.51495 229
12.53506 241
12.55518 249
12.57529 218
12.5954 226
12.61552 250
12.63563 246
12.65575 228
12.67586 251
12.69597 212
12.71609 215
12.7362 243
12.75631 214
12.77643 230
12.79654 197
12.81666 202
12.83677 213
12.85688 204
12.877 227
12.89711 209
12.91722 229
12.93734 240
12.95745 208
12.97757 244
12.99768 216
13.01779 222
13.03791 223
13.05802 225
13.07813 184
13.09825 242
13.11836 191
13.13847 209
13.15859 213
13.1787 208
13.19882 213
13.21893 233
13.23904 214
13.25916 178
13.27927 217
13.29938 211
13.3195 215
13.33961 199
13.35973 236
13.37984 216
13.39995 200
13.42007 218
13.44018 208
13.46029 204
13.48041 199
13.50052 224
13.52064 202
13.54075 187
13.56086 203
13.58098 250
13.60109 229
13.6212 228
13.64132 209
13.66143 216
13.68154 216
13.70166 190
13.72177 200
13.74189 205
13.762 236
13.78211 213
13.80223 186
13.82234 206
13.84245 224
13.86257 204
13.88268 221
13.9028 196
13.92291 200
13.94302 189
13.96314 216
13.98325 202
14.00336 206
14.02348 227
14.04359 198
14.06371 191
14.08382 181
14.10393 209
14.12405 163
14.14416 199
14.16427 215
14.18439 210
14.2045 195
14.22461 186
14.24473 195
14.26484 198
14.28496 212
14.30507 181
14.32518 202
14.3453 199
14.36541 197
14.38552 224
14.40564 181
14.42575 200
14.44587 190
14.46598 201
14.48609 186
14.50621 195
14.52632 174
14.54643 192
14.56655 233
14.58666 184
14.60677 182
14.62689 171
14.647 187
14.66712 233
14.68723 165
14.70734 190
14.72746 185
14.74757 167
14.76768 188
14.7878 195
14.80791 234
14.82803 193
14.84814 207
14.86825 196
14.88837 217
14.90848 184
14.92859 177
14.94871 195
14.96882 157
14.98894 191
15.00905 161
15.02916 202
15.04928 204
15.06939 204
15.0895 174
15.10962 206
15.12973 175
15.14984 185
15.16996 194
15.19007 202
15.21019 208
15.2303 197
15.25041 184
15.27053 193
15.29064 167
15.31075 185
15.33087 207
15.35098 171
15.3711 202
15.39121 187
15.41132 191
15.43144 209
15.45155 192
15.47166 191
15.49178 204
15.51189 186
15.53201 159
15.55212 159
15.57223 203
15.59235 187
15.61246 180
15.63257 177
15.65269 174
15.6728 222
15.69291 181
15.71303 176
15.73314 171
15.75326 177
15.77337 176
15.79348 194
15.8136 152
15.83371 197
15.85382 156
15.87394 171
15.89405 191
15.91417 175
15.93428 150
15.95439 178
15.97451 178
15.99462 180
16.01473 170
16.03485 202
16.05496 171
16.07508 182
16.09519 187
16.1153 175
16.13542 210
16.15553 145
16.17564 204
16.19576 169
16.21587 185
16.23598 196
16.2561 190
16.27621 209
16.29633 211
16.31644 161
16.33655 195
16.35667 167
16.37678 190
16.39689 168
16.41701 192
16.43712 192
16.45724 169
16.47735 192
16.49746 183
16.51758 175
16.53769 201
16.5578 187
16.57792 210
16.59803 189
16.61814 169
16.63826 167
16.65837 179
16.67849 174
16.6986 169
16.71871 181
16.73883 202
16.75894 168
16.77905 196
16.79917 168
16.81928 172
16.8394 168
16.85951 191
16.87962 171
16.89974 206
16.91985 152
16.93996 174
16.96008 184
16.98019 183
17.00031 208
17.02042 180
17.04053 177
17.06065 181
17.08076 186
17.10087 182
17.12099 198
17.1411 186
17.16121 195
17.18133 177
17.20144 200
17.22156 175
17.24167 212
17.26178 182
17.2819 175
17.30201 161
17.32212 167
17.34224 174
17.36235 167
17.38247 173
17.40258 161
17.42269 182
17.44281 144
17.46292 190
17.48303 180
17.50315 179
17.52326 176
17.54338 204
17.56349 172
17.5836 180
17.60372 191
17.62383 177
17.64394 198
17.66406 188
17.68417 175
17.70428 181
17.7244 190
17.74451 165
17.76463 177
17.78474 175
17.80485 149
17.82497 166
17.84508 179
17.86519 184
17.88531 174
17.90542 179
17.92554 164
17.94565 164
17.96576 188
17.98588 205
18.00599 181
18.0261 178
18.04622 192
18.06633 180
18.08645 189
18.10656 183
18.12667 148
18.14679 171
18.1669 188
18.18701 220
18.20713 195
18.22724 165
18.24735 175
18.26747 176
18.28758 166
18.3077 184
18.32781 173
18.34792 188
18.36804 170
18.38815 207
18.40826 194
18.42838 174
18.44849 180
18.46861 186
18.48872 183
18.50883 184
18.52895 175
18.54906 185
18.56917 192
18.58929 208
18.6094 200
18.62951 181
18.64963 191
18.66974 188
18.68986 195
18.70997 209
18.73008 205
18.7502 181
18.77031 185
18.79042 194
18.81054 197
18.83065 178
18.85077 189
18.87088 177
18.89099 173
18.91111 180
18.93122 171
18.95133 183
18.97145 197
18.99156 205
19.01168 216
19.03179 184
19.0519 194
19.07202 172
19.09213 175
19.11224 185
19.13236 203
19.15247 210
19.17258 187
19.1927 187
19.21281 175
19.23293 196
19.25304 200
19.27315 193
19.29327 163
19.31338 192
19.33349 191
19.35361 187
19.37372 173
19.39384 175
19.41395 207
19.43406 217
19.45418 190
19.47429 201
19.4944 194
19.51452 191
19.53463 197
19.55475 234
19.57486 194
19.59497 211
19.61509 214
19.6352 230
19.65531 215
19.67543 257
19.69554 258
19.71565 238
19.73577 277
19.75588 270
19.776 228
19.79611 273
19.81622 280
19.83634 275
19.85645 290
19.87656 331
19.89668 291
19.91679 259
19.93691 283
19.95702 272
19.97713 303
19.99725 257
20.01736 303
20.03747 305
20.05759 289
20.0777 317
20.09782 308
20.11793 323
20.13804 332
20.15816 278
20.17827 340
20.19838 350
20.2185 308
20.23861 302
20.25872 320
20.27884 327
20.29895 355
20.31907 392
20.33918 381
20.35929 371
20.37941 408
20.39952 418
20.41963 377
20.43975 419
20.45986 434
20.47998 453
20.50009 456
20.5202 506
20.54032 621
20.56043 596
20.58054 749
20.60066 835
20.62077 1061
20.64088 1376
20.661 1886
20.68111 2418
20.70123 3396
20.72134 4514
20.74145 5512
20.76157 6547
20.78168 7147
20.80179 7382
20.82191 6822
20.84202 5874
20.86214 4387
20.88225 3192
20.90236 2106
20.92248 1465
20.94259 1000
20.9627 749
20.98282 595
21.00293 558
21.02305 474
21.04316 470
21.06327 449
21.08339 390
21.1035 401
21.12361 367
21.14373 330
21.16384 352
21.18395 373
21.20407 293
21.22418 333
21.2443 325
21.26441 337
21.28452 293
21.30464 324
21.32475 296
21.34486 296
21.36498 316
21.38509 286
21.40521 282
21.42532 259
21.44543 250
21.46555 305
21.48566 242
21.50577 268
21.52589 259
21.546 256
21.56612 275
21.58623 262
21.60634 273
21.62646 235
21.64657 265
21.66668 257
21.6868 257
21.70691 244
21.72702 248
21.74714 247
21.76725 249
21.78737 248
21.80748 228
21.82759 266
21.84771 255
21.86782 254
21.88793 275
21.90805 232
21.92816 240
21.94828 235
21.96839 200
21.9885 235
22.00862 223
22.02873 240
22.04884 267
22.06896 259
22.08907 232
22.10919 239
22.1293 203
22.14941 240
22.16953 230
22.18964 221
22.20975 248
22.22987 260
22.24998 252
22.27009 255
22.29021 216
22.31032 234
22.33044 262
22.35055 238
22.37066 232
22.39078 205
22.41089 236
22.431 237
22.45112 240
22.47123 215
22.49135 235
22.51146 215
22.53157 236
22.55169 216
22.5718 217
22.59191 198
22.61203 237
22.63214 218
22.65225 202
22.67237 218
22.69248 209
22.7126 202
22.73271 201
22.75282 250
22.77294 244
22.79305 201
22.81316 234
22.83328 236
22.85339 259
22.87351 205
22.89362 237
22.91373 203
22.93385 218
22.95396 183
22.97407 254
22.99419 232
23.0143 222
23.03442 236
23.05453 260
23.07464 227
23.09476 218
23.11487 220
23.13498 241
23.1551 229
23.17521 240
23.19532 206
23.21544 208
23.23555 210
23.25567 238
23.27578 189
23.29589 188
23.31601 208
23.33612 224
23.35623 221
23.37635 217
23.39646 229
23.41658 206
23.43669 210
23.4568 229
23.47692 205
23.49703 213
23.51714 222
23.53726 245
23.55737 203
23.57749 224
23.5976 218
23.61771 216
23.63783 210
23.65794 237
23.67805 211
23.69817 206
23.71828 208
23.73839 222
23.75851 229
23.77862 266
23.79874 243
23.81885 241
23.83896 267
23.85908 245
23.87919 298
23.8993 304
23.91942 288
23.93953 328
23.95965 294
23.97976 296
23.99987 277
24.01999 247
24.0401 278
24.06021 238
24.08033 236
24.10044 255
24.12056 242
24.14067 219
24.16078 197
24.1809 224
24.20101 240
24.22112 244
24.24124 239
24.26135 208
24.28146 236
24.30158 225
24.32169 241
24.34181 226
24.36192 225
24.38203 202
24.40215 225
24.42226 232
24.44237 212
24.46249 235
24.4826 244
24.50272 246
24.52283 228
24.54294 240
24.56306 266
24.58317 267
24.60328 242
24.6234 226
24.64351 237
24.66362 258
24.68374 257
24.70385 249
24.72397 255
24.74408 228
24.76419 269
24.78431 231
24.80442 259
24.82453 289
24.84465 273
24.86476 248
24.88488 267
24.90499 247
24.9251 243
24.94522 251
24.96533 261
24.98544 262
25.00556 233
25.02567 214
25.04579 252
25.0659 280
25.08601 236
25.10613 287
25.12624 227
25.14635 256
25.16647 273
25.18658 269
25.20669 266
25.22681 235
25.24692 240
25.26704 262
25.28715 243
25.30726 258
25.32738 267
25.34749 296
25.3676 245
25.38772 267
25.40783 290
25.42795 288
25.44806 281
25.46817 286
25.48829 332
25.5084 296
25.52851 295
25.54863 351
25.56874 327
25.58886 364
25.60897 407
25.62908 427
25.6492 382
25.66931 465
25.68942 450
25.70954 455
25.72965 474
25.74976 470
25.76988 534
25.78999 482
25.81011 503
25.83022 487
25.85033 510
25.87045 496
25.89056 543
25.91067 586
25.93079 546
25.9509 563
25.97102 621
25.99113 655
26.01124 624
26.03136 684
26.05147 731
26.07158 725
26.0917 841
26.11181 829
26.13193 910
26.15204 975
26.17215 1081
26.19227 1240
26.21238 1224
26.23249 1392
26.25261 1396
26.27272 1650
26.29283 1816
26.31295 2077
26.33306 2468
26.35318 3008
26.37329 3716
26.3934 4929
26.41352 6278
26.43363 8573
26.45374 11586
26.47386 15690
26.49397 20669
26.51409 25658
26.5342 29860
26.55431 32210
26.57443 33474
26.59454 31667
26.61465 27857
26.63477 22658
26.65488 16983
26.67499 12356
26.69511 8564
26.71522 5453
26.73534 3549
26.75545 2530
26.77556 2017
26.79568 1786
26.81579 1613
26.8359 1430
26.85602 1291
26.87613 1128
26.89625 982
26.91636 1013
26.93647 856
26.95659 826
26.9767 714
26.99681 714
27.01693 707
27.03704 655
27.05716 588
27.07727 554
27.09738 557
27.1175 564
27.13761 506
27.15772 473
27.17784 478
27.19795 488
27.21806 456
27.23818 465
27.25829 440
27.27841 443
27.29852 443
27.31863 489
27.33875 464
27.35886 453
27.37897 458
27.39909 422
27.4192 436
27.43932 418
27.45943 377
27.47954 381
27.49966 342
27.51977 399
27.53988 374
27.56 332
27.58011 352
27.60023 325
27.62034 374
27.64045 332
27.66057 341
27.68068 303
27.70079 330
27.72091 356
27.74102 303
27.76113 334
27.78125 303
27.80136 335
27.82148 316
27.84159 305
27.8617 312
27.88182 285
27.90193 335
27.92204 285
27.94216 311
27.96227 307
27.98239 311
28.0025 280
28.02261 293
28.04273 279
28.06284 296
28.08295 288
28.10307 286
28.12318 282
28.1433 297
28.16341 302
28.18352 272
28.20364 289
28.22375 283
28.24386 282
28.26398 275
28.28409 266
28.3042 308
28.32432 275
28.34443 253
28.36455 267
28.38466 260
28.40477 275
28.42489 280
28.445 279
28.46511 247
28.48523 241
28.50534 278
28.52546 265
28.54557 264
28.56568 254
28.5858 243
28.60591 213
28.62602 265
28.64614 250
28.66625 222
28.68636 243
28.70648 255
28.72659 241
28.74671 252
28.76682 231
28.78693 253
28.80705 240
28.82716 222
28.84727 231
28.86739 246
28.8875 234
28.90762 227
28.92773 273
28.94784 209
28.96796 239
28.98807 233
29.00818 245
29.0283 268
29.04841 253
29.06853 221
29.08864 243
29.10875 233
29.12887 231
29.14898 234
29.16909 241
29.18921 240
29.20932 227
29.22943 274
29.24955 231
29.26966 220
29.28978 251
29.30989 251
29.33 288
29.35012 245
29.37023 280
29.39034 230
29.41046 262
29.43057 234
29.45069 226
29.4708 258
29.49091 207
29.51103 229
29.53114 251
29.55125 226
29.57137 241
29.59148 249
29.6116 211
29.63171 222
29.65182 237
29.67194 221
29.69205 205
29.71216 219
29.73228 223
29.75239 232
29.7725 237
29.79262 217
29.81273 237
29.83285 212
29.85296 212
29.87307 211
29.89319 224
29.9133 224
29.93341 233
29.95353 199
29.97364 205
29.99376 228
30.01387 221
30.03398 209
30.0541 232
30.07421 216
30.09432 222
30.11444 219
30.13455 252
30.15467 223
30.17478 220
30.19489 218
30.21501 208
30.23512 236
30.25523 227
30.27535 242
30.29546 200
30.31557 246
30.33569 187
30.3558 198
30.37592 202
30.39603 220
30.41614 236
30.43626 201
30.45637 198
30.47648 202
30.4966 243
30.51671 183
30.53683 204
30.55694 197
30.57705 185
30.59717 218
30.61728 215
30.63739 209
30.65751 207
30.67762 198
30.69773 204
30.71785 207
30.73796 174
30.75808 216
30.77819 222
30.7983 219
30.81842 220
30.83853 220
30.85864 214
30.87876 224
30.89887 182
30.91899 166
30.9391 190
30.95921 190
30.97933 181
30.99944 186
31.01955 190
31.03967 205
31.05978 182
31.0799 180
31.10001 171
31.12012 203
31.14024 203
31.16035 169
31.18046 158
31.20058 182
31.22069 209
31.2408 200
31.26092 211
31.28103 197
31.30115 204
31.32126 168
31.34137 174
31.36149 200
31.3816 189
31.40171 180
31.42183 186
31.44194 182
31.46206 184
31.48217 177
31.50228 162
31.5224 190
31.54251 177
31.56262 173
31.58274 186
31.60285 191
31.62297 169
31.64308 167
31.66319 182
31.68331 154
31.70342 190
31.72353 174
31.74365 191
31.76376 193
31.78387 171
31.80399 176
31.8241 172
31.84422 163
31.86433 169
31.88444 183
31.90456 179
31.92467 144
31.94478 176
31.9649 213
31.98501 156
32.00513 171
32.02524 149
32.04535 158
32.06547 177
32.08558 165
32.10569 165
32.12581 206
32.14592 211
32.16604 191
32.18615 157
32.20626 148
32.22638 166
32.24649 174
32.2666 172
32.28672 202
32.30683 188
32.32694 165
32.34706 197
32.36717 171
32.38729 173
32.4074 172
32.42751 176
32.44763 175
32.46774 192
32.48785 175
32.50797 171
32.52808 170
32.5482 155
32.56831 169
32.58842 175
32.60854 146
32.62865 177
32.64876 181
32.66888 171
32.68899 172
32.7091 153
32.72922 172
32.74933 176
32.76945 159
32.78956 204
32.80967 174
32.82979 179
32.8499 191
32.87001 149
32.89013 184
32.91024 171
32.93036 174
32.95047 163
32.97058 171
32.9907 181
33.01081 166
33.03092 190
33.05104 177
33.07115 171
33.09127 191
33.11138 190
33.13149 141
33.15161 168
33.17172 157
33.19183 168
33.21195 180
33.23206 161
33.25217 165
33.27229 174
33.2924 167
33.31252 179
33.33263 154
33.35274 191
33.37286 169
33.39297 188
33.41308 178
33.4332 170
33.45331 158
33.47343 194
33.49354 191
33.51365 184
33.53377 149
33.55388 168
33.57399 174
33.59411 149
33.61422 162
33.63434 163
33.65445 161
33.67456 173
33.69468 148
33.71479 152
33.7349 179
33.75502 176
33.77513 139
33.79524 156
33.81536 138
33.83547 151
33.85559 152
33.8757 158
33.89581 152
33.91593 180
33.93604 161
33.95615 157
33.97627 130
33.99638 169
34.0165 142
34.03661 151
34.05672 157
34.07684 162
34.09695 169
34.11706 179
34.13718 161
34.15729 151
34.17741 172
34.19752 144
34.21763 149
34.23775 189
34.25786 165
34.27797 159
34.29809 155
34.3182 158
34.33831 167
34.35843 140
34.37854 174
34.39866 158
34.41877 163
34.43888 194
34.459 178
34.47911 164
34.49922 188
34.51934 155
34.53945 168
34.55957 177
34.57968 163
34.59979 199
34.61991 163
34.64002 197
34.66013 182
34.68025 170
34.70036 190
34.72047 177
34.74059 211
34.7607 183
34.78082 172
34.80093 188
34.82104 176
34.84116 204
34.86127 179
34.88138 177
34.9015 193
34.92161 216
34.94173 182
34.96184 175
34.98195 189
35.00207 178
35.02218 183
35.04229 169
35.06241 196
35.08252 177
35.10264 184
35.12275 191
35.14286 186
35.16298 202
35.18309 176
35.2032 192
35.22332 178
35.24343 189
35.26354 186
35.28366 197
35.30377 215
35.32389 219
35.344 200
35.36411 187
35.38423 212
35.40434 210
35.42445 209
35.44457 189
35.46468 205
35.4848 219
35.50491 194
35.52502 235
35.54514 173
35.56525 200
35.58536 204
35.60548 194
35.62559 207
35.64571 184
35.66582 207
35.68593 200
35.70605 209
35.72616 221
35.74627 221
35.76639 208
35.7865 201
35.80661 198
35.82673 209
35.84684 203
35.86696 184
35.88707 199
35.90718 193
35.9273 203
35.94741 203
35.96752 208
35.98764 215
36.00775 216
36.02787 239
36.04798 259
36.06809 237
36.08821 277
36.10832 231
36.12843 272
36.14855 267
36.16866 302
36.18878 317
36.20889 331
36.229 355
36.24912 408
36.26923 447
36.28934 554
36.30946 656
36.32957 760
36.34968 1005
36.3698 1293
36.38991 1585
36.41003 1835
36.43014 2161
36.45025 2289
36.47037 2302
36.49048 2263
36.51059 2044
36.53071 1807
36.55082 1429
36.57094 1204
36.59105 975
36.61116 798
36.63128 614
36.65139 451
36.6715 354
36.69162 315
36.71173 260
36.73184 308
36.75196 275
36.77207 257
36.79219 236
36.8123 247
36.83241 232
36.85253 225
36.87264 256
36.89275 222
36.91287 217
36.93298 215
36.9531 220
36.97321 205
36.99332 180
37.01344 210
37.03355 235
37.05366 198
37.07378 225
37.09389 185
37.11401 201
37.13412 188
37.15423 169
37.17435 195
37.19446 163
37.21457 203
37.23469 189
37.2548 196
37.27491 184
37.29503 198
37.31514 171
37.33526 193
37.35537 184
37.37548 180
37.3956 190
37.41571 195
37.43582 191
37.45594 217
37.47605 181
37.49617 190
37.51628 196
37.53639 165
37.55651 188
37.57662 164
37.59673 154
37.61685 175
37.63696 203
37.65708 171
37.67719 166
37.6973 183
37.71742 156
37.73753 177
37.75764 182
37.77776 190
37.79787 171
37.81798 185
37.8381 189
37.85821 170
37.87833 172
37.89844 191
37.91855 163
37.93867 175
37.95878 192
37.97889 193
37.99901 169
38.01912 195
38.03924 187
38.05935 202
38.07946 183
38.09958 201
38.11969 188
38.1398 192
38.15992 190
38.18003 167
38.20015 208
38.22026 210
38.24037 202
38.26049 193
38.2806 208
38.30071 224
38.32083 201
38.34094 185
38.36105 199
38.38117 198
38.40128 216
38.4214 188
38.44151 196
38.46162 193
38.48174 197
38.50185 197
38.52196 207
38.54208 192
38.56219 188
38.58231 187
38.60242 185
38.62253 170
38.64265 184
38.66276 162
38.68287 210
38.70299 191
38.7231 202
38.74321 192
38.76333 209
38.78344 185
38.80356 211
38.82367 188
38.84378 214
38.8639 212
38.88401 222
38.90412 204
38.92424 224
38.94435 225
38.96447 227
38.98458 219
39.00469 226
39.02481 255
39.04492 255
39.06503 268
39.08515 289
39.10526 313
39.12538 326
39.14549 348
39.1656 409
39.18572 447
39.20583 530
39.22594 627
39.24606 753
39.26617 934
39.28628 1154
39.3064 1409
39.32651 1680
39.34663 1895
39.36674 2046
39.38685 2085
39.40697 2026
39.42708 1897
39.44719 1780
39.46731 1451
39.48742 1226
39.50754 1004
39.52765 919
39.54776 754
39.56788 561
39.58799 428
39.6081 325
39.62822 293
39.64833 316
39.66845 312
39.68856 278
39.70867 241
39.72879 254
39.7489 252
39.76901 232
39.78913 224
39.80924 242
39.82935 233
39.84947 246
39.86958 236
39.8897 249
39.90981 253
39.92992 232
39.95004 279
39.97015 286
39.99026 328
40.01038 346
40.03049 398
40.05061 428
40.07072 499
40.09083 547
40.11095 597
40.13106 810
40.15117 941
40.17129 988
40.1914 1070
40.21152 1102
40.23163 1085
40.25174 936
40.27186 886
40.29197 769
40.31208 687
40.3322 596
40.35231 552
40.37242 407
40.39254 352
40.41265 317
40.43277 267
40.45288 238
40.47299 213
40.49311 201
40.51322 210
40.53333 209
40.55345 207
40.57356 164
40.59368 182
40.61379 209
40.6339 166
40.65402 174
40.67413 185
40.69424 182
40.71436 182
40.73447 172
40.75458 198
40.7747 176
40.79481 174
40.81493 178
40.83504 183
40.85515 189
40.87527 172
40.89538 158
40.91549 156
40.93561 172
40.95572 171
40.97584 194
40.99595 188
41.01606 185
41.03618 196
41.05629 162
41.0764 191
41.09652 182
41.11663 171
41.13675 181
41.15686 156
41.17697 196
41.19709 178
41.2172 180
41.23731 187
41.25743 173
41.27754 173
41.29765 167
41.31777 187
41.33788 167
41.358 174
41.37811 164
41.39822 156
41.41834 156
41.43845 176
41.45856 163
41.47868 169
41.49879 172
41.51891 167
41.53902 156
41.55913 167
41.57925 188
41.59936 169
41.61947 199
41.63959 172
41.6597 182
41.67982 201
41.69993 191
41.72004 197
41.74016 188
41.76027 196
41.78038 202
41.8005 180
41.82061 193
41.84072 181
41.86084 208
41.88095 181
41.90107 182
41.92118 204
41.94129 222
41.96141 210
41.98152 213
42.00163 223
42.02175 237
42.04186 224
42.06198 226
42.08209 281
42.1022 266
42.12232 304
42.14243 351
42.16254 385
42.18266 402
42.20277 498
42.22289 587
42.243 696
42.26311 827
42.28323 1013
42.30334 1199
42.32345 1409
42.34357 1552
42.36368 1555
42.38379 1601
42.40391 1477
42.42402 1321
42.44414 1167
42.46425 994
42.48436 886
42.50448 733
42.52459 612
42.5447 484
42.56482 400
42.58493 317
42.60505 260
42.62516 280
42.64527 226
42.66539 237
42.6855 205
42.70561 184
42.72573 211
42.74584 183
42.76595 201
42.78607 181
42.80618 195
42.8263 185
42.84641 153
42.86652 163
42.88664 171
42.90675 169
42.92686 173
42.94698 200
42.96709 149
42.98721 198
43.00732 159
43.02743 159
43.04755 164
43.06766 181
43.08777 153
43.10789 188
43.128 198
43.14812 160
43.16823 164
43.18834 150
43.20846 163
43.22857 136
43.24868 171
43.2688 156
43.28891 159
43.30902 161
43.32914 154
43.34925 169
43.36937 161
43.38948 155
43.40959 141
43.42971 168
43.44982 177
43.46993 145
43.49005 163
43.51016 165
43.53028 181
43.55039 156
43.5705 157
43.59062 158
43.61073 151
43.63084 159
43.65096 178
43.67107 154
43.69119 167
43.7113 160
43.73141 159
43.75153 148
43.77164 155
43.79175 153
43.81187 145
43.83198 166
43.85209 161
43.87221 133
43.89232 160
43.91244 169
43.93255 165
43.95266 184
43.97278 168
43.99289 165
44.013 140
44.03312 155
44.05323 159
44.07335 154
44.09346 154
44.11357 152
44.13369 170
44.1538 161
44.17391 165
44.19403 152
44.21414 163
44.23426 167
44.25437 164
44.27448 149
44.2946 186
44.31471 167
44.33482 163
44.35494 134
44.37505 152
44.39516 164
44.41528 137
44.43539 169
44.45551 160
44.47562 152
44.49573 165
44.51585 162
44.53596 158
44.55607 141
44.57619 164
44.5963 159
44.61642 153
44.63653 171
44.65664 145
44.67676 154
44.69687 169
44.71698 148
44.7371 158
44.75721 162
44.77732 168
44.79744 154
44.81755 142
44.83767 170
44.85778 161
44.87789 160
44.89801 147
44.91812 186
44.93823 159
44.95835 160
44.97846 165
44.99858 161
45.01869 158
45.0388 175
45.05892 175
45.07903 161
45.09914 155
45.11926 152
45.13937 183
45.15949 183
45.1796 171
45.19971 176
45.21983 182
45.23994 178
45.26005 172
45.28017 190
45.30028 174
45.32039 180
45.34051 194
45.36062 207
45.38074 197
45.40085 216
45.42096 233
45.44108 262
45.46119 267
45.4813 260
45.50142 304
45.52153 301
45.54165 407
45.56176 434
45.58187 523
45.60199 614
45.6221 741
45.64221 788
45.66233 958
45.68244 1000
45.70256 1051
45.72267 1060
45.74278 1015
45.7629 879
45.78301 821
45.80312 724
45.82324 663
45.84335 555
45.86346 501
45.88358 431
45.90369 379
45.92381 272
45.94392 241
45.96403 188
45.98415 217
46.00426 190
46.02437 152
46.04449 169
46.0646 168
46.08472 192
46.10483 169
46.12494 169
46.14506 175
46.16517 137
46.18528 150
46.2054 180
46.22551 145
46.24563 166
46.26574 163
46.28585 141
46.30597 154
46.32608 165
46.34619 162
46.36631 146
46.38642 128
46.40653 151
46.42665 151
46.44676 147
46.46688 154
46.48699 138
46.5071 137
46.52722 138
46.54733 149
46.56744 135
46.58756 150
46.60767 149
46.62779 135
46.6479 140
46.66801 143
46.68813 154
46.70824 133
46.72835 152
46.74847 138
46.76858 153
46.78869 153
46.80881 145
46.82892 168
46.84904 122
46.86915 144
46.88926 136
46.90938 140
46.92949 148
46.9496 154
46.96972 156
46.98983 160
47.00995 159
47.03006 139
47.05017 147
47.07029 142
47.0904 141
47.11051 152
47.13063 172
47.15074 135
47.17086 151
47.19097 157
47.21108 143
47.2312 143
47.25131 142
47.27142 144
47.29154 153
47.31165 149
47.33176 154
47.35188 135
47.37199 153
47.39211 178
47.41222 156
47.43233 162
47.45245 148
47.47256 166
47.49267 163
47.51279 141
47.5329 162
47.55302 147
47.57313 157
47.59324 159
47.61336 130
47.63347 150
47.65358 151
47.6737 157
47.69381 143
47.71393 138
47.73404 148
47.75415 146
47.77427 132
47.79438 142
47.81449 145
47.83461 136
47.85472 132
47.87483 140
47.89495 120
47.91506 142
47.93518 141
47.95529 152
47.9754 141
47.99552 143
48.01563 161
48.03574 126
48.05586 162
48.07597 137
48.09609 140
48.1162 132
48.13631 144
48.15643 155
48.17654 142
48.19665 161
48.21677 156
48.23688 165
48.257 152
48.27711 139
48.29722 157
48.31734 157
48.33745 167
48.35756 159
48.37768 149
48.39779 156
48.4179 151
48.43802 140
48.45813 179
48.47825 167
48.49836 159
48.51847 149
48.53859 148
48.5587 151
48.57881 149
48.59893 157
48.61904 181
48.63916 170
48.65927 164
48.67938 140
48.6995 151
48.71961 158
48.73972 183
48.75984 159
48.77995 151
48.80006 167
48.82018 144
48.84029 180
48.86041 140
48.88052 173
48.90063 160
48.92075 152
48.94086 153
48.96097 163
48.98109 164
49.0012 168
49.02132 151
49.04143 155
49.06154 179
49.08166 163
49.10177 162
49.12188 168
49.142 158
49.16211 156
49.18223 187
49.20234 152
49.22245 168
49.24257 184
49.26268 164
49.28279 187
49.30291 168
49.32302 193
49.34313 194
49.36325 179
49.38336 189
49.40348 211
49.42359 214
49.4437 209
49.46382 202
49.48393 209
49.50404 194
49.52416 221
49.54427 205
49.56439 251
49.5845 228
49.60461 257
49.62473 268
49.64484 297
49.66495 320
49.68507 300
49.70518 332
49.7253 373
49.74541 374
49.76552 434
49.78564 481
49.80575 565
49.82586 658
49.84598 712
49.86609 844
49.8862 1006
49.90632 1237
49.92643 1464
49.94655 1793
49.96666 2195
49.98677 2631
50.00689 3213
50.027 3261
50.04711 3303
50.06723 3384
50.08734 3198
50.10746 2918
50.12757 2533
50.14768 2259
50.1678 2019
50.18791 1878
50.20802 1548
50.22814 1376
50.24825 1053
50.26837 790
50.28848 606
50.30859 489
50.32871 404
50.34882 354
50.36893 335
50.38905 349
50.40916 272
50.42927 305
50.44939 288
50.4695 268
50.48962 290
50.50973 301
50.52984 281
50.54996 277
50.57007 268
50.59018 248
50.6103 242
50.63041 240
50.65053 242
50.67064 238
50.69075 215
50.71087 248
50.73098 199
50.75109 177
50.77121 181
50.79132 183
50.81143 195
50.83155 193
50.85166 164
50.87178 170
50.89189 164
50.912 182
50.93212 152
50.95223 159
50.97234 152
50.99246 149
51.01257 159
51.03269 162
51.0528 169
51.07291 161
51.09303 170
51.11314 138
51.13325 155
51.15337 156
51.17348 151
51.1936 159
51.21371 160
51.23382 154
51.25394 156
51.27405 152
51.29416 143
51.31428 127
51.33439 149
51.3545 162
51.37462 136
51.39473 150
51.41485 124
51.43496 153
51.45507 149
51.47519 157
51.4953 133
51.51541 125
51.53553 136
51.55564 151
51.57576 130
51.59587 140
51.61598 134
51.6361 153
51.65621 151
51.67632 137
51.69644 135
51.71655 125
51.73667 144
51.75678 147
51.77689 137
51.79701 145
51.81712 141
51.83723 152
51.85735 146
51.87746 138
51.89757 144
51.91769 136
51.9378 141
51.95792 138
51.97803 149
51.99814 158
52.01826 128
52.03837 120
52.05848 137
52.0786 142
52.09871 128
52.11883 139
52.13894 144
52.15905 136
52.17917 154
52.19928 139
52.21939 153
52.23951 132
52.25962 134
52.27974 122
52.29985 137
52.31996 152
52.34008 138
52.36019 124
52.3803 139
52.40042 156
52.42053 139
52.44064 141
52.46076 117
52.48087 141
52.50099 130
52.5211 148
52.54121 154
52.56133 159
52.58144 170
52.60155 130
52.62167 128
52.64178 134
52.6619 123
52.68201 136
52.70212 139
52.72224 142
52.74235 154
52.76246 136
52.78258 143
52.80269 129
52.8228 139
52.84292 153
52.86303 142
52.88315 120
52.90326 131
52.92337 135
52.94349 140
52.9636 151
52.98371 113
53.00383 145
53.02394 154
53.04406 158
53.06417 140
53.08428 151
53.1044 156
53.12451 144
53.14462 140
53.16474 150
53.18485 150
53.20497 147
53.22508 133
53.24519 165
53.26531 129
53.28542 151
53.30553 134
53.32565 161
53.34576 138
53.36587 139
53.38599 143
53.4061 130
53.42622 162
53.44633 140
53.46644 155
53.48656 148
53.50667 152
53.52678 154
53.5469 153
53.56701 152
53.58713 149
53.60724 175
53.62735 162
53.64747 153
53.66758 156
53.68769 142
53.70781 149
53.72792 160
53.74804 151
53.76815 143
53.78826 156
53.80838 136
53.82849 148
53.8486 142
53.86872 161
53.88883 144
53.90894 141
53.92906 156
53.94917 182
53.96929 159
53.9894 155
54.00951 139
54.02963 145
54.04974 165
54.06985 139
54.08997 165
54.11008 201
54.1302 197
54.15031 179
54.17042 162
54.19054 159
54.21065 172
54.23076 171
54.25088 197
54.27099 179
54.29111 203
54.31122 203
54.33133 185
54.35145 188
54.37156 186
54.39167 218
54.41179 211
54.4319 227
54.45201 211
54.47213 232
54.49224 241
54.51236 252
54.53247 255
54.55258 307
54.5727 322
54.59281 379
54.61292 405
54.63304 399
54.65315 503
54.67327 612
54.69338 711
54.71349 818
54.73361 932
54.75372 1082
54.77383 1125
54.79395 1067
54.81406 1060
54.83417 929
54.85429 878
54.8744 780
54.89452 682
54.91463 647
54.93474 664
54.95486 577
54.97497 573
54.99508 478
55.0152 426
55.03531 374
55.05543 325
55.07554 310
55.09565 330
55.11577 344
55.13588 379
55.15599 464
55.17611 449
55.19622 511
55.21634 552
55.23645 597
55.25656 533
55.27668 499
55.29679 512
55.3169 461
55.33702 423
55.35713 372
55.37724 371
55.39736 383
55.41747 349
55.43759 314
55.4577 299
55.47781 247
55.49793 206
55.51804 182
55.53815 181
55.55827 198
55.57838 182
55.5985 164
55.61861 170
55.63872 148
55.65884 175
55.67895 151
55.69906 132
55.71918 163
55.73929 159
55.75941 153
55.77952 164
55.79963 164
55.81975 167
55.83986 153
55.85997 147
55.88009 162
55.9002 157
55.92031 155
55.94043 152
55.96054 134
55.98066 150
56.00077 173
56.02088 155
56.041 142
56.06111 137
56.08122 142
56.10134 136
56.12145 138
56.14157 144
56.16168 124
56.18179 159
56.20191 141
56.22202 143
56.24213 140
56.26225 159
56.28236 134
56.30248 152
56.32259 142
56.3427 143
56.36282 144
56.38293 135
56.40304 120
56.42316 137
56.44327 133
56.46338 144
56.4835 151
56.50361 150
56.52373 162
56.54384 151
56.56395 163
56.58407 143
56.60418 143
56.62429 146
56.64441 159
56.66452 144
56.68464 129
56.70475 126
56.72486 139
56.74498 135
56.76509 110
56.7852 137
56.80532 134
56.82543 129
56.84554 138
56.86566 146
56.88577 136
56.90589 145
56.926 151
56.94611 163
56.96623 151
56.98634 182
57.00645 167
57.02657 165
57.04668 178
57.0668 179
57.08691 169
57.10702 175
57.12714 168
57.14725 208
57.16736 180
57.18748 189
57.20759 162
57.22771 198
57.24782 174
57.26793 185
57.28805 152
57.30816 162
57.32827 174
57.34839 177
57.3685 177
57.38861 151
57.40873 143
57.42884 151
57.44896 151
57.46907 134
57.48918 135
57.5093 160
57.52941 151
57.54952 143
57.56964 139
57.58975 145
57.60987 130
57.62998 144
57.65009 134
57.67021 154
57.69032 148
57.71043 171
57.73055 141
57.75066 119
57.77078 151
57.79089 157
57.811 142
57.83112 150
57.85123 136
57.87134 149
57.89146 135
57.91157 155
57.93168 112
57.9518 137
57.97191 124
57.99203 169
58.01214 134
58.03225 133
58.05237 131
58.07248 139
58.09259 151
58.11271 150
58.13282 138
58.15294 158
58.17305 161
58.19316 154
58.21328 148
58.23339 158
58.2535 153
58.27362 128
58.29373 154
58.31385 116
58.33396 146
58.35407 165
58.37419 159
58.3943 134
58.41441 138
58.43453 144
58.45464 142
58.47475 154
58.49487 138
58.51498 159
58.5351 140
58.55521 128
58.57532 170
58.59544 171
58.61555 135
58.63566 124
58.65578 136
58.67589 145
58.69601 134
58.71612 140
58.73623 143
58.75635 128
58.77646 163
58.79657 162
58.81669 139
58.8368 163
58.85691 154
58.87703 160
58.89714 155
58.91726 150
58.93737 162
58.95748 151
58.9776 157
58.99771 141
59.01782 165
59.03794 160
59.05805 156
59.07817 170
59.09828 141
59.11839 155
59.13851 162
59.15862 145
59.17873 170
59.19885 174
59.21896 165
59.23908 190
59.25919 174
59.2793 199
59.29942 192
59.31953 173
59.33964 173
59.35976 211
59.37987 221
59.39998 223
59.4201 189
59.44021 211
59.46033 242
59.48044 240
59.50055 263
59.52067 288
59.54078 292
59.56089 299
59.58101 377
59.60112 421
59.62124 473
59.64135 512
59.66146 600
59.68158 678
59.70169 775
59.7218 923
59.74192 1105
59.76203 1281
59.78215 1528
59.80226 1847
59.82237 2104
59.84249 2238
59.8626 2186
59.88271 2270
59.90283 2023
59.92294 1799
59.94305 1544
59.96317 1378
59.98328 1345
60.0034 1311
60.02351 1263
60.04362 1127
60.06374 1036
60.08385 883
60.10396 673
60.12408 537
60.14419 392
60.16431 353
60.18442 273
60.20453 268
60.22465 242
60.24476 241
60.26487 232
60.28499 218
60.3051 189
60.32522 195
60.34533 202
60.36544 172
60.38556 192
60.40567 175
60.42578 184
60.4459 161
60.46601 153
60.48612 171
60.50624 150
60.52635 155
60.54647 171
60.56658 161
60.58669 160
60.60681 152
60.62692 159
60.64703 159
60.66715 149
60.68726 164
60.70738 153
60.72749 152
60.7476 137
60.76772 155
60.78783 154
60.80794 157
60.82806 134
60.84817 157
60.86828 150
60.8884 144
60.90851 141
60.92863 150
60.94874 158
60.96885 144
60.98897 150
61.00908 152
61.02919 146
61.04931 145
61.06942 167
61.08954 139
61.10965 148
61.12976 160
61.14988 139
61.16999 151
61.1901 162
61.21022 151
61.23033 159
61.25045 146
61.27056 151
61.29067 157
61.31079 163
61.3309 142
61.35101 149
61.37113 166
61.39124 153
61.41135 183
61.43147 138
61.45158 123
61.4717 134
61.49181 141
61.51192 132
61.53204 148
61.55215 152
61.57226 147
61.59238 144
61.61249 167
61.63261 148
61.65272 141
61.67283 141
61.69295 149
61.71306 155
61.73317 180
61.75329 173
61.7734 132
61.79352 184
61.81363 162
61.83374 153
61.85386 141
61.87397 150
61.89408 148
61.9142 154
61.93431 167
61.95442 166
61.97454 156
61.99465 157
62.01477 179
62.03488 164
62.05499 175
62.07511 156
62.09522 167
62.11533 158
62.13545 155
62.15556 171
62.17568 158
62.19579 165
62.2159 164
62.23602 161
62.25613 156
62.27624 138
62.29636 167
62.31647 141
62.33659 149
62.3567 171
62.37681 159
62.39693 150
62.41704 158
62.43715 140
62.45727 155
62.47738 163
62.49749 135
62.51761 166
62.53772 136
62.55784 121
62.57795 170
62.59806 148
62.61818 139
62.63829 144
62.6584 123
62.67852 149
62.69863 127
62.71875 141
62.73886 138
62.75897 137
62.77909 142
62.7992 123
62.81931 124
62.83943 126
62.85954 150
62.87965 152
62.89977 134
62.91988 132
62.94 147
62.96011 143
62.98022 134
63.00034 147
63.02045 159
63.04056 155
63.06068 137
63.08079 146
63.10091 139
63.12102 137
63.14113 132
63.16125 120
63.18136 130
63.20147 141
63.22159 143
63.2417 145
63.26182 128
63.28193 130
63.30204 141
63.32216 123
63.34227 142
63.36238 134
63.3825 126
63.40261 170
63.42272 149
63.44284 147
63.46295 141
63.48307 134
63.50318 149
63.52329 135
63.54341 170
63.56352 151
63.58363 158
63.60375 151
63.62386 187
63.64398 167
63.66409 194
63.6842 172
63.70432 192
63.72443 205
63.74454 219
63.76466 215
63.78477 261
63.80489 284
63.825 298
63.84511 336
63.86523 404
63.88534 465
63.90545 485
63.92557 558
63.94568 491
63.96579 531
63.98591 482
64.00602 439
64.02614 378
64.04625 343
64.06636 326
64.08648 320
64.10659 346
64.1267 327
64.14682 321
64.16693 261
64.18705 247
64.20716 205
64.22727 191
64.24739 152
64.2675 154
64.28761 163
64.30773 175
64.32784 155
64.34796 149
64.36807 140
64.38818 176
64.4083 147
64.42841 168
64.44852 131
64.46864 124
64.48875 126
64.50886 155
64.52898 138
64.54909 140
64.56921 141
64.58932 144
64.60943 117
64.62955 128
64.64966 156
64.66977 144
64.68989 144
64.71 141
64.73012 130
64.75023 143
64.77034 133
64.79046 149
64.81057 146
64.83068 112
64.8508 133
64.87091 147
64.89102 151
64.91114 131
64.93125 127
64.95137 124
64.97148 152
64.99159 128
65.01171 131
65.03182 147
65.05193 143
65.07205 145
65.09216 149
65.11228 142
65.13239 136
65.1525 150
65.17262 155
65.19273 116
65.21284 137
65.23296 146
65.25307 159
65.27319 132
65.2933 136
65.31341 142
65.33353 161
65.35364 145
65.37375 143
65.39387 138
65.41398 142
65.43409 157
65.45421 160
65.47432 150
65.49444 160
65.51455 183
65.53466 172
65.55478 172
65.57489 233
65.595 221
65.61512 208
65.63523 229
65.65535 219
65.67546 241
65.69557 248
65.71569 230
65.7358 240
65.75591 197
65.77603 177
65.79614 188
65.81626 206
65.83637 220
65.85648 191
65.8766 205
65.89671 193
65.91682 175
65.93694 158
65.95705 178
65.97716 156
65.99728 140
66.01739 152
66.03751 138
66.05762 154
66.07773 151
66.09785 160
66.11796 156
66.13807 162
66.15819 140
66.1783 167
66.19842 162
66.21853 165
66.23864 157
66.25876 130
66.27887 141
66.29898 172
66.3191 141
66.33921 164
66.35933 148
66.37944 162
66.39955 143
66.41967 139
66.43978 140
66.45989 151
66.48001 147
66.50012 140
66.52023 128
66.54035 147
66.56046 167
66.58058 163
66.60069 145
66.6208 135
66.64092 145
66.66103 162
66.68114 154
66.70126 156
66.72137 130
66.74149 174
66.7616 170
66.78171 144
66.80183 154
66.82194 162
66.84205 161
66.86217 181
66.88228 186
66.90239 160
66.92251 176
66.94262 156
66.96274 181
66.98285 150
67.00296 165
67.02308 179
67.04319 174
67.0633 170
67.08342 179
67.10353 184
67.12365 202
67.14376 201
67.16387 214
67.18399 194
67.2041 205
67.22421 221
67.24433 222
67.26444 271
67.28456 248
67.30467 271
67.32478 309
67.3449 327
67.36501 337
67.38512 326
67.40524 396
67.42535 427
67.44546 434
67.46558 484
67.48569 617
67.50581 649
67.52592 721
67.54603 881
67.56615 978
67.58626 1143
67.60637 1237
67.62649 1428
67.6466 1394
67.66672 1414
67.68683 1274
67.70694 1210
67.72706 1086
67.74717 1009
67.76728 942
67.7874 980
67.80751 1070
67.82763 1090
67.84774 1102
67.86785 1135
67.88797 1139
67.90808 1141
67.92819 1129
67.94831 1290
67.96842 1321
67.98853 1527
68.00865 1693
68.02876 1887
68.04888 1999
68.06899 1926
68.0891 1863
68.10922 1749
68.12933 1612
68.14944 1697
68.16956 1620
68.18967 1653
68.20979 1816
68.2299 1786
68.25001 1579
68.27013 1438
68.29024 1298
68.31035 1072
68.33047 873
68.35058 815
68.3707 771
68.39081 743
68.41092 706
68.43104 673
68.45115 570
68.47126 499
68.49138 404
68.51149 330
68.5316 317
68.55172 276
68.57183 288
68.59195 233
68.61206 246
68.63217 205
68.65229 170
68.6724 188
68.69251 166
68.71263 168
68.73274 164
68.75286 180
68.77297 175
68.79308 185
68.8132 172
68.83331 176
68.85342 188
68.87354 163
68.89365 169
68.91376 171
68.93388 168
68.95399 177
68.97411 160
68.99422 169
69.01433 157
69.03445 167
69.05456 172
69.07467 134
69.09479 157
69.1149 126
69.13502 144
69.15513 154
69.17524 155
69.19536 150
69.21547 141
69.23558 152
69.2557 160
69.27581 152
69.29593 168
69.31604 150
69.33615 141
69.35627 127
69.37638 133
69.39649 125
69.41661 134
69.43672 134
69.45683 158
69.47695 142
69.49706 127
69.51718 123
69.53729 147
69.5574 136
69.57752 135
69.59763 153
69.61774 127
69.63786 128
69.65797 135
69.67809 164
69.6982 122
69.71831 143
69.73843 130
69.75854 139
69.77865 160
69.79877 137
69.81888 143
69.839 156
69.85911 139
69.87922 140
69.89934 122
69.91945 142
69.93956 139
69.95968 142
69.97979 118
69.9999 136
70.02002 129
70.04013 132
70.06025 137
70.08036 133
70.10047 129
70.12059 129
70.1407 120
70.16081 149
70.18093 120
70.20104 129
70.22116 131
70.24127 146
70.26138 134
70.2815 146
70.30161 126
70.32172 142
70.34184 146
70.36195 162
70.38207 124
70.40218 138
70.42229 112
70.44241 127
70.46252 144
70.48263 135
70.50275 150
70.52286 143
70.54297 132
70.56309 135
70.5832 128
70.60332 130
70.62343 122
70.64354 122
70.66366 124
70.68377 125
70.70388 147
70.724 142
70.74411 133
70.76423 139
70.78434 124
70.80445 115
70.82457 123
70.84468 154
70.86479 116
70.88491 146
70.90502 124
70.92513 121
70.94525 115
70.96536 138
70.98548 145
71.00559 146
71.0257 139
71.04582 109
71.06593 115
71.08604 121
71.10616 119
71.12627 121
71.14639 122
71.1665 139
71.18661 134
71.20673 148
71.22684 131
71.24695 122
71.26707 116
71.28718 139
71.3073 125
71.32741 126
71.34752 119
71.36764 140
71.38775 138
71.40786 123
71.42798 127
71.44809 128
71.4682 125
71.48832 125
71.50843 122
71.52855 145
71.54866 125
71.56877 133
71.58889 121
71.609 126
71.62911 124
71.64923 130
71.66934 125
71.68946 127
71.70957 145
71.72968 113
71.7498 121
71.76991 123
71.79002 143
71.81014 129
71.83025 131
71.85037 114
71.87048 134
71.89059 126
71.91071 143
71.93082 113
71.95093 142
71.97105 130
71.99116 113
72.01127 114
72.03139 129
72.0515 114
72.07162 110
72.09173 127
72.11184 134
72.13196 133
72.15207 129
72.17218 119
72.1923 140
72.21241 119
72.23253 137
72.25264 157
72.27275 134
72.29287 143
72.31298 127
72.33309 123
72.35321 134
72.37332 147
72.39344 145
72.41355 121
72.43366 123
72.45378 161
72.47389 138
72.494 143
72.51412 135
72.53423 134
72.55434 132
72.57446 135
72.59457 140
72.61469 123
72.6348 133
72.65491 143
72.67503 110
72.69514 148
72.71525 137
72.73537 129
72.75548 156
72.7756 138
72.79571 130
72.81582 152
72.83594 148
72.85605 157
72.87616 146
72.89628 144
72.91639 141
72.9365 149
72.95662 155
72.97673 144
72.99685 165
73.01696 161
73.03707 173
73.05719 186
73.0773 195
73.09741 183
73.11753 204
73.13764 209
73.15776 237
73.17787 234
73.19798 252
73.2181 282
73.23821 313
73.25832 351
73.27844 408
73.29855 423
73.31867 484
73.33878 534
73.35889 567
73.37901 569
73.39912 536
73.41923 527
73.43935 440
73.45946 408
73.47957 341
73.49969 319
73.5198 343
73.53992 359
73.56003 353
73.58014 386
73.60026 361
73.62037 328
73.64048 282
73.6606 251
73.68071 226
73.70083 205
73.72094 183
73.74105 166
73.76117 157
73.78128 172
73.80139 148
73.82151 174
73.84162 140
73.86174 127
73.88185 163
73.90196 148
73.92208 144
73.94219 128
73.9623 163
73.98242 134
74.00253 132
74.02264 130
74.04276 128
74.06287 136
74.08299 122
74.1031 122
74.12321 158
74.14333 135
74.16344 130
74.18355 126
74.20367 139
74.22378 124
74.2439 127
74.26401 128
74.28412 143
74.30424 106
74.32435 121
74.34446 126
74.36458 119
74.38469 147
74.40481 117
74.42492 139
74.44503 138
74.46515 131
74.48526 132
74.50537 120
74.52549 115
74.5456 118
74.56571 138
74.58583 123
74.60594 108
74.62606 158
74.64617 124
74.66628 116
74.6864 140
74.70651 119
74.72662 115
74.74674 135
74.76685 129
74.78697 122
74.80708 139
74.82719 129
74.84731 155
74.86742 154
74.88753 148
74.90765 149
74.92776 138
74.94787 151
74.96799 152
74.9881 133
75.00822 147
