3.00117 20032
3.02128 19379
3.0414 19053
3.06151 18375
3.08162 17796
3.10174 17132
3.12185 17170
3.14197 16216
3.16208 15924
3.18219 15591
3.20231 14860
3.22242 14489
3.24253 14322
3.26265 13621
3.28276 13236
3.30288 12606
3.32299 12522
3.3431 11952
3.36322 11500
3.38333 11263
3.40344 10464
3.42356 10548
3.44367 10082
3.46379 9694
3.4839 9394
3.50401 8931
3.52413 8924
3.54424 8517
3.56435 8112
3.58447 7849
3.60458 7315
3.62469 7258
3.64481 6973
3.66492 6564
3.68504 6497
3.70515 6106
3.72526 6118
3.74538 5747
3.76549 5365
3.7856 5265
3.80572 4908
3.82583 4731
3.84595 4573
3.86606 4310
3.88617 4287
3.90629 3948
3.9264 3978
3.94651 3644
3.96663 3446
3.98674 3430
4.00686 3075
4.02697 3131
4.04708 2883
4.0672 2781
4.08731 2670
4.10742 2544
4.12754 2468
4.14765 2446
4.16776 2185
4.18788 2089
4.20799 2006
4.22811 1985
4.24822 2018
4.26833 1791
4.28845 1802
4.30856 1721
4.32867 1757
4.34879 1631
4.3689 1481
4.38902 1544
4.40913 1456
4.42924 1530
4.44936 1504
4.46947 1219
4.48958 1388
4.5097 1272
4.52981 1269
4.54992 1335
4.57004 1168
4.59015 1188
4.61027 1190
4.63038 1154
4.65049 1166
4.67061 1092
4.69072 1057
4.71083 940
4.73095 1010
4.75106 1039
4.77118 937
4.79129 947
4.8114 942
4.83152 889
4.85163 872
4.87174 863
4.89186 822
4.91197 867
4.93209 804
4.9522 800
4.97231 765
4.99243 774
5.01254 709
5.03265 728
5.05277 770
5.07288 727
5.09299 696
5.11311 670
5.13322 634
5.15334 634
5.17345 594
5.19356 638
5.21368 608
5.23379 587
5.2539 563
5.27402 581
5.29413 518
5.31425 557
5.33436 546
5.35447 476
5.37459 535
5.3947 511
5.41481 478
5.43493 494
5.45504 503
5.47516 462
5.49527 441
5.51538 458
5.5355 433
5.55561 436
5.57572 411
5.59584 413
5.61595 394
5.63606 412
5.65618 393
5.67629 357
5.69641 346
5.71652 371
5.73663 366
5.75675 361
5.77686 342
5.79697 381
5.81709 357
5.8372 353
5.85732 347
5.87743 315
5.89754 347
5.91766 349
5.93777 364
5.95788 326
5.978 331
5.99811 370
6.01823 309
6.03834 320
6.05845 318
6.07857 326
6.09868 331
6.11879 325
6.13891 310
6.15902 321
6.17913 292
6.19925 286
6.21936 284
6.23948 289
6.25959 280
6.2797 276
6.29982 310
6.31993 298
6.34004 277
6.36016 266
6.38027 290
6.40039 289
6.4205 285
6.44061 290
6.46073 282
6.48084 296
6.50095 278
6.52107 262
6.54118 298
6.56129 316
6.58141 310
6.60152 303
6.62164 283
6.64175 272
6.66186 282
6.68198 282
6.70209 266
6.7222 314
6.74232 278
6.76243 268
6.78255 292
6.80266 272
6.82277 312
6.84289 290
6.863 259
6.88311 235
6.90323 256
6.92334 269
6.94346 294
6.96357 282
6.98368 268
7.0038 268
7.02391 281
7.04402 259
7.06414 265
7.08425 278
7.10436 249
7.12448 274
7.14459 273
7.16471 291
7.18482 247
7.20493 262
7.22505 305
7.24516 263
7.26527 294
7.28539 299
7.3055 285
7.32562 310
7.34573 282
7.36584 297
7.38596 262
7.40607 286
7.42618 303
7.4463 267
7.46641 290
7.48653 268
7.50664 281
7.52675 289
7.54687 276
7.56698 313
7.58709 281
7.60721 304
7.62732 295
7.64743 266
7.66755 298
7.68766 268
7.70778 307
7.72789 300
7.748 270
7.76812 293
7.78823 335
7.80834 292
7.82846 343
7.84857 282
7.86869 300
7.8888 283
7.90891 285
7.92903 283
7.94914 288
7.96925 286
7.98937 296
8.00948 285
8.0296 283
8.04971 262
8.06982 304
8.08994 305
8.11005 284
8.13016 302
8.15028 299
8.17039 272
8.1905 305
8.21062 278
8.23073 320
8.25085 279
8.27096 304
8.29107 319
8.31119 317
8.3313 307
8.35141 307
8.37153 284
8.39164 306
8.41176 346
8.43187 328
8.45198 340
8.4721 282
8.49221 342
8.51232 319
8.53244 319
8.55255 379
8.57266 339
8.59278 346
8.61289 330
8.63301 383
8.65312 323
8.67323 379
8.69335 379
8.71346 406
8.73357 397
8.75369 409
8.7738 459
8.79392 488
8.81403 494
8.83414 512
8.85426 566
8.87437 598
8.89448 545
8.9146 534
8.93471 500
8.95483 418
8.97494 413
8.99505 361
9.01517 358
9.03528 336
9.05539 331
9.07551 341
9.09562 339
9.11573 317
9.13585 313
9.15596 310
9.17608 329
9.19619 293
9.2163 285
9.23642 338
9.25653 329
9.27664 287
9.29676 304
9.31687 327
9.33699 291
9.3571 299
9.37721 295
9.39733 323
9.41744 304
9.43755 310
9.45767 312
9.47778 251
9.4979 310
9.51801 322
9.53812 331
9.55824 308
9.57835 293
9.59846 280
9.61858 309
9.63869 313
9.6588 308
9.67892 300
9.69903 252
9.71915 296
9.73926 343
9.75937 285
9.77949 301
9.7996 300
9.81971 289
9.83983 301
9.85994 296
9.88006 309
9.90017 317
9.92028 330
9.9404 312
9.96051 292
9.98062 303
10.00074 318
10.02085 304
10.04097 267
10.06108 280
10.08119 298
10.10131 282
10.12142 296
10.14153 311
10.16165 292
10.18176 280
10.20187 321
10.22199 295
10.2421 309
10.26222 338
10.28233 306
10.30244 289
10.32256 279
10.34267 297
10.36278 291
10.3829 298
10.40301 269
10.42313 308
10.44324 321
10.46335 274
10.48347 269
10.50358 285
10.52369 318
10.54381 313
10.56392 309
10.58403 321
10.60415 335
10.62426 309
10.64438 302
10.66449 290
10.6846 330
10.70472 323
10.72483 297
10.74494 278
10.76506 290
10.78517 293
10.80529 288
10.8254 320
10.84551 321
10.86563 285
10.88574 313
10.90585 281
10.92597 303
10.94608 296
10.9662 291
10.98631 279
11.00642 270
11.02654 249
11.04665 306
11.06676 291
11.08688 306
11.10699 333
11.1271 308
11.14722 306
11.16733 324
11.18745 306
11.20756 327
11.22767 289
11.24779 266
11.2679 286
11.28801 315
11.30813 328
11.32824 303
11.34836 296
11.36847 279
11.38858 283
11.4087 301
11.42881 305
11.44892 268
11.46904 273
11.48915 292
11.50927 298
11.52938 313
11.54949 323
11.56961 344
11.58972 308
11.60983 314
11.62995 255
11.65006 318
11.67017 296
11.69029 311
11.7104 286
11.73052 303
11.75063 327
11.77074 314
11.79086 314
11.81097 323
11.83108 321
11.8512 293
11.87131 324
11.89143 320
11.91154 296
11.93165 339
11.95177 298
11.97188 322
11.99199 318
12.01211 313
12.03222 310
12.05234 328
12.07245 350
12.09256 334
12.11268 333
12.13279 328
12.1529 360
12.17302 349
12.19313 351
12.21324 354
12.23336 371
12.25347 388
12.27359 375
12.2937 419
12.31381 435
12.33393 457
12.35404 461
12.37415 439
12.39427 413
12.41438 456
12.4345 428
12.45461 379
12.47472 397
12.49484 383
12.51495 391
12.53506 364
12.55518 320
12.57529 308
12.5954 334
12.61552 364
12.63563 348
12.65575 319
12.67586 296
12.69597 312
12.71609 329
12.7362 309
12.75631 314
12.77643 304
12.79654 280
12.81666 318
12.83677 289
12.85688 280
12.877 295
12.89711 328
12.91722 310
12.93734 305
12.95745 288
12.97757 290
12.99768 314
13.01779 324
13.03791 320
13.05802 281
13.07813 323
13.09825 251
13.11836 298
13.13847 326
13.15859 332
13.1787 300
13.19882 265
13.21893 291
13.23904 278
13.25916 323
13.27927 299
13.29938 274
13.3195 287
13.33961 290
13.35973 271
13.37984 298
13.39995 273
13.42007 282
13.44018 276
13.46029 277
13.48041 294
13.50052 269
13.52064 299
13.54075 258
13.56086 294
13.58098 242
13.60109 306
13.6212 311
13.64132 286
13.66143 279
13.68154 257
13.70166 254
13.72177 319
13.74189 268
13.762 282
13.78211 282
13.80223 289
13.82234 257
13.84245 295
13.86257 284
13.88268 297
13.9028 275
13.92291 279
13.94302 266
13.96314 276
13.98325 294
14.00336 291
14.02348 270
14.04359 271
14.06371 257
14.08382 282
14.10393 235
14.12405 252
14.14416 263
14.16427 263
14.18439 250
14.2045 257
14.22461 255
14.24473 256
14.26484 269
14.28496 266
14.30507 268
14.32518 269
14.3453 267
14.36541 270
14.38552 259
14.40564 299
14.42575 267
14.44587 257
14.46598 274
14.48609 247
14.50621 245
14.52632 309
14.54643 251
14.56655 251
14.58666 248
14.60677 279
14.62689 251
14.647 267
14.66712 263
14.68723 277
14.70734 268
14.72746 308
14.74757 274
14.76768 261
14.7878 273
14.80791 273
14.82803 291
14.84814 278
14.86825 250
14.88837 266
14.90848 276
14.92859 281
14.94871 292
14.96882 247
14.98894 281
15.00905 293
15.02916 283
15.04928 286
15.06939 295
15.0895 278
15.10962 286
15.12973 264
15.14984 261
15.16996 270
15.19007 241
15.21019 253
15.2303 242
15.25041 272
15.27053 246
15.29064 285
15.31075 257
15.33087 277
15.35098 305
15.3711 249
15.39121 228
15.41132 276
15.43144 252
15.45155 249
15.47166 266
15.49178 288
15.51189 289
15.53201 257
15.55212 242
15.57223 260
15.59235 248
15.61246 279
15.63257 269
15.65269 280
15.6728 272
15.69291 263
15.71303 273
15.73314 284
15.75326 278
15.77337 247
15.79348 260
15.8136 267
15.83371 199
15.85382 272
15.87394 240
15.89405 261
15.91417 252
15.93428 258
15.95439 271
15.97451 236
15.99462 270
16.01473 270
16.03485 232
16.05496 251
16.07508 275
16.09519 267
16.1153 272
16.13542 265
16.15553 264
16.17564 267
16.19576 253
16.21587 271
16.23598 288
16.2561 283
16.27621 267
16.29633 253
16.31644 258
16.33655 272
16.35667 256
16.37678 274
16.39689 261
16.41701 255
16.43712 241
16.45724 273
16.47735 257
16.49746 260
16.51758 244
16.53769 242
16.5578 249
16.57792 261
16.59803 251
16.61814 262
16.63826 277
16.65837 227
16.67849 270
16.6986 259
16.71871 269
16.73883 296
16.75894 275
16.77905 257
16.79917 285
16.81928 272
16.8394 272
16.85951 288
16.87962 256
16.89974 277
16.91985 258
16.93996 251
16.96008 260
16.98019 256
17.00031 212
17.02042 257
17.04053 290
17.06065 276
17.08076 235
17.10087 275
17.12099 255
17.1411 247
17.16121 274
17.18133 253
17.20144 256
17.22156 244
17.24167 252
17.26178 269
17.2819 285
17.30201 241
17.32212 257
17.34224 258
17.36235 264
17.38247 266
17.40258 284
17.42269 295
17.44281 253
17.46292 285
17.48303 231
17.50315 249
17.52326 266
17.54338 282
17.56349 276
17.5836 257
17.60372 251
17.62383 275
17.64394 308
17.66406 326
17.68417 310
17.70428 336
17.7244 335
17.74451 337
17.76463 370
17.78474 376
17.80485 378
17.82497 364
17.84508 352
17.86519 347
17.88531 279
17.90542 315
17.92554 331
17.94565 279
17.96576 298
17.98588 300
18.00599 284
18.0261 299
18.04622 280
18.06633 277
18.08645 306
18.10656 267
18.12667 261
18.14679 240
18.1669 248
18.18701 309
18.20713 290
18.22724 296
18.24735 268
18.26747 271
18.28758 272
18.3077 250
18.32781 292
18.34792 280
18.36804 262
18.38815 246
18.40826 273
18.42838 249
18.44849 237
18.46861 273
18.48872 245
18.50883 268
18.52895 268
18.54906 250
18.56917 256
18.58929 253
18.6094 245
18.62951 274
18.64963 256
18.66974 254
18.68986 249
18.70997 270
18.73008 274
18.7502 279
18.77031 241
18.79042 259
18.81054 283
18.83065 265
18.85077 288
18.87088 247
18.89099 222
18.91111 235
18.93122 246
18.95133 301
18.97145 252
18.99156 271
19.01168 275
19.03179 274
19.0519 247
19.07202 268
19.09213 265
19.11224 265
19.13236 268
19.15247 291
19.17258 266
19.1927 240
19.21281 286
19.23293 243
19.25304 261
19.27315 240
19.29327 279
19.31338 251
19.33349 306
19.35361 258
19.37372 249
19.39384 255
19.41395 242
19.43406 269
19.45418 292
19.47429 274
19.4944 285
19.51452 274
19.53463 309
19.55475 299
19.57486 335
19.59497 315
19.61509 325
19.6352 362
19.65531 356
19.67543 412
19.69554 449
19.71565 483
19.73577 480
19.75588 572
19.776 606
19.79611 591
19.81622 662
19.83634 671
19.85645 645
19.87656 656
19.89668 639
19.91679 634
19.93691 585
19.95702 508
19.97713 489
19.99725 445
20.01736 479
20.03747 439
20.05759 437
20.0777 376
20.09782 402
20.11793 421
20.13804 493
20.15816 452
20.17827 440
20.19838 426
20.2185 437
20.23861 374
20.25872 409
20.27884 369
20.29895 412
20.31907 421
20.33918 419
20.35929 469
20.37941 386
20.39952 406
20.41963 448
20.43975 430
20.45986 425
20.47998 410
20.50009 431
20.5202 477
20.54032 481
20.56043 518
20.58054 509
20.60066 497
20.62077 551
20.64088 587
20.661 610
20.68111 699
20.70123 801
20.72134 1021
20.74145 1285
20.76157 1760
20.78168 2629
20.80179 3694
20.82191 5153
20.84202 6061
20.86214 6719
20.88225 6313
20.90236 4823
20.92248 3630
20.94259 2322
20.9627 1514
20.98282 945
21.00293 683
21.02305 696
21.04316 617
21.06327 604
21.08339 536
21.1035 554
21.12361 550
21.14373 521
21.16384 539
21.18395 523
21.20407 549
21.22418 509
21.2443 542
21.26441 603
21.28452 586
21.30464 572
21.32475 554
21.34486 574
21.36498 610
21.38509 564
21.40521 546
21.42532 474
21.44543 480
21.46555 473
21.48566 453
21.50577 417
21.52589 459
21.546 448
21.56612 454
21.58623 449
21.60634 454
21.62646 402
21.64657 392
21.66668 422
21.6868 400
21.70691 388
21.72702 362
21.74714 374
21.76725 341
21.78737 376
21.80748 341
21.82759 366
21.84771 372
21.86782 342
21.88793 336
21.90805 346
21.92816 355
21.94828 349
21.96839 350
21.9885 351
22.00862 335
22.02873 357
22.04884 353
22.06896 354
22.08907 362
22.10919 371
22.1293 359
22.14941 306
22.16953 318
22.18964 363
22.20975 340
22.22987 305
22.24998 335
22.27009 337
22.29021 351
22.31032 338
22.33044 348
22.35055 349
22.37066 376
22.39078 326
22.41089 301
22.431 352
22.45112 368
22.47123 352
22.49135 359
22.51146 332
22.53157 288
22.55169 326
22.5718 308
22.59191 338
22.61203 340
22.63214 324
22.65225 351
22.67237 283
22.69248 374
22.7126 325
22.73271 324
22.75282 387
22.77294 338
22.79305 347
22.81316 409
22.83328 381
22.85339 422
22.87351 383
22.89362 392
22.91373 407
22.93385 390
22.95396 357
22.97407 373
22.99419 361
23.0143 393
23.03442 366
23.05453 337
23.07464 342
23.09476 319
23.11487 328
23.13498 362
23.1551 324
23.17521 335
23.19532 342
23.21544 337
23.23555 353
23.25567 328
23.27578 329
23.29589 349
23.31601 312
23.33612 326
23.35623 320
23.37635 301
23.39646 309
23.41658 353
23.43669 362
23.4568 325
23.47692 280
23.49703 346
23.51714 320
23.53726 358
23.55737 315
23.57749 328
23.5976 311
23.61771 334
23.63783 343
23.65794 338
23.67805 338
23.69817 355
23.71828 355
23.73839 375
23.75851 416
23.77862 433
23.79874 424
23.81885 445
23.83896 399
23.85908 416
23.87919 366
23.8993 409
23.91942 376
23.93953 373
23.95965 388
23.97976 414
23.99987 383
24.01999 377
24.0401 389
24.06021 353
24.08033 356
24.10044 356
24.12056 302
24.14067 322
24.16078 315
24.1809 325
24.20101 345
24.22112 338
24.24124 340
24.26135 294
24.28146 334
24.30158 369
24.32169 313
24.34181 332
24.36192 303
24.38203 311
24.40215 332
24.42226 328
24.44237 371
24.46249 301
24.4826 332
24.50272 336
24.52283 321
24.54294 319
24.56306 323
24.58317 326
24.60328 378
24.6234 333
24.64351 364
24.66362 350
24.68374 350
24.70385 357
24.72397 381
24.74408 380
24.76419 376
24.78431 405
24.80442 393
24.82453 415
24.84465 423
24.86476 418
24.88488 411
24.90499 462
24.9251 428
24.94522 393
24.96533 387
24.98544 413
25.00556 407
25.02567 352
25.04579 341
25.0659 349
25.08601 388
25.10613 337
25.12624 366
25.14635 313
25.16647 371
25.18658 347
25.20669 348
25.22681 355
25.24692 401
25.26704 367
25.28715 327
25.30726 379
25.32738 385
25.34749 396
25.3676 395
25.38772 439
25.40783 395
25.42795 457
25.44806 466
25.46817 492
25.48829 511
25.5084 493
25.52851 485
25.54863 459
25.56874 470
25.58886 426
25.60897 417
25.62908 403
25.6492 441
25.66931 375
25.68942 455
25.70954 448
25.72965 465
25.74976 454
25.76988 460
25.78999 468
25.81011 525
25.83022 493
25.85033 459
25.87045 495
25.89056 506
25.91067 507
25.93079 431
25.9509 466
25.97102 468
25.99113 516
26.01124 464
26.03136 530
26.05147 519
26.07158 558
26.0917 560
26.11181 567
26.13193 518
26.15204 611
26.17215 598
26.19227 661
26.21238 666
26.23249 698
26.25261 734
26.27272 813
26.29283 791
26.31295 824
26.33306 907
26.35318 1009
26.37329 1106
26.3934 1209
26.41352 1286
26.43363 1604
26.45374 2112
26.47386 2759
26.49397 3786
26.51409 5406
26.5342 7970
26.55431 11504
26.57443 16639
26.59454 22189
26.61465 26953
26.63477 29017
26.65488 27347
26.67499 21710
26.69511 16886
26.71522 12778
26.73534 8487
26.75545 4778
26.77556 2845
26.79568 1984
26.81579 1569
26.8359 1365
26.85602 1284
26.87613 1113
26.89625 1029
26.91636 960
26.93647 941
26.95659 841
26.9767 723
26.99681 677
27.01693 620
27.03704 630
27.05716 562
27.07727 532
27.09738 549
27.1175 547
27.13761 501
27.15772 438
27.17784 501
27.19795 459
27.21806 460
27.23818 497
27.25829 402
27.27841 466
27.29852 506
27.31863 455
27.33875 486
27.35886 466
27.37897 491
27.39909 501
27.4192 542
27.43932 548
27.45943 500
27.47954 510
27.49966 473
27.51977 515
27.53988 465
27.56 411
27.58011 440
27.60023 394
27.62034 428
27.64045 436
27.66057 419
27.68068 435
27.70079 496
27.72091 455
27.74102 444
27.76113 452
27.78125 507
27.80136 478
27.82148 495
27.84159 530
27.8617 521
27.88182 503
27.90193 460
27.92204 469
27.94216 466
27.96227 431
27.98239 375
28.0025 435
28.02261 384
28.04273 406
28.06284 384
28.08295 331
28.10307 381
28.12318 387
28.1433 360
28.16341 397
28.18352 381
28.20364 370
28.22375 348
28.24386 363
28.26398 368
28.28409 378
28.3042 362
28.32432 362
28.34443 338
28.36455 341
28.38466 302
28.40477 324
28.42489 316
28.445 363
28.46511 329
28.48523 304
28.50534 319
28.52546 338
28.54557 363
28.56568 334
28.5858 364
28.60591 369
28.62602 309
28.64614 347
28.66625 321
28.68636 380
28.70648 339
28.72659 349
28.74671 324
28.76682 339
28.78693 353
28.80705 327
28.82716 335
28.84727 330
28.86739 294
28.8875 363
28.90762 313
28.92773 282
28.94784 293
28.96796 342
28.98807 287
29.00818 317
29.0283 341
29.04841 326
29.06853 313
29.08864 349
29.10875 335
29.12887 297
29.14898 344
29.16909 312
29.18921 339
29.20932 342
29.22943 307
29.24955 339
29.26966 284
29.28978 282
29.30989 297
29.33 323
29.35012 314
29.37023 326
29.39034 298
29.41046 322
29.43057 336
29.45069 326
29.4708 318
29.49091 291
29.51103 306
29.53114 361
29.55125 359
29.57137 353
29.59148 324
29.6116 362
29.63171 321
29.65182 358
29.67194 358
29.69205 377
29.71216 374
29.73228 366
29.75239 397
29.7725 431
29.79262 419
29.81273 412
29.83285 473
29.85296 404
29.87307 466
29.89319 417
29.9133 432
29.93341 413
29.95353 356
29.97364 417
29.99376 354
30.01387 346
30.03398 352
30.0541 327
30.07421 367
30.09432 337
30.11444 335
30.13455 335
30.15467 311
30.17478 309
30.19489 318
30.21501 375
30.23512 333
30.25523 319
30.27535 330
30.29546 319
30.31557 340
30.33569 329
30.3558 323
30.37592 294
30.39603 337
30.41614 316
30.43626 290
30.45637 352
30.47648 325
30.4966 298
30.51671 290
30.53683 302
30.55694 289
30.57705 309
30.59717 310
30.61728 328
30.63739 287
30.65751 310
30.67762 303
30.69773 321
30.71785 316
30.73796 331
30.75808 334
30.77819 302
30.7983 301
30.81842 312
30.83853 278
30.85864 323
30.87876 303
30.89887 295
30.91899 284
30.9391 296
30.95921 264
30.97933 292
30.99944 312
31.01955 345
31.03967 347
31.05978 356
31.0799 321
31.10001 328
31.12012 325
31.14024 337
31.16035 371
31.18046 349
31.20058 377
31.22069 344
31.2408 376
31.26092 400
31.28103 386
31.30115 373
31.32126 371
31.34137 338
31.36149 306
31.3816 301
31.40171 312
31.42183 345
31.44194 285
31.46206 326
31.48217 307
31.50228 275
31.5224 309
31.54251 299
31.56262 263
31.58274 282
31.60285 289
31.62297 280
31.64308 276
31.66319 307
31.68331 297
31.70342 274
31.72353 290
31.74365 304
31.76376 291
31.78387 289
31.80399 272
31.8241 316
31.84422 316
31.86433 287
31.88444 287
31.90456 327
31.92467 375
31.94478 333
31.9649 353
31.98501 337
32.00513 351
32.02524 384
32.04535 391
32.06547 341
32.08558 341
32.10569 334
32.12581 309
32.14592 349
32.16604 311
32.18615 292
32.20626 327
32.22638 283
32.24649 304
32.2666 310
32.28672 275
32.30683 284
32.32694 296
32.34706 285
32.36717 272
32.38729 285
32.4074 293
32.42751 270
32.44763 308
32.46774 298
32.48785 273
32.50797 333
32.52808 302
32.5482 326
32.56831 266
32.58842 277
32.60854 306
32.62865 316
32.64876 334
32.66888 294
32.68899 309
32.7091 261
32.72922 294
32.74933 283
32.76945 311
32.78956 302
32.80967 319
32.82979 312
32.8499 295
32.87001 297
32.89013 336
32.91024 297
32.93036 317
32.95047 308
32.97058 324
32.9907 326
33.01081 300
33.03092 304
33.05104 315
33.07115 336
33.09127 364
33.11138 304
33.13149 372
33.15161 344
33.17172 376
33.19183 342
33.21195 361
33.23206 390
33.25217 337
33.27229 366
33.2924 393
33.31252 370
33.33263 337
33.35274 372
33.37286 372
33.39297 369
33.41308 370
33.4332 375
33.45331 346
33.47343 362
33.49354 338
33.51365 360
33.53377 334
33.55388 358
33.57399 341
33.59411 337
33.61422 337
33.63434 305
33.65445 317
33.67456 322
33.69468 324
33.71479 310
33.7349 274
33.75502 278
33.77513 301
33.79524 284
33.81536 290
33.83547 288
33.85559 280
33.8757 304
33.89581 287
33.91593 288
33.93604 266
33.95615 232
33.97627 322
33.99638 272
34.0165 295
34.03661 322
34.05672 278
34.07684 294
34.09695 259
34.11706 268
34.13718 281
34.15729 275
34.17741 268
34.19752 285
34.21763 303
34.23775 276
34.25786 281
34.27797 298
34.29809 309
34.3182 319
34.33831 298
34.35843 317
34.37854 307
34.39866 355
34.41877 333
34.43888 390
34.459 349
34.47911 411
34.49922 400
34.51934 429
34.53945 419
34.55957 427
34.57968 456
34.59979 422
34.61991 430
34.64002 458
34.66013 408
34.68025 444
34.70036 469
34.72047 443
34.74059 417
34.7607 447
34.78082 468
34.80093 441
34.82104 486
34.84116 502
34.86127 570
34.88138 636
34.9015 594
34.92161 636
34.94173 692
34.96184 668
34.98195 647
35.00207 640
35.02218 624
35.04229 601
35.06241 576
35.08252 524
35.10264 482
35.12275 449
35.14286 416
35.16298 357
35.18309 409
35.2032 329
35.22332 392
35.24343 348
35.26354 372
35.28366 360
35.30377 354
35.32389 338
35.344 330
35.36411 361
35.38423 354
35.40434 373
35.42445 393
35.44457 350
35.46468 399
35.4848 369
35.50491 403
35.52502 407
35.54514 388
35.56525 377
35.58536 369
35.60548 400
35.62559 409
35.64571 383
35.66582 392
35.68593 327
35.70605 388
35.72616 412
35.74627 380
35.76639 398
35.7865 372
35.80661 390
35.82673 368
35.84684 418
35.86696 376
35.88707 420
35.90718 402
35.9273 389
35.94741 408
35.96752 367
35.98764 385
36.00775 412
36.02787 405
36.04798 383
36.06809 397
36.08821 387
36.10832 360
36.12843 364
36.14855 350
36.16866 400
36.18878 353
36.20889 395
36.229 426
36.24912 409
36.26923 389
36.28934 416
36.30946 421
36.32957 476
36.34968 547
36.3698 628
36.38991 654
36.41003 805
36.43014 941
36.45025 1167
36.47037 1538
36.49048 1862
36.51059 2075
36.53071 2193
36.55082 1979
36.57094 1772
36.59105 1470
36.61116 1348
36.63128 1258
36.65139 1052
36.6715 801
36.69162 603
36.71173 493
36.73184 476
36.75196 455
36.77207 436
36.79219 450
36.8123 469
36.83241 447
36.85253 428
36.87264 435
36.89275 448
36.91287 444
36.93298 426
36.9531 379
36.97321 400
36.99332 416
37.01344 363
37.03355 398
37.05366 378
37.07378 389
37.09389 377
37.11401 348
37.13412 344
37.15423 329
37.17435 341
37.19446 355
37.21457 312
37.23469 344
37.2548 345
37.27491 340
37.29503 348
37.31514 315
37.33526 336
37.35537 310
37.37548 327
37.3956 302
37.41571 334
37.43582 318
37.45594 348
37.47605 342
37.49617 340
37.51628 327
37.53639 342
37.55651 348
37.57662 312
37.59673 332
37.61685 316
37.63696 357
37.65708 371
37.67719 409
37.6973 363
37.71742 373
37.73753 371
37.75764 376
37.77776 365
37.79787 384
37.81798 334
37.8381 329
37.85821 318
37.87833 298
37.89844 321
37.91855 329
37.93867 326
37.95878 306
37.97889 308
37.99901 316
38.01912 316
38.03924 254
38.05935 282
38.07946 312
38.09958 316
38.11969 296
38.1398 347
38.15992 287
38.18003 325
38.20015 328
38.22026 307
38.24037 296
38.26049 328
38.2806 298
38.30071 323
38.32083 326
38.34094 338
38.36105 335
38.38117 346
38.40128 300
38.4214 307
38.44151 328
38.46162 303
38.48174 313
38.50185 321
38.52196 307
38.54208 292
38.56219 325
38.58231 306
38.60242 314
38.62253 340
38.64265 289
38.66276 285
38.68287 309
38.70299 279
38.7231 298
38.74321 295
38.76333 305
38.78344 258
38.80356 271
38.82367 302
38.84378 284
38.8639 322
38.88401 269
38.90412 273
38.92424 305
38.94435 283
38.96447 315
38.98458 311
39.00469 338
39.02481 316
39.04492 307
39.06503 328
39.08515 310
39.10526 328
39.12538 333
39.14549 334
39.1656 341
39.18572 389
39.20583 393
39.22594 430
39.24606 420
39.26617 460
39.28628 529
39.3064 555
39.32651 655
39.34663 780
39.36674 1049
39.38685 1248
39.40697 1597
39.42708 1824
39.44719 1976
39.46731 1842
39.48742 1575
39.50754 1269
39.52765 1185
39.54776 1120
39.56788 1018
39.58799 785
39.6081 559
39.62822 434
39.64833 375
39.66845 348
39.68856 324
39.70867 346
39.72879 285
39.7489 326
39.76901 307
39.78913 317
39.80924 343
39.82935 315
39.84947 313
39.86958 299
39.8897 340
39.90981 331
39.92992 336
39.95004 371
39.97015 354
39.99026 334
40.01038 373
40.03049 354
40.05061 373
40.07072 411
40.09083 425
40.11095 451
40.13106 473
40.15117 541
40.17129 591
40.1914 675
40.21152 796
40.23163 1013
40.25174 1137
40.27186 1142
40.29197 1062
40.31208 957
40.3322 780
40.35231 742
40.37242 705
40.39254 699
40.41265 560
40.43277 480
40.45288 392
40.47299 351
40.49311 348
40.51322 338
40.53333 331
40.55345 300
40.57356 314
40.59368 308
40.61379 325
40.6339 306
40.65402 357
40.67413 325
40.69424 321
40.71436 326
40.73447 332
40.75458 306
40.7747 317
40.79481 329
40.81493 345
40.83504 331
40.85515 324
40.87527 338
40.89538 341
40.91549 324
40.93561 328
40.95572 339
40.97584 339
40.99595 339
41.01606 306
41.03618 320
41.05629 331
41.0764 318
41.09652 324
41.11663 317
41.13675 335
41.15686 330
41.17697 300
41.19709 325
41.2172 348
41.23731 339
41.25743 342
41.27754 365
41.29765 367
41.31777 334
41.33788 339
41.358 328
41.37811 355
41.39822 338
41.41834 312
41.43845 326
41.45856 292
41.47868 308
41.49879 306
41.51891 302
41.53902 285
41.55913 320
41.57925 311
41.59936 315
41.61947 323
41.63959 303
41.6597 278
41.67982 303
41.69993 290
41.72004 281
41.74016 300
41.76027 302
41.78038 314
41.8005 284
41.82061 317
41.84072 307
41.86084 306
41.88095 287
41.90107 336
41.92118 313
41.94129 363
41.96141 354
41.98152 321
42.00163 322
42.02175 315
42.04186 335
42.06198 329
42.08209 342
42.1022 313
42.12232 309
42.14243 342
42.16254 358
42.18266 359
42.20277 389
42.22289 397
42.243 442
42.26311 482
42.28323 526
42.30334 665
42.32345 695
42.34357 803
42.36368 1025
42.38379 1146
42.40391 1370
42.42402 1390
42.44414 1495
42.46425 1290
42.48436 1116
42.50448 899
42.52459 948
42.5447 842
42.56482 804
42.58493 643
42.60505 445
42.62516 346
42.64527 328
42.66539 352
42.6855 346
42.70561 301
42.72573 292
42.74584 316
42.76595 266
42.78607 316
42.80618 303
42.8263 304
42.84641 309
42.86652 269
42.88664 267
42.90675 278
42.92686 257
42.94698 249
42.96709 267
42.98721 253
43.00732 279
43.02743 255
43.04755 274
43.06766 277
43.08777 260
43.10789 245
43.128 266
43.14812 267
43.16823 306
43.18834 257
43.20846 265
43.22857 253
43.24868 253
43.2688 252
43.28891 242
43.30902 241
43.32914 264
43.34925 235
43.36937 253
43.38948 239
43.40959 257
43.42971 224
43.44982 238
43.46993 271
43.49005 255
43.51016 253
43.53028 245
43.55039 253
43.5705 253
43.59062 283
43.61073 296
43.63084 274
43.65096 274
43.67107 247
43.69119 266
43.7113 227
43.73141 253
43.75153 261
43.77164 269
43.79175 266
43.81187 250
43.83198 299
43.85209 282
43.87221 271
43.89232 258
43.91244 250
43.93255 258
43.95266 269
43.97278 242
43.99289 293
44.013 260
44.03312 279
44.05323 274
44.07335 231
44.09346 282
44.11357 219
44.13369 243
44.1538 253
44.17391 256
44.19403 261
44.21414 254
44.23426 254
44.25437 239
44.27448 240
44.2946 245
44.31471 235
44.33482 251
44.35494 244
44.37505 226
44.39516 237
44.41528 275
44.43539 266
44.45551 250
44.47562 259
44.49573 238
44.51585 246
44.53596 260
44.55607 248
44.57619 283
44.5963 243
44.61642 256
44.63653 260
44.65664 252
44.67676 264
44.69687 241
44.71698 280
44.7371 264
44.75721 261
44.77732 237
44.79744 240
44.81755 248
44.83767 221
44.85778 220
44.87789 268
44.89801 254
44.91812 237
44.93823 263
44.95835 259
44.97846 270
44.99858 255
45.01869 257
45.0388 277
45.05892 285
45.07903 247
45.09914 242
45.11926 268
45.13937 276
45.15949 289
45.1796 291
45.19971 267
45.21983 295
45.23994 313
45.26005 297
45.28017 326
45.30028 330
45.32039 333
45.34051 349
45.36062 357
45.38074 328
45.40085 398
45.42096 364
45.44108 332
45.46119 323
45.4813 344
45.50142 352
45.52153 378
45.54165 329
45.56176 375
45.58187 372
45.60199 400
45.6221 454
45.64221 467
45.66233 505
45.68244 604
45.70256 754
45.72267 828
45.74278 1015
45.7629 980
45.78301 998
45.80312 892
45.82324 779
45.84335 666
45.86346 659
45.88358 628
45.90369 615
45.92381 608
45.94392 508
45.96403 425
45.98415 363
46.00426 351
46.02437 317
46.04449 295
46.0646 325
46.08472 297
46.10483 264
46.12494 300
46.14506 283
46.16517 261
46.18528 276
46.2054 246
46.22551 273
46.24563 257
46.26574 261
46.28585 270
46.30597 274
46.32608 247
46.34619 239
46.36631 234
46.38642 230
46.40653 279
46.42665 261
46.44676 246
46.46688 262
46.48699 283
46.5071 261
46.52722 267
46.54733 253
46.56744 270
46.58756 285
46.60767 281
46.62779 263
46.6479 274
46.66801 296
46.68813 248
46.70824 254
46.72835 281
46.74847 253
46.76858 253
46.78869 273
46.80881 263
46.82892 234
46.84904 249
46.86915 266
46.88926 252
46.90938 234
46.92949 256
46.9496 240
46.96972 259
46.98983 279
47.00995 237
47.03006 257
47.05017 201
47.07029 263
47.0904 257
47.11051 245
47.13063 231
47.15074 282
47.17086 268
47.19097 266
47.21108 210
47.2312 224
47.25131 219
47.27142 239
47.29154 258
47.31165 276
47.33176 259
47.35188 237
47.37199 266
47.39211 231
47.41222 242
47.43233 252
47.45245 254
47.47256 248
47.49267 233
47.51279 245
47.5329 236
47.55302 275
47.57313 237
47.59324 269
47.61336 218
47.63347 244
47.65358 248
47.6737 204
47.69381 232
47.71393 260
47.73404 238
47.75415 270
47.77427 234
47.79438 248
47.81449 244
47.83461 250
47.85472 230
47.87483 239
47.89495 248
47.91506 236
47.93518 244
47.95529 235
47.9754 272
47.99552 231
48.01563 235
48.03574 276
48.05586 251
48.07597 235
48.09609 258
48.1162 244
48.13631 258
48.15643 248
48.17654 227
48.19665 249
48.21677 244
48.23688 260
48.257 280
48.27711 247
48.29722 283
48.31734 243
48.33745 245
48.35756 255
48.37768 267
48.39779 262
48.4179 232
48.43802 239
48.45813 243
48.47825 236
48.49836 222
48.51847 235
48.53859 232
48.5587 222
48.57881 273
48.59893 248
48.61904 225
48.63916 223
48.65927 250
48.67938 269
48.6995 244
48.71961 257
48.73972 242
48.75984 232
48.77995 258
48.80006 232
48.82018 225
48.84029 235
48.86041 237
48.88052 246
48.90063 226
48.92075 264
48.94086 267
48.96097 263
48.98109 245
49.0012 233
49.02132 247
49.04143 239
49.06154 261
49.08166 291
49.10177 273
49.12188 253
49.142 248
49.16211 248
49.18223 255
49.20234 257
49.22245 271
49.24257 248
49.26268 211
49.28279 246
49.30291 282
49.32302 253
49.34313 256
49.36325 281
49.38336 266
49.40348 277
49.42359 262
49.4437 265
49.46382 301
49.48393 280
49.50404 262
49.52416 295
49.54427 252
49.56439 262
49.5845 280
49.60461 242
49.62473 285
49.64484 282
49.66495 274
49.68507 285
49.70518 295
49.7253 309
49.74541 313
49.76552 332
49.78564 336
49.80575 364
49.82586 376
49.84598 386
49.86609 436
49.8862 440
49.90632 521
49.92643 572
49.94655 635
49.96666 797
49.98677 948
50.00689 1187
50.027 1539
50.04711 1909
50.06723 2306
50.08734 2672
50.10746 2846
50.12757 2884
50.14768 2424
50.1678 2032
50.18791 1633
50.20802 1512
50.22814 1625
50.24825 1589
50.26837 1324
50.28848 1107
50.30859 748
50.32871 582
50.34882 469
50.36893 393
50.38905 366
50.40916 317
50.42927 346
50.44939 305
50.4695 303
50.48962 329
50.50973 282
50.52984 311
50.54996 325
50.57007 315
50.59018 323
50.6103 337
50.63041 328
50.65053 276
50.67064 296
50.69075 295
50.71087 289
50.73098 299
50.75109 284
50.77121 298
50.79132 267
50.81143 216
50.83155 293
50.85166 253
50.87178 260
50.89189 264
50.912 269
50.93212 257
50.95223 270
50.97234 266
50.99246 273
51.01257 288
51.03269 265
51.0528 265
51.07291 249
51.09303 274
51.11314 244
51.13325 225
51.15337 240
51.17348 246
51.1936 237
51.21371 259
51.23382 252
51.25394 232
51.27405 268
51.29416 253
51.31428 245
51.33439 229
51.3545 256
51.37462 231
51.39473 231
51.41485 211
51.43496 246
51.45507 247
51.47519 245
51.4953 217
51.51541 227
51.53553 236
51.55564 244
51.57576 237
51.59587 225
51.61598 249
51.6361 253
51.65621 240
51.67632 251
51.69644 247
51.71655 239
51.73667 236
51.75678 227
51.77689 218
51.79701 246
51.81712 233
51.83723 246
51.85735 225
51.87746 216
51.89757 251
51.91769 251
51.9378 236
51.95792 202
51.97803 257
51.99814 235
52.01826 249
52.03837 230
52.05848 224
52.0786 219
52.09871 236
52.11883 224
52.13894 239
52.15905 215
52.17917 251
52.19928 232
52.21939 226
52.23951 252
52.25962 234
52.27974 265
52.29985 227
52.31996 234
52.34008 243
52.36019 214
52.3803 261
52.40042 227
52.42053 215
52.44064 239
52.46076 267
52.48087 243
52.50099 229
52.5211 267
52.54121 268
52.56133 241
52.58144 244
52.60155 223
52.62167 241
52.64178 245
52.6619 241
52.68201 260
52.70212 258
52.72224 264
52.74235 237
52.76246 261
52.78258 263
52.80269 271
52.8228 247
52.84292 254
52.86303 258
52.88315 265
52.90326 271
52.92337 238
52.94349 258
52.9636 276
52.98371 256
53.00383 261
53.02394 266
53.04406 269
53.06417 247
53.08428 263
53.1044 249
53.12451 274
53.14462 255
53.16474 289
53.18485 286
53.20497 266
53.22508 264
53.24519 260
53.26531 267
53.28542 277
53.30553 303
53.32565 289
53.34576 276
53.36587 287
53.38599 309
53.4061 283
53.42622 279
53.44633 291
53.46644 267
53.48656 286
53.50667 294
53.52678 281
53.5469 276
53.56701 309
53.58713 272
53.60724 301
53.62735 334
53.64747 295
53.66758 305
53.68769 286
53.70781 324
53.72792 287
53.74804 321
53.76815 280
53.78826 293
53.80838 299
53.82849 287
53.8486 292
53.86872 315
53.88883 279
53.90894 291
53.92906 311
53.94917 312
53.96929 295
53.9894 298
54.00951 275
54.02963 280
54.04974 296
54.06985 307
54.08997 310
54.11008 278
54.1302 324
54.15031 322
54.17042 317
54.19054 310
54.21065 308
54.23076 315
54.25088 319
54.27099 305
54.29111 311
54.31122 282
54.33133 292
54.35145 312
54.37156 283
54.39167 311
54.41179 342
54.4319 339
54.45201 291
54.47213 292
54.49224 301
54.51236 317
54.53247 308
54.55258 339
54.5727 336
54.59281 318
54.61292 326
54.63304 363
54.65315 337
54.67327 356
54.69338 413
54.71349 465
54.73361 553
54.75372 650
54.77383 700
54.79395 831
54.81406 1004
54.83417 951
54.85429 944
54.8744 834
54.89452 732
54.91463 640
54.93474 631
54.95486 650
54.97497 670
54.99508 673
55.0152 567
55.03531 523
55.05543 479
55.07554 387
55.09565 333
55.11577 386
55.13588 383
55.15599 410
55.17611 410
55.19622 392
55.21634 427
55.23645 521
55.25656 557
55.27668 576
55.29679 571
55.3169 624
55.33702 536
55.35713 500
55.37724 446
55.39736 424
55.41747 435
55.43759 423
55.4577 457
55.47781 404
55.49793 381
55.51804 336
55.53815 294
55.55827 299
55.57838 307
55.5985 313
55.61861 327
55.63872 275
55.65884 280
55.67895 302
55.69906 337
55.71918 311
55.73929 303
55.75941 339
55.77952 305
55.79963 296
55.81975 314
55.83986 316
55.85997 283
55.88009 332
55.9002 315
55.92031 318
55.94043 272
55.96054 301
55.98066 263
56.00077 272
56.02088 283
56.041 251
56.06111 274
56.08122 230
56.10134 278
56.12145 268
56.14157 272
56.16168 260
56.18179 254
56.20191 219
56.22202 266
56.24213 221
56.26225 254
56.28236 253
56.30248 270
56.32259 244
56.3427 235
56.36282 269
56.38293 237
56.40304 246
56.42316 276
56.44327 276
56.46338 246
56.4835 259
56.50361 279
56.52373 253
56.54384 240
56.56395 265
56.58407 257
56.60418 250
56.62429 259
56.64441 270
56.66452 264
56.68464 231
56.70475 277
56.72486 260
56.74498 266
56.76509 247
56.7852 247
56.80532 250
56.82543 231
56.84554 260
56.86566 251
56.88577 267
56.90589 260
56.926 262
56.94611 250
56.96623 272
56.98634 246
57.00645 261
57.02657 259
57.04668 259
57.0668 246
57.08691 270
57.10702 254
57.12714 276
57.14725 258
57.16736 278
57.18748 282
57.20759 301
57.22771 268
57.24782 278
57.26793 274
57.28805 246
57.30816 284
57.32827 280
57.34839 271
57.3685 253
57.38861 279
57.40873 259
57.42884 240
57.44896 236
57.46907 229
57.48918 250
57.5093 265
57.52941 252
57.54952 248
57.56964 275
57.58975 263
57.60987 257
57.62998 238
57.65009 247
57.67021 227
57.69032 239
57.71043 241
57.73055 227
57.75066 249
57.77078 242
57.79089 232
57.811 215
57.83112 253
57.85123 229
57.87134 235
57.89146 230
57.91157 229
57.93168 261
57.9518 225
57.97191 226
57.99203 243
58.01214 242
58.03225 247
58.05237 235
58.07248 226
58.09259 227
58.11271 226
58.13282 255
58.15294 245
58.17305 237
58.19316 232
58.21328 228
58.23339 234
58.2535 228
58.27362 211
58.29373 233
58.31385 244
58.33396 244
58.35407 235
58.37419 248
58.3943 239
58.41441 227
58.43453 249
58.45464 222
58.47475 266
58.49487 238
58.51498 215
58.5351 249
58.55521 249
58.57532 241
58.59544 223
58.61555 222
58.63566 254
58.65578 252
58.67589 238
58.69601 224
58.71612 216
58.73623 234
58.75635 240
58.77646 259
58.79657 246
58.81669 224
58.8368 225
58.85691 255
58.87703 268
58.89714 242
58.91726 246
58.93737 247
58.95748 244
58.9776 302
58.99771 242
59.01782 275
59.03794 254
59.05805 265
59.07817 254
59.09828 257
59.11839 272
59.13851 256
59.15862 264
59.17873 262
59.19885 239
59.21896 243
59.23908 259
59.25919 283
59.2793 267
59.29942 267
59.31953 281
59.33964 325
59.35976 296
59.37987 276
59.39998 256
59.4201 295
59.44021 275
59.46033 303
59.48044 281
59.50055 273
59.52067 307
59.54078 312
59.56089 312
59.58101 291
59.60112 317
59.62124 344
59.64135 358
59.66146 355
59.68158 404
59.70169 387
59.7218 453
59.74192 498
59.76203 566
59.78215 656
59.80226 779
59.82237 922
59.84249 1098
59.8626 1340
59.88271 1557
59.90283 1655
59.92294 1817
59.94305 1755
59.96317 1490
59.98328 1252
60.0034 1046
60.02351 971
60.04362 981
60.06374 988
60.08385 988
60.10396 912
60.12408 818
60.14419 675
60.16431 549
60.18442 402
60.20453 337
60.22465 327
60.24476 297
60.26487 300
60.28499 280
60.3051 293
60.32522 276
60.34533 271
60.36544 263
60.38556 263
60.40567 280
60.42578 270
60.4459 262
60.46601 260
60.48612 268
60.50624 286
60.52635 230
60.54647 241
60.56658 273
60.58669 287
60.60681 246
60.62692 249
60.64703 253
60.66715 257
60.68726 234
60.70738 243
60.72749 245
60.7476 258
60.76772 254
60.78783 222
60.80794 253
60.82806 238
60.84817 246
60.86828 262
60.8884 271
60.90851 264
60.92863 248
60.94874 261
60.96885 234
60.98897 254
61.00908 230
61.02919 229
61.04931 269
61.06942 235
61.08954 247
61.10965 246
61.12976 213
61.14988 222
61.16999 249
61.1901 229
61.21022 235
61.23033 248
61.25045 277
61.27056 222
61.29067 273
61.31079 281
61.3309 245
61.35101 265
61.37113 226
61.39124 261
61.41135 283
61.43147 284
61.45158 273
61.4717 308
61.49181 299
61.51192 330
61.53204 297
61.55215 313
61.57226 322
61.59238 324
61.61249 325
61.63261 362
61.65272 337
61.67283 345
61.69295 344
61.71306 334
61.73317 342
61.75329 367
61.7734 343
61.79352 325
61.81363 322
61.83374 351
61.85386 324
61.87397 304
61.89408 304
61.9142 306
61.93431 297
61.95442 292
61.97454 292
61.99465 305
62.01477 263
62.03488 282
62.05499 269
62.07511 289
62.09522 264
62.11533 248
62.13545 274
62.15556 280
62.17568 261
62.19579 256
62.2159 268
62.23602 262
62.25613 257
62.27624 262
62.29636 271
62.31647 298
62.33659 258
62.3567 253
62.37681 287
62.39693 262
62.41704 246
62.43715 279
62.45727 264
62.47738 279
62.49749 280
62.51761 267
62.53772 245
62.55784 266
62.57795 257
62.59806 253
62.61818 269
62.63829 268
62.6584 229
62.67852 273
62.69863 284
62.71875 254
62.73886 219
62.75897 241
62.77909 235
62.7992 230
62.81931 232
62.83943 207
62.85954 238
62.87965 245
62.89977 234
62.91988 242
62.94 223
62.96011 243
62.98022 230
63.00034 236
63.02045 219
63.04056 249
63.06068 235
63.08079 216
63.10091 232
63.12102 234
63.14113 228
63.16125 262
63.18136 265
63.20147 210
63.22159 208
63.2417 246
63.26182 247
63.28193 227
63.30204 223
63.32216 224
63.34227 219
63.36238 232
63.3825 247
63.40261 237
63.42272 247
63.44284 215
63.46295 240
63.48307 246
63.50318 220
63.52329 210
63.54341 231
63.56352 242
63.58363 219
63.60375 278
63.62386 241
63.64398 233
63.66409 219
63.6842 226
63.70432 266
63.72443 254
63.74454 277
63.76466 278
63.78477 256
63.80489 274
63.825 299
63.84511 280
63.86523 319
63.88534 379
63.90545 364
63.92557 387
63.94568 440
63.96579 505
63.98591 475
64.00602 514
64.02614 472
64.04625 462
64.06636 388
64.08648 355
64.10659 384
64.1267 364
64.14682 373
64.16693 391
64.18705 379
64.20716 352
64.22727 321
64.24739 281
64.2675 255
64.28761 270
64.30773 255
64.32784 269
64.34796 245
64.36807 270
64.38818 231
64.4083 245
64.42841 217
64.44852 223
64.46864 260
64.48875 235
64.50886 207
64.52898 216
64.54909 238
64.56921 237
64.58932 247
64.60943 215
64.62955 225
64.64966 206
64.66977 237
64.68989 220
64.71 211
64.73012 230
64.75023 227
64.77034 228
64.79046 214
64.81057 193
64.83068 236
64.8508 214
64.87091 221
64.89102 211
64.91114 215
64.93125 229
64.95137 199
64.97148 217
64.99159 215
65.01171 209
65.03182 211
65.05193 214
65.07205 248
65.09216 224
65.11228 209
65.13239 223
65.1525 213
65.17262 230
65.19273 203
65.21284 231
65.23296 235
65.25307 221
65.27319 227
65.2933 207
65.31341 232
65.33353 242
65.35364 219
65.37375 232
65.39387 199
65.41398 202
65.43409 223
65.45421 190
65.47432 237
65.49444 219
65.51455 202
65.53466 234
65.55478 222
65.57489 210
65.595 233
65.61512 232
65.63523 240
65.65535 259
65.67546 245
65.69557 266
65.71569 289
65.7358 289
65.75591 279
65.77603 278
65.79614 262
65.81626 277
65.83637 242
65.85648 247
65.8766 266
65.89671 242
65.91682 301
65.93694 256
65.95705 237
65.97716 229
65.99728 253
66.01739 249
66.03751 218
66.05762 209
66.07773 228
66.09785 216
66.11796 212
66.13807 217
66.15819 216
66.1783 218
66.19842 250
66.21853 218
66.23864 215
66.25876 196
66.27887 202
66.29898 233
66.3191 202
66.33921 215
66.35933 249
66.37944 220
66.39955 209
66.41967 230
66.43978 208
66.45989 213
66.48001 244
66.50012 217
66.52023 214
66.54035 239
66.56046 210
66.58058 233
66.60069 193
66.6208 206
66.64092 197
66.66103 216
66.68114 221
66.70126 219
66.72137 213
66.74149 211
66.7616 208
66.78171 207
66.80183 214
66.82194 194
66.84205 219
66.86217 258
66.88228 186
66.90239 210
66.92251 212
66.94262 214
66.96274 210
66.98285 233
67.00296 202
67.02308 240
67.04319 229
67.0633 221
67.08342 217
67.10353 210
67.12365 212
67.14376 223
67.16387 226
67.18399 233
67.2041 222
67.22421 230
67.24433 244
67.26444 255
67.28456 225
67.30467 279
67.32478 262
67.3449 275
67.36501 266
67.38512 275
67.40524 241
67.42535 271
67.44546 328
67.46558 295
67.48569 341
67.50581 352
67.52592 386
67.54603 408
67.56615 472
67.58626 540
67.60637 606
67.62649 757
67.6466 791
67.66672 919
67.68683 992
67.70694 1032
67.72706 1023
67.74717 896
67.76728 702
67.7874 677
67.80751 636
67.82763 624
67.84774 681
67.86785 742
67.88797 736
67.90808 800
67.92819 749
67.94831 727
67.96842 748
67.98853 695
68.00865 809
68.02876 923
68.04888 1033
68.06899 1133
68.0891 1265
68.10922 1350
68.12933 1349
68.14944 1262
68.16956 1095
68.18967 1008
68.20979 1027
68.2299 1140
68.25001 1206
68.27013 1205
68.29024 1241
68.31035 1189
68.33047 975
68.35058 870
68.3707 701
68.39081 669
68.41092 612
68.43104 557
68.45115 522
68.47126 532
68.49138 483
68.51149 470
68.5316 379
68.55172 350
68.57183 312
68.59195 270
68.61206 266
68.63217 257
68.65229 236
68.6724 270
68.69251 253
68.71263 234
68.73274 212
68.75286 226
68.77297 240
68.79308 215
68.8132 235
68.83331 208
68.85342 224
68.87354 246
68.89365 215
68.91376 204
68.93388 245
68.95399 253
68.97411 260
68.99422 223
69.01433 231
69.03445 233
69.05456 213
69.07467 243
69.09479 220
69.1149 222
69.13502 226
69.15513 226
69.17524 219
69.19536 235
69.21547 226
69.23558 244
69.2557 217
69.27581 222
69.29593 234
69.31604 229
69.33615 220
69.35627 238
69.37638 235
69.39649 247
69.41661 227
69.43672 251
69.45683 215
69.47695 206
69.49706 230
69.51718 223
69.53729 267
69.5574 227
69.57752 234
69.59763 220
69.61774 239
69.63786 212
69.65797 220
69.67809 234
69.6982 200
69.71831 226
69.73843 229
69.75854 245
69.77865 217
69.79877 224
69.81888 228
69.839 208
69.85911 237
69.87922 188
69.89934 213
69.91945 222
69.93956 213
69.95968 220
69.97979 213
69.9999 250
70.02002 220
70.04013 196
70.06025 216
70.08036 217
70.10047 250
70.12059 233
70.1407 226
70.16081 205
70.18093 230
70.20104 203
70.22116 247
70.24127 232
70.26138 224
70.2815 191
70.30161 234
70.32172 219
70.34184 220
70.36195 220
70.38207 198
70.40218 223
70.42229 220
70.44241 193
70.46252 214
70.48263 212
70.50275 202
70.52286 203
70.54297 208
70.56309 208
70.5832 187
70.60332 207
70.62343 205
70.64354 216
70.66366 216
70.68377 205
70.70388 177
70.724 224
70.74411 236
70.76423 199
70.78434 194
70.80445 205
70.82457 196
70.84468 211
70.86479 204
70.88491 181
70.90502 192
70.92513 213
70.94525 183
70.96536 221
70.98548 191
71.00559 187
71.0257 194
71.04582 182
71.06593 194
71.08604 192
71.10616 217
71.12627 175
71.14639 176
71.1665 198
71.18661 181
71.20673 198
71.22684 200
71.24695 211
71.26707 214
71.28718 193
71.3073 204
71.32741 194
71.34752 175
71.36764 239
71.38775 190
71.40786 183
71.42798 177
71.44809 191
71.4682 180
71.48832 205
71.50843 180
71.52855 204
71.54866 188
71.56877 215
71.58889 203
71.609 203
71.62911 224
71.64923 191
71.66934 196
71.68946 174
71.70957 182
71.72968 193
71.7498 203
71.76991 193
71.79002 198
71.81014 210
71.83025 207
71.85037 218
71.87048 194
71.89059 187
71.91071 208
71.93082 201
71.95093 201
71.97105 207
71.99116 218
72.01127 209
72.03139 194
72.0515 220
72.07162 194
72.09173 182
72.11184 191
72.13196 206
72.15207 197
72.17218 195
72.1923 222
72.21241 200
72.23253 213
72.25264 186
72.27275 220
72.29287 214
72.31298 207
72.33309 201
72.35321 203
72.37332 210
72.39344 193
72.41355 197
72.43366 207
72.45378 232
72.47389 190
72.494 213
72.51412 195
72.53423 211
72.55434 229
72.57446 221
72.59457 209
72.61469 194
72.6348 225
72.65491 202
72.67503 234
72.69514 231
72.71525 221
72.73537 239
72.75548 221
72.7756 226
72.79571 207
72.81582 225
72.83594 234
72.85605 208
72.87616 217
72.89628 233
72.91639 221
72.9365 228
72.95662 242
72.97673 208
72.99685 244
73.01696 214
73.03707 231
73.05719 204
73.0773 210
73.09741 214
73.11753 249
73.13764 241
73.15776 238
73.17787 224
73.19798 253
73.2181 256
73.23821 245
73.25832 261
73.27844 312
73.29855 320
73.31867 343
73.33878 344
73.35889 369
73.37901 366
73.39912 425
73.41923 485
73.43935 526
73.45946 441
73.47957 407
73.49969 365
73.5198 324
73.53992 282
73.56003 296
73.58014 317
73.60026 340
73.62037 354
73.64048 334
73.6606 328
73.68071 305
73.70083 274
73.72094 261
73.74105 215
73.76117 199
73.78128 229
73.80139 192
73.82151 225
73.84162 200
73.86174 189
73.88185 200
73.90196 213
73.92208 170
73.94219 222
73.9623 210
73.98242 208
74.00253 224
74.02264 206
74.04276 197
74.06287 202
74.08299 196
74.1031 188
74.12321 183
74.14333 208
74.16344 181
74.18355 197
74.20367 204
74.22378 202
74.2439 222
74.26401 202
74.28412 209
74.30424 185
74.32435 185
74.34446 204
74.36458 203
74.38469 202
74.40481 185
74.42492 190
74.44503 174
74.46515 200
74.48526 160
74.50537 191
74.52549 188
74.5456 201
74.56571 159
74.58583 190
74.60594 218
74.62606 209
74.64617 203
74.66628 202
74.6864 195
74.70651 210
74.72662 182
74.74674 191
74.76685 193
74.78697 172
74.80708 213
74.82719 203
74.84731 186
74.86742 205
74.88753 206
74.90765 194
74.92776 220
74.94787 207
74.96799 202
74.9881 167
75.00822 200
