3.00117 20115
3.02128 19812
3.0414 19300
3.06151 18687
3.08162 18184
3.10174 17651
3.12185 17572
3.14197 16670
3.16208 16269
3.18219 16089
3.20231 15361
3.22242 15009
3.24253 14443
3.26265 13979
3.28276 13452
3.30288 12983
3.32299 12940
3.3431 12463
3.36322 11980
3.38333 11839
3.40344 11335
3.42356 11031
3.44367 10669
3.46379 10403
3.4839 10002
3.50401 9601
3.52413 9756
3.54424 9031
3.56435 8635
3.58447 8462
3.60458 8024
3.62469 7855
3.64481 7554
3.66492 7486
3.68504 7117
3.70515 6911
3.72526 6809
3.74538 6443
3.76549 6001
3.7856 6027
3.80572 5723
3.82583 5576
3.84595 5406
3.86606 5159
3.88617 4900
3.90629 4830
3.9264 4820
3.94651 4493
3.96663 4295
3.98674 4240
4.00686 3959
4.02697 3912
4.04708 3653
4.0672 3699
4.08731 3558
4.10742 3371
4.12754 3449
4.14765 3186
4.16776 3125
4.18788 3001
4.20799 2874
4.22811 2912
4.24822 2843
4.26833 2767
4.28845 2572
4.30856 2523
4.32867 2625
4.34879 2635
4.3689 2430
4.38902 2489
4.40913 2386
4.42924 2443
4.44936 2334
4.46947 2338
4.48958 2313
4.5097 2203
4.52981 2276
4.54992 2187
4.57004 2091
4.59015 2079
4.61027 2144
4.63038 2115
4.65049 2142
4.67061 2064
4.69072 1966
4.71083 2043
4.73095 1945
4.75106 2027
4.77118 1910
4.79129 1944
4.8114 1866
4.83152 1897
4.85163 1979
4.87174 1849
4.89186 1919
4.91197 1899
4.93209 1822
4.9522 1928
4.97231 1859
4.99243 1915
5.01254 1803
5.03265 1931
5.05277 1882
5.07288 1717
5.09299 1779
5.11311 1757
5.13322 1775
5.15334 1878
5.17345 1735
5.19356 1759
5.21368 1809
5.23379 1815
5.2539 1745
5.27402 1683
5.29413 1752
5.31425 1812
5.33436 1709
5.35447 1758
5.37459 1760
5.3947 1770
5.41481 1713
5.43493 1878
5.45504 1688
5.47516 1745
5.49527 1737
5.51538 1748
5.5355 1769
5.55561 1668
5.57572 1684
5.59584 1802
5.61595 1779
5.63606 1612
5.65618 1710
5.67629 1727
5.69641 1682
5.71652 1732
5.73663 1739
5.75675 1698
5.77686 1666
5.79697 1601
5.81709 1703
5.8372 1684
5.85732 1678
5.87743 1611
5.89754 1622
5.91766 1727
5.93777 1598
5.95788 1678
5.978 1573
5.99811 1695
6.01823 1642
6.03834 1619
6.05845 1631
6.07857 1658
6.09868 1563
6.11879 1593
6.13891 1531
6.15902 1591
6.17913 1543
6.19925 1525
6.21936 1455
6.23948 1555
6.25959 1444
6.2797 1456
6.29982 1516
6.31993 1435
6.34004 1447
6.36016 1394
6.38027 1486
6.40039 1362
6.4205 1404
6.44061 1411
6.46073 1326
6.48084 1343
6.50095 1283
6.52107 1256
6.54118 1286
6.56129 1308
6.58141 1175
6.60152 1227
6.62164 1216
6.64175 1227
6.66186 1283
6.68198 1233
6.70209 1173
6.7222 1159
6.74232 1116
6.76243 1260
6.78255 1150
6.80266 1088
6.82277 1103
6.84289 1080
6.863 1091
6.88311 1110
6.90323 1033
6.92334 1118
6.94346 1041
6.96357 991
6.98368 1050
7.0038 1061
7.02391 1012
7.04402 1028
7.06414 967
7.08425 1046
7.10436 962
7.12448 937
7.14459 971
7.16471 957
7.18482 886
7.20493 897
7.22505 921
7.24516 879
7.26527 898
7.28539 867
7.3055 860
7.32562 816
7.34573 909
7.36584 878
7.38596 811
7.40607 863
7.42618 893
7.4463 852
7.46641 858
7.48653 810
7.50664 823
7.52675 823
7.54687 769
7.56698 857
7.58709 790
7.60721 848
7.62732 758
7.64743 795
7.66755 798
7.68766 768
7.70778 783
7.72789 725
7.748 683
7.76812 782
7.78823 687
7.80834 795
7.82846 736
7.84857 699
7.86869 733
7.8888 684
7.90891 754
7.92903 735
7.94914 755
7.96925 752
7.98937 734
8.00948 742
8.0296 753
8.04971 759
8.06982 684
8.08994 721
8.11005 685
8.13016 723
8.15028 716
8.17039 738
8.1905 768
8.21062 739
8.23073 741
8.25085 757
8.27096 682
8.29107 704
8.31119 762
8.3313 727
8.35141 685
8.37153 705
8.39164 673
8.41176 687
8.43187 677
8.45198 681
8.4721 743
8.49221 705
8.51232 677
8.53244 692
8.55255 690
8.57266 695
8.59278 695
8.61289 628
8.63301 645
8.65312 661
8.67323 640
8.69335 626
8.71346 688
8.73357 625
8.75369 605
8.7738 652
8.79392 581
8.81403 558
8.83414 553
8.85426 551
8.87437 577
8.89448 547
8.9146 579
8.93471 546
8.95483 513
8.97494 583
8.99505 552
9.01517 544
9.03528 524
9.05539 529
9.07551 527
9.09562 515
9.11573 526
9.13585 454
9.15596 489
9.17608 538
9.19619 492
9.2163 515
9.23642 502
9.25653 481
9.27664 504
9.29676 530
9.31687 472
9.33699 466
9.3571 463
9.37721 452
9.39733 499
9.41744 485
9.43755 481
9.45767 450
9.47778 445
9.4979 474
9.51801 476
9.53812 503
9.55824 477
9.57835 510
9.59846 473
9.61858 513
9.63869 492
9.6588 460
9.67892 477
9.69903 432
9.71915 440
9.73926 492
9.75937 448
9.77949 505
9.7996 411
9.81971 446
9.83983 425
9.85994 436
9.88006 449
9.90017 486
9.92028 482
9.9404 418
9.96051 442
9.98062 452
10.00074 422
10.02085 420
10.04097 434
10.06108 474
10.08119 475
10.10131 414
10.12142 445
10.14153 417
10.16165 438
10.18176 421
10.20187 439
10.22199 417
10.2421 418
10.26222 439
10.28233 418
10.30244 459
10.32256 458
10.34267 433
10.36278 407
10.3829 422
10.40301 462
10.42313 414
10.44324 426
10.46335 439
10.48347 466
10.50358 427
10.52369 400
10.54381 471
10.56392 432
10.58403 460
10.60415 405
10.62426 429
10.64438 430
10.66449 448
10.6846 436
10.70472 459
10.72483 414
10.74494 432
10.76506 401
10.78517 401
10.80529 428
10.8254 424
10.84551 418
10.86563 422
10.88574 428
10.90585 430
10.92597 416
10.94608 365
10.9662 436
10.98631 420
11.00642 421
11.02654 405
11.04665 424
11.06676 442
11.08688 413
11.10699 434
11.1271 419
11.14722 399
11.16733 400
11.18745 405
11.20756 378
11.22767 407
11.24779 409
11.2679 392
11.28801 431
11.30813 419
11.32824 431
11.34836 421
11.36847 413
11.38858 397
11.4087 442
11.42881 431
11.44892 400
11.46904 404
11.48915 419
11.50927 469
11.52938 405
11.54949 394
11.56961 398
11.58972 411
11.60983 386
11.62995 443
11.65006 426
11.67017 461
11.69029 438
11.7104 454
11.73052 405
11.75063 404
11.77074 418
11.79086 401
11.81097 390
11.83108 386
11.8512 417
11.87131 365
11.89143 423
11.91154 431
11.93165 410
11.95177 424
11.97188 407
11.99199 410
12.01211 428
12.03222 471
12.05234 408
12.07245 422
12.09256 428
12.11268 423
12.13279 437
12.1529 406
12.17302 445
12.19313 454
12.21324 428
12.23336 444
12.25347 427
12.27359 422
12.2937 426
12.31381 428
12.33393 471
12.35404 430
12.37415 455
12.39427 408
12.41438 454
12.4345 425
12.45461 427
12.47472 425
12.49484 408
12.51495 442
12.53506 434
12.55518 432
12.57529 427
12.5954 451
12.61552 403
12.63563 373
12.65575 390
12.67586 363
12.69597 391
12.71609 391
12.7362 428
12.75631 403
12.77643 412
12.79654 391
12.81666 395
12.83677 397
12.85688 405
12.877 387
12.89711 410
12.91722 365
12.93734 404
12.95745 440
12.97757 422
12.99768 443
13.01779 446
13.03791 403
13.05802 412
13.07813 414
13.09825 423
13.11836 402
13.13847 418
13.15859 418
13.1787 386
13.19882 384
13.21893 408
13.23904 412
13.25916 397
13.27927 434
13.29938 397
13.3195 395
13.33961 411
13.35973 441
13.37984 399
13.39995 386
13.42007 396
13.44018 433
13.46029 347
13.48041 385
13.50052 421
13.52064 415
13.54075 418
13.56086 462
13.58098 446
13.60109 474
13.6212 430
13.64132 427
13.66143 405
13.68154 444
13.70166 407
13.72177 426
13.74189 441
13.762 430
13.78211 459
13.80223 475
13.82234 414
13.84245 433
13.86257 446
13.88268 453
13.9028 424
13.92291 421
13.94302 400
13.96314 430
13.98325 393
14.00336 459
14.02348 388
14.04359 388
14.06371 405
14.08382 390
14.10393 422
14.12405 412
14.14416 416
14.16427 448
14.18439 392
14.2045 435
14.22461 391
14.24473 379
14.26484 409
14.28496 387
14.30507 422
14.32518 412
14.3453 386
14.36541 431
14.38552 424
14.40564 384
14.42575 403
14.44587 413
14.46598 405
14.48609 382
14.50621 419
14.52632 394
14.54643 391
14.56655 445
14.58666 387
14.60677 412
14.62689 396
14.647 428
14.66712 385
14.68723 415
14.70734 391
14.72746 397
14.74757 362
14.76768 403
14.7878 424
14.80791 450
14.82803 412
14.84814 395
14.86825 404
14.88837 401
14.90848 450
14.92859 389
14.94871 413
14.96882 394
14.98894 406
15.00905 402
15.02916 393
15.04928 378
15.06939 430
15.0895 443
15.10962 401
15.12973 424
15.14984 348
15.16996 434
15.19007 445
15.21019 440
15.2303 406
15.25041 402
15.27053 393
15.29064 393
15.31075 405
15.33087 364
15.35098 362
15.3711 367
15.39121 387
15.41132 393
15.43144 414
15.45155 378
15.47166 411
15.49178 402
15.51189 383
15.53201 411
15.55212 380
15.57223 401
15.59235 396
15.61246 424
15.63257 419
15.65269 398
15.6728 448
15.69291 367
15.71303 415
15.73314 422
15.75326 394
15.77337 386
15.79348 408
15.8136 370
15.83371 401
15.85382 390
15.87394 408
15.89405 393
15.91417 406
15.93428 389
15.95439 433
15.97451 403
15.99462 409
16.01473 420
16.03485 426
16.05496 404
16.07508 402
16.09519 410
16.1153 393
16.13542 385
16.15553 450
16.17564 420
16.19576 418
16.21587 405
16.23598 441
16.2561 469
16.27621 385
16.29633 418
16.31644 418
16.33655 386
16.35667 405
16.37678 370
16.39689 436
16.41701 417
16.43712 385
16.45724 409
16.47735 438
16.49746 455
16.51758 419
16.53769 401
16.5578 361
16.57792 408
16.59803 412
16.61814 403
16.63826 426
16.65837 414
16.67849 382
16.6986 428
16.71871 389
16.73883 399
16.75894 425
16.77905 403
16.79917 447
16.81928 416
16.8394 376
16.85951 420
16.87962 414
16.89974 397
16.91985 456
16.93996 432
16.96008 382
16.98019 390
17.00031 418
17.02042 398
17.04053 394
17.06065 410
17.08076 386
17.10087 424
17.12099 397
17.1411 428
17.16121 383
17.18133 431
17.20144 430
17.22156 408
17.24167 433
17.26178 425
17.2819 436
17.30201 364
17.32212 427
17.34224 425
17.36235 416
17.38247 431
17.40258 422
17.42269 411
17.44281 428
17.46292 415
17.48303 423
17.50315 387
17.52326 407
17.54338 431
17.56349 410
17.5836 430
17.60372 431
17.62383 418
17.64394 416
17.66406 454
17.68417 439
17.70428 464
17.7244 423
17.74451 431
17.76463 424
17.78474 441
17.80485 472
17.82497 438
17.84508 454
17.86519 432
17.88531 455
17.90542 430
17.92554 418
17.94565 438
17.96576 416
17.98588 423
18.00599 424
18.0261 419
18.04622 454
18.06633 442
18.08645 457
18.10656 393
18.12667 453
18.14679 463
18.1669 450
18.18701 416
18.20713 445
18.22724 451
18.24735 453
18.26747 459
18.28758 464
18.3077 455
18.32781 421
18.34792 427
18.36804 455
18.38815 407
18.40826 430
18.42838 462
18.44849 398
18.46861 460
18.48872 449
18.50883 398
18.52895 395
18.54906 460
18.56917 417
18.58929 428
18.6094 422
18.62951 443
18.64963 445
18.66974 456
18.68986 460
18.70997 390
18.73008 424
18.7502 465
18.77031 413
18.79042 407
18.81054 460
18.83065 425
18.85077 438
18.87088 447
18.89099 455
18.91111 471
18.93122 483
18.95133 440
18.97145 467
18.99156 440
19.01168 461
19.03179 453
19.0519 463
19.07202 503
19.09213 507
19.11224 551
19.13236 509
19.15247 475
19.17258 535
19.1927 552
19.21281 506
19.23293 575
19.25304 582
19.27315 602
19.29327 564
19.31338 609
19.33349 612
19.35361 643
19.37372 735
19.39384 670
19.41395 734
19.43406 728
19.45418 839
19.47429 754
19.4944 876
19.51452 935
19.53463 876
19.55475 943
19.57486 927
19.59497 992
19.61509 1001
19.6352 1052
19.65531 1024
19.67543 1070
19.69554 1019
19.71565 1069
19.73577 1120
19.75588 1081
19.776 1151
19.79611 1076
19.81622 1094
19.83634 1019
19.85645 933
19.87656 966
19.89668 943
19.91679 958
19.93691 894
19.95702 914
19.97713 875
19.99725 903
20.01736 873
20.03747 817
20.05759 804
20.0777 875
20.09782 818
20.11793 822
20.13804 750
20.15816 792
20.17827 740
20.19838 751
20.2185 782
20.23861 795
20.25872 800
20.27884 786
20.29895 744
20.31907 794
20.33918 733
20.35929 728
20.37941 777
20.39952 698
20.41963 728
20.43975 678
20.45986 706
20.47998 707
20.50009 635
20.5202 747
20.54032 714
20.56043 738
20.58054 696
20.60066 774
20.62077 756
20.64088 736
20.661 774
20.68111 842
20.70123 942
20.72134 962
20.74145 1067
20.76157 1150
20.78168 1223
20.80179 1186
20.82191 1184
20.84202 1168
20.86214 1043
20.88225 943
20.90236 853
20.92248 808
20.94259 812
20.9627 734
20.98282 740
21.00293 750
21.02305 714
21.04316 663
21.06327 687
21.08339 635
21.1035 647
21.12361 645
21.14373 616
21.16384 684
21.18395 580
21.20407 671
21.22418 592
21.2443 612
21.26441 623
21.28452 597
21.30464 628
21.32475 652
21.34486 672
21.36498 614
21.38509 594
21.40521 656
21.42532 594
21.44543 618
21.46555 609
21.48566 653
21.50577 534
21.52589 598
21.546 597
21.56612 580
21.58623 604
21.60634 639
21.62646 570
21.64657 599
21.66668 617
21.6868 581
21.70691 554
21.72702 564
21.74714 570
21.76725 625
21.78737 572
21.80748 582
21.82759 586
21.84771 693
21.86782 598
21.88793 697
21.90805 721
21.92816 760
21.94828 707
21.96839 766
21.9885 730
22.00862 693
22.02873 662
22.04884 637
22.06896 609
22.08907 638
22.10919 633
22.1293 608
22.14941 598
22.16953 607
22.18964 578
22.20975 618
22.22987 592
22.24998 614
22.27009 557
22.29021 588
22.31032 640
22.33044 569
22.35055 552
22.37066 577
22.39078 571
22.41089 555
22.431 638
22.45112 589
22.47123 582
22.49135 540
22.51146 573
22.53157 580
22.55169 569
22.5718 543
22.59191 534
22.61203 549
22.63214 532
22.65225 538
22.67237 571
22.69248 593
22.7126 585
22.73271 567
22.75282 584
22.77294 558
22.79305 557
22.81316 541
22.83328 562
22.85339 577
22.87351 573
22.89362 550
22.91373 573
22.93385 581
22.95396 610
22.97407 607
22.99419 662
23.0143 605
23.03442 614
23.05453 611
23.07464 614
23.09476 662
23.11487 607
23.13498 614
23.1551 594
23.17521 629
23.19532 571
23.21544 582
23.23555 580
23.25567 583
23.27578 607
23.29589 533
23.31601 567
23.33612 560
23.35623 574
23.37635 591
23.39646 608
23.41658 634
23.43669 642
23.4568 649
23.47692 642
23.49703 662
23.51714 673
23.53726 679
23.55737 622
23.57749 616
23.5976 593
23.61771 572
23.63783 618
23.65794 533
23.67805 588
23.69817 579
23.71828 564
23.73839 582
23.75851 589
23.77862 569
23.79874 617
23.81885 599
23.83896 529
23.85908 606
23.87919 597
23.8993 660
23.91942 654
23.93953 638
23.95965 621
23.97976 657
23.99987 648
24.01999 658
24.0401 658
24.06021 662
24.08033 656
24.10044 622
24.12056 655
24.14067 649
24.16078 630
24.1809 670
24.20101 645
24.22112 679
24.24124 653
24.26135 670
24.28146 669
24.30158 598
24.32169 585
24.34181 614
24.36192 571
24.38203 586
24.40215 509
24.42226 566
24.44237 591
24.46249 586
24.4826 570
24.50272 569
24.52283 627
24.54294 610
24.56306 575
24.58317 574
24.60328 579
24.6234 574
24.64351 574
24.66362 571
24.68374 585
24.70385 602
24.72397 584
24.74408 582
24.76419 590
24.78431 624
24.80442 561
24.82453 595
24.84465 565
24.86476 587
24.88488 611
24.90499 595
24.9251 589
24.94522 627
24.96533 647
24.98544 606
25.00556 577
25.02567 657
25.04579 607
25.0659 558
25.08601 657
25.10613 652
25.12624 651
25.14635 630
25.16647 601
25.18658 605
25.20669 632
25.22681 642
25.24692 612
25.26704 630
25.28715 641
25.30726 677
25.32738 631
25.34749 624
25.3676 653
25.38772 642
25.40783 622
25.42795 668
25.44806 658
25.46817 672
25.48829 650
25.5084 638
25.52851 670
25.54863 636
25.56874 642
25.58886 624
25.60897 643
25.62908 604
25.6492 609
25.66931 588
25.68942 580
25.70954 635
25.72965 558
25.74976 568
25.76988 530
25.78999 557
25.81011 584
25.83022 594
25.85033 564
25.87045 575
25.89056 554
25.91067 590
25.93079 590
25.9509 587
25.97102 592
25.99113 579
26.01124 639
26.03136 592
26.05147 640
26.07158 565
26.0917 649
26.11181 647
26.13193 643
26.15204 621
26.17215 617
26.19227 664
26.21238 651
26.23249 666
26.25261 753
26.27272 769
26.29283 823
26.31295 763
26.33306 759
26.35318 908
26.37329 931
26.3934 977
26.41352 1116
26.43363 1411
26.45374 1565
26.47386 1868
26.49397 2248
26.51409 2565
26.5342 2934
26.55431 3038
26.57443 3184
26.59454 2993
26.61465 2621
26.63477 2173
26.65488 1834
26.67499 1449
26.69511 1177
26.71522 966
26.73534 845
26.75545 811
26.77556 750
26.79568 763
26.81579 751
26.8359 720
26.85602 706
26.87613 724
26.89625 723
26.91636 710
26.93647 776
26.95659 770
26.9767 742
26.99681 726
27.01693 742
27.03704 729
27.05716 676
27.07727 733
27.09738 701
27.1175 663
27.13761 631
27.15772 678
27.17784 689
27.19795 661
27.21806 653
27.23818 696
27.25829 672
27.27841 764
27.29852 726
27.31863 773
27.33875 832
27.35886 825
27.37897 844
27.39909 892
27.4192 849
27.43932 823
27.45943 810
27.47954 800
27.49966 731
27.51977 760
27.53988 753
27.56 760
27.58011 811
27.60023 750
27.62034 749
27.64045 791
27.66057 773
27.68068 818
27.70079 842
27.72091 817
27.74102 808
27.76113 813
27.78125 859
27.80136 836
27.82148 874
27.84159 930
27.8617 904
27.88182 891
27.90193 890
27.92204 842
27.94216 844
27.96227 781
27.98239 745
28.0025 697
28.02261 661
28.04273 664
28.06284 668
28.08295 612
28.10307 688
28.12318 610
28.1433 595
28.16341 635
28.18352 627
28.20364 572
28.22375 626
28.24386 630
28.26398 631
28.28409 645
28.3042 620
28.32432 558
28.34443 597
28.36455 612
28.38466 603
28.40477 614
28.42489 551
28.445 544
28.46511 554
28.48523 549
28.50534 500
28.52546 563
28.54557 540
28.56568 537
28.5858 528
28.60591 577
28.62602 604
28.64614 593
28.66625 578
28.68636 520
28.70648 586
28.72659 560
28.74671 482
28.76682 539
28.78693 530
28.80705 544
28.82716 549
28.84727 510
28.86739 561
28.8875 531
28.90762 502
28.92773 505
28.94784 540
28.96796 524
28.98807 573
29.00818 526
29.0283 513
29.04841 545
29.06853 557
29.08864 585
29.10875 530
29.12887 564
29.14898 634
29.16909 545
29.18921 632
29.20932 609
29.22943 678
29.24955 658
29.26966 726
29.28978 811
29.30989 804
29.33 896
29.35012 981
29.37023 995
29.39034 988
29.41046 1000
29.43057 879
29.45069 865
29.4708 808
29.49091 729
29.51103 722
29.53114 648
29.55125 645
29.57137 578
29.59148 595
29.6116 586
29.63171 611
29.65182 578
29.67194 578
29.69205 607
29.71216 579
29.73228 610
29.75239 588
29.7725 601
29.79262 625
29.81273 603
29.83285 644
29.85296 577
29.87307 593
29.89319 583
29.9133 587
29.93341 563
29.95353 618
29.97364 583
29.99376 590
30.01387 572
30.03398 610
30.0541 603
30.07421 627
30.09432 642
30.11444 631
30.13455 600
30.15467 611
30.17478 655
30.19489 575
30.21501 610
30.23512 586
30.25523 606
30.27535 556
30.29546 555
30.31557 574
30.33569 584
30.3558 577
30.37592 576
30.39603 582
30.41614 616
30.43626 590
30.45637 542
30.47648 542
30.4966 556
30.51671 562
30.53683 534
30.55694 530
30.57705 561
30.59717 528
30.61728 542
30.63739 519
30.65751 532
30.67762 565
30.69773 568
30.71785 560
30.73796 549
30.75808 539
30.77819 539
30.7983 576
30.81842 524
30.83853 558
30.85864 541
30.87876 530
30.89887 475
30.91899 508
30.9391 465
30.95921 520
30.97933 456
30.99944 483
31.01955 505
31.03967 461
31.05978 453
31.0799 494
31.10001 474
31.12012 501
31.14024 479
31.16035 539
31.18046 499
31.20058 520
31.22069 448
31.2408 500
31.26092 517
31.28103 496
31.30115 512
31.32126 511
31.34137 522
31.36149 522
31.3816 477
31.40171 495
31.42183 495
31.44194 487
31.46206 484
31.48217 474
31.50228 447
31.5224 461
31.54251 448
31.56262 459
31.58274 513
31.60285 452
31.62297 482
31.64308 472
31.66319 488
31.68331 439
31.70342 480
31.72353 513
31.74365 447
31.76376 462
31.78387 472
31.80399 482
31.8241 486
31.84422 486
31.86433 449
31.88444 489
31.90456 446
31.92467 482
31.94478 471
31.9649 476
31.98501 510
32.00513 514
32.02524 483
32.04535 455
32.06547 472
32.08558 479
32.10569 486
32.12581 492
32.14592 504
32.16604 498
32.18615 486
32.20626 487
32.22638 493
32.24649 471
32.2666 481
32.28672 482
32.30683 497
32.32694 467
32.34706 498
32.36717 515
32.38729 480
32.4074 474
32.42751 528
32.44763 493
32.46774 474
32.48785 447
32.50797 468
32.52808 513
32.5482 474
32.56831 462
32.58842 447
32.60854 474
32.62865 478
32.64876 444
32.66888 420
32.68899 411
32.7091 462
32.72922 422
32.74933 485
32.76945 490
32.78956 462
32.80967 482
32.82979 489
32.8499 527
32.87001 504
32.89013 508
32.91024 520
32.93036 505
32.95047 501
32.97058 548
32.9907 550
33.01081 511
33.03092 526
33.05104 537
33.07115 560
33.09127 573
33.11138 522
33.13149 534
33.15161 519
33.17172 531
33.19183 486
33.21195 507
33.23206 503
33.25217 459
33.27229 460
33.2924 444
33.31252 471
33.33263 491
33.35274 457
33.37286 460
33.39297 461
33.41308 464
33.4332 470
33.45331 508
33.47343 440
33.49354 468
33.51365 451
33.53377 460
33.55388 416
33.57399 441
33.59411 488
33.61422 484
33.63434 478
33.65445 463
33.67456 479
33.69468 454
33.71479 483
33.7349 520
33.75502 542
33.77513 502
33.79524 490
33.81536 462
33.83547 506
33.85559 517
33.8757 476
33.89581 507
33.91593 490
33.93604 552
33.95615 510
33.97627 512
33.99638 512
34.0165 523
34.03661 532
34.05672 554
34.07684 593
34.09695 545
34.11706 546
34.13718 515
34.15729 544
34.17741 574
34.19752 583
34.21763 587
34.23775 585
34.25786 578
34.27797 569
34.29809 644
34.3182 633
34.33831 641
34.35843 655
34.37854 644
34.39866 633
34.41877 672
34.43888 702
34.459 688
34.47911 673
34.49922 720
34.51934 678
34.53945 717
34.55957 737
34.57968 751
34.59979 814
34.61991 728
34.64002 712
34.66013 716
34.68025 737
34.70036 720
34.72047 757
34.74059 784
34.7607 764
34.78082 789
34.80093 745
34.82104 772
34.84116 790
34.86127 837
34.88138 815
34.9015 738
34.92161 805
34.94173 821
34.96184 829
34.98195 761
35.00207 733
35.02218 800
35.04229 800
35.06241 750
35.08252 748
35.10264 769
35.12275 797
35.14286 798
35.16298 765
35.18309 764
35.2032 731
35.22332 750
35.24343 758
35.26354 818
35.28366 772
35.30377 731
35.32389 758
35.344 735
35.36411 717
35.38423 774
35.40434 770
35.42445 791
35.44457 747
35.46468 814
35.4848 812
35.50491 807
35.52502 777
35.54514 800
35.56525 739
35.58536 770
35.60548 743
35.62559 711
35.64571 760
35.66582 715
35.68593 742
35.70605 710
35.72616 681
35.74627 670
35.76639 670
35.7865 668
35.80661 709
35.82673 680
35.84684 641
35.86696 682
35.88707 651
35.90718 710
35.9273 654
35.94741 695
35.96752 752
35.98764 669
36.00775 667
36.02787 664
36.04798 625
36.06809 669
36.08821 608
36.10832 642
36.12843 636
36.14855 660
36.16866 616
36.18878 585
36.20889 651
36.229 577
36.24912 608
36.26923 598
36.28934 656
36.30946 678
36.32957 644
36.34968 660
36.3698 627
36.38991 691
36.41003 740
36.43014 753
36.45025 768
36.47037 739
36.49048 704
36.51059 736
36.53071 701
36.55082 713
36.57094 636
36.59105 686
36.61116 647
36.63128 649
36.65139 588
36.6715 616
36.69162 574
36.71173 629
36.73184 610
36.75196 611
36.77207 609
36.79219 630
36.8123 642
36.83241 589
36.85253 604
36.87264 599
36.89275 548
36.91287 546
36.93298 586
36.9531 594
36.97321 578
36.99332 603
37.01344 572
37.03355 559
37.05366 551
37.07378 551
37.09389 583
37.11401 602
37.13412 585
37.15423 584
37.17435 541
37.19446 548
37.21457 535
37.23469 601
37.2548 588
37.27491 574
37.29503 559
37.31514 568
37.33526 538
37.35537 510
37.37548 590
37.3956 625
37.41571 554
37.43582 556
37.45594 553
37.47605 535
37.49617 591
37.51628 598
37.53639 538
37.55651 563
37.57662 567
37.59673 592
37.61685 563
37.63696 557
37.65708 578
37.67719 584
37.6973 517
37.71742 581
37.73753 519
37.75764 549
37.77776 514
37.79787 539
37.81798 537
37.8381 518
37.85821 498
37.87833 513
37.89844 549
37.91855 516
37.93867 511
37.95878 535
37.97889 473
37.99901 518
38.01912 517
38.03924 492
38.05935 491
38.07946 499
38.09958 453
38.11969 522
38.1398 528
38.15992 522
38.18003 517
38.20015 509
38.22026 514
38.24037 503
38.26049 536
38.2806 536
38.30071 503
38.32083 535
38.34094 548
38.36105 484
38.38117 502
38.40128 492
38.4214 547
38.44151 503
38.46162 508
38.48174 527
38.50185 527
38.52196 487
38.54208 502
38.56219 523
38.58231 523
38.60242 493
38.62253 507
38.64265 481
38.66276 521
38.68287 478
38.70299 451
38.7231 530
38.74321 478
38.76333 491
38.78344 505
38.80356 484
38.82367 490
38.84378 496
38.8639 498
38.88401 509
38.90412 482
38.92424 507
38.94435 468
38.96447 507
38.98458 499
39.00469 500
39.02481 497
39.04492 489
39.06503 547
39.08515 519
39.10526 525
39.12538 508
39.14549 496
39.1656 536
39.18572 489
39.20583 510
39.22594 548
39.24606 553
39.26617 577
39.28628 596
39.3064 591
39.32651 663
39.34663 617
39.36674 700
39.38685 671
39.40697 669
39.42708 683
39.44719 708
39.46731 623
39.48742 639
39.50754 608
39.52765 542
39.54776 581
39.56788 502
39.58799 528
39.6081 496
39.62822 500
39.64833 476
39.66845 472
39.68856 524
39.70867 486
39.72879 491
39.7489 528
39.76901 447
39.78913 478
39.80924 458
39.82935 496
39.84947 499
39.86958 497
39.8897 526
39.90981 517
39.92992 519
39.95004 494
39.97015 451
39.99026 519
40.01038 488
40.03049 535
40.05061 502
40.07072 535
40.09083 492
40.11095 532
40.13106 533
40.15117 545
40.17129 562
40.1914 534
40.21152 572
40.23163 547
40.25174 516
40.27186 516
40.29197 509
40.31208 522
40.3322 495
40.35231 522
40.37242 503
40.39254 482
40.41265 493
40.43277 516
40.45288 474
40.47299 510
40.49311 469
40.51322 455
40.53333 508
40.55345 512
40.57356 442
40.59368 490
40.61379 502
40.6339 507
40.65402 490
40.67413 499
40.69424 520
40.71436 518
40.73447 514
40.75458 489
40.7747 518
40.79481 502
40.81493 483
40.83504 493
40.85515 500
40.87527 490
40.89538 498
40.91549 470
40.93561 458
40.95572 488
40.97584 514
40.99595 507
41.01606 460
41.03618 465
41.05629 486
41.0764 493
41.09652 476
41.11663 481
41.13675 492
41.15686 463
41.17697 501
41.19709 519
41.2172 472
41.23731 478
41.25743 502
41.27754 490
41.29765 461
41.31777 453
41.33788 461
41.358 467
41.37811 444
41.39822 467
41.41834 467
41.43845 498
41.45856 457
41.47868 496
41.49879 462
41.51891 485
41.53902 482
41.55913 476
41.57925 524
41.59936 469
41.61947 504
41.63959 512
41.6597 513
41.67982 484
41.69993 470
41.72004 511
41.74016 502
41.76027 513
41.78038 541
41.8005 524
41.82061 493
41.84072 454
41.86084 446
41.88095 450
41.90107 432
41.92118 496
41.94129 486
41.96141 512
41.98152 457
42.00163 481
42.02175 472
42.04186 471
42.06198 456
42.08209 458
42.1022 422
42.12232 495
42.14243 511
42.16254 485
42.18266 492
42.20277 436
42.22289 496
42.243 525
42.26311 513
42.28323 549
42.30334 584
42.32345 539
42.34357 545
42.36368 583
42.38379 614
42.40391 610
42.42402 566
42.44414 546
42.46425 519
42.48436 543
42.50448 554
42.52459 519
42.5447 477
42.56482 491
42.58493 447
42.60505 490
42.62516 501
42.64527 479
42.66539 444
42.6855 467
42.70561 486
42.72573 454
42.74584 473
42.76595 453
42.78607 453
42.80618 483
42.8263 493
42.84641 461
42.86652 461
42.88664 452
42.90675 491
42.92686 505
42.94698 432
42.96709 469
42.98721 473
43.00732 494
43.02743 496
43.04755 479
43.06766 498
43.08777 523
43.10789 482
43.128 502
43.14812 511
43.16823 495
43.18834 489
43.20846 486
43.22857 562
43.24868 511
43.2688 505
43.28891 485
43.30902 416
43.32914 480
43.34925 503
43.36937 416
43.38948 473
43.40959 472
43.42971 449
43.44982 419
43.46993 448
43.49005 428
43.51016 415
43.53028 439
43.55039 434
43.5705 452
43.59062 450
43.61073 428
43.63084 405
43.65096 418
43.67107 462
43.69119 444
43.7113 464
43.73141 450
43.75153 436
43.77164 425
43.79175 453
43.81187 388
43.83198 407
43.85209 401
43.87221 441
43.89232 430
43.91244 451
43.93255 430
43.95266 471
43.97278 404
43.99289 411
44.013 439
44.03312 434
44.05323 430
44.07335 457
44.09346 417
44.11357 460
44.13369 421
44.1538 443
44.17391 436
44.19403 442
44.21414 455
44.23426 443
44.25437 440
44.27448 413
44.2946 428
44.31471 426
44.33482 392
44.35494 461
44.37505 460
44.39516 410
44.41528 419
44.43539 436
44.45551 434
44.47562 417
44.49573 444
44.51585 424
44.53596 426
44.55607 427
44.57619 414
44.5963 394
44.61642 431
44.63653 464
44.65664 417
44.67676 419
44.69687 459
44.71698 428
44.7371 392
44.75721 463
44.77732 475
44.79744 419
44.81755 456
44.83767 405
44.85778 433
44.87789 445
44.89801 423
44.91812 421
44.93823 413
44.95835 425
44.97846 459
44.99858 426
45.01869 444
45.0388 406
45.05892 440
45.07903 444
45.09914 444
45.11926 423
45.13937 404
45.15949 439
45.1796 420
45.19971 419
45.21983 433
45.23994 440
45.26005 438
45.28017 453
45.30028 433
45.32039 418
45.34051 440
45.36062 499
45.38074 442
45.40085 433
45.42096 445
45.44108 438
45.46119 428
45.4813 464
45.50142 505
45.52153 455
45.54165 448
45.56176 438
45.58187 441
45.60199 473
45.6221 487
45.64221 462
45.66233 506
45.68244 482
45.70256 472
45.72267 515
45.74278 514
45.7629 496
45.78301 461
45.80312 505
45.82324 481
45.84335 399
45.86346 451
45.88358 410
45.90369 431
45.92381 436
45.94392 454
45.96403 400
45.98415 429
46.00426 438
46.02437 440
46.04449 404
46.0646 389
46.08472 408
46.10483 444
46.12494 454
46.14506 388
46.16517 439
46.18528 438
46.2054 409
46.22551 396
46.24563 438
46.26574 417
46.28585 395
46.30597 421
46.32608 411
46.34619 405
46.36631 413
46.38642 407
46.40653 327
46.42665 381
46.44676 412
46.46688 428
46.48699 411
46.5071 370
46.52722 412
46.54733 406
46.56744 416
46.58756 410
46.60767 439
46.62779 418
46.6479 427
46.66801 400
46.68813 360
46.70824 372
46.72835 402
46.74847 372
46.76858 394
46.78869 377
46.80881 392
46.82892 360
46.84904 447
46.86915 377
46.88926 379
46.90938 436
46.92949 408
46.9496 442
46.96972 427
46.98983 438
47.00995 446
47.03006 450
47.05017 444
47.07029 455
47.0904 410
47.11051 476
47.13063 419
47.15074 424
47.17086 416
47.19097 460
47.21108 418
47.2312 410
47.25131 443
47.27142 395
47.29154 414
47.31165 470
47.33176 460
47.35188 473
47.37199 442
47.39211 450
47.41222 460
47.43233 464
47.45245 465
47.47256 471
47.49267 478
47.51279 486
47.5329 500
47.55302 473
47.57313 455
47.59324 462
47.61336 478
47.63347 488
47.65358 429
47.6737 481
47.69381 443
47.71393 410
47.73404 427
47.75415 411
47.77427 415
47.79438 446
47.81449 431
47.83461 440
47.85472 419
47.87483 431
47.89495 453
47.91506 442
47.93518 414
47.95529 412
47.9754 406
47.99552 412
48.01563 420
48.03574 389
48.05586 415
48.07597 409
48.09609 440
48.1162 414
48.13631 424
48.15643 415
48.17654 410
48.19665 436
48.21677 381
48.23688 403
48.257 424
48.27711 378
48.29722 411
48.31734 411
48.33745 418
48.35756 411
48.37768 449
48.39779 390
48.4179 436
48.43802 451
48.45813 420
48.47825 439
48.49836 487
48.51847 486
48.53859 454
48.5587 426
48.57881 441
48.59893 464
48.61904 420
48.63916 404
48.65927 427
48.67938 421
48.6995 445
48.71961 416
48.73972 434
48.75984 421
48.77995 439
48.80006 428
48.82018 408
48.84029 391
48.86041 426
48.88052 451
48.90063 390
48.92075 407
48.94086 423
48.96097 366
48.98109 436
49.0012 450
49.02132 424
49.04143 379
49.06154 413
49.08166 406
49.10177 434
49.12188 412
49.142 409
49.16211 394
49.18223 437
49.20234 445
49.22245 410
49.24257 403
49.26268 429
49.28279 417
49.30291 426
49.32302 402
49.34313 415
49.36325 399
49.38336 429
49.40348 431
49.42359 383
49.4437 438
49.46382 413
49.48393 435
49.50404 411
49.52416 405
49.54427 420
49.56439 415
49.5845 408
49.60461 388
49.62473 414
49.64484 444
49.66495 414
49.68507 437
49.70518 411
49.7253 439
49.74541 410
49.76552 449
49.78564 455
49.80575 437
49.82586 453
49.84598 463
49.86609 477
49.8862 535
49.90632 480
49.92643 526
49.94655 538
49.96666 574
49.98677 598
50.00689 629
50.027 653
50.04711 685
50.06723 655
50.08734 619
50.10746 592
50.12757 535
50.14768 534
50.1678 556
50.18791 519
50.20802 482
50.22814 511
50.24825 478
50.26837 419
50.28848 413
50.30859 402
50.32871 437
50.34882 422
50.36893 424
50.38905 464
50.40916 426
50.42927 433
50.44939 420
50.4695 442
50.48962 458
50.50973 463
50.52984 441
50.54996 425
50.57007 442
50.59018 443
50.6103 433
50.63041 432
50.65053 447
50.67064 434
50.69075 414
50.71087 402
50.73098 424
50.75109 414
50.77121 393
50.79132 389
50.81143 412
50.83155 374
50.85166 399
50.87178 392
50.89189 398
50.912 412
50.93212 389
50.95223 403
50.97234 436
50.99246 375
51.01257 432
51.03269 412
51.0528 382
51.07291 425
51.09303 378
51.11314 416
51.13325 392
51.15337 411
51.17348 448
51.1936 415
51.21371 403
51.23382 368
51.25394 397
51.27405 386
51.29416 391
51.31428 378
51.33439 366
51.3545 431
51.37462 366
51.39473 357
51.41485 407
51.43496 373
51.45507 381
51.47519 365
51.4953 389
51.51541 390
51.53553 367
51.55564 369
51.57576 367
51.59587 376
51.61598 382
51.6361 378
51.65621 386
51.67632 388
51.69644 373
51.71655 365
51.73667 367
51.75678 368
51.77689 368
51.79701 412
51.81712 369
51.83723 388
51.85735 405
51.87746 363
51.89757 397
51.91769 386
51.9378 387
51.95792 407
51.97803 409
51.99814 385
52.01826 378
52.03837 388
52.05848 394
52.0786 389
52.09871 411
52.11883 401
52.13894 413
52.15905 363
52.17917 412
52.19928 424
52.21939 375
52.23951 386
52.25962 375
52.27974 392
52.29985 395
52.31996 423
52.34008 398
52.36019 398
52.3803 418
52.40042 416
52.42053 395
52.44064 348
52.46076 404
52.48087 368
52.50099 391
52.5211 411
52.54121 453
52.56133 380
52.58144 420
52.60155 400
52.62167 387
52.64178 415
52.6619 378
52.68201 429
52.70212 387
52.72224 419
52.74235 393
52.76246 422
52.78258 393
52.80269 367
52.8228 425
52.84292 388
52.86303 419
52.88315 421
52.90326 421
52.92337 440
52.94349 435
52.9636 388
52.98371 429
53.00383 392
53.02394 439
53.04406 426
53.06417 424
53.08428 426
53.1044 418
53.12451 438
53.14462 447
53.16474 421
53.18485 437
53.20497 450
53.22508 424
53.24519 460
53.26531 500
53.28542 485
53.30553 481
53.32565 445
53.34576 448
53.36587 425
53.38599 452
53.4061 460
53.42622 482
53.44633 473
53.46644 446
53.48656 471
53.50667 488
53.52678 471
53.5469 496
53.56701 457
53.58713 446
53.60724 472
53.62735 457
53.64747 505
53.66758 473
53.68769 496
53.70781 473
53.72792 515
53.74804 487
53.76815 496
53.78826 510
53.80838 493
53.82849 470
53.8486 500
53.86872 492
53.88883 512
53.90894 493
53.92906 519
53.94917 467
53.96929 494
53.9894 468
54.00951 505
54.02963 451
54.04974 526
54.06985 453
54.08997 472
54.11008 513
54.1302 479
54.15031 470
54.17042 483
54.19054 438
54.21065 443
54.23076 413
54.25088 499
54.27099 451
54.29111 459
54.31122 428
54.33133 478
54.35145 429
54.37156 484
54.39167 467
54.41179 459
54.4319 438
54.45201 467
54.47213 462
54.49224 481
54.51236 466
54.53247 486
54.55258 475
54.5727 465
54.59281 487
54.61292 495
54.63304 494
54.65315 496
54.67327 489
54.69338 531
54.71349 500
54.73361 524
54.75372 537
54.77383 515
54.79395 518
54.81406 506
54.83417 512
54.85429 545
54.8744 494
54.89452 518
54.91463 489
54.93474 528
54.95486 492
54.97497 506
54.99508 433
55.0152 494
55.03531 482
55.05543 482
55.07554 431
55.09565 478
55.11577 465
55.13588 432
55.15599 453
55.17611 498
55.19622 468
55.21634 471
55.23645 488
55.25656 492
55.27668 489
55.29679 440
55.3169 487
55.33702 466
55.35713 465
55.37724 440
55.39736 440
55.41747 480
55.43759 472
55.4577 474
55.47781 438
55.49793 455
55.51804 457
55.53815 444
55.55827 425
55.57838 423
55.5985 487
55.61861 453
55.63872 454
55.65884 430
55.67895 464
55.69906 436
55.71918 407
55.73929 472
55.75941 479
55.77952 425
55.79963 448
55.81975 444
55.83986 422
55.85997 426
55.88009 421
55.9002 436
55.92031 415
55.94043 452
55.96054 424
55.98066 421
56.00077 406
56.02088 408
56.041 423
56.06111 418
56.08122 431
56.10134 429
56.12145 442
56.14157 421
56.16168 435
56.18179 437
56.20191 396
56.22202 439
56.24213 430
56.26225 436
56.28236 447
56.30248 440
56.32259 367
56.3427 441
56.36282 457
56.38293 414
56.40304 426
56.42316 445
56.44327 414
56.46338 447
56.4835 456
56.50361 470
56.52373 434
56.54384 434
56.56395 451
56.58407 425
56.60418 416
56.62429 451
56.64441 446
56.66452 447
56.68464 465
56.70475 433
56.72486 445
56.74498 456
56.76509 420
56.7852 453
56.80532 401
56.82543 442
56.84554 465
56.86566 422
56.88577 424
56.90589 402
56.926 407
56.94611 454
56.96623 436
56.98634 420
57.00645 404
57.02657 454
57.04668 457
57.0668 469
57.08691 437
57.10702 470
57.12714 407
57.14725 467
57.16736 430
57.18748 422
57.20759 447
57.22771 407
57.24782 443
57.26793 493
57.28805 449
57.30816 395
57.32827 457
57.34839 431
57.3685 458
57.38861 463
57.40873 423
57.42884 452
57.44896 450
57.46907 479
57.48918 456
57.5093 442
57.52941 432
57.54952 453
57.56964 441
57.58975 401
57.60987 441
57.62998 435
57.65009 457
57.67021 418
57.69032 408
57.71043 440
57.73055 385
57.75066 444
57.77078 412
57.79089 402
57.811 398
57.83112 401
57.85123 407
57.87134 425
57.89146 376
57.91157 387
57.93168 385
57.9518 429
57.97191 398
57.99203 402
58.01214 424
58.03225 395
58.05237 385
58.07248 386
58.09259 420
58.11271 413
58.13282 424
58.15294 417
58.17305 440
58.19316 423
58.21328 402
58.23339 424
58.2535 425
58.27362 403
58.29373 428
58.31385 389
58.33396 411
58.35407 413
58.37419 400
58.3943 413
58.41441 446
58.43453 404
58.45464 386
58.47475 394
58.49487 423
58.51498 422
58.5351 423
58.55521 381
58.57532 432
58.59544 403
58.61555 438
58.63566 399
58.65578 417
58.67589 401
58.69601 409
58.71612 379
58.73623 443
58.75635 378
58.77646 370
58.79657 401
58.81669 393
58.8368 420
58.85691 390
58.87703 401
58.89714 418
58.91726 384
58.93737 397
58.95748 404
58.9776 411
58.99771 419
59.01782 393
59.03794 399
59.05805 426
59.07817 395
59.09828 429
59.11839 370
59.13851 416
59.15862 384
59.17873 406
59.19885 406
59.21896 402
59.23908 412
59.25919 430
59.2793 405
59.29942 402
59.31953 400
59.33964 417
59.35976 404
59.37987 404
59.39998 403
59.4201 385
59.44021 451
59.46033 360
59.48044 408
59.50055 408
59.52067 420
59.54078 376
59.56089 413
59.58101 396
59.60112 413
59.62124 422
59.64135 451
59.66146 448
59.68158 411
59.70169 429
59.7218 458
59.74192 462
59.76203 501
59.78215 498
59.80226 557
59.82237 526
59.84249 575
59.8626 545
59.88271 573
59.90283 525
59.92294 512
59.94305 511
59.96317 476
59.98328 497
60.0034 511
60.02351 490
60.04362 503
60.06374 477
60.08385 458
60.10396 431
60.12408 425
60.14419 452
60.16431 412
60.18442 450
60.20453 434
60.22465 405
60.24476 410
60.26487 433
60.28499 411
60.3051 445
60.32522 404
60.34533 440
60.36544 419
60.38556 439
60.40567 433
60.42578 414
60.4459 443
60.46601 424
60.48612 421
60.50624 423
60.52635 431
60.54647 422
60.56658 415
60.58669 420
60.60681 426
60.62692 443
60.64703 471
60.66715 452
60.68726 460
60.70738 426
60.72749 441
60.7476 486
60.76772 493
60.78783 427
60.80794 451
60.82806 441
60.84817 478
60.86828 445
60.8884 465
60.90851 469
60.92863 478
60.94874 456
60.96885 481
60.98897 478
61.00908 541
61.02919 491
61.04931 485
61.06942 521
61.08954 506
61.10965 525
61.12976 501
61.14988 510
61.16999 554
61.1901 524
61.21022 562
61.23033 607
61.25045 593
61.27056 547
61.29067 558
61.31079 574
61.3309 593
61.35101 603
61.37113 573
61.39124 586
61.41135 544
61.43147 599
61.45158 595
61.4717 582
61.49181 583
61.51192 572
61.53204 579
61.55215 621
61.57226 570
61.59238 559
61.61249 550
61.63261 571
61.65272 556
61.67283 596
61.69295 549
61.71306 530
61.73317 511
61.75329 612
61.7734 536
61.79352 484
61.81363 502
61.83374 541
61.85386 512
61.87397 533
61.89408 502
61.9142 512
61.93431 514
61.95442 478
61.97454 535
61.99465 524
62.01477 488
62.03488 464
62.05499 483
62.07511 501
62.09522 516
62.11533 444
62.13545 469
62.15556 503
62.17568 470
62.19579 468
62.2159 508
62.23602 522
62.25613 465
62.27624 494
62.29636 461
62.31647 526
62.33659 490
62.3567 471
62.37681 475
62.39693 480
62.41704 424
62.43715 453
62.45727 483
62.47738 458
62.49749 464
62.51761 442
62.53772 414
62.55784 427
62.57795 443
62.59806 451
62.61818 421
62.63829 453
62.6584 428
62.67852 456
62.69863 461
62.71875 416
62.73886 446
62.75897 448
62.77909 427
62.7992 427
62.81931 407
62.83943 434
62.85954 431
62.87965 426
62.89977 466
62.91988 436
62.94 410
62.96011 462
62.98022 418
63.00034 447
63.02045 426
63.04056 412
63.06068 447
63.08079 412
63.10091 410
63.12102 412
63.14113 445
63.16125 419
63.18136 394
63.20147 442
63.22159 418
63.2417 394
63.26182 400
63.28193 393
63.30204 446
63.32216 411
63.34227 408
63.36238 383
63.3825 419
63.40261 409
63.42272 391
63.44284 442
63.46295 385
63.48307 415
63.50318 402
63.52329 388
63.54341 433
63.56352 439
63.58363 393
63.60375 395
63.62386 405
63.64398 435
63.66409 412
63.6842 417
63.70432 390
63.72443 409
63.74454 408
63.76466 418
63.78477 472
63.80489 437
63.825 428
63.84511 441
63.86523 443
63.88534 442
63.90545 428
63.92557 458
63.94568 475
63.96579 423
63.98591 423
64.00602 425
64.02614 381
64.04625 432
64.06636 426
64.08648 446
64.10659 439
64.1267 393
64.14682 398
64.16693 425
64.18705 369
64.20716 418
64.22727 405
64.24739 406
64.2675 376
64.28761 406
64.30773 415
64.32784 407
64.34796 392
64.36807 407
64.38818 437
64.4083 404
64.42841 386
64.44852 406
64.46864 367
64.48875 374
64.50886 370
64.52898 372
64.54909 383
64.56921 388
64.58932 401
64.60943 359
64.62955 374
64.64966 403
64.66977 384
64.68989 389
64.71 419
64.73012 395
64.75023 405
64.77034 415
64.79046 424
64.81057 394
64.83068 390
64.8508 355
64.87091 367
64.89102 399
64.91114 418
64.93125 432
64.95137 430
64.97148 434
64.99159 424
65.01171 397
65.03182 390
65.05193 379
65.07205 384
65.09216 405
65.11228 364
65.13239 394
65.1525 375
65.17262 389
65.19273 380
65.21284 381
65.23296 431
65.25307 417
65.27319 382
65.2933 385
65.31341 386
65.33353 396
65.35364 409
65.37375 370
65.39387 422
65.41398 356
65.43409 368
65.45421 379
65.47432 392
65.49444 390
65.51455 395
65.53466 387
65.55478 385
65.57489 395
65.595 383
65.61512 398
65.63523 342
65.65535 392
65.67546 392
65.69557 386
65.71569 429
65.7358 435
65.75591 380
65.77603 390
65.79614 380
65.81626 377
65.83637 368
65.85648 386
65.8766 374
65.89671 420
65.91682 344
65.93694 390
65.95705 370
65.97716 402
65.99728 370
66.01739 382
66.03751 368
66.05762 377
66.07773 357
66.09785 392
66.11796 408
66.13807 355
66.15819 357
66.1783 371
66.19842 364
66.21853 358
66.23864 389
66.25876 383
66.27887 417
66.29898 371
66.3191 361
66.33921 367
66.35933 389
66.37944 364
66.39955 372
66.41967 372
66.43978 351
66.45989 393
66.48001 392
66.50012 359
66.52023 381
66.54035 343
66.56046 360
66.58058 401
66.60069 363
66.6208 390
66.64092 383
66.66103 365
66.68114 369
66.70126 344
66.72137 342
66.74149 362
66.7616 381
66.78171 358
66.80183 400
66.82194 345
66.84205 386
66.86217 381
66.88228 322
66.90239 377
66.92251 400
66.94262 355
66.96274 370
66.98285 373
67.00296 384
67.02308 350
67.04319 384
67.0633 385
67.08342 393
67.10353 357
67.12365 335
67.14376 367
67.16387 378
67.18399 369
67.2041 374
67.22421 401
67.24433 401
67.26444 382
67.28456 377
67.30467 384
67.32478 375
67.3449 389
67.36501 373
67.38512 372
67.40524 369
67.42535 380
67.44546 392
67.46558 410
67.48569 408
67.50581 432
67.52592 411
67.54603 422
67.56615 429
67.58626 449
67.60637 455
67.62649 458
67.6466 456
67.66672 451
67.68683 450
67.70694 439
67.72706 427
67.74717 441
67.76728 427
67.7874 394
67.80751 410
67.82763 452
67.84774 443
67.86785 444
67.88797 463
67.90808 461
67.92819 423
67.94831 429
67.96842 440
67.98853 493
68.00865 523
68.02876 534
68.04888 510
68.06899 520
68.0891 547
68.10922 558
68.12933 495
68.14944 490
68.16956 505
68.18967 517
68.20979 516
68.2299 494
68.25001 498
68.27013 457
68.29024 441
68.31035 432
68.33047 419
68.35058 473
68.3707 425
68.39081 420
68.41092 431
68.43104 401
68.45115 399
68.47126 398
68.49138 391
68.51149 363
68.5316 397
68.55172 395
68.57183 348
68.59195 385
68.61206 378
68.63217 378
68.65229 350
68.6724 372
68.69251 362
68.71263 387
68.73274 410
68.75286 376
68.77297 378
68.79308 409
68.8132 351
68.83331 412
68.85342 371
68.87354 432
68.89365 424
68.91376 382
68.93388 370
68.95399 374
68.97411 386
68.99422 395
69.01433 397
69.03445 359
69.05456 386
69.07467 407
69.09479 408
69.1149 392
69.13502 405
69.15513 356
69.17524 382
69.19536 393
69.21547 372
69.23558 386
69.2557 368
69.27581 388
69.29593 405
69.31604 400
69.33615 360
69.35627 374
69.37638 408
69.39649 361
69.41661 405
69.43672 382
69.45683 373
69.47695 366
69.49706 386
69.51718 409
69.53729 391
69.5574 373
69.57752 409
69.59763 348
69.61774 410
69.63786 383
69.65797 390
69.67809 380
69.6982 359
69.71831 381
69.73843 373
69.75854 395
69.77865 410
69.79877 375
69.81888 355
69.839 355
69.85911 356
69.87922 389
69.89934 348
69.91945 368
69.93956 405
69.95968 359
69.97979 382
69.9999 390
70.02002 389
70.04013 369
70.06025 393
70.08036 356
70.10047 397
70.12059 358
70.1407 384
70.16081 348
70.18093 427
70.20104 397
70.22116 408
70.24127 402
70.26138 350
70.2815 387
70.30161 366
70.32172 375
70.34184 393
70.36195 372
70.38207 368
70.40218 400
70.42229 379
70.44241 381
70.46252 399
70.48263 375
70.50275 360
70.52286 370
70.54297 324
70.56309 356
70.5832 398
70.60332 363
70.62343 357
70.64354 374
70.66366 362
70.68377 379
70.70388 381
70.724 396
70.74411 370
70.76423 342
70.78434 398
70.80445 409
70.82457 365
70.84468 371
70.86479 346
70.88491 369
70.90502 414
70.92513 356
70.94525 347
70.96536 389
70.98548 348
71.00559 386
71.0257 392
71.04582 385
71.06593 350
71.08604 352
71.10616 344
71.12627 330
71.14639 378
71.1665 397
71.18661 359
71.20673 351
71.22684 382
71.24695 364
71.26707 366
71.28718 402
71.3073 388
71.32741 402
71.34752 390
71.36764 369
71.38775 424
71.40786 369
71.42798 399
71.44809 368
71.4682 381
71.48832 389
71.50843 354
71.52855 399
71.54866 369
71.56877 380
71.58889 417
71.609 373
71.62911 407
71.64923 382
71.66934 374
71.68946 377
71.70957 364
71.72968 390
71.7498 373
71.76991 410
71.79002 414
71.81014 395
71.83025 391
71.85037 379
71.87048 363
71.89059 384
71.91071 395
71.93082 465
71.95093 390
71.97105 389
71.99116 396
72.01127 413
72.03139 425
72.0515 385
72.07162 424
72.09173 379
72.11184 407
72.13196 398
72.15207 412
72.17218 429
72.1923 416
72.21241 405
72.23253 414
72.25264 435
72.27275 433
72.29287 447
72.31298 437
72.33309 412
72.35321 406
72.37332 390
72.39344 418
72.41355 457
72.43366 385
72.45378 421
72.47389 417
72.494 412
72.51412 403
72.53423 397
72.55434 410
72.57446 426
72.59457 406
72.61469 435
72.6348 418
72.65491 422
72.67503 443
72.69514 415
72.71525 405
72.73537 393
72.75548 406
72.7756 423
72.79571 454
72.81582 421
72.83594 401
72.85605 443
72.87616 430
72.89628 399
72.91639 426
72.9365 422
72.95662 424
72.97673 422
72.99685 419
73.01696 405
73.03707 442
73.05719 429
73.0773 420
73.09741 426
73.11753 427
73.13764 407
73.15776 399
73.17787 410
73.19798 405
73.2181 426
73.23821 438
73.25832 429
73.27844 437
73.29855 458
73.31867 449
73.33878 422
73.35889 450
73.37901 393
73.39912 421
73.41923 464
73.43935 416
73.45946 430
73.47957 427
73.49969 429
73.5198 401
73.53992 400
73.56003 376
73.58014 402
73.60026 429
73.62037 394
73.64048 418
73.6606 426
73.68071 420
73.70083 423
73.72094 412
73.74105 386
73.76117 416
73.78128 422
73.80139 396
73.82151 414
73.84162 401
73.86174 385
73.88185 362
73.90196 368
73.92208 421
73.94219 408
73.9623 376
73.98242 371
74.00253 401
74.02264 406
74.04276 385
74.06287 354
74.08299 375
74.1031 393
74.12321 372
74.14333 400
74.16344 403
74.18355 394
74.20367 380
74.22378 349
74.2439 408
74.26401 390
74.28412 411
74.30424 376
74.32435 390
74.34446 368
74.36458 372
74.38469 392
74.40481 415
74.42492 381
74.44503 366
74.46515 389
74.48526 381
74.50537 383
74.52549 389
74.5456 387
74.56571 380
74.58583 373
74.60594 392
74.62606 399
74.64617 383
74.66628 361
74.6864 383
74.70651 368
74.72662 399
74.74674 364
74.76685 394
74.78697 403
74.80708 384
74.82719 388
74.84731 382
74.86742 386
74.88753 409
74.90765 385
74.92776 378
74.94787 383
74.96799 400
74.9881 382
75.00822 397
