3.00117 17051
3.02128 16325
3.0414 15904
3.06151 15727
3.08162 15259
3.10174 14768
3.12185 14342
3.14197 13575
3.16208 13359
3.18219 12665
3.20231 12483
3.22242 12195
3.24253 11653
3.26265 11342
3.28276 11053
3.30288 10830
3.32299 10393
3.3431 9804
3.36322 9618
3.38333 9133
3.40344 8908
3.42356 8649
3.44367 8134
3.46379 8055
3.4839 7494
3.50401 7405
3.52413 7075
3.54424 6754
3.56435 6696
3.58447 6263
3.60458 6200
3.62469 5820
3.64481 5461
3.66492 5502
3.68504 5004
3.70515 4993
3.72526 4689
3.74538 4699
3.76549 4458
3.7856 4034
3.80572 3879
3.82583 3604
3.84595 3634
3.86606 3580
3.88617 3152
3.90629 3251
3.9264 2970
3.94651 2886
3.96663 2812
3.98674 2529
4.00686 2528
4.02697 2382
4.04708 2329
4.0672 2374
4.08731 2063
4.10742 2000
4.12754 2008
4.14765 1908
4.16776 1981
4.18788 1615
4.20799 1671
4.22811 1615
4.24822 1605
4.26833 1619
4.28845 1450
4.30856 1523
4.32867 1490
4.34879 1399
4.3689 1435
4.38902 1244
4.40913 1280
4.42924 1250
4.44936 1248
4.46947 1317
4.48958 1140
4.5097 1158
4.52981 1201
4.54992 1069
4.57004 1099
4.59015 1013
4.61027 1000
4.63038 989
4.65049 976
4.67061 1039
4.69072 879
4.71083 916
4.73095 922
4.75106 878
4.77118 945
4.79129 837
4.8114 795
4.83152 778
4.85163 799
4.87174 742
4.89186 685
4.91197 733
4.93209 704
4.9522 726
4.97231 629
4.99243 653
5.01254 626
5.03265 609
5.05277 600
5.07288 595
5.09299 589
5.11311 527
5.13322 563
5.15334 588
5.17345 476
5.19356 506
5.21368 489
5.23379 478
5.2539 514
5.27402 464
5.29413 472
5.31425 471
5.33436 447
5.35447 461
5.37459 440
5.3947 406
5.41481 405
5.43493 415
5.45504 421
5.47516 404
5.49527 413
5.51538 397
5.5355 371
5.55561 398
5.57572 364
5.59584 379
5.61595 345
5.63606 361
5.65618 398
5.67629 345
5.69641 367
5.71652 345
5.73663 373
5.75675 305
5.77686 324
5.79697 294
5.81709 322
5.8372 284
5.85732 306
5.87743 342
5.89754 312
5.91766 333
5.93777 313
5.95788 286
5.978 286
5.99811 286
6.01823 294
6.03834 301
6.05845 298
6.07857 294
6.09868 299
6.11879 305
6.13891 275
6.15902 280
6.17913 266
6.19925 283
6.21936 269
6.23948 284
6.25959 255
6.2797 266
6.29982 262
6.31993 266
6.34004 280
6.36016 269
6.38027 265
6.40039 263
6.4205 253
6.44061 278
6.46073 265
6.48084 242
6.50095 267
6.52107 232
6.54118 263
6.56129 257
6.58141 244
6.60152 285
6.62164 228
6.64175 245
6.66186 226
6.68198 279
6.70209 255
6.7222 260
6.74232 222
6.76243 260
6.78255 232
6.80266 224
6.82277 257
6.84289 209
6.863 272
6.88311 214
6.90323 216
6.92334 255
6.94346 228
6.96357 252
6.98368 209
7.0038 264
7.02391 243
7.04402 248
7.06414 239
7.08425 259
7.10436 227
7.12448 229
7.14459 263
7.16471 280
7.18482 241
7.20493 227
7.22505 255
7.24516 229
7.26527 232
7.28539 218
7.3055 274
7.32562 229
7.34573 236
7.36584 242
7.38596 259
7.40607 249
7.42618 214
7.4463 228
7.46641 238
7.48653 222
7.50664 210
7.52675 242
7.54687 233
7.56698 234
7.58709 240
7.60721 240
7.62732 268
7.64743 263
7.66755 238
7.68766 230
7.70778 241
7.72789 242
7.748 223
7.76812 227
7.78823 245
7.80834 235
7.82846 243
7.84857 273
7.86869 224
7.8888 234
7.90891 251
7.92903 253
7.94914 254
7.96925 224
7.98937 274
8.00948 235
8.0296 239
8.04971 262
8.06982 256
8.08994 241
8.11005 261
8.13016 232
8.15028 250
8.17039 273
8.1905 228
8.21062 247
8.23073 239
8.25085 282
8.27096 251
8.29107 261
8.31119 262
8.3313 257
8.35141 291
8.37153 279
8.39164 277
8.41176 249
8.43187 272
8.45198 289
8.4721 273
8.49221 253
8.51232 284
8.53244 243
8.55255 294
8.57266 263
8.59278 299
8.61289 299
8.63301 283
8.65312 277
8.67323 276
8.69335 266
8.71346 278
8.73357 318
8.75369 317
8.7738 311
8.79392 288
8.81403 318
8.83414 319
8.85426 295
8.87437 274
8.89448 276
8.9146 290
8.93471 265
8.95483 286
8.97494 247
8.99505 234
9.01517 265
9.03528 228
9.05539 265
9.07551 264
9.09562 279
9.11573 244
9.13585 272
9.15596 203
9.17608 252
9.19619 217
9.2163 250
9.23642 256
9.25653 271
9.27664 229
9.29676 237
9.31687 256
9.33699 248
9.3571 243
9.37721 220
9.39733 213
9.41744 232
9.43755 250
9.45767 217
9.47778 253
9.4979 279
9.51801 224
9.53812 262
9.55824 189
9.57835 221
9.59846 258
9.61858 237
9.63869 236
9.6588 263
9.67892 237
9.69903 263
9.71915 269
9.73926 231
9.75937 280
9.77949 233
9.7996 227
9.81971 235
9.83983 238
9.85994 254
9.88006 211
9.90017 226
9.92028 229
9.9404 252
9.96051 220
9.98062 247
10.00074 206
10.02085 248
10.04097 229
10.06108 257
10.08119 212
10.10131 248
10.12142 272
10.14153 231
10.16165 259
10.18176 264
10.20187 227
10.22199 238
10.2421 254
10.26222 227
10.28233 272
10.30244 233
10.32256 276
10.34267 281
10.36278 250
10.3829 293
10.40301 294
10.42313 281
10.44324 281
10.46335 269
10.48347 273
10.50358 269
10.52369 276
10.54381 242
10.56392 274
10.58403 239
10.60415 212
10.62426 214
10.64438 225
10.66449 246
10.6846 229
10.70472 243
10.72483 224
10.74494 261
10.76506 252
10.78517 242
10.80529 242
10.8254 243
10.84551 248
10.86563 250
10.88574 244
10.90585 261
10.92597 250
10.94608 260
10.9662 214
10.98631 220
11.00642 250
11.02654 236
11.04665 252
11.06676 231
11.08688 253
11.10699 219
11.1271 226
11.14722 235
11.16733 212
11.18745 224
11.20756 229
11.22767 234
11.24779 228
11.2679 217
11.28801 257
11.30813 218
11.32824 256
11.34836 251
11.36847 222
11.38858 222
11.4087 238
11.42881 246
11.44892 246
11.46904 239
11.48915 242
11.50927 222
11.52938 237
11.54949 264
11.56961 242
11.58972 250
11.60983 279
11.62995 256
11.65006 266
11.67017 250
11.69029 257
11.7104 209
11.73052 248
11.75063 227
11.77074 245
11.79086 234
11.81097 253
11.83108 241
11.8512 261
11.87131 234
11.89143 267
11.91154 262
11.93165 248
11.95177 238
11.97188 251
11.99199 306
12.01211 226
12.03222 282
12.05234 262
12.07245 273
12.09256 224
12.11268 267
12.13279 238
12.1529 264
12.17302 277
12.19313 282
12.21324 250
12.23336 247
12.25347 262
12.27359 237
12.2937 243
12.31381 255
12.33393 268
12.35404 240
12.37415 251
12.39427 222
12.41438 259
12.4345 235
12.45461 218
12.47472 251
12.49484 259
12.51495 281
12.53506 238
12.55518 218
12.57529 251
12.5954 232
12.61552 220
12.63563 212
12.65575 214
12.67586 257
12.69597 249
12.71609 234
12.7362 249
12.75631 192
12.77643 240
12.79654 278
12.81666 217
12.83677 212
12.85688 230
12.877 235
12.89711 228
12.91722 235
12.93734 212
12.95745 237
12.97757 244
12.99768 243
13.01779 202
13.03791 201
13.05802 243
13.07813 238
13.09825 244
13.11836 228
13.13847 254
13.15859 225
13.1787 240
13.19882 229
13.21893 239
13.23904 247
13.25916 257
13.27927 242
13.29938 257
13.3195 220
13.33961 241
13.35973 215
13.37984 257
13.39995 261
13.42007 221
13.44018 235
13.46029 200
13.48041 258
13.50052 258
13.52064 258
13.54075 273
13.56086 261
13.58098 282
13.60109 273
13.6212 286
13.64132 271
13.66143 247
13.68154 291
13.70166 247
13.72177 295
13.74189 311
13.762 309
13.78211 307
13.80223 337
13.82234 312
13.84245 284
13.86257 277
13.88268 292
13.9028 248
13.92291 277
13.94302 261
13.96314 240
13.98325 233
14.00336 224
14.02348 210
14.04359 238
14.06371 196
14.08382 205
14.10393 185
14.12405 200
14.14416 198
14.16427 209
14.18439 193
14.2045 224
14.22461 206
14.24473 227
14.26484 187
14.28496 218
14.30507 206
14.32518 226
14.3453 205
14.36541 192
14.38552 216
14.40564 207
14.42575 203
14.44587 209
14.46598 234
14.48609 193
14.50621 186
14.52632 205
14.54643 205
14.56655 200
14.58666 211
14.60677 197
14.62689 237
14.647 187
14.66712 178
14.68723 199
14.70734 220
14.72746 182
14.74757 202
14.76768 217
14.7878 212
14.80791 223
14.82803 212
14.84814 235
14.86825 244
14.88837 230
14.90848 245
14.92859 249
14.94871 222
14.96882 273
14.98894 243
15.00905 249
15.02916 233
15.04928 265
15.06939 246
15.0895 240
15.10962 253
15.12973 223
15.14984 211
15.16996 238
15.19007 207
15.21019 231
15.2303 206
15.25041 209
15.27053 221
15.29064 228
15.31075 187
15.33087 215
15.35098 206
15.3711 167
15.39121 209
15.41132 214
15.43144 163
15.45155 201
15.47166 198
15.49178 192
15.51189 183
15.53201 208
15.55212 196
15.57223 193
15.59235 223
15.61246 235
15.63257 202
15.65269 222
15.6728 208
15.69291 223
15.71303 205
15.73314 208
15.75326 223
15.77337 209
15.79348 216
15.8136 210
15.83371 221
15.85382 210
15.87394 201
15.89405 195
15.91417 198
15.93428 199
15.95439 194
15.97451 171
15.99462 180
16.01473 187
16.03485 198
16.05496 209
16.07508 225
16.09519 191
16.1153 189
16.13542 188
16.15553 196
16.17564 222
16.19576 185
16.21587 184
16.23598 193
16.2561 204
16.27621 194
16.29633 194
16.31644 196
16.33655 196
16.35667 178
16.37678 199
16.39689 202
16.41701 222
16.43712 197
16.45724 205
16.47735 195
16.49746 197
16.51758 195
16.53769 199
16.5578 186
16.57792 168
16.59803 207
16.61814 180
16.63826 174
16.65837 165
16.67849 207
16.6986 203
16.71871 182
16.73883 205
16.75894 204
16.77905 178
16.79917 197
16.81928 215
16.8394 182
16.85951 187
16.87962 230
16.89974 221
16.91985 199
16.93996 190
16.96008 203
16.98019 212
17.00031 208
17.02042 191
17.04053 189
17.06065 183
17.08076 182
17.10087 190
17.12099 210
17.1411 207
17.16121 205
17.18133 184
17.20144 206
17.22156 177
17.24167 226
17.26178 201
17.2819 173
17.30201 215
17.32212 190
17.34224 192
17.36235 199
17.38247 191
17.40258 176
17.42269 156
17.44281 205
17.46292 159
17.48303 202
17.50315 201
17.52326 198
17.54338 207
17.56349 207
17.5836 203
17.60372 204
17.62383 204
17.64394 196
17.66406 187
17.68417 192
17.70428 199
17.7244 210
17.74451 218
17.76463 204
17.78474 196
17.80485 180
17.82497 213
17.84508 213
17.86519 206
17.88531 200
17.90542 203
17.92554 210
17.94565 215
17.96576 184
17.98588 235
18.00599 195
18.0261 202
18.04622 191
18.06633 188
18.08645 217
18.10656 203
18.12667 187
18.14679 216
18.1669 196
18.18701 198
18.20713 177
18.22724 214
18.24735 201
18.26747 193
18.28758 205
18.3077 174
18.32781 208
18.34792 214
18.36804 198
18.38815 167
18.40826 186
18.42838 189
18.44849 191
18.46861 196
18.48872 204
18.50883 188
18.52895 196
18.54906 199
18.56917 179
18.58929 198
18.6094 176
18.62951 186
18.64963 197
18.66974 206
18.68986 195
18.70997 198
18.73008 192
18.7502 228
18.77031 198
18.79042 194
18.81054 253
18.83065 232
18.85077 194
18.87088 198
18.89099 213
18.91111 203
18.93122 215
18.95133 208
18.97145 220
18.99156 198
19.01168 215
19.03179 176
19.0519 213
19.07202 214
19.09213 210
19.11224 196
19.13236 205
19.15247 231
19.17258 235
19.1927 222
19.21281 231
19.23293 230
19.25304 234
19.27315 208
19.29327 262
19.31338 237
19.33349 219
19.35361 244
19.37372 211
19.39384 240
19.41395 249
19.43406 255
19.45418 265
19.47429 271
19.4944 262
19.51452 272
19.53463 266
19.55475 282
19.57486 275
19.59497 291
19.61509 270
19.6352 289
19.65531 281
19.67543 302
19.69554 328
19.71565 315
19.73577 352
19.75588 298
19.776 328
19.79611 338
19.81622 322
19.83634 344
19.85645 346
19.87656 305
19.89668 324
19.91679 314
19.93691 290
19.95702 301
19.97713 304
19.99725 301
20.01736 311
20.03747 323
20.05759 307
20.0777 296
20.09782 283
20.11793 318
20.13804 356
20.15816 293
20.17827 297
20.19838 306
20.2185 307
20.23861 330
20.25872 301
20.27884 328
20.29895 325
20.31907 289
20.33918 294
20.35929 345
20.37941 336
20.39952 317
20.41963 338
20.43975 338
20.45986 385
20.47998 397
20.50009 354
20.5202 413
20.54032 446
20.56043 444
20.58054 493
20.60066 668
20.62077 777
20.64088 865
20.661 1047
20.68111 1388
20.70123 1834
20.72134 2234
20.74145 2663
20.76157 3097
20.78168 3399
20.80179 3537
20.82191 3416
20.84202 2968
20.86214 2531
20.88225 2008
20.90236 1421
20.92248 1158
20.94259 958
20.9627 708
20.98282 664
21.00293 603
21.02305 589
21.04316 502
21.06327 436
21.08339 387
21.1035 377
21.12361 325
21.14373 351
21.16384 311
21.18395 332
21.20407 314
21.22418 320
21.2443 321
21.26441 262
21.28452 315
21.30464 282
21.32475 287
21.34486 320
21.36498 270
21.38509 277
21.40521 270
21.42532 287
21.44543 278
21.46555 279
21.48566 289
21.50577 252
21.52589 293
21.546 278
21.56612 261
21.58623 280
21.60634 286
21.62646 302
21.64657 286
21.66668 303
21.6868 297
21.70691 300
21.72702 318
21.74714 333
21.76725 345
21.78737 388
21.80748 412
21.82759 486
21.84771 614
21.86782 715
21.88793 736
21.90805 864
21.92816 917
21.94828 948
21.96839 956
21.9885 820
22.00862 747
22.02873 627
22.04884 523
22.06896 423
22.08907 359
22.10919 381
22.1293 329
22.14941 349
22.16953 326
22.18964 330
22.20975 329
22.22987 319
22.24998 339
22.27009 303
22.29021 302
22.31032 287
22.33044 345
22.35055 280
22.37066 292
22.39078 306
22.41089 279
22.431 303
22.45112 311
22.47123 271
22.49135 288
22.51146 325
22.53157 297
22.55169 310
22.5718 304
22.59191 271
22.61203 307
22.63214 253
22.65225 286
22.67237 300
22.69248 266
22.7126 284
22.73271 298
22.75282 327
22.77294 306
22.79305 324
22.81316 356
22.83328 370
22.85339 382
22.87351 393
22.89362 413
22.91373 371
22.93385 391
22.95396 321
22.97407 359
22.99419 338
23.0143 360
23.03442 363
23.05453 342
23.07464 359
23.09476 331
23.11487 328
23.13498 363
23.1551 342
23.17521 342
23.19532 357
23.21544 346
23.23555 311
23.25567 323
23.27578 352
23.29589 298
23.31601 346
23.33612 333
23.35623 331
23.37635 387
23.39646 417
23.41658 414
23.43669 483
23.4568 475
23.47692 547
23.49703 504
23.51714 558
23.53726 566
23.55737 569
23.57749 555
23.5976 563
23.61771 543
23.63783 504
23.65794 449
23.67805 449
23.69817 429
23.71828 413
23.73839 485
23.75851 426
23.77862 489
23.79874 541
23.81885 579
23.83896 586
23.85908 629
23.87919 581
23.8993 579
23.91942 579
23.93953 534
23.95965 479
23.97976 481
23.99987 450
24.01999 439
24.0401 462
24.06021 450
24.08033 409
24.10044 419
24.12056 447
24.14067 496
24.16078 514
24.1809 503
24.20101 521
24.22112 539
24.24124 590
24.26135 617
24.28146 578
24.30158 565
24.32169 490
24.34181 497
24.36192 450
24.38203 418
24.40215 425
24.42226 361
24.44237 329
24.46249 306
24.4826 296
24.50272 311
24.52283 314
24.54294 324
24.56306 300
24.58317 308
24.60328 294
24.6234 294
24.64351 317
24.66362 317
24.68374 316
24.70385 287
24.72397 288
24.74408 287
24.76419 299
24.78431 285
24.80442 290
24.82453 301
24.84465 300
24.86476 296
24.88488 293
24.90499 263
24.9251 275
24.94522 278
24.96533 294
24.98544 300
25.00556 298
25.02567 286
25.04579 290
25.0659 286
25.08601 296
25.10613 299
25.12624 310
25.14635 278
25.16647 279
25.18658 275
25.20669 314
25.22681 314
25.24692 331
25.26704 339
25.28715 354
25.30726 340
25.32738 379
25.34749 377
25.3676 419
25.38772 429
25.40783 457
25.42795 528
25.44806 492
25.46817 580
25.48829 555
25.5084 559
25.52851 597
25.54863 580
25.56874 529
25.58886 514
25.60897 511
25.62908 484
25.6492 446
25.66931 434
25.68942 444
25.70954 420
25.72965 424
25.74976 423
25.76988 411
25.78999 400
25.81011 428
25.83022 448
25.85033 396
25.87045 414
25.89056 445
25.91067 440
25.93079 411
25.9509 456
25.97102 415
25.99113 450
26.01124 436
26.03136 476
26.05147 438
26.07158 499
26.0917 577
26.11181 554
26.13193 639
26.15204 610
26.17215 695
26.19227 747
26.21238 846
26.23249 931
26.25261 1044
26.27272 1154
26.29283 1255
26.31295 1492
26.33306 1763
26.35318 2194
26.37329 2567
26.3934 3179
26.41352 4124
26.43363 5134
26.45374 6430
26.47386 8230
26.49397 10271
26.51409 12230
26.5342 13839
26.55431 14963
26.57443 15460
26.59454 14969
26.61465 13547
26.63477 11309
26.65488 8681
26.67499 6575
26.69511 4584
26.71522 3113
26.73534 2062
26.75545 1465
26.77556 1216
26.79568 1085
26.81579 1015
26.8359 903
26.85602 916
26.87613 844
26.89625 818
26.91636 807
26.93647 796
26.95659 823
26.9767 801
26.99681 784
27.01693 760
27.03704 745
27.05716 669
27.07727 697
27.09738 611
27.1175 630
27.13761 546
27.15772 578
27.17784 536
27.19795 543
27.21806 563
27.23818 603
27.25829 593
27.27841 706
27.29852 690
27.31863 754
27.33875 860
27.35886 833
27.37897 897
27.39909 915
27.4192 947
27.43932 892
27.45943 909
27.47954 860
27.49966 761
27.51977 813
27.53988 697
27.56 810
27.58011 813
27.60023 848
27.62034 991
27.64045 1103
27.66057 1260
27.68068 1369
27.70079 1510
27.72091 1489
27.74102 1602
27.76113 1660
27.78125 1541
27.80136 1646
27.82148 1533
27.84159 1510
27.8617 1480
27.88182 1476
27.90193 1374
27.92204 1302
27.94216 1242
27.96227 1184
27.98239 1020
28.0025 918
28.02261 817
28.04273 658
28.06284 627
28.08295 563
28.10307 550
28.12318 502
28.1433 536
28.16341 532
28.18352 505
28.20364 567
28.22375 533
28.24386 598
28.26398 550
28.28409 533
28.3042 498
28.32432 499
28.34443 450
28.36455 371
28.38466 415
28.40477 370
28.42489 383
28.445 315
28.46511 301
28.48523 348
28.50534 304
28.52546 271
28.54557 299
28.56568 295
28.5858 313
28.60591 293
28.62602 287
28.64614 240
28.66625 266
28.68636 274
28.70648 255
28.72659 254
28.74671 265
28.76682 281
28.78693 278
28.80705 271
28.82716 273
28.84727 265
28.86739 269
28.8875 283
28.90762 254
28.92773 255
28.94784 260
28.96796 270
28.98807 268
29.00818 284
29.0283 260
29.04841 297
29.06853 294
29.08864 277
29.10875 277
29.12887 262
29.14898 265
29.16909 275
29.18921 269
29.20932 293
29.22943 321
29.24955 299
29.26966 285
29.28978 314
29.30989 330
29.33 340
29.35012 312
29.37023 351
29.39034 368
29.41046 338
29.43057 367
29.45069 327
29.4708 347
29.49091 320
29.51103 351
29.53114 370
29.55125 346
29.57137 404
29.59148 390
29.6116 421
29.63171 392
29.65182 411
29.67194 462
29.69205 436
29.71216 468
29.73228 464
29.75239 430
29.7725 415
29.79262 367
29.81273 415
29.83285 385
29.85296 365
29.87307 361
29.89319 354
29.9133 399
29.93341 354
29.95353 348
29.97364 354
29.99376 361
30.01387 418
30.03398 379
30.0541 394
30.07421 383
30.09432 434
30.11444 442
30.13455 420
30.15467 443
30.17478 442
30.19489 454
30.21501 493
30.23512 520
30.25523 477
30.27535 518
30.29546 523
30.31557 571
30.33569 534
30.3558 509
30.37592 534
30.39603 508
30.41614 493
30.43626 487
30.45637 466
30.47648 407
30.4966 388
30.51671 355
30.53683 370
30.55694 321
30.57705 329
30.59717 330
30.61728 380
30.63739 315
30.65751 411
30.67762 389
30.69773 360
30.71785 383
30.73796 353
30.75808 388
30.77819 347
30.7983 377
30.81842 359
30.83853 340
30.85864 316
30.87876 326
30.89887 281
30.91899 261
30.9391 262
30.95921 240
30.97933 242
30.99944 259
31.01955 271
31.03967 246
31.05978 249
31.0799 275
31.10001 286
31.12012 266
31.14024 272
31.16035 301
31.18046 284
31.20058 307
31.22069 287
31.2408 311
31.26092 301
31.28103 333
31.30115 338
31.32126 359
31.34137 320
31.36149 314
31.3816 323
31.40171 286
31.42183 303
31.44194 290
31.46206 304
31.48217 246
31.50228 274
31.5224 236
31.54251 285
31.56262 252
31.58274 273
31.60285 237
31.62297 217
31.64308 244
31.66319 252
31.68331 229
31.70342 222
31.72353 228
31.74365 218
31.76376 235
31.78387 242
31.80399 218
31.8241 234
31.84422 247
31.86433 218
31.88444 230
31.90456 238
31.92467 210
31.94478 231
31.9649 229
31.98501 246
32.00513 244
32.02524 267
32.04535 240
32.06547 228
32.08558 220
32.10569 246
32.12581 248
32.14592 243
32.16604 271
32.18615 286
32.20626 246
32.22638 271
32.24649 276
32.2666 287
32.28672 245
32.30683 255
32.32694 239
32.34706 243
32.36717 257
32.38729 239
32.4074 260
32.42751 235
32.44763 240
32.46774 251
32.48785 206
32.50797 229
32.52808 228
32.5482 208
32.56831 226
32.58842 235
32.60854 207
32.62865 213
32.64876 197
32.66888 234
32.68899 226
32.7091 254
32.72922 206
32.74933 230
32.76945 223
32.78956 231
32.80967 271
32.82979 233
32.8499 237
32.87001 256
32.89013 263
32.91024 271
32.93036 274
32.95047 283
32.97058 286
32.9907 236
33.01081 272
33.03092 241
33.05104 304
33.07115 249
33.09127 233
33.11138 256
33.13149 289
33.15161 246
33.17172 260
33.19183 227
33.21195 244
33.23206 222
33.25217 226
33.27229 222
33.2924 228
33.31252 216
33.33263 213
33.35274 213
33.37286 215
33.39297 245
33.41308 209
33.4332 200
33.45331 173
33.47343 241
33.49354 197
33.51365 226
33.53377 222
33.55388 219
33.57399 220
33.59411 223
33.61422 237
33.63434 223
33.65445 268
33.67456 278
33.69468 269
33.71479 265
33.7349 266
33.75502 303
33.77513 306
33.79524 314
33.81536 290
33.83547 319
33.85559 271
33.8757 283
33.89581 280
33.91593 301
33.93604 280
33.95615 265
33.97627 277
33.99638 240
34.0165 284
34.03661 280
34.05672 279
34.07684 276
34.09695 278
34.11706 305
34.13718 314
34.15729 337
34.17741 338
34.19752 322
34.21763 342
34.23775 349
34.25786 353
34.27797 329
34.29809 339
34.3182 320
34.33831 308
34.35843 328
34.37854 366
34.39866 288
34.41877 313
34.43888 357
34.459 311
34.47911 293
34.49922 320
34.51934 333
34.53945 300
34.55957 297
34.57968 332
34.59979 307
34.61991 309
34.64002 254
34.66013 288
34.68025 275
34.70036 283
34.72047 287
34.74059 309
34.7607 296
34.78082 345
34.80093 363
34.82104 370
34.84116 349
34.86127 350
34.88138 347
34.9015 374
34.92161 355
34.94173 350
34.96184 383
34.98195 380
35.00207 348
35.02218 333
35.04229 356
35.06241 371
35.08252 395
35.10264 375
35.12275 395
35.14286 354
35.16298 414
35.18309 397
35.2032 439
35.22332 458
35.24343 424
35.26354 443
35.28366 451
35.30377 424
35.32389 452
35.344 470
35.36411 414
35.38423 404
35.40434 364
35.42445 400
35.44457 374
35.46468 340
35.4848 366
35.50491 374
35.52502 368
35.54514 365
35.56525 370
35.58536 333
35.60548 346
35.62559 333
35.64571 317
35.66582 296
35.68593 316
35.70605 295
35.72616 292
35.74627 327
35.76639 312
35.7865 288
35.80661 274
35.82673 285
35.84684 275
35.86696 291
35.88707 266
35.90718 283
35.9273 307
35.94741 315
35.96752 305
35.98764 320
36.00775 305
36.02787 349
36.04798 347
36.06809 340
36.08821 319
36.10832 338
36.12843 365
36.14855 372
36.16866 355
36.18878 350
36.20889 372
36.229 380
36.24912 385
36.26923 463
36.28934 501
36.30946 526
36.32957 652
36.34968 740
36.3698 866
36.38991 949
36.41003 1085
36.43014 1158
36.45025 1220
36.47037 1240
36.49048 1270
36.51059 1160
36.53071 980
36.55082 912
36.57094 748
36.59105 718
36.61116 587
36.63128 487
36.65139 393
36.6715 387
36.69162 350
36.71173 316
36.73184 302
36.75196 309
36.77207 313
36.79219 304
36.8123 303
36.83241 291
36.85253 295
36.87264 364
36.89275 349
36.91287 356
36.93298 335
36.9531 303
36.97321 295
36.99332 332
37.01344 293
37.03355 333
37.05366 306
37.07378 318
37.09389 262
37.11401 279
37.13412 276
37.15423 274
37.17435 286
37.19446 260
37.21457 292
37.23469 289
37.2548 294
37.27491 282
37.29503 286
37.31514 286
37.33526 265
37.35537 273
37.37548 282
37.3956 287
37.41571 277
37.43582 309
37.45594 287
37.47605 303
37.49617 278
37.51628 253
37.53639 294
37.55651 271
37.57662 301
37.59673 299
37.61685 278
37.63696 270
37.65708 247
37.67719 215
37.6973 249
37.71742 244
37.73753 260
37.75764 235
37.77776 229
37.79787 222
37.81798 223
37.8381 248
37.85821 227
37.87833 236
37.89844 216
37.91855 219
37.93867 223
37.95878 212
37.97889 227
37.99901 242
38.01912 195
38.03924 232
38.05935 221
38.07946 236
38.09958 215
38.11969 229
38.1398 255
38.15992 211
38.18003 226
38.20015 225
38.22026 236
38.24037 247
38.26049 239
38.2806 264
38.30071 255
38.32083 251
38.34094 270
38.36105 274
38.38117 258
38.40128 249
38.4214 258
38.44151 249
38.46162 287
38.48174 278
38.50185 259
38.52196 256
38.54208 262
38.56219 245
38.58231 261
38.60242 262
38.62253 230
38.64265 237
38.66276 224
38.68287 261
38.70299 244
38.7231 220
38.74321 251
38.76333 237
38.78344 252
38.80356 246
38.82367 280
38.84378 256
38.8639 227
38.88401 253
38.90412 282
38.92424 263
38.94435 246
38.96447 228
38.98458 274
39.00469 283
39.02481 335
39.04492 316
39.06503 321
39.08515 309
39.10526 366
39.12538 357
39.14549 398
39.1656 431
39.18572 408
39.20583 470
39.22594 493
39.24606 579
39.26617 667
39.28628 777
39.3064 879
39.32651 989
39.34663 1065
39.36674 1060
39.38685 1160
39.40697 1183
39.42708 1066
39.44719 970
39.46731 822
39.48742 725
39.50754 676
39.52765 581
39.54776 501
39.56788 422
39.58799 372
39.6081 276
39.62822 270
39.64833 296
39.66845 259
39.68856 242
39.70867 271
39.72879 231
39.7489 242
39.76901 254
39.78913 261
39.80924 246
39.82935 237
39.84947 269
39.86958 290
39.8897 238
39.90981 233
39.92992 311
39.95004 242
39.97015 290
39.99026 271
40.01038 336
40.03049 350
40.05061 374
40.07072 388
40.09083 445
40.11095 457
40.13106 515
40.15117 590
40.17129 640
40.1914 647
40.21152 668
40.23163 653
40.25174 576
40.27186 605
40.29197 530
40.31208 465
40.3322 416
40.35231 379
40.37242 346
40.39254 299
40.41265 288
40.43277 258
40.45288 255
40.47299 248
40.49311 247
40.51322 239
40.53333 245
40.55345 260
40.57356 250
40.59368 254
40.61379 254
40.6339 251
40.65402 245
40.67413 240
40.69424 252
40.71436 254
40.73447 249
40.75458 252
40.7747 218
40.79481 225
40.81493 239
40.83504 228
40.85515 228
40.87527 223
40.89538 237
40.91549 261
40.93561 244
40.95572 228
40.97584 236
40.99595 208
41.01606 243
41.03618 229
41.05629 227
41.0764 241
41.09652 247
41.11663 228
41.13675 220
41.15686 220
41.17697 261
41.19709 244
41.2172 252
41.23731 225
41.25743 221
41.27754 196
41.29765 223
41.31777 251
41.33788 211
41.358 246
41.37811 221
41.39822 242
41.41834 235
41.43845 257
41.45856 272
41.47868 254
41.49879 287
41.51891 283
41.53902 240
41.55913 288
41.57925 262
41.59936 310
41.61947 350
41.63959 303
41.6597 316
41.67982 307
41.69993 330
41.72004 353
41.74016 358
41.76027 306
41.78038 321
41.8005 300
41.82061 290
41.84072 275
41.86084 280
41.88095 271
41.90107 261
41.92118 243
41.94129 251
41.96141 239
41.98152 243
42.00163 250
42.02175 275
42.04186 280
42.06198 300
42.08209 279
42.1022 309
42.12232 348
42.14243 352
42.16254 396
42.18266 441
42.20277 420
42.22289 493
42.243 551
42.26311 624
42.28323 739
42.30334 776
42.32345 864
42.34357 882
42.36368 875
42.38379 845
42.40391 828
42.42402 804
42.44414 749
42.46425 571
42.48436 544
42.50448 506
42.52459 456
42.5447 374
42.56482 303
42.58493 350
42.60505 305
42.62516 326
42.64527 291
42.66539 305
42.6855 282
42.70561 328
42.72573 292
42.74584 318
42.76595 270
42.78607 311
42.80618 283
42.8263 322
42.84641 267
42.86652 274
42.88664 252
42.90675 243
42.92686 260
42.94698 247
42.96709 238
42.98721 248
43.00732 230
43.02743 241
43.04755 247
43.06766 225
43.08777 221
43.10789 250
43.128 290
43.14812 233
43.16823 233
43.18834 225
43.20846 209
43.22857 200
43.24868 240
43.2688 203
43.28891 214
43.30902 194
43.32914 223
43.34925 233
43.36937 209
43.38948 199
43.40959 208
43.42971 185
43.44982 219
43.46993 237
43.49005 210
43.51016 205
43.53028 200
43.55039 210
43.5705 226
43.59062 213
43.61073 204
43.63084 217
43.65096 194
43.67107 199
43.69119 204
43.7113 210
43.73141 183
43.75153 202
43.77164 217
43.79175 205
43.81187 226
43.83198 177
43.85209 184
43.87221 207
43.89232 193
43.91244 205
43.93255 208
43.95266 218
43.97278 187
43.99289 236
44.013 209
44.03312 242
44.05323 211
44.07335 200
44.09346 203
44.11357 216
44.13369 197
44.1538 216
44.17391 206
44.19403 227
44.21414 209
44.23426 183
44.25437 184
44.27448 175
44.2946 203
44.31471 202
44.33482 186
44.35494 205
44.37505 192
44.39516 190
44.41528 197
44.43539 214
44.45551 213
44.47562 206
44.49573 205
44.51585 215
44.53596 187
44.55607 200
44.57619 220
44.5963 206
44.61642 224
44.63653 246
44.65664 213
44.67676 225
44.69687 217
44.71698 243
44.7371 192
44.75721 215
44.77732 229
44.79744 237
44.81755 257
44.83767 239
44.85778 222
44.87789 243
44.89801 252
44.91812 243
44.93823 236
44.95835 230
44.97846 219
44.99858 238
45.01869 254
45.0388 221
45.05892 250
45.07903 244
45.09914 220
45.11926 236
45.13937 230
45.15949 218
45.1796 227
45.19971 257
45.21983 256
45.23994 245
45.26005 232
45.28017 270
45.30028 238
45.32039 214
45.34051 266
45.36062 249
45.38074 286
45.40085 273
45.42096 253
45.44108 286
45.46119 327
45.4813 310
45.50142 334
45.52153 359
45.54165 400
45.56176 433
45.58187 457
45.60199 507
45.6221 531
45.64221 581
45.66233 652
45.68244 603
45.70256 659
45.72267 656
45.74278 600
45.7629 566
45.78301 538
45.80312 484
45.82324 415
45.84335 419
45.86346 387
45.88358 373
45.90369 311
45.92381 264
45.94392 237
45.96403 224
45.98415 201
46.00426 216
46.02437 203
46.04449 217
46.0646 224
46.08472 246
46.10483 206
46.12494 189
46.14506 200
46.16517 181
46.18528 219
46.2054 205
46.22551 220
46.24563 209
46.26574 230
46.28585 198
46.30597 194
46.32608 207
46.34619 223
46.36631 205
46.38642 213
46.40653 206
46.42665 195
46.44676 187
46.46688 194
46.48699 215
46.5071 186
46.52722 199
46.54733 196
46.56744 213
46.58756 199
46.60767 197
46.62779 208
46.6479 224
46.66801 224
46.68813 193
46.70824 195
46.72835 231
46.74847 228
46.76858 212
46.78869 231
46.80881 221
46.82892 225
46.84904 247
46.86915 214
46.88926 207
46.90938 214
46.92949 240
46.9496 207
46.96972 219
46.98983 225
47.00995 237
47.03006 232
47.05017 226
47.07029 210
47.0904 207
47.11051 207
47.13063 215
47.15074 246
47.17086 201
47.19097 247
47.21108 212
47.2312 211
47.25131 235
47.27142 231
47.29154 246
47.31165 215
47.33176 216
47.35188 249
47.37199 234
47.39211 258
47.41222 233
47.43233 254
47.45245 268
47.47256 251
47.49267 267
47.51279 243
47.5329 238
47.55302 234
47.57313 237
47.59324 218
47.61336 211
47.63347 227
47.65358 203
47.6737 217
47.69381 208
47.71393 175
47.73404 201
47.75415 205
47.77427 215
47.79438 211
47.81449 196
47.83461 229
47.85472 217
47.87483 192
47.89495 202
47.91506 236
47.93518 186
47.95529 194
47.9754 201
47.99552 204
48.01563 224
48.03574 211
48.05586 217
48.07597 196
48.09609 222
48.1162 219
48.13631 213
48.15643 222
48.17654 200
48.19665 256
48.21677 227
48.23688 232
48.257 234
48.27711 239
48.29722 260
48.31734 226
48.33745 254
48.35756 229
48.37768 206
48.39779 208
48.4179 218
48.43802 218
48.45813 219
48.47825 205
48.49836 238
48.51847 223
48.53859 213
48.5587 225
48.57881 244
48.59893 239
48.61904 232
48.63916 248
48.65927 223
48.67938 210
48.6995 238
48.71961 236
48.73972 245
48.75984 228
48.77995 246
48.80006 259
48.82018 279
48.84029 254
48.86041 250
48.88052 281
48.90063 228
48.92075 226
48.94086 240
48.96097 290
48.98109 279
49.0012 241
49.02132 251
49.04143 270
49.06154 290
49.08166 279
49.10177 291
49.12188 272
49.142 274
49.16211 268
49.18223 286
49.20234 265
49.22245 260
49.24257 239
49.26268 249
49.28279 257
49.30291 250
49.32302 246
49.34313 252
49.36325 231
49.38336 227
49.40348 245
49.42359 226
49.4437 236
49.46382 247
49.48393 247
49.50404 246
49.52416 286
49.54427 268
49.56439 311
49.5845 342
49.60461 313
49.62473 376
49.64484 362
49.66495 369
49.68507 409
49.70518 447
49.7253 437
49.74541 471
49.76552 511
49.78564 540
49.80575 579
49.82586 591
49.84598 676
49.86609 700
49.8862 845
49.90632 931
49.92643 1025
49.94655 1157
49.96666 1278
49.98677 1471
50.00689 1621
50.027 1691
50.04711 1713
50.06723 1706
50.08734 1686
50.10746 1538
50.12757 1264
50.14768 1181
50.1678 1040
50.18791 1007
50.20802 893
50.22814 739
50.24825 623
50.26837 540
50.28848 439
50.30859 393
50.32871 348
50.34882 336
50.36893 305
50.38905 338
50.40916 358
50.42927 360
50.44939 368
50.4695 382
50.48962 372
50.50973 380
50.52984 356
50.54996 389
50.57007 356
50.59018 362
50.6103 346
50.63041 373
50.65053 350
50.67064 352
50.69075 317
50.71087 319
50.73098 325
50.75109 274
50.77121 285
50.79132 277
50.81143 281
50.83155 247
50.85166 277
50.87178 236
50.89189 257
50.912 243
50.93212 257
50.95223 239
50.97234 226
50.99246 243
51.01257 263
51.03269 247
51.0528 240
51.07291 258
51.09303 261
51.11314 244
51.13325 277
51.15337 284
51.17348 273
51.1936 285
51.21371 282
51.23382 297
51.25394 274
51.27405 310
51.29416 303
51.31428 296
51.33439 233
51.3545 281
51.37462 244
51.39473 240
51.41485 219
51.43496 211
51.45507 222
51.47519 213
51.4953 211
51.51541 192
51.53553 180
51.55564 211
51.57576 190
51.59587 198
51.61598 179
51.6361 187
51.65621 189
51.67632 171
51.69644 184
51.71655 177
51.73667 195
51.75678 196
51.77689 217
51.79701 190
51.81712 208
51.83723 166
51.85735 190
51.87746 183
51.89757 167
51.91769 205
51.9378 193
51.95792 185
51.97803 187
51.99814 173
52.01826 203
52.03837 193
52.05848 181
52.0786 198
52.09871 210
52.11883 208
52.13894 219
52.15905 205
52.17917 198
52.19928 184
52.21939 217
52.23951 206
52.25962 221
52.27974 187
52.29985 227
52.31996 190
52.34008 222
52.36019 228
52.3803 195
52.40042 225
52.42053 208
52.44064 208
52.46076 239
52.48087 235
52.50099 225
52.5211 216
52.54121 213
52.56133 238
52.58144 229
52.60155 229
52.62167 246
52.64178 218
52.6619 223
52.68201 226
52.70212 234
52.72224 201
52.74235 181
52.76246 209
52.78258 216
52.80269 216
52.8228 236
52.84292 210
52.86303 235
52.88315 218
52.90326 238
52.92337 216
52.94349 238
52.9636 236
52.98371 230
53.00383 232
53.02394 215
53.04406 258
53.06417 205
53.08428 236
53.1044 238
53.12451 220
53.14462 213
53.16474 213
53.18485 224
53.20497 210
53.22508 205
53.24519 220
53.26531 200
53.28542 229
53.30553 210
53.32565 231
53.34576 184
53.36587 221
53.38599 218
53.4061 188
53.42622 191
53.44633 206
53.46644 188
53.48656 206
53.50667 191
53.52678 193
53.5469 212
53.56701 201
53.58713 228
53.60724 218
53.62735 240
53.64747 200
53.66758 223
53.68769 229
53.70781 215
53.72792 236
53.74804 239
53.76815 243
53.78826 256
53.80838 228
53.82849 248
53.8486 206
53.86872 221
53.88883 242
53.90894 222
53.92906 263
53.94917 226
53.96929 226
53.9894 255
54.00951 229
54.02963 226
54.04974 212
54.06985 250
54.08997 246
54.11008 237
54.1302 253
54.15031 246
54.17042 252
54.19054 235
54.21065 258
54.23076 262
54.25088 238
54.27099 235
54.29111 268
54.31122 265
54.33133 245
54.35145 257
54.37156 265
54.39167 263
54.41179 275
54.4319 264
54.45201 278
54.47213 266
54.49224 260
54.51236 261
54.53247 286
54.55258 342
54.5727 284
54.59281 363
54.61292 361
54.63304 388
54.65315 428
54.67327 463
54.69338 493
54.71349 590
54.73361 543
54.75372 601
54.77383 633
54.79395 652
54.81406 652
54.83417 557
54.85429 608
54.8744 532
54.89452 476
54.91463 466
54.93474 438
54.95486 433
54.97497 394
54.99508 383
55.0152 344
55.03531 315
55.05543 317
55.07554 307
55.09565 305
55.11577 300
55.13588 356
55.15599 333
55.17611 341
55.19622 358
55.21634 386
55.23645 399
55.25656 417
55.27668 426
55.29679 391
55.3169 361
55.33702 323
55.35713 317
55.37724 310
55.39736 303
55.41747 298
55.43759 289
55.4577 285
55.47781 230
55.49793 235
55.51804 223
55.53815 228
55.55827 224
55.57838 239
55.5985 210
55.61861 221
55.63872 226
55.65884 218
55.67895 207
55.69906 221
55.71918 195
55.73929 186
55.75941 215
55.77952 205
55.79963 180
55.81975 215
55.83986 189
55.85997 209
55.88009 192
55.9002 214
55.92031 203
55.94043 206
55.96054 204
55.98066 220
56.00077 199
56.02088 205
56.041 215
56.06111 184
56.08122 191
56.10134 212
56.12145 212
56.14157 215
56.16168 202
56.18179 182
56.20191 202
56.22202 199
56.24213 201
56.26225 206
56.28236 191
56.30248 186
56.32259 192
56.3427 175
56.36282 221
56.38293 194
56.40304 208
56.42316 210
56.44327 194
56.46338 192
56.4835 179
56.50361 177
56.52373 190
56.54384 190
56.56395 195
56.58407 182
56.60418 216
56.62429 211
56.64441 192
56.66452 202
56.68464 194
56.70475 196
56.72486 192
56.74498 201
56.76509 196
56.7852 192
56.80532 189
56.82543 197
56.84554 194
56.86566 188
56.88577 201
56.90589 177
56.926 184
56.94611 204
56.96623 196
56.98634 221
57.00645 202
57.02657 191
57.04668 211
57.0668 223
57.08691 207
57.10702 200
57.12714 232
57.14725 193
57.16736 227
57.18748 228
57.20759 213
57.22771 224
57.24782 223
57.26793 247
57.28805 201
57.30816 242
57.32827 210
57.34839 220
57.3685 217
57.38861 220
57.40873 203
57.42884 209
57.44896 208
57.46907 215
57.48918 217
57.5093 204
57.52941 212
57.54952 219
57.56964 200
57.58975 192
57.60987 198
57.62998 216
57.65009 186
57.67021 212
57.69032 198
57.71043 186
57.73055 199
57.75066 166
57.77078 232
57.79089 195
57.811 203
57.83112 203
57.85123 178
57.87134 206
57.89146 213
57.91157 218
57.93168 182
57.9518 187
57.97191 179
57.99203 211
58.01214 199
58.03225 187
58.05237 195
58.07248 198
58.09259 192
58.11271 184
58.13282 194
58.15294 211
58.17305 211
58.19316 210
58.21328 201
58.23339 196
58.2535 207
58.27362 193
58.29373 229
58.31385 217
58.33396 177
58.35407 224
58.37419 226
58.3943 215
58.41441 215
58.43453 221
58.45464 238
58.47475 235
58.49487 208
58.51498 225
58.5351 195
58.55521 214
58.57532 236
58.59544 230
58.61555 221
58.63566 231
58.65578 209
58.67589 205
58.69601 220
58.71612 236
58.73623 204
58.75635 192
58.77646 197
58.79657 195
58.81669 200
58.8368 184
58.85691 207
58.87703 168
58.89714 199
58.91726 185
58.93737 188
58.95748 203
58.9776 193
58.99771 185
59.01782 196
59.03794 209
59.05805 176
59.07817 186
59.09828 190
59.11839 198
59.13851 208
59.15862 191
59.17873 194
59.19885 210
59.21896 196
59.23908 206
59.25919 210
59.2793 208
59.29942 210
59.31953 217
59.33964 223
59.35976 239
59.37987 210
59.39998 249
59.4201 252
59.44021 266
59.46033 253
59.48044 254
59.50055 291
59.52067 268
59.54078 298
59.56089 326
59.58101 340
59.60112 342
59.62124 392
59.64135 382
59.66146 445
59.68158 521
59.70169 557
59.7218 593
59.74192 693
59.76203 822
59.78215 897
59.80226 984
59.82237 1100
59.84249 1135
59.8626 1163
59.88271 1180
59.90283 1113
59.92294 981
59.94305 873
59.96317 788
59.98328 756
60.0034 701
60.02351 697
60.04362 636
60.06374 600
60.08385 505
60.10396 475
60.12408 402
60.14419 313
60.16431 308
60.18442 264
60.20453 266
60.22465 282
60.24476 253
60.26487 270
60.28499 269
60.3051 253
60.32522 263
60.34533 245
60.36544 220
60.38556 210
60.40567 216
60.42578 214
60.4459 215
60.46601 237
60.48612 228
60.50624 227
60.52635 219
60.54647 216
60.56658 221
60.58669 231
60.60681 203
60.62692 222
60.64703 225
60.66715 210
60.68726 225
60.70738 234
60.72749 224
60.7476 200
60.76772 202
60.78783 237
60.80794 211
60.82806 194
60.84817 214
60.86828 188
60.8884 231
60.90851 182
60.92863 214
60.94874 241
60.96885 222
60.98897 239
61.00908 230
61.02919 244
61.04931 216
61.06942 210
61.08954 224
61.10965 209
61.12976 237
61.14988 234
61.16999 217
61.1901 220
61.21022 214
61.23033 215
61.25045 238
61.27056 219
61.29067 222
61.31079 215
61.3309 218
61.35101 210
61.37113 205
61.39124 226
61.41135 209
61.43147 221
61.45158 205
61.4717 198
61.49181 213
61.51192 250
61.53204 196
61.55215 225
61.57226 192
61.59238 223
61.61249 252
61.63261 222
61.65272 232
61.67283 239
61.69295 259
61.71306 248
61.73317 240
61.75329 213
61.7734 272
61.79352 264
61.81363 209
61.83374 233
61.85386 232
61.87397 232
61.89408 243
61.9142 234
61.93431 245
61.95442 206
61.97454 217
61.99465 255
62.01477 236
62.03488 272
62.05499 206
62.07511 244
62.09522 247
62.11533 232
62.13545 239
62.15556 245
62.17568 243
62.19579 222
62.2159 234
62.23602 239
62.25613 226
62.27624 241
62.29636 241
62.31647 218
62.33659 210
62.3567 218
62.37681 244
62.39693 215
62.41704 221
62.43715 207
62.45727 237
62.47738 221
62.49749 234
62.51761 206
62.53772 228
62.55784 232
62.57795 215
62.59806 222
62.61818 223
62.63829 234
62.6584 209
62.67852 224
62.69863 227
62.71875 204
62.73886 222
62.75897 206
62.77909 225
62.7992 219
62.81931 229
62.83943 196
62.85954 219
62.87965 224
62.89977 227
62.91988 239
62.94 239
62.96011 216
62.98022 239
63.00034 240
63.02045 205
63.04056 216
63.06068 229
63.08079 204
63.10091 203
63.12102 216
63.14113 204
63.16125 205
63.18136 214
63.20147 202
63.22159 209
63.2417 196
63.26182 216
63.28193 233
63.30204 208
63.32216 213
63.34227 228
63.36238 239
63.3825 216
63.40261 246
63.42272 218
63.44284 229
63.46295 228
63.48307 248
63.50318 234
63.52329 231
63.54341 259
63.56352 282
63.58363 254
63.60375 240
63.62386 251
63.64398 240
63.66409 284
63.6842 287
63.70432 289
63.72443 299
63.74454 337
63.76466 301
63.78477 353
63.80489 303
63.825 359
63.84511 333
63.86523 349
63.88534 402
63.90545 375
63.92557 409
63.94568 383
63.96579 375
63.98591 395
64.00602 368
64.02614 328
64.04625 345
64.06636 292
64.08648 290
64.10659 284
64.1267 305
64.14682 272
64.16693 295
64.18705 257
64.20716 240
64.22727 204
64.24739 216
64.2675 197
64.28761 198
64.30773 207
64.32784 209
64.34796 207
64.36807 207
64.38818 186
64.4083 207
64.42841 194
64.44852 176
64.46864 196
64.48875 196
64.50886 211
64.52898 229
64.54909 186
64.56921 213
64.58932 197
64.60943 194
64.62955 205
64.64966 194
64.66977 194
64.68989 190
64.71 211
64.73012 188
64.75023 220
64.77034 191
64.79046 170
64.81057 219
64.83068 210
64.8508 219
64.87091 220
64.89102 184
64.91114 209
64.93125 232
64.95137 206
64.97148 228
64.99159 199
65.01171 187
65.03182 196
65.05193 171
65.07205 218
65.09216 223
65.11228 231
65.13239 198
65.1525 219
65.17262 218
65.19273 209
65.21284 196
65.23296 207
65.25307 222
65.27319 208
65.2933 183
65.31341 204
65.33353 185
65.35364 196
65.37375 220
65.39387 241
65.41398 205
65.43409 221
65.45421 212
65.47432 208
65.49444 212
65.51455 214
65.53466 209
65.55478 206
65.57489 230
65.595 245
65.61512 214
65.63523 227
65.65535 205
65.67546 249
65.69557 230
65.71569 209
65.7358 229
65.75591 238
65.77603 184
65.79614 197
65.81626 186
65.83637 189
65.85648 198
65.8766 199
65.89671 210
65.91682 177
65.93694 189
65.95705 218
65.97716 192
65.99728 202
66.01739 212
66.03751 199
66.05762 220
66.07773 188
66.09785 215
66.11796 208
66.13807 191
66.15819 188
66.1783 216
66.19842 198
66.21853 233
66.23864 205
66.25876 180
66.27887 198
66.29898 185
66.3191 200
66.33921 204
66.35933 211
66.37944 216
66.39955 221
66.41967 186
66.43978 179
66.45989 189
66.48001 193
66.50012 192
66.52023 195
66.54035 209
66.56046 195
66.58058 222
66.60069 210
66.6208 203
66.64092 191
66.66103 180
66.68114 185
66.70126 200
66.72137 194
66.74149 209
66.7616 195
66.78171 212
66.80183 184
66.82194 202
66.84205 199
66.86217 212
66.88228 205
66.90239 202
66.92251 225
66.94262 220
66.96274 197
66.98285 199
67.00296 217
67.02308 216
67.04319 220
67.0633 226
67.08342 258
67.10353 228
67.12365 215
67.14376 217
67.16387 227
67.18399 245
67.2041 232
67.22421 230
67.24433 212
67.26444 259
67.28456 272
67.30467 260
67.32478 272
67.3449 274
67.36501 278
67.38512 326
67.40524 298
67.42535 366
67.44546 369
67.46558 383
67.48569 468
67.50581 459
67.52592 535
67.54603 619
67.56615 678
67.58626 717
67.60637 741
67.62649 768
67.6466 820
67.66672 784
67.68683 736
67.70694 686
67.72706 716
67.74717 597
67.76728 635
67.7874 619
67.80751 638
67.82763 681
67.84774 733
67.86785 723
67.88797 703
67.90808 704
67.92819 792
67.94831 761
67.96842 831
67.98853 912
68.00865 978
68.02876 1005
68.04888 1049
68.06899 1026
68.0891 963
68.10922 971
68.12933 958
68.14944 918
68.16956 934
68.18967 962
68.20979 962
68.2299 993
68.25001 933
68.27013 818
68.29024 741
68.31035 659
68.33047 569
68.35058 521
68.3707 492
68.39081 467
68.41092 443
68.43104 425
68.45115 391
68.47126 353
68.49138 333
68.51149 285
68.5316 275
68.55172 261
68.57183 231
68.59195 240
68.61206 240
68.63217 250
68.65229 210
68.6724 222
68.69251 236
68.71263 229
68.73274 196
68.75286 212
68.77297 231
68.79308 198
68.8132 245
68.83331 195
68.85342 195
68.87354 198
68.89365 194
68.91376 213
68.93388 187
68.95399 225
68.97411 211
68.99422 219
69.01433 193
69.03445 202
69.05456 204
69.07467 221
69.09479 218
69.1149 218
69.13502 218
69.15513 207
69.17524 223
69.19536 234
69.21547 229
69.23558 224
69.2557 218
69.27581 231
69.29593 251
69.31604 234
69.33615 230
69.35627 234
69.37638 238
69.39649 226
69.41661 209
69.43672 219
69.45683 191
69.47695 193
69.49706 213
69.51718 197
69.53729 232
69.5574 201
69.57752 205
69.59763 209
69.61774 222
69.63786 237
69.65797 215
69.67809 232
69.6982 193
69.71831 205
69.73843 240
69.75854 215
69.77865 204
69.79877 204
69.81888 217
69.839 205
69.85911 198
69.87922 228
69.89934 209
69.91945 188
69.93956 200
69.95968 202
69.97979 197
69.9999 166
70.02002 213
70.04013 195
70.06025 190
70.08036 194
70.10047 192
70.12059 159
70.1407 173
70.16081 195
70.18093 197
70.20104 198
70.22116 194
70.24127 171
70.26138 171
70.2815 182
70.30161 159
70.32172 216
70.34184 183
70.36195 191
70.38207 171
70.40218 163
70.42229 184
70.44241 210
70.46252 178
70.48263 169
70.50275 170
70.52286 181
70.54297 194
70.56309 179
70.5832 183
70.60332 197
70.62343 180
70.64354 207
70.66366 168
70.68377 174
70.70388 195
70.724 190
70.74411 200
70.76423 198
70.78434 173
70.80445 185
70.82457 204
70.84468 183
70.86479 206
70.88491 209
70.90502 222
70.92513 203
70.94525 175
70.96536 167
70.98548 197
71.00559 178
71.0257 224
71.04582 189
71.06593 215
71.08604 207
71.10616 197
71.12627 198
71.14639 203
71.1665 202
71.18661 198
71.20673 208
71.22684 196
71.24695 189
71.26707 225
71.28718 179
71.3073 182
71.32741 213
71.34752 227
71.36764 181
71.38775 181
71.40786 189
71.42798 190
71.44809 186
71.4682 200
71.48832 208
71.50843 210
71.52855 179
71.54866 202
71.56877 188
71.58889 218
71.609 199
71.62911 182
71.64923 166
71.66934 198
71.68946 167
71.70957 166
71.72968 196
71.7498 177
71.76991 157
71.79002 184
71.81014 194
71.83025 193
71.85037 197
71.87048 161
71.89059 168
71.91071 206
71.93082 205
71.95093 196
71.97105 182
71.99116 186
72.01127 172
72.03139 179
72.0515 191
72.07162 201
72.09173 184
72.11184 164
72.13196 202
72.15207 181
72.17218 185
72.1923 184
72.21241 192
72.23253 177
72.25264 168
72.27275 204
72.29287 162
72.31298 182
72.33309 197
72.35321 181
72.37332 169
72.39344 191
72.41355 177
72.43366 175
72.45378 163
72.47389 176
72.494 157
72.51412 185
72.53423 203
72.55434 176
72.57446 177
72.59457 187
72.61469 202
72.6348 206
72.65491 192
72.67503 166
72.69514 204
72.71525 183
72.73537 189
72.75548 181
72.7756 185
72.79571 172
72.81582 197
72.83594 203
72.85605 179
72.87616 193
72.89628 198
72.91639 224
72.9365 221
72.95662 198
72.97673 202
72.99685 194
73.01696 199
73.03707 206
73.05719 225
73.0773 229
73.09741 235
73.11753 227
73.13764 237
73.15776 232
73.17787 275
73.19798 275
73.2181 270
73.23821 298
73.25832 321
73.27844 345
73.29855 380
73.31867 377
73.33878 399
73.35889 402
73.37901 419
73.39912 376
73.41923 360
73.43935 321
73.45946 331
73.47957 273
73.49969 300
73.5198 311
73.53992 270
73.56003 299
73.58014 290
73.60026 317
73.62037 286
73.64048 242
73.6606 272
73.68071 263
73.70083 220
73.72094 237
73.74105 207
73.76117 219
73.78128 199
73.80139 223
73.82151 215
73.84162 229
73.86174 208
73.88185 202
73.90196 223
73.92208 189
73.94219 182
73.9623 198
73.98242 186
74.00253 196
74.02264 194
74.04276 176
74.06287 189
74.08299 180
74.1031 176
74.12321 169
74.14333 174
74.16344 179
74.18355 184
74.20367 183
74.22378 173
74.2439 184
74.26401 193
74.28412 205
74.30424 214
74.32435 192
74.34446 187
74.36458 188
74.38469 174
74.40481 183
74.42492 200
74.44503 178
74.46515 197
74.48526 212
74.50537 215
74.52549 200
74.5456 175
74.56571 194
74.58583 201
74.60594 198
74.62606 201
74.64617 215
74.66628 193
74.6864 212
74.70651 213
74.72662 217
74.74674 173
74.76685 202
74.78697 196
74.80708 211
74.82719 206
74.84731 203
74.86742 194
74.88753 202
74.90765 205
74.92776 186
74.94787 210
74.96799 182
74.9881 195
75.00822 187
