3.00117 19968
3.02128 19272
3.0414 18707
3.06151 18480
3.08162 18260
3.10174 17642
3.12185 16731
3.14197 16592
3.16208 16072
3.18219 15343
3.20231 15024
3.22242 14382
3.24253 14434
3.26265 13809
3.28276 13346
3.30288 13207
3.32299 12618
3.3431 12323
3.36322 11803
3.38333 11281
3.40344 11343
3.42356 10712
3.44367 10272
3.46379 10129
3.4839 9751
3.50401 9459
3.52413 9217
3.54424 8763
3.56435 8483
3.58447 8029
3.60458 8033
3.62469 7619
3.64481 7405
3.66492 7027
3.68504 6817
3.70515 6920
3.72526 6480
3.74538 6249
3.76549 6043
3.7856 5570
3.80572 5674
3.82583 5336
3.84595 5016
3.86606 4884
3.88617 4725
3.90629 4488
3.9264 4520
3.94651 4212
3.96663 3879
3.98674 3753
4.00686 3920
4.02697 3618
4.04708 3545
4.0672 3386
4.08731 3381
4.10742 3127
4.12754 3168
4.14765 3005
4.16776 2928
4.18788 2650
4.20799 2750
4.22811 2664
4.24822 2547
4.26833 2441
4.28845 2451
4.30856 2457
4.32867 2381
4.34879 2341
4.3689 2224
4.38902 2180
4.40913 2086
4.42924 2200
4.44936 2077
4.46947 2056
4.48958 1945
4.5097 2058
4.52981 2027
4.54992 1823
4.57004 1950
4.59015 1707
4.61027 1934
4.63038 1885
4.65049 1831
4.67061 1793
4.69072 1796
4.71083 1687
4.73095 1841
4.75106 1704
4.77118 1706
4.79129 1587
4.8114 1669
4.83152 1607
4.85163 1581
4.87174 1544
4.89186 1585
4.91197 1547
4.93209 1555
4.9522 1519
4.97231 1494
4.99243 1473
5.01254 1509
5.03265 1472
5.05277 1393
5.07288 1448
5.09299 1382
5.11311 1436
5.13322 1348
5.15334 1341
5.17345 1445
5.19356 1327
5.21368 1343
5.23379 1371
5.2539 1225
5.27402 1290
5.29413 1269
5.31425 1259
5.33436 1284
5.35447 1271
5.37459 1214
5.3947 1229
5.41481 1254
5.43493 1235
5.45504 1163
5.47516 1235
5.49527 1174
5.51538 1218
5.5355 1174
5.55561 1146
5.57572 1131
5.59584 1169
5.61595 1135
5.63606 1173
5.65618 1123
5.67629 1149
5.69641 1144
5.71652 1092
5.73663 1059
5.75675 1131
5.77686 1057
5.79697 1177
5.81709 1035
5.8372 1091
5.85732 1059
5.87743 1029
5.89754 1026
5.91766 1091
5.93777 1103
5.95788 1070
5.978 1112
5.99811 994
6.01823 1020
6.03834 1022
6.05845 1003
6.07857 1021
6.09868 1088
6.11879 987
6.13891 1051
6.15902 1037
6.17913 1032
6.19925 968
6.21936 910
6.23948 1018
6.25959 962
6.2797 946
6.29982 985
6.31993 933
6.34004 962
6.36016 916
6.38027 962
6.40039 824
6.4205 883
6.44061 865
6.46073 888
6.48084 903
6.50095 834
6.52107 877
6.54118 870
6.56129 872
6.58141 813
6.60152 885
6.62164 835
6.64175 841
6.66186 832
6.68198 810
6.70209 817
6.7222 859
6.74232 889
6.76243 808
6.78255 810
6.80266 817
6.82277 828
6.84289 735
6.863 744
6.88311 730
6.90323 782
6.92334 746
6.94346 755
6.96357 788
6.98368 776
7.0038 727
7.02391 723
7.04402 737
7.06414 749
7.08425 693
7.10436 682
7.12448 706
7.14459 748
7.16471 709
7.18482 684
7.20493 664
7.22505 712
7.24516 666
7.26527 697
7.28539 678
7.3055 677
7.32562 660
7.34573 636
7.36584 655
7.38596 651
7.40607 654
7.42618 671
7.4463 651
7.46641 638
7.48653 591
7.50664 636
7.52675 600
7.54687 627
7.56698 607
7.58709 611
7.60721 646
7.62732 601
7.64743 575
7.66755 614
7.68766 568
7.70778 613
7.72789 576
7.748 576
7.76812 582
7.78823 594
7.80834 555
7.82846 564
7.84857 565
7.86869 580
7.8888 533
7.90891 606
7.92903 542
7.94914 612
7.96925 590
7.98937 550
8.00948 525
8.0296 569
8.04971 589
8.06982 504
8.08994 558
8.11005 597
8.13016 486
8.15028 508
8.17039 518
8.1905 519
8.21062 510
8.23073 514
8.25085 513
8.27096 497
8.29107 529
8.31119 496
8.3313 512
8.35141 516
8.37153 537
8.39164 503
8.41176 508
8.43187 487
8.45198 490
8.4721 459
8.49221 509
8.51232 481
8.53244 473
8.55255 470
8.57266 453
8.59278 449
8.61289 447
8.63301 470
8.65312 480
8.67323 469
8.69335 476
8.71346 432
8.73357 478
8.75369 449
8.7738 384
8.79392 444
8.81403 454
8.83414 463
8.85426 466
8.87437 418
8.89448 413
8.9146 409
8.93471 432
8.95483 446
8.97494 420
8.99505 426
9.01517 403
9.03528 403
9.05539 436
9.07551 381
9.09562 419
9.11573 430
9.13585 427
9.15596 400
9.17608 389
9.19619 442
9.2163 385
9.23642 429
9.25653 407
9.27664 356
9.29676 393
9.31687 370
9.33699 395
9.3571 397
9.37721 410
9.39733 339
9.41744 357
9.43755 381
9.45767 409
9.47778 362
9.4979 361
9.51801 370
9.53812 393
9.55824 388
9.57835 359
9.59846 359
9.61858 372
9.63869 367
9.6588 396
9.67892 345
9.69903 338
9.71915 359
9.73926 393
9.75937 352
9.77949 355
9.7996 355
9.81971 343
9.83983 357
9.85994 351
9.88006 332
9.90017 359
9.92028 339
9.9404 348
9.96051 336
9.98062 308
10.00074 337
10.02085 317
10.04097 360
10.06108 350
10.08119 359
10.10131 374
10.12142 300
10.14153 332
10.16165 335
10.18176 359
10.20187 376
10.22199 342
10.2421 343
10.26222 319
10.28233 332
10.30244 340
10.32256 342
10.34267 361
10.36278 350
10.3829 346
10.40301 327
10.42313 336
10.44324 395
10.46335 392
10.48347 391
10.50358 371
10.52369 358
10.54381 344
10.56392 352
10.58403 361
10.60415 329
10.62426 330
10.64438 336
10.66449 313
10.6846 355
10.70472 335
10.72483 325
10.74494 325
10.76506 365
10.78517 319
10.80529 330
10.8254 300
10.84551 325
10.86563 331
10.88574 318
10.90585 305
10.92597 303
10.94608 340
10.9662 333
10.98631 301
11.00642 337
11.02654 319
11.04665 307
11.06676 295
11.08688 316
11.10699 309
11.1271 278
11.14722 290
11.16733 297
11.18745 320
11.20756 349
11.22767 353
11.24779 338
11.2679 313
11.28801 328
11.30813 294
11.32824 346
11.34836 311
11.36847 317
11.38858 332
11.4087 299
11.42881 311
11.44892 310
11.46904 293
11.48915 345
11.50927 311
11.52938 327
11.54949 309
11.56961 330
11.58972 325
11.60983 314
11.62995 322
11.65006 323
11.67017 306
11.69029 312
11.7104 294
11.73052 298
11.75063 341
11.77074 301
11.79086 311
11.81097 306
11.83108 321
11.8512 316
11.87131 320
11.89143 297
11.91154 275
11.93165 327
11.95177 305
11.97188 316
11.99199 310
12.01211 330
12.03222 328
12.05234 300
12.07245 288
12.09256 299
12.11268 335
12.13279 302
12.1529 330
12.17302 290
12.19313 307
12.21324 346
12.23336 327
12.25347 361
12.27359 325
12.2937 352
12.31381 334
12.33393 327
12.35404 316
12.37415 316
12.39427 338
12.41438 324
12.4345 351
12.45461 303
12.47472 326
12.49484 314
12.51495 327
12.53506 320
12.55518 311
12.57529 308
12.5954 333
12.61552 315
12.63563 314
12.65575 343
12.67586 311
12.69597 356
12.71609 306
12.7362 339
12.75631 279
12.77643 285
12.79654 324
12.81666 336
12.83677 319
12.85688 340
12.877 291
12.89711 329
12.91722 312
12.93734 340
12.95745 278
12.97757 293
12.99768 287
13.01779 340
13.03791 292
13.05802 320
13.07813 288
13.09825 293
13.11836 320
13.13847 308
13.15859 319
13.1787 323
13.19882 359
13.21893 333
13.23904 312
13.25916 336
13.27927 330
13.29938 302
13.3195 287
13.33961 305
13.35973 320
13.37984 292
13.39995 291
13.42007 288
13.44018 309
13.46029 318
13.48041 340
13.50052 322
13.52064 316
13.54075 316
13.56086 344
13.58098 355
13.60109 357
13.6212 338
13.64132 366
13.66143 319
13.68154 347
13.70166 347
13.72177 351
13.74189 350
13.762 298
13.78211 361
13.80223 361
13.82234 300
13.84245 373
13.86257 322
13.88268 354
13.9028 295
13.92291 366
13.94302 322
13.96314 325
13.98325 367
14.00336 308
14.02348 283
14.04359 302
14.06371 314
14.08382 316
14.10393 269
14.12405 259
14.14416 309
14.16427 303
14.18439 296
14.2045 296
14.22461 289
14.24473 328
14.26484 315
14.28496 301
14.30507 297
14.32518 296
14.3453 307
14.36541 310
14.38552 300
14.40564 307
14.42575 310
14.44587 265
14.46598 304
14.48609 325
14.50621 298
14.52632 328
14.54643 295
14.56655 282
14.58666 292
14.60677 298
14.62689 290
14.647 327
14.66712 290
14.68723 309
14.70734 281
14.72746 272
14.74757 333
14.76768 317
14.7878 345
14.80791 283
14.82803 311
14.84814 287
14.86825 302
14.88837 299
14.90848 316
14.92859 314
14.94871 340
14.96882 326
14.98894 313
15.00905 310
15.02916 299
15.04928 312
15.06939 316
15.0895 330
15.10962 314
15.12973 283
15.14984 311
15.16996 312
15.19007 317
15.21019 298
15.2303 268
15.25041 309
15.27053 299
15.29064 300
15.31075 314
15.33087 270
15.35098 275
15.3711 294
15.39121 264
15.41132 301
15.43144 309
15.45155 290
15.47166 314
15.49178 299
15.51189 298
15.53201 327
15.55212 327
15.57223 327
15.59235 312
15.61246 348
15.63257 308
15.65269 297
15.6728 298
15.69291 290
15.71303 313
15.73314 296
15.75326 297
15.77337 298
15.79348 292
15.8136 313
15.83371 287
15.85382 318
15.87394 295
15.89405 300
15.91417 313
15.93428 315
15.95439 309
15.97451 319
15.99462 315
16.01473 308
16.03485 301
16.05496 298
16.07508 306
16.09519 285
16.1153 318
16.13542 323
16.15553 303
16.17564 292
16.19576 301
16.21587 288
16.23598 281
16.2561 324
16.27621 296
16.29633 341
16.31644 311
16.33655 298
16.35667 319
16.37678 322
16.39689 308
16.41701 343
16.43712 278
16.45724 370
16.47735 339
16.49746 309
16.51758 314
16.53769 331
16.5578 295
16.57792 323
16.59803 316
16.61814 322
16.63826 319
16.65837 305
16.67849 328
16.6986 310
16.71871 313
16.73883 292
16.75894 316
16.77905 308
16.79917 296
16.81928 329
16.8394 304
16.85951 303
16.87962 332
16.89974 293
16.91985 321
16.93996 317
16.96008 317
16.98019 309
17.00031 284
17.02042 303
17.04053 314
17.06065 336
17.08076 316
17.10087 329
17.12099 280
17.1411 316
17.16121 300
17.18133 364
17.20144 335
17.22156 301
17.24167 298
17.26178 288
17.2819 317
17.30201 328
17.32212 308
17.34224 305
17.36235 308
17.38247 313
17.40258 331
17.42269 359
17.44281 320
17.46292 299
17.48303 341
17.50315 311
17.52326 356
17.54338 314
17.56349 331
17.5836 313
17.60372 360
17.62383 322
17.64394 335
17.66406 291
17.68417 309
17.70428 311
17.7244 319
17.74451 332
17.76463 288
17.78474 316
17.80485 265
17.82497 352
17.84508 350
17.86519 343
17.88531 326
17.90542 313
17.92554 335
17.94565 323
17.96576 343
17.98588 343
18.00599 336
18.0261 290
18.04622 343
18.06633 348
18.08645 353
18.10656 333
18.12667 331
18.14679 322
18.1669 335
18.18701 280
18.20713 285
18.22724 330
18.24735 344
18.26747 303
18.28758 329
18.3077 332
18.32781 334
18.34792 318
18.36804 365
18.38815 335
18.40826 358
18.42838 343
18.44849 296
18.46861 354
18.48872 309
18.50883 316
18.52895 325
18.54906 307
18.56917 316
18.58929 356
18.6094 340
18.62951 349
18.64963 318
18.66974 325
18.68986 324
18.70997 306
18.73008 328
18.7502 360
18.77031 338
18.79042 319
18.81054 350
18.83065 355
18.85077 341
18.87088 337
18.89099 356
18.91111 336
18.93122 338
18.95133 337
18.97145 341
18.99156 349
19.01168 378
19.03179 363
19.0519 325
19.07202 338
19.09213 357
19.11224 338
19.13236 383
19.15247 369
19.17258 394
19.1927 373
19.21281 410
19.23293 408
19.25304 494
19.27315 461
19.29327 420
19.31338 475
19.33349 476
19.35361 473
19.37372 507
19.39384 538
19.41395 524
19.43406 588
19.45418 592
19.47429 638
19.4944 646
19.51452 696
19.53463 703
19.55475 822
19.57486 797
19.59497 838
19.61509 915
19.6352 853
19.65531 886
19.67543 906
19.69554 925
19.71565 821
19.73577 904
19.75588 937
19.776 976
19.79611 892
19.81622 898
19.83634 952
19.85645 839
19.87656 869
19.89668 877
19.91679 854
19.93691 811
19.95702 772
19.97713 738
19.99725 752
20.01736 720
20.03747 726
20.05759 676
20.0777 654
20.09782 753
20.11793 687
20.13804 617
20.15816 702
20.17827 652
20.19838 648
20.2185 642
20.23861 628
20.25872 591
20.27884 638
20.29895 616
20.31907 586
20.33918 560
20.35929 624
20.37941 567
20.39952 583
20.41963 569
20.43975 565
20.45986 571
20.47998 601
20.50009 605
20.5202 592
20.54032 520
20.56043 640
20.58054 548
20.60066 592
20.62077 642
20.64088 657
20.661 778
20.68111 832
20.70123 1011
20.72134 1133
20.74145 1463
20.76157 1671
20.78168 2015
20.80179 1982
20.82191 2083
20.84202 2147
20.86214 1861
20.88225 1506
20.90236 1236
20.92248 1079
20.94259 845
20.9627 813
20.98282 803
21.00293 753
21.02305 679
21.04316 619
21.06327 602
21.08339 559
21.1035 557
21.12361 571
21.14373 517
21.16384 575
21.18395 526
21.20407 536
21.22418 485
21.2443 479
21.26441 506
21.28452 498
21.30464 465
21.32475 475
21.34486 480
21.36498 445
21.38509 474
21.40521 413
21.42532 446
21.44543 451
21.46555 466
21.48566 463
21.50577 497
21.52589 463
21.546 465
21.56612 467
21.58623 481
21.60634 464
21.62646 457
21.64657 463
21.66668 468
21.6868 422
21.70691 466
21.72702 466
21.74714 466
21.76725 512
21.78737 469
21.80748 503
21.82759 528
21.84771 481
21.86782 525
21.88793 585
21.90805 689
21.92816 685
21.94828 697
21.96839 686
21.9885 678
22.00862 676
22.02873 651
22.04884 573
22.06896 563
22.08907 484
22.10919 499
22.1293 512
22.14941 474
22.16953 467
22.18964 487
22.20975 448
22.22987 475
22.24998 462
22.27009 507
22.29021 459
22.31032 484
22.33044 479
22.35055 437
22.37066 437
22.39078 492
22.41089 462
22.431 459
22.45112 461
22.47123 451
22.49135 472
22.51146 451
22.53157 477
22.55169 444
22.5718 464
22.59191 432
22.61203 485
22.63214 405
22.65225 430
22.67237 443
22.69248 488
22.7126 445
22.73271 401
22.75282 445
22.77294 487
22.79305 436
22.81316 459
22.83328 482
22.85339 481
22.87351 460
22.89362 505
22.91373 511
22.93385 496
22.95396 480
22.97407 550
22.99419 554
23.0143 549
23.03442 543
23.05453 542
23.07464 508
23.09476 525
23.11487 505
23.13498 500
23.1551 460
23.17521 449
23.19532 447
23.21544 516
23.23555 507
23.25567 502
23.27578 483
23.29589 461
23.31601 490
23.33612 476
23.35623 444
23.37635 494
23.39646 449
23.41658 480
23.43669 554
23.4568 491
23.47692 557
23.49703 635
23.51714 596
23.53726 594
23.55737 557
23.57749 530
23.5976 583
23.61771 562
23.63783 550
23.65794 547
23.67805 532
23.69817 520
23.71828 498
23.73839 535
23.75851 532
23.77862 562
23.79874 558
23.81885 551
23.83896 556
23.85908 526
23.87919 591
23.8993 572
23.91942 580
23.93953 558
23.95965 599
23.97976 568
23.99987 565
24.01999 530
24.0401 553
24.06021 512
24.08033 530
24.10044 505
24.12056 534
24.14067 528
24.16078 544
24.1809 555
24.20101 542
24.22112 534
24.24124 557
24.26135 583
24.28146 555
24.30158 600
24.32169 568
24.34181 534
24.36192 533
24.38203 513
24.40215 424
24.42226 469
24.44237 476
24.46249 489
24.4826 477
24.50272 460
24.52283 432
24.54294 413
24.56306 467
24.58317 459
24.60328 505
24.6234 413
24.64351 455
24.66362 498
24.68374 477
24.70385 452
24.72397 447
24.74408 439
24.76419 467
24.78431 487
24.80442 418
24.82453 456
24.84465 507
24.86476 509
24.88488 487
24.90499 518
24.9251 423
24.94522 462
24.96533 453
24.98544 457
25.00556 424
25.02567 485
25.04579 498
25.0659 467
25.08601 481
25.10613 473
25.12624 455
25.14635 498
25.16647 487
25.18658 510
25.20669 497
25.22681 477
25.24692 445
25.26704 508
25.28715 488
25.30726 506
25.32738 475
25.34749 511
25.3676 517
25.38772 502
25.40783 583
25.42795 563
25.44806 555
25.46817 553
25.48829 552
25.5084 576
25.52851 590
25.54863 600
25.56874 592
25.58886 662
25.60897 574
25.62908 569
25.6492 506
25.66931 568
25.68942 582
25.70954 515
25.72965 546
25.74976 503
25.76988 503
25.78999 549
25.81011 546
25.83022 480
25.85033 498
25.87045 506
25.89056 487
25.91067 561
25.93079 471
25.9509 520
25.97102 557
25.99113 466
26.01124 578
26.03136 584
26.05147 545
26.07158 594
26.0917 559
26.11181 556
26.13193 601
26.15204 605
26.17215 645
26.19227 622
26.21238 744
26.23249 725
26.25261 731
26.27272 800
26.29283 863
26.31295 848
26.33306 1004
26.35318 1083
26.37329 1206
26.3934 1375
26.41352 1599
26.43363 1806
26.45374 2420
26.47386 3081
26.49397 3939
26.51409 5072
26.5342 6067
26.55431 7075
26.57443 7489
26.59454 7549
26.61465 7058
26.63477 6185
26.65488 5025
26.67499 3788
26.69511 2958
26.71522 2056
26.73534 1457
26.75545 1218
26.77556 1009
26.79568 865
26.81579 831
26.8359 858
26.85602 752
26.87613 787
26.89625 831
26.91636 748
26.93647 761
26.95659 812
26.9767 769
26.99681 753
27.01693 823
27.03704 778
27.05716 718
27.07727 699
27.09738 739
27.1175 693
27.13761 699
27.15772 615
27.17784 630
27.19795 613
27.21806 586
27.23818 639
27.25829 669
27.27841 684
27.29852 678
27.31863 727
27.33875 763
27.35886 825
27.37897 856
27.39909 859
27.4192 943
27.43932 998
27.45943 920
27.47954 812
27.49966 793
27.51977 794
27.53988 736
27.56 663
27.58011 676
27.60023 780
27.62034 720
27.64045 747
27.66057 837
27.68068 842
27.70079 910
27.72091 942
27.74102 924
27.76113 964
27.78125 941
27.80136 969
27.82148 941
27.84159 945
27.8617 922
27.88182 916
27.90193 884
27.92204 875
27.94216 876
27.96227 843
27.98239 761
28.0025 731
28.02261 685
28.04273 579
28.06284 644
28.08295 572
28.10307 621
28.12318 611
28.1433 524
28.16341 601
28.18352 578
28.20364 608
28.22375 555
28.24386 580
28.26398 618
28.28409 553
28.3042 592
28.32432 533
28.34443 513
28.36455 495
28.38466 499
28.40477 459
28.42489 494
28.445 467
28.46511 485
28.48523 460
28.50534 489
28.52546 440
28.54557 464
28.56568 499
28.5858 433
28.60591 462
28.62602 448
28.64614 447
28.66625 436
28.68636 472
28.70648 437
28.72659 450
28.74671 463
28.76682 452
28.78693 431
28.80705 446
28.82716 438
28.84727 459
28.86739 444
28.8875 459
28.90762 440
28.92773 452
28.94784 459
28.96796 472
28.98807 469
29.00818 485
29.0283 486
29.04841 508
29.06853 498
29.08864 453
29.10875 525
29.12887 498
29.14898 459
29.16909 508
29.18921 549
29.20932 583
29.22943 644
29.24955 655
29.26966 699
29.28978 784
29.30989 877
29.33 857
29.35012 949
29.37023 987
29.39034 1087
29.41046 1018
29.43057 914
29.45069 867
29.4708 808
29.49091 732
29.51103 678
29.53114 575
29.55125 590
29.57137 562
29.59148 568
29.6116 526
29.63171 578
29.65182 496
29.67194 529
29.69205 514
29.71216 537
29.73228 542
29.75239 552
29.7725 505
29.79262 509
29.81273 556
29.83285 526
29.85296 486
29.87307 513
29.89319 457
29.9133 485
29.93341 463
29.95353 478
29.97364 491
29.99376 488
30.01387 465
30.03398 491
30.0541 457
30.07421 516
30.09432 479
30.11444 502
30.13455 503
30.15467 519
30.17478 479
30.19489 530
30.21501 520
30.23512 521
30.25523 507
30.27535 523
30.29546 553
30.31557 556
30.33569 521
30.3558 549
30.37592 529
30.39603 529
30.41614 483
30.43626 472
30.45637 495
30.47648 481
30.4966 436
30.51671 433
30.53683 442
30.55694 413
30.57705 433
30.59717 456
30.61728 426
30.63739 456
30.65751 454
30.67762 491
30.69773 467
30.71785 490
30.73796 515
30.75808 533
30.77819 461
30.7983 477
30.81842 468
30.83853 456
30.85864 448
30.87876 445
30.89887 451
30.91899 423
30.9391 378
30.95921 415
30.97933 439
30.99944 400
31.01955 396
31.03967 447
31.05978 433
31.0799 374
31.10001 413
31.12012 408
31.14024 380
31.16035 383
31.18046 437
31.20058 398
31.22069 408
31.2408 451
31.26092 409
31.28103 415
31.30115 440
31.32126 430
31.34137 477
31.36149 410
31.3816 442
31.40171 408
31.42183 397
31.44194 410
31.46206 402
31.48217 413
31.50228 371
31.5224 389
31.54251 389
31.56262 364
31.58274 411
31.60285 387
31.62297 384
31.64308 411
31.66319 398
31.68331 404
31.70342 402
31.72353 386
31.74365 366
31.76376 397
31.78387 363
31.80399 390
31.8241 391
31.84422 405
31.86433 386
31.88444 356
31.90456 383
31.92467 388
31.94478 391
31.9649 380
31.98501 392
32.00513 396
32.02524 367
32.04535 387
32.06547 357
32.08558 397
32.10569 375
32.12581 391
32.14592 373
32.16604 381
32.18615 411
32.20626 389
32.22638 375
32.24649 366
32.2666 395
32.28672 397
32.30683 431
32.32694 401
32.34706 425
32.36717 378
32.38729 395
32.4074 387
32.42751 401
32.44763 380
32.46774 401
32.48785 457
32.50797 427
32.52808 405
32.5482 422
32.56831 409
32.58842 377
32.60854 361
32.62865 355
32.64876 379
32.66888 410
32.68899 386
32.7091 399
32.72922 374
32.74933 393
32.76945 375
32.78956 391
32.80967 372
32.82979 358
32.8499 404
32.87001 382
32.89013 415
32.91024 390
32.93036 409
32.95047 386
32.97058 431
32.9907 433
33.01081 402
33.03092 424
33.05104 417
33.07115 381
33.09127 395
33.11138 408
33.13149 422
33.15161 396
33.17172 385
33.19183 360
33.21195 381
33.23206 329
33.25217 352
33.27229 347
33.2924 369
33.31252 372
33.33263 356
33.35274 363
33.37286 404
33.39297 366
33.41308 342
33.4332 341
33.45331 342
33.47343 346
33.49354 378
33.51365 374
33.53377 350
33.55388 322
33.57399 363
33.59411 366
33.61422 344
33.63434 380
33.65445 352
33.67456 387
33.69468 393
33.71479 365
33.7349 371
33.75502 372
33.77513 410
33.79524 425
33.81536 413
33.83547 406
33.85559 410
33.8757 399
33.89581 404
33.91593 429
33.93604 359
33.95615 420
33.97627 400
33.99638 415
34.0165 462
34.03661 453
34.05672 447
34.07684 421
34.09695 435
34.11706 500
34.13718 459
34.15729 484
34.17741 470
34.19752 462
34.21763 496
34.23775 500
34.25786 491
34.27797 522
34.29809 550
34.3182 540
34.33831 560
34.35843 553
34.37854 579
34.39866 556
34.41877 609
34.43888 554
34.459 626
34.47911 623
34.49922 647
34.51934 654
34.53945 661
34.55957 612
34.57968 605
34.59979 617
34.61991 670
34.64002 658
34.66013 669
34.68025 652
34.70036 650
34.72047 622
34.74059 643
34.7607 680
34.78082 664
34.80093 652
34.82104 635
34.84116 623
34.86127 657
34.88138 672
34.9015 646
34.92161 606
34.94173 672
34.96184 696
34.98195 626
35.00207 625
35.02218 649
35.04229 619
35.06241 667
35.08252 658
35.10264 657
35.12275 661
35.14286 671
35.16298 639
35.18309 627
35.2032 685
35.22332 611
35.24343 614
35.26354 654
35.28366 626
35.30377 602
35.32389 560
35.344 638
35.36411 615
35.38423 634
35.40434 578
35.42445 614
35.44457 559
35.46468 572
35.4848 593
35.50491 586
35.52502 562
35.54514 515
35.56525 574
35.58536 564
35.60548 557
35.62559 547
35.64571 531
35.66582 563
35.68593 492
35.70605 535
35.72616 495
35.74627 503
35.76639 529
35.7865 527
35.80661 501
35.82673 486
35.84684 508
35.86696 546
35.88707 537
35.90718 527
35.9273 550
35.94741 550
35.96752 564
35.98764 539
36.00775 549
36.02787 547
36.04798 497
36.06809 549
36.08821 561
36.10832 495
36.12843 481
36.14855 508
36.16866 506
36.18878 509
36.20889 509
36.229 501
36.24912 559
36.26923 537
36.28934 556
36.30946 523
36.32957 608
36.34968 591
36.3698 659
36.38991 712
36.41003 746
36.43014 806
36.45025 896
36.47037 955
36.49048 947
36.51059 891
36.53071 847
36.55082 836
36.57094 755
36.59105 709
36.61116 629
36.63128 607
36.65139 557
36.6715 519
36.69162 525
36.71173 492
36.73184 524
36.75196 541
36.77207 522
36.79219 506
36.8123 474
36.83241 477
36.85253 485
36.87264 533
36.89275 483
36.91287 527
36.93298 442
36.9531 509
36.97321 525
36.99332 501
37.01344 453
37.03355 476
37.05366 516
37.07378 469
37.09389 502
37.11401 505
37.13412 450
37.15423 532
37.17435 449
37.19446 466
37.21457 476
37.23469 432
37.2548 455
37.27491 475
37.29503 457
37.31514 476
37.33526 488
37.35537 477
37.37548 452
37.3956 438
37.41571 492
37.43582 505
37.45594 416
37.47605 479
37.49617 445
37.51628 453
37.53639 430
37.55651 455
37.57662 502
37.59673 480
37.61685 467
37.63696 432
37.65708 467
37.67719 442
37.6973 425
37.71742 461
37.73753 435
37.75764 442
37.77776 405
37.79787 440
37.81798 426
37.8381 434
37.85821 398
37.87833 400
37.89844 431
37.91855 400
37.93867 372
37.95878 401
37.97889 388
37.99901 380
38.01912 411
38.03924 385
38.05935 372
38.07946 430
38.09958 383
38.11969 402
38.1398 408
38.15992 388
38.18003 402
38.20015 380
38.22026 446
38.24037 385
38.26049 386
38.2806 384
38.30071 398
38.32083 416
38.34094 389
38.36105 407
38.38117 383
38.40128 410
38.4214 381
38.44151 429
38.46162 397
38.48174 380
38.50185 415
38.52196 403
38.54208 386
38.56219 386
38.58231 371
38.60242 406
38.62253 408
38.64265 388
38.66276 414
38.68287 418
38.70299 409
38.7231 411
38.74321 364
38.76333 375
38.78344 387
38.80356 373
38.82367 354
38.84378 404
38.8639 392
38.88401 347
38.90412 407
38.92424 401
38.94435 401
38.96447 381
38.98458 404
39.00469 410
39.02481 402
39.04492 399
39.06503 386
39.08515 405
39.10526 421
39.12538 419
39.14549 426
39.1656 448
39.18572 446
39.20583 466
39.22594 445
39.24606 515
39.26617 539
39.28628 575
39.3064 637
39.32651 673
39.34663 814
39.36674 859
39.38685 885
39.40697 852
39.42708 847
39.44719 780
39.46731 762
39.48742 705
39.50754 654
39.52765 613
39.54776 540
39.56788 560
39.58799 458
39.6081 449
39.62822 415
39.64833 466
39.66845 411
39.68856 417
39.70867 381
39.72879 412
39.7489 408
39.76901 400
39.78913 399
39.80924 394
39.82935 412
39.84947 408
39.86958 407
39.8897 446
39.90981 424
39.92992 412
39.95004 398
39.97015 437
39.99026 438
40.01038 398
40.03049 413
40.05061 444
40.07072 441
40.09083 480
40.11095 511
40.13106 501
40.15117 535
40.17129 518
40.1914 598
40.21152 573
40.23163 597
40.25174 577
40.27186 581
40.29197 526
40.31208 520
40.3322 472
40.35231 463
40.37242 446
40.39254 415
40.41265 462
40.43277 445
40.45288 408
40.47299 375
40.49311 369
40.51322 400
40.53333 412
40.55345 340
40.57356 387
40.59368 373
40.61379 407
40.6339 423
40.65402 379
40.67413 372
40.69424 356
40.71436 380
40.73447 349
40.75458 361
40.7747 411
40.79481 385
40.81493 399
40.83504 372
40.85515 363
40.87527 411
40.89538 352
40.91549 382
40.93561 380
40.95572 403
40.97584 399
40.99595 392
41.01606 354
41.03618 388
41.05629 362
41.0764 408
41.09652 337
41.11663 412
41.13675 390
41.15686 376
41.17697 383
41.19709 398
41.2172 372
41.23731 387
41.25743 407
41.27754 369
41.29765 383
41.31777 391
41.33788 374
41.358 356
41.37811 383
41.39822 368
41.41834 343
41.43845 364
41.45856 391
41.47868 386
41.49879 390
41.51891 359
41.53902 391
41.55913 417
41.57925 423
41.59936 415
41.61947 416
41.63959 411
41.6597 418
41.67982 381
41.69993 398
41.72004 450
41.74016 442
41.76027 423
41.78038 418
41.8005 431
41.82061 391
41.84072 394
41.86084 397
41.88095 344
41.90107 355
41.92118 415
41.94129 401
41.96141 412
41.98152 389
42.00163 372
42.02175 364
42.04186 392
42.06198 385
42.08209 352
42.1022 374
42.12232 388
42.14243 447
42.16254 409
42.18266 419
42.20277 393
42.22289 428
42.243 453
42.26311 498
42.28323 535
42.30334 577
42.32345 615
42.34357 697
42.36368 663
42.38379 679
42.40391 697
42.42402 672
42.44414 654
42.46425 606
42.48436 552
42.50448 551
42.52459 523
42.5447 481
42.56482 438
42.58493 431
42.60505 385
42.62516 376
42.64527 387
42.66539 385
42.6855 406
42.70561 416
42.72573 379
42.74584 395
42.76595 355
42.78607 396
42.80618 376
42.8263 415
42.84641 401
42.86652 367
42.88664 415
42.90675 381
42.92686 400
42.94698 386
42.96709 412
42.98721 363
43.00732 381
43.02743 429
43.04755 392
43.06766 410
43.08777 434
43.10789 408
43.128 434
43.14812 445
43.16823 425
43.18834 421
43.20846 439
43.22857 409
43.24868 391
43.2688 409
43.28891 424
43.30902 386
43.32914 381
43.34925 366
43.36937 355
43.38948 325
43.40959 352
43.42971 347
43.44982 355
43.46993 388
43.49005 382
43.51016 358
43.53028 359
43.55039 367
43.5705 350
43.59062 328
43.61073 346
43.63084 344
43.65096 364
43.67107 377
43.69119 314
43.7113 342
43.73141 345
43.75153 321
43.77164 321
43.79175 346
43.81187 362
43.83198 347
43.85209 369
43.87221 367
43.89232 313
43.91244 339
43.93255 334
43.95266 357
43.97278 356
43.99289 347
44.013 353
44.03312 363
44.05323 337
44.07335 331
44.09346 333
44.11357 315
44.13369 350
44.1538 329
44.17391 365
44.19403 354
44.21414 345
44.23426 359
44.25437 344
44.27448 335
44.2946 343
44.31471 359
44.33482 317
44.35494 331
44.37505 357
44.39516 336
44.41528 348
44.43539 353
44.45551 356
44.47562 373
44.49573 349
44.51585 347
44.53596 348
44.55607 342
44.57619 329
44.5963 385
44.61642 353
44.63653 324
44.65664 318
44.67676 327
44.69687 378
44.71698 348
44.7371 337
44.75721 376
44.77732 314
44.79744 394
44.81755 384
44.83767 351
44.85778 330
44.87789 331
44.89801 378
44.91812 387
44.93823 365
44.95835 372
44.97846 342
44.99858 369
45.01869 351
45.0388 375
45.05892 357
45.07903 362
45.09914 312
45.11926 328
45.13937 370
45.15949 358
45.1796 375
45.19971 348
45.21983 378
45.23994 340
45.26005 354
45.28017 339
45.30028 368
45.32039 336
45.34051 395
45.36062 323
45.38074 325
45.40085 367
45.42096 386
45.44108 377
45.46119 397
45.4813 383
45.50142 394
45.52153 388
45.54165 380
45.56176 398
45.58187 420
45.60199 447
45.6221 456
45.64221 528
45.66233 521
45.68244 534
45.70256 540
45.72267 535
45.74278 542
45.7629 540
45.78301 452
45.80312 483
45.82324 481
45.84335 439
45.86346 418
45.88358 390
45.90369 361
45.92381 344
45.94392 357
45.96403 332
45.98415 335
46.00426 329
46.02437 311
46.04449 344
46.0646 331
46.08472 324
46.10483 313
46.12494 320
46.14506 321
46.16517 306
46.18528 303
46.2054 304
46.22551 337
46.24563 334
46.26574 319
46.28585 309
46.30597 328
46.32608 322
46.34619 339
46.36631 331
46.38642 335
46.40653 305
46.42665 303
46.44676 334
46.46688 284
46.48699 325
46.5071 340
46.52722 296
46.54733 310
46.56744 323
46.58756 309
46.60767 298
46.62779 282
46.6479 308
46.66801 337
46.68813 316
46.70824 298
46.72835 319
46.74847 323
46.76858 338
46.78869 316
46.80881 316
46.82892 322
46.84904 310
46.86915 307
46.88926 317
46.90938 315
46.92949 356
46.9496 317
46.96972 311
46.98983 332
47.00995 340
47.03006 362
47.05017 366
47.07029 369
47.0904 378
47.11051 342
47.13063 364
47.15074 309
47.17086 347
47.19097 380
47.21108 316
47.2312 338
47.25131 358
47.27142 325
47.29154 369
47.31165 393
47.33176 383
47.35188 382
47.37199 376
47.39211 388
47.41222 370
47.43233 364
47.45245 398
47.47256 416
47.49267 387
47.51279 415
47.5329 372
47.55302 374
47.57313 357
47.59324 373
47.61336 377
47.63347 363
47.65358 326
47.6737 338
47.69381 313
47.71393 323
47.73404 324
47.75415 311
47.77427 318
47.79438 361
47.81449 307
47.83461 348
47.85472 314
47.87483 319
47.89495 316
47.91506 316
47.93518 304
47.95529 313
47.9754 342
47.99552 319
48.01563 314
48.03574 322
48.05586 286
48.07597 306
48.09609 338
48.1162 340
48.13631 340
48.15643 315
48.17654 301
48.19665 333
48.21677 356
48.23688 331
48.257 367
48.27711 331
48.29722 350
48.31734 375
48.33745 379
48.35756 356
48.37768 363
48.39779 365
48.4179 374
48.43802 425
48.45813 391
48.47825 397
48.49836 390
48.51847 383
48.53859 358
48.5587 403
48.57881 353
48.59893 410
48.61904 369
48.63916 366
48.65927 314
48.67938 317
48.6995 360
48.71961 351
48.73972 376
48.75984 376
48.77995 364
48.80006 331
48.82018 336
48.84029 341
48.86041 334
48.88052 330
48.90063 347
48.92075 335
48.94086 343
48.96097 338
48.98109 305
49.0012 358
49.02132 348
49.04143 341
49.06154 328
49.08166 314
49.10177 363
49.12188 344
49.142 344
49.16211 341
49.18223 320
49.20234 309
49.22245 350
49.24257 339
49.26268 322
49.28279 335
49.30291 322
49.32302 332
49.34313 324
49.36325 327
49.38336 329
49.40348 346
49.42359 308
49.4437 325
49.46382 346
49.48393 328
49.50404 319
49.52416 342
49.54427 333
49.56439 348
49.5845 339
49.60461 336
49.62473 347
49.64484 336
49.66495 337
49.68507 366
49.70518 356
49.7253 369
49.74541 360
49.76552 391
49.78564 388
49.80575 420
49.82586 413
49.84598 417
49.86609 483
49.8862 514
49.90632 478
49.92643 558
49.94655 624
49.96666 701
49.98677 786
50.00689 884
50.027 987
50.04711 1017
50.06723 1037
50.08734 940
50.10746 931
50.12757 884
50.14768 759
50.1678 707
50.18791 669
50.20802 669
50.22814 573
50.24825 532
50.26837 468
50.28848 414
50.30859 366
50.32871 357
50.34882 393
50.36893 342
50.38905 362
50.40916 416
50.42927 367
50.44939 349
50.4695 395
50.48962 399
50.50973 371
50.52984 390
50.54996 397
50.57007 393
50.59018 374
50.6103 375
50.63041 391
50.65053 374
50.67064 336
50.69075 369
50.71087 320
50.73098 328
50.75109 371
50.77121 325
50.79132 318
50.81143 347
50.83155 289
50.85166 328
50.87178 287
50.89189 326
50.912 277
50.93212 301
50.95223 290
50.97234 306
50.99246 304
51.01257 317
51.03269 307
51.0528 308
51.07291 315
51.09303 328
51.11314 302
51.13325 274
51.15337 290
51.17348 313
51.1936 312
51.21371 315
51.23382 312
51.25394 331
51.27405 305
51.29416 283
51.31428 337
51.33439 313
51.3545 325
51.37462 316
51.39473 318
51.41485 303
51.43496 316
51.45507 288
51.47519 281
51.4953 295
51.51541 305
51.53553 266
51.55564 318
51.57576 271
51.59587 270
51.61598 286
51.6361 285
51.65621 276
51.67632 295
51.69644 279
51.71655 290
51.73667 281
51.75678 309
51.77689 289
51.79701 293
51.81712 271
51.83723 306
51.85735 294
51.87746 296
51.89757 295
51.91769 262
51.9378 228
51.95792 277
51.97803 243
51.99814 274
52.01826 288
52.03837 317
52.05848 306
52.0786 273
52.09871 282
52.11883 299
52.13894 301
52.15905 315
52.17917 273
52.19928 294
52.21939 291
52.23951 316
52.25962 270
52.27974 292
52.29985 299
52.31996 271
52.34008 323
52.36019 316
52.3803 282
52.40042 300
52.42053 304
52.44064 282
52.46076 317
52.48087 303
52.50099 341
52.5211 303
52.54121 305
52.56133 291
52.58144 340
52.60155 287
52.62167 315
52.64178 313
52.6619 311
52.68201 287
52.70212 303
52.72224 308
52.74235 340
52.76246 343
52.78258 305
52.80269 286
52.8228 327
52.84292 281
52.86303 326
52.88315 318
52.90326 329
52.92337 312
52.94349 330
52.9636 349
52.98371 335
53.00383 328
53.02394 333
53.04406 319
53.06417 338
53.08428 343
53.1044 340
53.12451 325
53.14462 336
53.16474 359
53.18485 324
53.20497 344
53.22508 336
53.24519 355
53.26531 347
53.28542 332
53.30553 316
53.32565 329
53.34576 371
53.36587 329
53.38599 390
53.4061 368
53.42622 369
53.44633 364
53.46644 357
53.48656 351
53.50667 377
53.52678 387
53.5469 380
53.56701 360
53.58713 362
53.60724 371
53.62735 375
53.64747 381
53.66758 350
53.68769 382
53.70781 403
53.72792 389
53.74804 368
53.76815 395
53.78826 372
53.80838 375
53.82849 361
53.8486 411
53.86872 377
53.88883 389
53.90894 404
53.92906 353
53.94917 369
53.96929 376
53.9894 370
54.00951 387
54.02963 371
54.04974 382
54.06985 370
54.08997 355
54.11008 405
54.1302 353
54.15031 390
54.17042 374
54.19054 376
54.21065 346
54.23076 366
54.25088 378
54.27099 341
54.29111 396
54.31122 370
54.33133 390
54.35145 364
54.37156 358
54.39167 382
54.41179 366
54.4319 359
54.45201 359
54.47213 362
54.49224 377
54.51236 385
54.53247 396
54.55258 387
54.5727 371
54.59281 366
54.61292 436
54.63304 411
54.65315 406
54.67327 481
54.69338 452
54.71349 479
54.73361 495
54.75372 522
54.77383 522
54.79395 573
54.81406 528
54.83417 525
54.85429 537
54.8744 529
54.89452 482
54.91463 459
54.93474 456
54.95486 451
54.97497 403
54.99508 387
55.0152 386
55.03531 374
55.05543 358
55.07554 386
55.09565 371
55.11577 408
55.13588 409
55.15599 385
55.17611 431
55.19622 423
55.21634 432
55.23645 461
55.25656 441
55.27668 405
55.29679 437
55.3169 390
55.33702 389
55.35713 395
55.37724 366
55.39736 403
55.41747 383
55.43759 381
55.4577 379
55.47781 365
55.49793 375
55.51804 345
55.53815 371
55.55827 378
55.57838 344
55.5985 358
55.61861 326
55.63872 339
55.65884 352
55.67895 345
55.69906 339
55.71918 347
55.73929 342
55.75941 316
55.77952 318
55.79963 326
55.81975 326
55.83986 342
55.85997 364
55.88009 331
55.9002 324
55.92031 322
55.94043 348
55.96054 338
55.98066 348
56.00077 329
56.02088 325
56.041 345
56.06111 327
56.08122 333
56.10134 325
56.12145 338
56.14157 338
56.16168 352
56.18179 331
56.20191 319
56.22202 317
56.24213 354
56.26225 342
56.28236 361
56.30248 299
56.32259 329
56.3427 327
56.36282 300
56.38293 310
56.40304 333
56.42316 328
56.44327 326
56.46338 336
56.4835 308
56.50361 355
56.52373 328
56.54384 327
56.56395 340
56.58407 342
56.60418 321
56.62429 363
56.64441 340
56.66452 370
56.68464 329
56.70475 334
56.72486 344
56.74498 310
56.76509 339
56.7852 331
56.80532 370
56.82543 318
56.84554 328
56.86566 302
56.88577 335
56.90589 358
56.926 317
56.94611 288
56.96623 333
56.98634 297
57.00645 312
57.02657 300
57.04668 317
57.0668 331
57.08691 297
57.10702 354
57.12714 362
57.14725 324
57.16736 360
57.18748 321
57.20759 346
57.22771 307
57.24782 359
57.26793 329
57.28805 373
57.30816 365
57.32827 376
57.34839 370
57.3685 336
57.38861 319
57.40873 329
57.42884 330
57.44896 373
57.46907 351
57.48918 328
57.5093 325
57.52941 345
57.54952 338
57.56964 383
57.58975 294
57.60987 319
57.62998 376
57.65009 317
57.67021 334
57.69032 309
57.71043 297
57.73055 309
57.75066 324
57.77078 317
57.79089 314
57.811 315
57.83112 314
57.85123 325
57.87134 293
57.89146 310
57.91157 325
57.93168 289
57.9518 305
57.97191 314
57.99203 288
58.01214 308
58.03225 297
58.05237 339
58.07248 331
58.09259 277
58.11271 297
58.13282 310
58.15294 298
58.17305 303
58.19316 313
58.21328 306
58.23339 304
58.2535 316
58.27362 307
58.29373 295
58.31385 336
58.33396 290
58.35407 279
58.37419 308
58.3943 335
58.41441 310
58.43453 330
58.45464 308
58.47475 289
58.49487 341
58.51498 347
58.5351 335
58.55521 307
58.57532 311
58.59544 331
58.61555 301
58.63566 307
58.65578 324
58.67589 305
58.69601 322
58.71612 308
58.73623 334
58.75635 279
58.77646 323
58.79657 318
58.81669 319
58.8368 275
58.85691 298
58.87703 304
58.89714 290
58.91726 309
58.93737 300
58.95748 322
58.9776 326
58.99771 281
59.01782 300
59.03794 300
59.05805 325
59.07817 315
59.09828 308
59.11839 313
59.13851 309
59.15862 326
59.17873 282
59.19885 337
59.21896 298
59.23908 321
59.25919 302
59.2793 301
59.29942 336
59.31953 296
59.33964 323
59.35976 315
59.37987 332
59.39998 322
59.4201 331
59.44021 295
59.46033 305
59.48044 358
59.50055 307
59.52067 334
59.54078 335
59.56089 321
59.58101 326
59.60112 342
59.62124 356
59.64135 360
59.66146 383
59.68158 409
59.70169 436
59.7218 424
59.74192 474
59.76203 511
59.78215 593
59.80226 611
59.82237 684
59.84249 734
59.8626 793
59.88271 786
59.90283 770
59.92294 719
59.94305 625
59.96317 623
59.98328 564
60.0034 536
60.02351 584
60.04362 547
60.06374 504
60.08385 462
60.10396 451
60.12408 390
60.14419 382
60.16431 387
60.18442 367
60.20453 374
60.22465 345
60.24476 320
60.26487 373
60.28499 376
60.3051 314
60.32522 391
60.34533 360
60.36544 354
60.38556 350
60.40567 329
60.42578 334
60.4459 342
60.46601 329
60.48612 331
60.50624 368
60.52635 357
60.54647 347
60.56658 323
60.58669 335
60.60681 341
60.62692 362
60.64703 313
60.66715 361
60.68726 332
60.70738 367
60.72749 392
60.7476 376
60.76772 355
60.78783 343
60.80794 301
60.82806 346
60.84817 350
60.86828 363
60.8884 361
60.90851 324
60.92863 350
60.94874 358
60.96885 360
60.98897 367
61.00908 391
61.02919 414
61.04931 359
61.06942 396
61.08954 374
61.10965 415
61.12976 358
61.14988 431
61.16999 404
61.1901 427
61.21022 418
61.23033 414
61.25045 440
61.27056 454
61.29067 418
61.31079 459
61.3309 448
61.35101 468
61.37113 480
61.39124 458
61.41135 465
61.43147 475
61.45158 450
61.4717 446
61.49181 490
61.51192 458
61.53204 466
61.55215 503
61.57226 526
61.59238 494
61.61249 455
61.63261 480
61.65272 465
61.67283 464
61.69295 452
61.71306 470
61.73317 412
61.75329 457
61.7734 433
61.79352 423
61.81363 417
61.83374 422
61.85386 427
61.87397 443
61.89408 408
61.9142 412
61.93431 413
61.95442 403
61.97454 359
61.99465 381
62.01477 406
62.03488 419
62.05499 397
62.07511 342
62.09522 355
62.11533 421
62.13545 327
62.15556 373
62.17568 366
62.19579 356
62.2159 375
62.23602 363
62.25613 369
62.27624 389
62.29636 349
62.31647 350
62.33659 360
62.3567 345
62.37681 336
62.39693 342
62.41704 324
62.43715 339
62.45727 364
62.47738 328
62.49749 303
62.51761 321
62.53772 308
62.55784 350
62.57795 309
62.59806 313
62.61818 321
62.63829 330
62.6584 300
62.67852 298
62.69863 325
62.71875 331
62.73886 348
62.75897 301
62.77909 345
62.7992 333
62.81931 304
62.83943 315
62.85954 344
62.87965 307
62.89977 312
62.91988 321
62.94 320
62.96011 320
62.98022 305
63.00034 307
63.02045 337
63.04056 319
63.06068 305
63.08079 341
63.10091 312
63.12102 306
63.14113 329
63.16125 331
63.18136 319
63.20147 309
63.22159 287
63.2417 313
63.26182 311
63.28193 341
63.30204 327
63.32216 291
63.34227 274
63.36238 322
63.3825 311
63.40261 295
63.42272 320
63.44284 314
63.46295 309
63.48307 286
63.50318 306
63.52329 319
63.54341 336
63.56352 296
63.58363 313
63.60375 328
63.62386 303
63.64398 335
63.66409 325
63.6842 361
63.70432 330
63.72443 348
63.74454 337
63.76466 337
63.78477 344
63.80489 362
63.825 344
63.84511 351
63.86523 396
63.88534 387
63.90545 424
63.92557 386
63.94568 429
63.96579 383
63.98591 390
64.00602 357
64.02614 341
64.04625 357
64.06636 331
64.08648 311
64.10659 344
64.1267 338
64.14682 365
64.16693 327
64.18705 322
64.20716 312
64.22727 330
64.24739 308
64.2675 295
64.28761 304
64.30773 284
64.32784 323
64.34796 280
64.36807 277
64.38818 309
64.4083 303
64.42841 305
64.44852 285
64.46864 286
64.48875 319
64.50886 280
64.52898 290
64.54909 324
64.56921 317
64.58932 290
64.60943 314
64.62955 315
64.64966 310
64.66977 286
64.68989 314
64.71 300
64.73012 312
64.75023 330
64.77034 316
64.79046 315
64.81057 324
64.83068 310
64.8508 302
64.87091 297
64.89102 335
64.91114 287
64.93125 304
64.95137 284
64.97148 288
64.99159 308
65.01171 288
65.03182 297
65.05193 278
65.07205 289
65.09216 257
65.11228 304
65.13239 319
65.1525 285
65.17262 275
65.19273 297
65.21284 289
65.23296 286
65.25307 290
65.27319 283
65.2933 294
65.31341 274
65.33353 273
65.35364 313
65.37375 287
65.39387 313
65.41398 287
65.43409 293
65.45421 318
65.47432 315
65.49444 302
65.51455 327
65.53466 302
65.55478 301
65.57489 317
65.595 323
65.61512 299
65.63523 310
65.65535 287
65.67546 320
65.69557 286
65.71569 291
65.7358 290
65.75591 321
65.77603 303
65.79614 298
65.81626 297
65.83637 302
65.85648 299
65.8766 297
65.89671 287
65.91682 293
65.93694 283
65.95705 269
65.97716 290
65.99728 292
66.01739 304
66.03751 272
66.05762 282
66.07773 251
66.09785 279
66.11796 296
66.13807 309
66.15819 301
66.1783 295
66.19842 277
66.21853 265
66.23864 302
66.25876 266
66.27887 263
66.29898 263
66.3191 299
66.33921 302
66.35933 290
66.37944 285
66.39955 256
66.41967 293
66.43978 288
66.45989 261
66.48001 272
66.50012 297
66.52023 285
66.54035 261
66.56046 285
66.58058 291
66.60069 288
66.6208 276
66.64092 285
66.66103 274
66.68114 270
66.70126 263
66.72137 268
66.74149 297
66.7616 246
66.78171 300
66.80183 257
66.82194 287
66.84205 279
66.86217 278
66.88228 285
66.90239 259
66.92251 287
66.94262 286
66.96274 295
66.98285 275
67.00296 274
67.02308 311
67.04319 277
67.0633 296
67.08342 281
67.10353 273
67.12365 283
67.14376 282
67.16387 263
67.18399 292
67.2041 288
67.22421 281
67.24433 282
67.26444 286
67.28456 280
67.30467 303
67.32478 300
67.3449 300
67.36501 322
67.38512 305
67.40524 339
67.42535 333
67.44546 336
67.46558 360
67.48569 378
67.50581 355
67.52592 373
67.54603 431
67.56615 446
67.58626 530
67.60637 493
67.62649 518
67.6466 578
67.66672 547
67.68683 531
67.70694 509
67.72706 494
67.74717 438
67.76728 466
67.7874 485
67.80751 474
67.82763 491
67.84774 465
67.86785 466
67.88797 448
67.90808 501
67.92819 489
67.94831 522
67.96842 499
67.98853 582
68.00865 600
68.02876 612
68.04888 657
68.06899 642
68.0891 639
68.10922 641
68.12933 640
68.14944 552
68.16956 593
68.18967 633
68.20979 608
68.2299 664
68.25001 614
68.27013 577
68.29024 571
68.31035 461
68.33047 456
68.35058 410
68.3707 410
68.39081 418
68.41092 394
68.43104 441
68.45115 370
68.47126 359
68.49138 363
68.51149 341
68.5316 302
68.55172 325
68.57183 316
68.59195 301
68.61206 337
68.63217 295
68.65229 294
68.6724 314
68.69251 290
68.71263 283
68.73274 297
68.75286 308
68.77297 300
68.79308 293
68.8132 285
68.83331 298
68.85342 300
68.87354 267
68.89365 292
68.91376 305
68.93388 272
68.95399 277
68.97411 290
68.99422 275
69.01433 292
69.03445 286
69.05456 270
69.07467 305
69.09479 310
69.1149 274
69.13502 301
69.15513 313
69.17524 274
69.19536 309
69.21547 302
69.23558 300
69.2557 286
69.27581 301
69.29593 279
69.31604 335
69.33615 266
69.35627 285
69.37638 291
69.39649 299
69.41661 285
69.43672 329
69.45683 282
69.47695 308
69.49706 325
69.51718 279
69.53729 295
69.5574 289
69.57752 266
69.59763 273
69.61774 314
69.63786 275
69.65797 299
69.67809 247
69.6982 251
69.71831 283
69.73843 284
69.75854 277
69.77865 308
69.79877 276
69.81888 304
69.839 312
69.85911 288
69.87922 288
69.89934 275
69.91945 331
69.93956 333
69.95968 306
69.97979 287
69.9999 308
70.02002 290
70.04013 273
70.06025 284
70.08036 275
70.10047 258
70.12059 279
70.1407 307
70.16081 281
70.18093 282
70.20104 256
70.22116 270
70.24127 295
70.26138 316
70.2815 299
70.30161 274
70.32172 270
70.34184 295
70.36195 279
70.38207 274
70.40218 280
70.42229 278
70.44241 290
70.46252 287
70.48263 308
70.50275 273
70.52286 266
70.54297 308
70.56309 279
70.5832 270
70.60332 264
70.62343 288
70.64354 288
70.66366 284
70.68377 280
70.70388 271
70.724 288
70.74411 263
70.76423 269
70.78434 262
70.80445 286
70.82457 258
70.84468 276
70.86479 306
70.88491 270
70.90502 255
70.92513 287
70.94525 271
70.96536 281
70.98548 303
71.00559 308
71.0257 295
71.04582 277
71.06593 277
71.08604 290
71.10616 318
71.12627 289
71.14639 250
71.1665 298
71.18661 283
71.20673 290
71.22684 301
71.24695 273
71.26707 286
71.28718 254
71.3073 281
71.32741 310
71.34752 270
71.36764 291
71.38775 297
71.40786 295
71.42798 269
71.44809 277
71.4682 294
71.48832 299
71.50843 284
71.52855 298
71.54866 279
71.56877 299
71.58889 268
71.609 288
71.62911 280
71.64923 299
71.66934 310
71.68946 268
71.70957 312
71.72968 276
71.7498 292
71.76991 286
71.79002 283
71.81014 290
71.83025 283
71.85037 294
71.87048 299
71.89059 285
71.91071 296
71.93082 311
71.95093 312
71.97105 284
71.99116 295
72.01127 319
72.03139 294
72.0515 308
72.07162 282
72.09173 287
72.11184 310
72.13196 291
72.15207 294
72.17218 293
72.1923 300
72.21241 313
72.23253 291
72.25264 313
72.27275 310
72.29287 276
72.31298 313
72.33309 327
72.35321 334
72.37332 303
72.39344 319
72.41355 315
72.43366 298
72.45378 311
72.47389 319
72.494 344
72.51412 315
72.53423 320
72.55434 314
72.57446 313
72.59457 337
72.61469 351
72.6348 326
72.65491 348
72.67503 340
72.69514 323
72.71525 296
72.73537 342
72.75548 309
72.7756 309
72.79571 333
72.81582 326
72.83594 309
72.85605 305
72.87616 346
72.89628 354
72.91639 324
72.9365 333
72.95662 341
72.97673 325
72.99685 337
73.01696 330
73.03707 328
73.05719 284
73.0773 310
73.09741 334
73.11753 333
73.13764 321
73.15776 363
73.17787 310
73.19798 358
73.2181 348
73.23821 329
73.25832 350
73.27844 350
73.29855 406
73.31867 370
73.33878 407
73.35889 402
73.37901 393
73.39912 387
73.41923 368
73.43935 385
73.45946 382
73.47957 337
73.49969 356
73.5198 356
73.53992 372
73.56003 345
73.58014 340
73.60026 343
73.62037 343
73.64048 369
73.6606 332
73.68071 301
73.70083 312
73.72094 322
73.74105 319
73.76117 308
73.78128 284
73.80139 302
73.82151 312
73.84162 323
73.86174 308
73.88185 307
73.90196 297
73.92208 289
73.94219 304
73.9623 312
73.98242 291
74.00253 253
74.02264 284
74.04276 311
74.06287 292
74.08299 290
74.1031 293
74.12321 284
74.14333 296
74.16344 285
74.18355 268
74.20367 279
74.22378 290
74.2439 283
74.26401 274
74.28412 298
74.30424 295
74.32435 279
74.34446 279
74.36458 254
74.38469 261
74.40481 276
74.42492 304
74.44503 292
74.46515 256
74.48526 333
74.50537 305
74.52549 299
74.5456 258
74.56571 287
74.58583 258
74.60594 310
74.62606 286
74.64617 276
74.66628 279
74.6864 283
74.70651 280
74.72662 293
74.74674 284
74.76685 289
74.78697 284
74.80708 317
74.82719 276
74.84731 251
74.86742 263
74.88753 292
74.90765 308
74.92776 295
74.94787 282
74.96799 302
74.9881 315
75.00822 291
