3.00117 20670
3.02128 19969
3.0414 19548
3.06151 18911
3.08162 18759
3.10174 17981
3.12185 17643
3.14197 17289
3.16208 16217
3.18219 15892
3.20231 15961
3.22242 15172
3.24253 14986
3.26265 14243
3.28276 13795
3.30288 13817
3.32299 13066
3.3431 12879
3.36322 11996
3.38333 11933
3.40344 11570
3.42356 11062
3.44367 10832
3.46379 10387
3.4839 9992
3.50401 9691
3.52413 9263
3.54424 9068
3.56435 8711
3.58447 8506
3.60458 8117
3.62469 7792
3.64481 7742
3.66492 7113
3.68504 7021
3.70515 6706
3.72526 6377
3.74538 6454
3.76549 5759
3.7856 5757
3.80572 5678
3.82583 5114
3.84595 5217
3.86606 4849
3.88617 4711
3.90629 4444
3.9264 4351
3.94651 4419
3.96663 3797
3.98674 3848
4.00686 3713
4.02697 3395
4.04708 3505
4.0672 3113
4.08731 2993
4.10742 3006
4.12754 2705
4.14765 2857
4.16776 2506
4.18788 2535
4.20799 2428
4.22811 2352
4.24822 2311
4.26833 2033
4.28845 2096
4.30856 1953
4.32867 1912
4.34879 1930
4.3689 1809
4.38902 1737
4.40913 1779
4.42924 1742
4.44936 1714
4.46947 1648
4.48958 1674
4.5097 1579
4.52981 1531
4.54992 1490
4.57004 1411
4.59015 1292
4.61027 1403
4.63038 1366
4.65049 1348
4.67061 1320
4.69072 1234
4.71083 1227
4.73095 1215
4.75106 1203
4.77118 1113
4.79129 1133
4.8114 1118
4.83152 1158
4.85163 1102
4.87174 965
4.89186 1008
4.91197 1009
4.93209 1013
4.9522 976
4.97231 936
4.99243 886
5.01254 955
5.03265 908
5.05277 873
5.07288 835
5.09299 800
5.11311 822
5.13322 884
5.15334 814
5.17345 752
5.19356 814
5.21368 761
5.23379 733
5.2539 729
5.27402 711
5.29413 687
5.31425 660
5.33436 720
5.35447 613
5.37459 668
5.3947 627
5.41481 648
5.43493 642
5.45504 580
5.47516 609
5.49527 570
5.51538 604
5.5355 603
5.55561 566
5.57572 543
5.59584 505
5.61595 501
5.63606 571
5.65618 465
5.67629 499
5.69641 452
5.71652 508
5.73663 529
5.75675 492
5.77686 493
5.79697 494
5.81709 476
5.8372 475
5.85732 475
5.87743 406
5.89754 410
5.91766 446
5.93777 438
5.95788 460
5.978 426
5.99811 416
6.01823 406
6.03834 432
6.05845 426
6.07857 347
6.09868 397
6.11879 378
6.13891 392
6.15902 382
6.17913 433
6.19925 384
6.21936 403
6.23948 377
6.25959 356
6.2797 398
6.29982 380
6.31993 374
6.34004 419
6.36016 346
6.38027 355
6.40039 393
6.4205 361
6.44061 361
6.46073 381
6.48084 307
6.50095 375
6.52107 360
6.54118 345
6.56129 370
6.58141 375
6.60152 407
6.62164 346
6.64175 381
6.66186 345
6.68198 428
6.70209 393
6.7222 344
6.74232 380
6.76243 351
6.78255 357
6.80266 372
6.82277 361
6.84289 382
6.863 379
6.88311 375
6.90323 414
6.92334 368
6.94346 363
6.96357 385
6.98368 409
7.0038 362
7.02391 407
7.04402 412
7.06414 377
7.08425 386
7.10436 425
7.12448 400
7.14459 411
7.16471 404
7.18482 438
7.20493 400
7.22505 437
7.24516 450
7.26527 441
7.28539 379
7.3055 467
7.32562 465
7.34573 433
7.36584 463
7.38596 419
7.40607 456
7.42618 462
7.4463 450
7.46641 448
7.48653 466
7.50664 441
7.52675 425
7.54687 437
7.56698 471
7.58709 452
7.60721 459
7.62732 408
7.64743 432
7.66755 452
7.68766 435
7.70778 418
7.72789 466
7.748 420
7.76812 418
7.78823 485
7.80834 459
7.82846 558
7.84857 496
7.86869 510
7.8888 519
7.90891 523
7.92903 503
7.94914 549
7.96925 634
7.98937 599
8.00948 585
8.0296 656
8.04971 713
8.06982 699
8.08994 736
8.11005 730
8.13016 833
8.15028 808
8.17039 862
8.1905 922
8.21062 950
8.23073 1034
8.25085 1075
8.27096 1124
8.29107 1137
8.31119 1151
8.3313 1247
8.35141 1188
8.37153 1178
8.39164 1352
8.41176 1288
8.43187 1239
8.45198 1304
8.4721 1226
8.49221 1273
8.51232 1179
8.53244 1164
8.55255 1122
8.57266 1107
8.59278 1007
8.61289 944
8.63301 1001
8.65312 925
8.67323 886
8.69335 815
8.71346 705
8.73357 700
8.75369 665
8.7738 603
8.79392 608
8.81403 576
8.83414 551
8.85426 536
8.87437 477
8.89448 451
8.9146 479
8.93471 433
8.95483 449
8.97494 419
8.99505 373
9.01517 377
9.03528 397
9.05539 408
9.07551 394
9.09562 357
9.11573 371
9.13585 329
9.15596 344
9.17608 363
9.19619 331
9.2163 387
9.23642 345
9.25653 349
9.27664 307
9.29676 345
9.31687 319
9.33699 307
9.3571 329
9.37721 290
9.39733 322
9.41744 316
9.43755 296
9.45767 302
9.47778 260
9.4979 277
9.51801 275
9.53812 285
9.55824 286
9.57835 262
9.59846 301
9.61858 280
9.63869 250
9.6588 258
9.67892 300
9.69903 265
9.71915 286
9.73926 279
9.75937 269
9.77949 266
9.7996 257
9.81971 278
9.83983 283
9.85994 285
9.88006 250
9.90017 268
9.92028 266
9.9404 269
9.96051 274
9.98062 245
10.00074 271
10.02085 294
10.04097 250
10.06108 267
10.08119 282
10.10131 263
10.12142 234
10.14153 274
10.16165 296
10.18176 252
10.20187 263
10.22199 251
10.2421 242
10.26222 234
10.28233 264
10.30244 245
10.32256 232
10.34267 237
10.36278 234
10.3829 224
10.40301 227
10.42313 240
10.44324 268
10.46335 229
10.48347 277
10.50358 235
10.52369 243
10.54381 252
10.56392 262
10.58403 244
10.60415 242
10.62426 251
10.64438 261
10.66449 232
10.6846 228
10.70472 249
10.72483 226
10.74494 275
10.76506 250
10.78517 267
10.80529 260
10.8254 240
10.84551 311
10.86563 260
10.88574 262
10.90585 241
10.92597 245
10.94608 239
10.9662 273
10.98631 232
11.00642 270
11.02654 241
11.04665 255
11.06676 277
11.08688 232
11.10699 268
11.1271 217
11.14722 249
11.16733 247
11.18745 250
11.20756 228
11.22767 255
11.24779 259
11.2679 266
11.28801 245
11.30813 249
11.32824 254
11.34836 238
11.36847 249
11.38858 216
11.4087 234
11.42881 253
11.44892 249
11.46904 258
11.48915 249
11.50927 244
11.52938 223
11.54949 237
11.56961 252
11.58972 250
11.60983 216
11.62995 240
11.65006 255
11.67017 262
11.69029 245
11.7104 267
11.73052 254
11.75063 241
11.77074 256
11.79086 254
11.81097 243
11.83108 239
11.8512 249
11.87131 263
11.89143 260
11.91154 270
11.93165 233
11.95177 227
11.97188 240
11.99199 239
12.01211 228
12.03222 255
12.05234 267
12.07245 235
12.09256 226
12.11268 241
12.13279 263
12.1529 226
12.17302 270
12.19313 251
12.21324 244
12.23336 239
12.25347 241
12.27359 207
12.2937 246
12.31381 245
12.33393 241
12.35404 225
12.37415 234
12.39427 215
12.41438 220
12.4345 223
12.45461 227
12.47472 240
12.49484 227
12.51495 233
12.53506 238
12.55518 228
12.57529 241
12.5954 222
12.61552 231
12.63563 241
12.65575 250
12.67586 241
12.69597 223
12.71609 232
12.7362 256
12.75631 214
12.77643 226
12.79654 199
12.81666 245
12.83677 251
12.85688 248
12.877 249
12.89711 223
12.91722 256
12.93734 232
12.95745 246
12.97757 221
12.99768 232
13.01779 234
13.03791 194
13.05802 240
13.07813 244
13.09825 258
13.11836 230
13.13847 245
13.15859 237
13.1787 241
13.19882 251
13.21893 227
13.23904 249
13.25916 229
13.27927 248
13.29938 257
13.3195 260
13.33961 247
13.35973 262
13.37984 242
13.39995 270
13.42007 250
13.44018 278
13.46029 258
13.48041 253
13.50052 287
13.52064 267
13.54075 294
13.56086 302
13.58098 304
13.60109 308
13.6212 286
13.64132 333
13.66143 331
13.68154 314
13.70166 298
13.72177 311
13.74189 276
13.762 314
13.78211 312
13.80223 321
13.82234 309
13.84245 260
13.86257 288
13.88268 312
13.9028 287
13.92291 317
13.94302 290
13.96314 305
13.98325 276
14.00336 277
14.02348 292
14.04359 265
14.06371 300
14.08382 260
14.10393 232
14.12405 265
14.14416 242
14.16427 285
14.18439 257
14.2045 247
14.22461 252
14.24473 258
14.26484 226
14.28496 251
14.30507 220
14.32518 235
14.3453 231
14.36541 219
14.38552 243
14.40564 230
14.42575 235
14.44587 244
14.46598 235
14.48609 214
14.50621 210
14.52632 266
14.54643 235
14.56655 252
14.58666 225
14.60677 224
14.62689 212
14.647 199
14.66712 213
14.68723 202
14.70734 229
14.72746 206
14.74757 213
14.76768 201
14.7878 230
14.80791 214
14.82803 233
14.84814 229
14.86825 244
14.88837 220
14.90848 214
14.92859 211
14.94871 214
14.96882 231
14.98894 235
15.00905 220
15.02916 237
15.04928 256
15.06939 248
15.0895 214
15.10962 216
15.12973 233
15.14984 233
15.16996 220
15.19007 198
15.21019 225
15.2303 233
15.25041 231
15.27053 217
15.29064 209
15.31075 234
15.33087 220
15.35098 203
15.3711 221
15.39121 237
15.41132 216
15.43144 218
15.45155 257
15.47166 224
15.49178 193
15.51189 191
15.53201 218
15.55212 224
15.57223 207
15.59235 248
15.61246 209
15.63257 201
15.65269 241
15.6728 226
15.69291 209
15.71303 223
15.73314 210
15.75326 241
15.77337 248
15.79348 233
15.8136 232
15.83371 217
15.85382 242
15.87394 216
15.89405 229
15.91417 224
15.93428 241
15.95439 187
15.97451 257
15.99462 232
16.01473 251
16.03485 229
16.05496 255
16.07508 242
16.09519 227
16.1153 245
16.13542 264
16.15553 270
16.17564 237
16.19576 257
16.21587 262
16.23598 293
16.2561 261
16.27621 277
16.29633 272
16.31644 296
16.33655 285
16.35667 277
16.37678 307
16.39689 276
16.41701 306
16.43712 269
16.45724 288
16.47735 265
16.49746 281
16.51758 256
16.53769 267
16.5578 292
16.57792 257
16.59803 231
16.61814 248
16.63826 277
16.65837 263
16.67849 256
16.6986 226
16.71871 237
16.73883 227
16.75894 220
16.77905 219
16.79917 215
16.81928 227
16.8394 243
16.85951 214
16.87962 244
16.89974 208
16.91985 208
16.93996 219
16.96008 218
16.98019 228
17.00031 214
17.02042 242
17.04053 253
17.06065 251
17.08076 228
17.10087 213
17.12099 219
17.1411 217
17.16121 195
17.18133 189
17.20144 201
17.22156 222
17.24167 253
17.26178 234
17.2819 192
17.30201 214
17.32212 233
17.34224 232
17.36235 216
17.38247 231
17.40258 217
17.42269 255
17.44281 213
17.46292 232
17.48303 220
17.50315 258
17.52326 239
17.54338 226
17.56349 204
17.5836 204
17.60372 205
17.62383 251
17.64394 252
17.66406 230
17.68417 251
17.70428 234
17.7244 239
17.74451 227
17.76463 225
17.78474 235
17.80485 220
17.82497 202
17.84508 219
17.86519 210
17.88531 221
17.90542 206
17.92554 208
17.94565 211
17.96576 216
17.98588 222
18.00599 207
18.0261 214
18.04622 196
18.06633 229
18.08645 221
18.10656 224
18.12667 209
18.14679 192
18.1669 236
18.18701 227
18.20713 233
18.22724 218
18.24735 201
18.26747 211
18.28758 196
18.3077 195
18.32781 207
18.34792 225
18.36804 205
18.38815 212
18.40826 196
18.42838 210
18.44849 219
18.46861 224
18.48872 222
18.50883 189
18.52895 242
18.54906 212
18.56917 215
18.58929 201
18.6094 228
18.62951 215
18.64963 218
18.66974 226
18.68986 214
18.70997 226
18.73008 231
18.7502 225
18.77031 223
18.79042 236
18.81054 241
18.83065 231
18.85077 232
18.87088 237
18.89099 226
18.91111 217
18.93122 229
18.95133 240
18.97145 239
18.99156 227
19.01168 215
19.03179 246
19.0519 254
19.07202 244
19.09213 244
19.11224 231
19.13236 276
19.15247 276
19.17258 258
19.1927 258
19.21281 272
19.23293 250
19.25304 250
19.27315 235
19.29327 260
19.31338 272
19.33349 262
19.35361 303
19.37372 303
19.39384 307
19.41395 298
19.43406 332
19.45418 327
19.47429 325
19.4944 325
19.51452 356
19.53463 373
19.55475 397
19.57486 374
19.59497 398
19.61509 402
19.6352 400
19.65531 404
19.67543 417
19.69554 388
19.71565 417
19.73577 463
19.75588 476
19.776 477
19.79611 453
19.81622 469
19.83634 492
19.85645 468
19.87656 436
19.89668 473
19.91679 402
19.93691 450
19.95702 436
19.97713 412
19.99725 397
20.01736 394
20.03747 392
20.05759 418
20.0777 409
20.09782 398
20.11793 390
20.13804 364
20.15816 418
20.17827 421
20.19838 414
20.2185 392
20.23861 411
20.25872 366
20.27884 368
20.29895 370
20.31907 398
20.33918 405
20.35929 412
20.37941 412
20.39952 426
20.41963 436
20.43975 403
20.45986 444
20.47998 480
20.50009 526
20.5202 447
20.54032 506
20.56043 539
20.58054 622
20.60066 664
20.62077 740
20.64088 907
20.661 1058
20.68111 1359
20.70123 1790
20.72134 2362
20.74145 3053
20.76157 3921
20.78168 4733
20.80179 5290
20.82191 5586
20.84202 5456
20.86214 4868
20.88225 3960
20.90236 3034
20.92248 2365
20.94259 1609
20.9627 1131
20.98282 945
21.00293 745
21.02305 643
21.04316 648
21.06327 524
21.08339 505
21.1035 491
21.12361 460
21.14373 404
21.16384 392
21.18395 433
21.20407 390
21.22418 425
21.2443 385
21.26441 403
21.28452 417
21.30464 400
21.32475 435
21.34486 432
21.36498 408
21.38509 382
21.40521 386
21.42532 384
21.44543 387
21.46555 364
21.48566 397
21.50577 374
21.52589 357
21.546 355
21.56612 356
21.58623 383
21.60634 354
21.62646 351
21.64657 323
21.66668 340
21.6868 290
21.70691 323
21.72702 324
21.74714 357
21.76725 316
21.78737 272
21.80748 289
21.82759 324
21.84771 307
21.86782 298
21.88793 262
21.90805 308
21.92816 317
21.94828 320
21.96839 295
21.9885 338
22.00862 319
22.02873 312
22.04884 279
22.06896 283
22.08907 310
22.10919 306
22.1293 319
22.14941 318
22.16953 315
22.18964 278
22.20975 324
22.22987 310
22.24998 290
22.27009 333
22.29021 297
22.31032 286
22.33044 326
22.35055 309
22.37066 272
22.39078 302
22.41089 301
22.431 307
22.45112 268
22.47123 262
22.49135 300
22.51146 293
22.53157 264
22.55169 294
22.5718 304
22.59191 293
22.61203 307
22.63214 278
22.65225 285
22.67237 290
22.69248 301
22.7126 293
22.73271 284
22.75282 242
22.77294 282
22.79305 276
22.81316 298
22.83328 237
22.85339 300
22.87351 296
22.89362 267
22.91373 260
22.93385 285
22.95396 267
22.97407 283
22.99419 262
23.0143 304
23.03442 267
23.05453 282
23.07464 278
23.09476 283
23.11487 282
23.13498 284
23.1551 277
23.17521 276
23.19532 278
23.21544 299
23.23555 310
23.25567 300
23.27578 280
23.29589 303
23.31601 294
23.33612 276
23.35623 291
23.37635 309
23.39646 307
23.41658 288
23.43669 326
23.4568 317
23.47692 303
23.49703 299
23.51714 295
23.53726 302
23.55737 289
23.57749 329
23.5976 274
23.61771 295
23.63783 337
23.65794 337
23.67805 312
23.69817 283
23.71828 307
23.73839 296
23.75851 300
23.77862 304
23.79874 326
23.81885 314
23.83896 312
23.85908 338
23.87919 316
23.8993 354
23.91942 350
23.93953 376
23.95965 378
23.97976 369
23.99987 374
24.01999 368
24.0401 322
24.06021 334
24.08033 312
24.10044 304
24.12056 289
24.14067 297
24.16078 276
24.1809 304
24.20101 312
24.22112 344
24.24124 290
24.26135 293
24.28146 320
24.30158 294
24.32169 311
24.34181 313
24.36192 309
24.38203 267
24.40215 297
24.42226 286
24.44237 291
24.46249 317
24.4826 272
24.50272 287
24.52283 299
24.54294 313
24.56306 276
24.58317 294
24.60328 276
24.6234 290
24.64351 276
24.66362 282
24.68374 286
24.70385 267
24.72397 285
24.74408 259
24.76419 279
24.78431 265
24.80442 258
24.82453 246
24.84465 260
24.86476 275
24.88488 268
24.90499 261
24.9251 269
24.94522 259
24.96533 302
24.98544 258
25.00556 262
25.02567 309
25.04579 259
25.0659 299
25.08601 279
25.10613 289
25.12624 311
25.14635 261
25.16647 300
25.18658 296
25.20669 294
25.22681 283
25.24692 276
25.26704 293
25.28715 279
25.30726 264
25.32738 300
25.34749 298
25.3676 335
25.38772 307
25.40783 316
25.42795 347
25.44806 338
25.46817 343
25.48829 376
25.5084 388
25.52851 345
25.54863 396
25.56874 367
25.58886 399
25.60897 448
25.62908 436
25.6492 421
25.66931 429
25.68942 457
25.70954 456
25.72965 493
25.74976 407
25.76988 468
25.78999 455
25.81011 469
25.83022 502
25.85033 508
25.87045 468
25.89056 500
25.91067 506
25.93079 517
25.9509 516
25.97102 506
25.99113 553
26.01124 587
26.03136 572
26.05147 528
26.07158 562
26.0917 618
26.11181 620
26.13193 714
26.15204 766
26.17215 798
26.19227 848
26.21238 949
26.23249 998
26.25261 1101
26.27272 1209
26.29283 1200
26.31295 1393
26.33306 1613
26.35318 1807
26.37329 2184
26.3934 2843
26.41352 3645
26.43363 4595
26.45374 6047
26.47386 8091
26.49397 10422
26.51409 13705
26.5342 17278
26.55431 20748
26.57443 23674
26.59454 25214
26.61465 24615
26.63477 22051
26.65488 18411
26.67499 14411
26.69511 10936
26.71522 7761
26.73534 5384
26.75545 3588
26.77556 2619
26.79568 1931
26.81579 1520
26.8359 1392
26.85602 1209
26.87613 1106
26.89625 1023
26.91636 1001
26.93647 856
26.95659 927
26.9767 803
26.99681 783
27.01693 766
27.03704 680
27.05716 681
27.07727 673
27.09738 690
27.1175 665
27.13761 681
27.15772 607
27.17784 597
27.19795 650
27.21806 576
27.23818 595
27.25829 617
27.27841 577
27.29852 591
27.31863 657
27.33875 654
27.35886 664
27.37897 664
27.39909 729
27.4192 700
27.43932 706
27.45943 704
27.47954 691
27.49966 681
27.51977 605
27.53988 663
27.56 583
27.58011 579
27.60023 579
27.62034 619
27.64045 559
27.66057 587
27.68068 532
27.70079 556
27.72091 534
27.74102 555
27.76113 547
27.78125 515
27.80136 527
27.82148 510
27.84159 513
27.8617 484
27.88182 529
27.90193 488
27.92204 494
27.94216 499
27.96227 491
27.98239 521
28.0025 474
28.02261 454
28.04273 458
28.06284 479
28.08295 397
28.10307 403
28.12318 410
28.1433 452
28.16341 450
28.18352 414
28.20364 364
28.22375 409
28.24386 371
28.26398 385
28.28409 324
28.3042 358
28.32432 404
28.34443 377
28.36455 400
28.38466 373
28.40477 367
28.42489 410
28.445 331
28.46511 384
28.48523 385
28.50534 368
28.52546 402
28.54557 360
28.56568 392
28.5858 369
28.60591 372
28.62602 379
28.64614 352
28.66625 393
28.68636 349
28.70648 383
28.72659 352
28.74671 371
28.76682 328
28.78693 381
28.80705 358
28.82716 340
28.84727 354
28.86739 358
28.8875 338
28.90762 326
28.92773 328
28.94784 344
28.96796 327
28.98807 333
29.00818 317
29.0283 289
29.04841 345
29.06853 392
29.08864 341
29.10875 307
29.12887 314
29.14898 306
29.16909 339
29.18921 302
29.20932 368
29.22943 344
29.24955 314
29.26966 336
29.28978 337
29.30989 343
29.33 354
29.35012 374
29.37023 404
29.39034 382
29.41046 447
29.43057 391
29.45069 399
29.4708 422
29.49091 411
29.51103 387
29.53114 376
29.55125 411
29.57137 358
29.59148 336
29.6116 361
29.63171 331
29.65182 311
29.67194 329
29.69205 333
29.71216 306
29.73228 302
29.75239 299
29.7725 302
29.79262 328
29.81273 309
29.83285 309
29.85296 323
29.87307 329
29.89319 339
29.9133 298
29.93341 304
29.95353 301
29.97364 285
29.99376 282
30.01387 305
30.03398 309
30.0541 271
30.07421 292
30.09432 314
30.11444 278
30.13455 308
30.15467 328
30.17478 299
30.19489 264
30.21501 317
30.23512 305
30.25523 301
30.27535 274
30.29546 296
30.31557 295
30.33569 294
30.3558 285
30.37592 279
30.39603 321
30.41614 271
30.43626 266
30.45637 286
30.47648 267
30.4966 344
30.51671 289
30.53683 312
30.55694 275
30.57705 296
30.59717 270
30.61728 336
30.63739 300
30.65751 326
30.67762 316
30.69773 321
30.71785 338
30.73796 319
30.75808 355
30.77819 293
30.7983 334
30.81842 348
30.83853 274
30.85864 350
30.87876 270
30.89887 263
30.91899 295
30.9391 241
30.95921 277
30.97933 270
30.99944 249
31.01955 253
31.03967 263
31.05978 241
31.0799 229
31.10001 265
31.12012 270
31.14024 278
31.16035 258
31.18046 238
31.20058 248
31.22069 224
31.2408 239
31.26092 237
31.28103 242
31.30115 230
31.32126 236
31.34137 239
31.36149 243
31.3816 227
31.40171 266
31.42183 248
31.44194 254
31.46206 217
31.48217 230
31.50228 240
31.5224 236
31.54251 257
31.56262 244
31.58274 253
31.60285 241
31.62297 226
31.64308 254
31.66319 223
31.68331 222
31.70342 253
31.72353 219
31.74365 228
31.76376 242
31.78387 217
31.80399 247
31.8241 222
31.84422 212
31.86433 235
31.88444 235
31.90456 197
31.92467 252
31.94478 222
31.9649 193
31.98501 228
32.00513 223
32.02524 240
32.04535 231
32.06547 190
32.08558 239
32.10569 256
32.12581 269
32.14592 265
32.16604 257
32.18615 219
32.20626 229
32.22638 265
32.24649 256
32.2666 247
32.28672 260
32.30683 250
32.32694 263
32.34706 258
32.36717 248
32.38729 255
32.4074 226
32.42751 234
32.44763 234
32.46774 241
32.48785 225
32.50797 262
32.52808 246
32.5482 240
32.56831 237
32.58842 225
32.60854 243
32.62865 215
32.64876 245
32.66888 237
32.68899 219
32.7091 244
32.72922 244
32.74933 211
32.76945 226
32.78956 226
32.80967 209
32.82979 241
32.8499 255
32.87001 226
32.89013 225
32.91024 266
32.93036 255
32.95047 261
32.97058 254
32.9907 262
33.01081 227
33.03092 228
33.05104 241
33.07115 266
33.09127 242
33.11138 239
33.13149 247
33.15161 250
33.17172 280
33.19183 258
33.21195 245
33.23206 241
33.25217 266
33.27229 273
33.2924 237
33.31252 259
33.33263 266
33.35274 231
33.37286 267
33.39297 260
33.41308 245
33.4332 265
33.45331 262
33.47343 281
33.49354 257
33.51365 272
33.53377 222
33.55388 265
33.57399 255
33.59411 231
33.61422 241
33.63434 244
33.65445 275
33.67456 245
33.69468 238
33.71479 250
33.7349 279
33.75502 284
33.77513 259
33.79524 275
33.81536 270
33.83547 250
33.85559 294
33.8757 282
33.89581 290
33.91593 266
33.93604 280
33.95615 327
33.97627 272
33.99638 304
34.0165 272
34.03661 287
34.05672 320
34.07684 370
34.09695 315
34.11706 385
34.13718 365
34.15729 367
34.17741 373
34.19752 347
34.21763 356
34.23775 346
34.25786 385
34.27797 385
34.29809 398
34.3182 351
34.33831 386
34.35843 413
34.37854 429
34.39866 381
34.41877 408
34.43888 386
34.459 403
34.47911 391
34.49922 363
34.51934 399
34.53945 376
34.55957 401
34.57968 405
34.59979 345
34.61991 395
34.64002 373
34.66013 387
34.68025 390
34.70036 374
34.72047 385
34.74059 390
34.7607 346
34.78082 401
34.80093 376
34.82104 388
34.84116 407
34.86127 386
34.88138 364
34.9015 394
34.92161 399
34.94173 411
34.96184 408
34.98195 414
35.00207 422
35.02218 385
35.04229 416
35.06241 371
35.08252 400
35.10264 428
35.12275 423
35.14286 419
35.16298 430
35.18309 394
35.2032 430
35.22332 435
35.24343 414
35.26354 404
35.28366 384
35.30377 426
35.32389 393
35.344 441
35.36411 389
35.38423 379
35.40434 382
35.42445 407
35.44457 357
35.46468 424
35.4848 394
35.50491 433
35.52502 372
35.54514 374
35.56525 406
35.58536 400
35.60548 387
35.62559 386
35.64571 348
35.66582 350
35.68593 395
35.70605 385
35.72616 355
35.74627 370
35.76639 353
35.7865 368
35.80661 366
35.82673 379
35.84684 344
35.86696 327
35.88707 344
35.90718 332
35.9273 311
35.94741 344
35.96752 313
35.98764 341
36.00775 330
36.02787 346
36.04798 332
36.06809 371
36.08821 345
36.10832 276
36.12843 341
36.14855 333
36.16866 363
36.18878 337
36.20889 386
36.229 424
36.24912 409
36.26923 449
36.28934 511
36.30946 603
36.32957 617
36.34968 724
36.3698 915
36.38991 1020
36.41003 1232
36.43014 1382
36.45025 1565
36.47037 1753
36.49048 1803
36.51059 1768
36.53071 1700
36.55082 1440
36.57094 1326
36.59105 1100
36.61116 944
36.63128 812
36.65139 622
36.6715 476
36.69162 418
36.71173 383
36.73184 332
36.75196 320
36.77207 325
36.79219 286
36.8123 293
36.83241 248
36.85253 270
36.87264 287
36.89275 282
36.91287 260
36.93298 242
36.9531 290
36.97321 276
36.99332 299
37.01344 295
37.03355 252
37.05366 280
37.07378 275
37.09389 253
37.11401 220
37.13412 279
37.15423 253
37.17435 275
37.19446 285
37.21457 215
37.23469 238
37.2548 235
37.27491 243
37.29503 208
37.31514 258
37.33526 249
37.35537 276
37.37548 231
37.3956 251
37.41571 231
37.43582 247
37.45594 244
37.47605 243
37.49617 244
37.51628 241
37.53639 208
37.55651 258
37.57662 235
37.59673 239
37.61685 239
37.63696 213
37.65708 254
37.67719 238
37.6973 237
37.71742 254
37.73753 246
37.75764 230
37.77776 228
37.79787 240
37.81798 244
37.8381 238
37.85821 239
37.87833 222
37.89844 235
37.91855 241
37.93867 218
37.95878 253
37.97889 233
37.99901 234
38.01912 234
38.03924 238
38.05935 225
38.07946 264
38.09958 220
38.11969 257
38.1398 250
38.15992 252
38.18003 236
38.20015 235
38.22026 215
38.24037 240
38.26049 238
38.2806 251
38.30071 226
38.32083 211
38.34094 256
38.36105 269
38.38117 233
38.40128 234
38.4214 220
38.44151 253
38.46162 231
38.48174 249
38.50185 252
38.52196 259
38.54208 246
38.56219 247
38.58231 246
38.60242 245
38.62253 222
38.64265 229
38.66276 251
38.68287 226
38.70299 229
38.7231 249
38.74321 246
38.76333 263
38.78344 280
38.80356 263
38.82367 254
38.84378 285
38.8639 250
38.88401 247
38.90412 264
38.92424 242
38.94435 256
38.96447 257
38.98458 242
39.00469 296
39.02481 279
39.04492 289
39.06503 307
39.08515 336
39.10526 301
39.12538 342
39.14549 347
39.1656 378
39.18572 412
39.20583 438
39.22594 503
39.24606 633
39.26617 689
39.28628 774
39.3064 892
39.32651 1069
39.34663 1247
39.36674 1410
39.38685 1711
39.40697 1737
39.42708 1657
39.44719 1557
39.46731 1373
39.48742 1234
39.50754 1122
39.52765 997
39.54776 800
39.56788 680
39.58799 558
39.6081 475
39.62822 370
39.64833 405
39.66845 343
39.68856 310
39.70867 319
39.72879 325
39.7489 328
39.76901 295
39.78913 327
39.80924 333
39.82935 301
39.84947 311
39.86958 334
39.8897 312
39.90981 323
39.92992 305
39.95004 347
39.97015 306
39.99026 325
40.01038 324
40.03049 396
40.05061 394
40.07072 466
40.09083 447
40.11095 523
40.13106 611
40.15117 669
40.17129 789
40.1914 806
40.21152 1015
40.23163 952
40.25174 939
40.27186 874
40.29197 776
40.31208 751
40.3322 644
40.35231 578
40.37242 512
40.39254 449
40.41265 408
40.43277 348
40.45288 352
40.47299 290
40.49311 278
40.51322 323
40.53333 264
40.55345 258
40.57356 262
40.59368 271
40.61379 226
40.6339 271
40.65402 206
40.67413 251
40.69424 272
40.71436 254
40.73447 250
40.75458 247
40.7747 241
40.79481 269
40.81493 254
40.83504 232
40.85515 262
40.87527 256
40.89538 259
40.91549 253
40.93561 262
40.95572 241
40.97584 272
40.99595 258
41.01606 267
41.03618 263
41.05629 244
41.0764 227
41.09652 304
41.11663 272
41.13675 280
41.15686 263
41.17697 247
41.19709 272
41.2172 259
41.23731 254
41.25743 248
41.27754 254
41.29765 230
41.31777 262
41.33788 275
41.358 234
41.37811 265
41.39822 235
41.41834 247
41.43845 248
41.45856 263
41.47868 221
41.49879 276
41.51891 257
41.53902 271
41.55913 262
41.57925 274
41.59936 300
41.61947 300
41.63959 300
41.6597 313
41.67982 276
41.69993 295
41.72004 317
41.74016 306
41.76027 304
41.78038 283
41.8005 279
41.82061 276
41.84072 305
41.86084 286
41.88095 278
41.90107 298
41.92118 284
41.94129 279
41.96141 300
41.98152 290
42.00163 275
42.02175 309
42.04186 310
42.06198 344
42.08209 350
42.1022 351
42.12232 357
42.14243 392
42.16254 409
42.18266 443
42.20277 469
42.22289 544
42.243 583
42.26311 666
42.28323 766
42.30334 867
42.32345 1008
42.34357 1122
42.36368 1205
42.38379 1281
42.40391 1251
42.42402 1159
42.44414 1122
42.46425 1028
42.48436 895
42.50448 763
42.52459 696
42.5447 647
42.56482 538
42.58493 461
42.60505 384
42.62516 339
42.64527 320
42.66539 320
42.6855 332
42.70561 293
42.72573 311
42.74584 308
42.76595 272
42.78607 261
42.80618 251
42.8263 274
42.84641 259
42.86652 269
42.88664 232
42.90675 247
42.92686 258
42.94698 243
42.96709 262
42.98721 251
43.00732 222
43.02743 226
43.04755 248
43.06766 237
43.08777 229
43.10789 242
43.128 222
43.14812 253
43.16823 228
43.18834 248
43.20846 237
43.22857 243
43.24868 245
43.2688 248
43.28891 246
43.30902 253
43.32914 227
43.34925 256
43.36937 235
43.38948 224
43.40959 201
43.42971 230
43.44982 216
43.46993 229
43.49005 211
43.51016 200
43.53028 217
43.55039 196
43.5705 200
43.59062 211
43.61073 233
43.63084 199
43.65096 251
43.67107 230
43.69119 226
43.7113 202
43.73141 211
43.75153 230
43.77164 227
43.79175 189
43.81187 207
43.83198 199
43.85209 204
43.87221 197
43.89232 203
43.91244 228
43.93255 200
43.95266 210
43.97278 182
43.99289 203
44.013 217
44.03312 212
44.05323 198
44.07335 194
44.09346 210
44.11357 206
44.13369 195
44.1538 193
44.17391 210
44.19403 212
44.21414 209
44.23426 229
44.25437 225
44.27448 202
44.2946 219
44.31471 197
44.33482 208
44.35494 207
44.37505 218
44.39516 197
44.41528 194
44.43539 190
44.45551 212
44.47562 204
44.49573 201
44.51585 208
44.53596 174
44.55607 197
44.57619 216
44.5963 176
44.61642 201
44.63653 189
44.65664 228
44.67676 215
44.69687 223
44.71698 198
44.7371 192
44.75721 200
44.77732 197
44.79744 187
44.81755 204
44.83767 212
44.85778 202
44.87789 214
44.89801 203
44.91812 219
44.93823 221
44.95835 205
44.97846 223
44.99858 205
45.01869 211
45.0388 222
45.05892 221
45.07903 210
45.09914 214
45.11926 200
45.13937 204
45.15949 202
45.1796 192
45.19971 217
45.21983 222
45.23994 214
45.26005 229
45.28017 213
45.30028 219
45.32039 216
45.34051 243
45.36062 211
45.38074 224
45.40085 235
45.42096 229
45.44108 265
45.46119 285
45.4813 253
45.50142 297
45.52153 308
45.54165 330
45.56176 404
45.58187 432
45.60199 455
45.6221 517
45.64221 584
45.66233 702
45.68244 762
45.70256 795
45.72267 853
45.74278 860
45.7629 814
45.78301 768
45.80312 720
45.82324 681
45.84335 541
45.86346 493
45.88358 481
45.90369 412
45.92381 344
45.94392 283
45.96403 284
45.98415 247
46.00426 237
46.02437 239
46.04449 228
46.0646 221
46.08472 229
46.10483 223
46.12494 210
46.14506 206
46.16517 211
46.18528 200
46.2054 179
46.22551 200
46.24563 203
46.26574 202
46.28585 186
46.30597 189
46.32608 186
46.34619 198
46.36631 184
46.38642 169
46.40653 185
46.42665 183
46.44676 185
46.46688 211
46.48699 201
46.5071 181
46.52722 184
46.54733 191
46.56744 178
46.58756 182
46.60767 187
46.62779 201
46.6479 190
46.66801 181
46.68813 194
46.70824 204
46.72835 176
46.74847 191
46.76858 165
46.78869 173
46.80881 188
46.82892 191
46.84904 173
46.86915 205
46.88926 186
46.90938 183
46.92949 200
46.9496 202
46.96972 207
46.98983 179
47.00995 208
47.03006 212
47.05017 195
47.07029 189
47.0904 192
47.11051 199
47.13063 193
47.15074 209
47.17086 190
47.19097 200
47.21108 198
47.2312 198
47.25131 194
47.27142 200
47.29154 223
47.31165 208
47.33176 187
47.35188 195
47.37199 199
47.39211 202
47.41222 207
47.43233 221
47.45245 213
47.47256 205
47.49267 211
47.51279 208
47.5329 188
47.55302 213
47.57313 198
47.59324 198
47.61336 227
47.63347 206
47.65358 203
47.6737 207
47.69381 184
47.71393 169
47.73404 201
47.75415 208
47.77427 214
47.79438 196
47.81449 173
47.83461 188
47.85472 183
47.87483 176
47.89495 191
47.91506 198
47.93518 202
47.95529 217
47.9754 177
47.99552 210
48.01563 191
48.03574 189
48.05586 211
48.07597 223
48.09609 194
48.1162 176
48.13631 199
48.15643 198
48.17654 202
48.19665 207
48.21677 196
48.23688 177
48.257 209
48.27711 188
48.29722 198
48.31734 177
48.33745 187
48.35756 196
48.37768 205
48.39779 195
48.4179 191
48.43802 197
48.45813 194
48.47825 199
48.49836 200
48.51847 221
48.53859 221
48.5587 203
48.57881 208
48.59893 244
48.61904 207
48.63916 233
48.65927 184
48.67938 196
48.6995 228
48.71961 222
48.73972 187
48.75984 207
48.77995 213
48.80006 186
48.82018 189
48.84029 201
48.86041 190
48.88052 220
48.90063 223
48.92075 208
48.94086 212
48.96097 219
48.98109 184
49.0012 198
49.02132 201
49.04143 221
49.06154 197
49.08166 208
49.10177 217
49.12188 207
49.142 199
49.16211 218
49.18223 194
49.20234 186
49.22245 223
49.24257 206
49.26268 239
49.28279 233
49.30291 196
49.32302 251
49.34313 174
49.36325 202
49.38336 202
49.40348 228
49.42359 202
49.4437 224
49.46382 201
49.48393 205
49.50404 214
49.52416 219
49.54427 250
49.56439 243
49.5845 264
49.60461 263
49.62473 284
49.64484 314
49.66495 293
49.68507 293
49.70518 307
49.7253 346
49.74541 383
49.76552 376
49.78564 429
49.80575 475
49.82586 556
49.84598 612
49.86609 673
49.8862 778
49.90632 819
49.92643 1095
49.94655 1204
49.96666 1402
49.98677 1719
50.00689 1999
50.027 2190
50.04711 2475
50.06723 2521
50.08734 2590
50.10746 2412
50.12757 2366
50.14768 1993
50.1678 1732
50.18791 1608
50.20802 1464
50.22814 1380
50.24825 1160
50.26837 976
50.28848 733
50.30859 626
50.32871 485
50.34882 447
50.36893 345
50.38905 356
50.40916 347
50.42927 327
50.44939 339
50.4695 333
50.48962 328
50.50973 317
50.52984 295
50.54996 322
50.57007 312
50.59018 304
50.6103 319
50.63041 283
50.65053 277
50.67064 269
50.69075 279
50.71087 292
50.73098 296
50.75109 295
50.77121 274
50.79132 224
50.81143 234
50.83155 237
50.85166 235
50.87178 248
50.89189 238
50.912 227
50.93212 231
50.95223 218
50.97234 203
50.99246 214
51.01257 225
51.03269 226
51.0528 212
51.07291 198
51.09303 212
51.11314 194
51.13325 197
51.15337 200
51.17348 206
51.1936 193
51.21371 195
51.23382 193
51.25394 166
51.27405 211
51.29416 195
51.31428 172
51.33439 183
51.3545 207
51.37462 202
51.39473 204
51.41485 194
51.43496 207
51.45507 200
51.47519 211
51.4953 207
51.51541 173
51.53553 190
51.55564 220
51.57576 189
51.59587 189
51.61598 185
51.6361 204
51.65621 191
51.67632 196
51.69644 178
51.71655 226
51.73667 181
51.75678 196
51.77689 189
51.79701 195
51.81712 175
51.83723 183
51.85735 197
51.87746 190
51.89757 193
51.91769 192
51.9378 185
51.95792 197
51.97803 177
51.99814 191
52.01826 194
52.03837 198
52.05848 175
52.0786 176
52.09871 192
52.11883 194
52.13894 191
52.15905 181
52.17917 196
52.19928 189
52.21939 190
52.23951 193
52.25962 173
52.27974 158
52.29985 170
52.31996 184
52.34008 195
52.36019 196
52.3803 179
52.40042 208
52.42053 173
52.44064 184
52.46076 164
52.48087 194
52.50099 182
52.5211 189
52.54121 206
52.56133 203
52.58144 186
52.60155 199
52.62167 186
52.64178 201
52.6619 178
52.68201 202
52.70212 197
52.72224 208
52.74235 206
52.76246 192
52.78258 188
52.80269 190
52.8228 200
52.84292 201
52.86303 190
52.88315 203
52.90326 199
52.92337 198
52.94349 193
52.9636 193
52.98371 209
53.00383 173
53.02394 206
53.04406 221
53.06417 199
53.08428 188
53.1044 194
53.12451 209
53.14462 219
53.16474 223
53.18485 201
53.20497 201
53.22508 217
53.24519 237
53.26531 200
53.28542 238
53.30553 195
53.32565 217
53.34576 218
53.36587 228
53.38599 223
53.4061 230
53.42622 200
53.44633 197
53.46644 217
53.48656 212
53.50667 204
53.52678 239
53.5469 237
53.56701 197
53.58713 233
53.60724 220
53.62735 213
53.64747 217
53.66758 221
53.68769 242
53.70781 200
53.72792 172
53.74804 204
53.76815 217
53.78826 201
53.80838 186
53.82849 211
53.8486 226
53.86872 202
53.88883 236
53.90894 183
53.92906 199
53.94917 214
53.96929 213
53.9894 214
54.00951 180
54.02963 237
54.04974 204
54.06985 219
54.08997 213
54.11008 200
54.1302 225
54.15031 225
54.17042 217
54.19054 209
54.21065 246
54.23076 228
54.25088 205
54.27099 243
54.29111 226
54.31122 242
54.33133 246
54.35145 246
54.37156 223
54.39167 221
54.41179 249
54.4319 251
54.45201 257
54.47213 242
54.49224 245
54.51236 286
54.53247 287
54.55258 323
54.5727 351
54.59281 377
54.61292 400
54.63304 449
54.65315 481
54.67327 502
54.69338 555
54.71349 665
54.73361 736
54.75372 788
54.77383 879
54.79395 933
54.81406 920
54.83417 875
54.85429 856
54.8744 692
54.89452 693
54.91463 651
54.93474 604
54.95486 600
54.97497 570
54.99508 518
55.0152 454
55.03531 405
55.05543 360
55.07554 367
55.09565 363
55.11577 398
55.13588 387
55.15599 407
55.17611 406
55.19622 456
55.21634 494
55.23645 539
55.25656 521
55.27668 513
55.29679 504
55.3169 480
55.33702 385
55.35713 404
55.37724 363
55.39736 404
55.41747 411
55.43759 347
55.4577 306
55.47781 264
55.49793 266
55.51804 260
55.53815 233
55.55827 241
55.57838 215
55.5985 203
55.61861 228
55.63872 212
55.65884 195
55.67895 234
55.69906 190
55.71918 197
55.73929 209
55.75941 225
55.77952 209
55.79963 169
55.81975 208
55.83986 190
55.85997 184
55.88009 209
55.9002 186
55.92031 179
55.94043 202
55.96054 218
55.98066 212
56.00077 187
56.02088 193
56.041 206
56.06111 206
56.08122 204
56.10134 209
56.12145 191
56.14157 198
56.16168 196
56.18179 187
56.20191 209
56.22202 199
56.24213 210
56.26225 193
56.28236 190
56.30248 181
56.32259 184
56.3427 205
56.36282 225
56.38293 203
56.40304 218
56.42316 208
56.44327 211
56.46338 194
56.4835 200
56.50361 172
56.52373 182
56.54384 215
56.56395 213
56.58407 233
56.60418 204
56.62429 221
56.64441 226
56.66452 197
56.68464 172
56.70475 196
56.72486 212
56.74498 197
56.76509 231
56.7852 188
56.80532 207
56.82543 217
56.84554 211
56.86566 197
56.88577 230
56.90589 216
56.926 195
56.94611 209
56.96623 218
56.98634 224
57.00645 206
57.02657 255
57.04668 229
57.0668 230
57.08691 233
57.10702 244
57.12714 246
57.14725 241
57.16736 260
57.18748 237
57.20759 213
57.22771 206
57.24782 234
57.26793 217
57.28805 213
57.30816 203
57.32827 230
57.34839 234
57.3685 216
57.38861 214
57.40873 212
57.42884 210
57.44896 214
57.46907 208
57.48918 218
57.5093 205
57.52941 177
57.54952 208
57.56964 202
57.58975 198
57.60987 227
57.62998 193
57.65009 212
57.67021 223
57.69032 184
57.71043 207
57.73055 198
57.75066 202
57.77078 187
57.79089 202
57.811 205
57.83112 211
57.85123 191
57.87134 206
57.89146 185
57.91157 204
57.93168 207
57.9518 185
57.97191 206
57.99203 202
58.01214 171
58.03225 216
58.05237 197
58.07248 206
58.09259 198
58.11271 185
58.13282 216
58.15294 204
58.17305 199
58.19316 197
58.21328 201
58.23339 201
58.2535 234
58.27362 181
58.29373 219
58.31385 198
58.33396 199
58.35407 187
58.37419 191
58.3943 220
58.41441 186
58.43453 206
58.45464 206
58.47475 180
58.49487 194
58.51498 189
58.5351 234
58.55521 200
58.57532 214
58.59544 216
58.61555 208
58.63566 207
58.65578 201
58.67589 217
58.69601 244
58.71612 213
58.73623 206
58.75635 187
58.77646 202
58.79657 210
58.81669 201
58.8368 235
58.85691 216
58.87703 214
58.89714 214
58.91726 176
58.93737 217
58.95748 227
58.9776 232
58.99771 208
59.01782 221
59.03794 203
59.05805 204
59.07817 199
59.09828 209
59.11839 225
59.13851 240
59.15862 240
59.17873 190
59.19885 223
59.21896 215
59.23908 203
59.25919 229
59.2793 231
59.29942 219
59.31953 234
59.33964 250
59.35976 233
59.37987 224
59.39998 255
59.4201 254
59.44021 264
59.46033 284
59.48044 251
59.50055 367
59.52067 317
59.54078 329
59.56089 371
59.58101 322
59.60112 366
59.62124 419
59.64135 527
59.66146 515
59.68158 598
59.70169 647
59.7218 671
59.74192 818
59.76203 921
59.78215 1103
59.80226 1216
59.82237 1470
59.84249 1539
59.8626 1630
59.88271 1745
59.90283 1740
59.92294 1588
59.94305 1405
59.96317 1264
59.98328 1239
60.0034 1025
60.02351 1058
60.04362 998
60.06374 942
60.08385 822
60.10396 725
60.12408 620
60.14419 492
60.16431 416
60.18442 356
60.20453 316
60.22465 267
60.24476 276
60.26487 252
60.28499 259
60.3051 254
60.32522 228
60.34533 247
60.36544 259
60.38556 232
60.40567 230
60.42578 236
60.4459 244
60.46601 234
60.48612 197
60.50624 235
60.52635 222
60.54647 241
60.56658 255
60.58669 206
60.60681 231
60.62692 207
60.64703 231
60.66715 233
60.68726 237
60.70738 207
60.72749 237
60.7476 229
60.76772 230
60.78783 210
60.80794 202
60.82806 236
60.84817 207
60.86828 201
60.8884 217
60.90851 214
60.92863 237
60.94874 242
60.96885 235
60.98897 224
61.00908 236
61.02919 254
61.04931 246
61.06942 257
61.08954 243
61.10965 211
61.12976 253
61.14988 240
61.16999 245
61.1901 232
61.21022 264
61.23033 243
61.25045 267
61.27056 269
61.29067 263
61.31079 289
61.3309 259
61.35101 250
61.37113 249
61.39124 244
61.41135 271
61.43147 268
61.45158 252
61.4717 237
61.49181 242
61.51192 304
61.53204 275
61.55215 258
61.57226 258
61.59238 244
61.61249 263
61.63261 244
61.65272 229
61.67283 259
61.69295 251
61.71306 230
61.73317 212
61.75329 246
61.7734 225
61.79352 244
61.81363 235
61.83374 234
61.85386 240
61.87397 238
61.89408 227
61.9142 219
61.93431 234
61.95442 261
61.97454 219
61.99465 216
62.01477 222
62.03488 224
62.05499 204
62.07511 232
62.09522 218
62.11533 205
62.13545 208
62.15556 206
62.17568 206
62.19579 201
62.2159 213
62.23602 203
62.25613 213
62.27624 214
62.29636 239
62.31647 204
62.33659 196
62.3567 202
62.37681 201
62.39693 217
62.41704 194
62.43715 183
62.45727 208
62.47738 207
62.49749 175
62.51761 188
62.53772 184
62.55784 210
62.57795 198
62.59806 199
62.61818 233
62.63829 198
62.6584 180
62.67852 197
62.69863 178
62.71875 185
62.73886 196
62.75897 209
62.77909 169
62.7992 185
62.81931 200
62.83943 174
62.85954 189
62.87965 176
62.89977 190
62.91988 175
62.94 185
62.96011 193
62.98022 191
63.00034 177
63.02045 182
63.04056 161
63.06068 200
63.08079 205
63.10091 166
63.12102 203
63.14113 174
63.16125 176
63.18136 207
63.20147 190
63.22159 191
63.2417 188
63.26182 172
63.28193 195
63.30204 188
63.32216 197
63.34227 192
63.36238 179
63.3825 182
63.40261 214
63.42272 214
63.44284 204
63.46295 180
63.48307 183
63.50318 191
63.52329 184
63.54341 185
63.56352 177
63.58363 199
63.60375 189
63.62386 211
63.64398 194
63.66409 222
63.6842 216
63.70432 235
63.72443 206
63.74454 252
63.76466 258
63.78477 276
63.80489 285
63.825 347
63.84511 309
63.86523 341
63.88534 345
63.90545 396
63.92557 414
63.94568 441
63.96579 489
63.98591 467
64.00602 435
64.02614 419
64.04625 395
64.06636 343
64.08648 348
64.10659 311
64.1267 322
64.14682 313
64.16693 299
64.18705 281
64.20716 262
64.22727 252
64.24739 224
64.2675 190
64.28761 213
64.30773 203
64.32784 189
64.34796 161
64.36807 176
64.38818 174
64.4083 188
64.42841 180
64.44852 203
64.46864 186
64.48875 185
64.50886 202
64.52898 213
64.54909 199
64.56921 174
64.58932 193
64.60943 214
64.62955 201
64.64966 189
64.66977 191
64.68989 193
64.71 190
64.73012 180
64.75023 199
64.77034 196
64.79046 192
64.81057 196
64.83068 176
64.8508 201
64.87091 201
64.89102 195
64.91114 174
64.93125 204
64.95137 203
64.97148 191
64.99159 182
65.01171 193
65.03182 204
65.05193 194
65.07205 195
65.09216 175
65.11228 176
65.13239 176
65.1525 191
65.17262 189
65.19273 191
65.21284 201
65.23296 203
65.25307 217
65.27319 197
65.2933 210
65.31341 200
65.33353 188
65.35364 188
65.37375 187
65.39387 194
65.41398 216
65.43409 200
65.45421 214
65.47432 216
65.49444 204
65.51455 181
65.53466 217
65.55478 215
65.57489 218
65.595 227
65.61512 229
65.63523 225
65.65535 239
65.67546 221
65.69557 250
65.71569 283
65.7358 258
65.75591 268
65.77603 220
65.79614 265
65.81626 230
65.83637 218
65.85648 244
65.8766 222
65.89671 226
65.91682 231
65.93694 221
65.95705 219
65.97716 215
65.99728 215
66.01739 208
66.03751 193
66.05762 174
66.07773 199
66.09785 203
66.11796 203
66.13807 193
66.15819 187
66.1783 206
66.19842 196
66.21853 170
66.23864 190
66.25876 174
66.27887 213
66.29898 196
66.3191 183
66.33921 190
66.35933 169
66.37944 184
66.39955 185
66.41967 232
66.43978 183
66.45989 186
66.48001 186
66.50012 187
66.52023 187
66.54035 203
66.56046 201
66.58058 202
66.60069 181
66.6208 188
66.64092 191
66.66103 203
66.68114 180
66.70126 212
66.72137 193
66.74149 226
66.7616 184
66.78171 180
66.80183 181
66.82194 196
66.84205 189
66.86217 187
66.88228 211
66.90239 193
66.92251 206
66.94262 191
66.96274 230
66.98285 206
67.00296 207
67.02308 205
67.04319 227
67.0633 207
67.08342 208
67.10353 230
67.12365 225
67.14376 218
67.16387 216
67.18399 208
67.2041 220
67.22421 234
67.24433 239
67.26444 235
67.28456 262
67.30467 265
67.32478 298
67.3449 294
67.36501 289
67.38512 304
67.40524 367
67.42535 394
67.44546 405
67.46558 415
67.48569 465
67.50581 525
67.52592 585
67.54603 642
67.56615 703
67.58626 804
67.60637 921
67.62649 982
67.6466 1134
67.66672 1197
67.68683 1211
67.70694 1184
67.72706 1020
67.74717 935
67.76728 827
67.7874 813
67.80751 798
67.82763 884
67.84774 899
67.86785 930
67.88797 968
67.90808 964
67.92819 945
67.94831 997
67.96842 1033
67.98853 1141
68.00865 1249
68.02876 1342
68.04888 1408
68.06899 1583
68.0891 1592
68.10922 1544
68.12933 1405
68.14944 1402
68.16956 1288
68.18967 1308
68.20979 1308
68.2299 1446
68.25001 1448
68.27013 1343
68.29024 1209
68.31035 1108
68.33047 931
68.35058 793
68.3707 706
68.39081 658
68.41092 618
68.43104 606
68.45115 567
68.47126 488
68.49138 460
68.51149 381
68.5316 305
68.55172 329
68.57183 296
68.59195 265
68.61206 263
68.63217 245
68.65229 222
68.6724 220
68.69251 206
68.71263 228
68.73274 229
68.75286 216
68.77297 237
68.79308 220
68.8132 231
68.83331 236
68.85342 191
68.87354 202
68.89365 179
68.91376 212
68.93388 205
68.95399 198
68.97411 221
68.99422 190
69.01433 191
69.03445 213
69.05456 191
69.07467 192
69.09479 213
69.1149 173
69.13502 194
69.15513 191
69.17524 190
69.19536 189
69.21547 192
69.23558 173
69.2557 195
69.27581 183
69.29593 188
69.31604 183
69.33615 185
69.35627 196
69.37638 177
69.39649 198
69.41661 185
69.43672 179
69.45683 186
69.47695 179
69.49706 179
69.51718 177
69.53729 192
69.5574 196
69.57752 170
69.59763 178
69.61774 163
69.63786 166
69.65797 169
69.67809 167
69.6982 171
69.71831 202
69.73843 173
69.75854 187
69.77865 171
69.79877 153
69.81888 172
69.839 195
69.85911 208
69.87922 190
69.89934 182
69.91945 217
69.93956 192
69.95968 182
69.97979 186
69.9999 183
70.02002 177
70.04013 177
70.06025 184
70.08036 174
70.10047 148
70.12059 173
70.1407 166
70.16081 162
70.18093 183
70.20104 185
70.22116 177
70.24127 180
70.26138 183
70.2815 193
70.30161 187
70.32172 178
70.34184 198
70.36195 197
70.38207 184
70.40218 194
70.42229 209
70.44241 191
70.46252 191
70.48263 164
70.50275 179
70.52286 176
70.54297 151
70.56309 191
70.5832 165
70.60332 183
70.62343 177
70.64354 151
70.66366 187
70.68377 174
70.70388 174
70.724 185
70.74411 181
70.76423 192
70.78434 166
70.80445 195
70.82457 190
70.84468 185
70.86479 186
70.88491 171
70.90502 171
70.92513 172
70.94525 180
70.96536 161
70.98548 176
71.00559 162
71.0257 187
71.04582 182
71.06593 176
71.08604 166
71.10616 195
71.12627 182
71.14639 180
71.1665 178
71.18661 179
71.20673 179
71.22684 171
71.24695 172
71.26707 182
71.28718 161
71.3073 182
71.32741 176
71.34752 183
71.36764 196
71.38775 168
71.40786 170
71.42798 168
71.44809 177
71.4682 182
71.48832 172
71.50843 174
71.52855 185
71.54866 187
71.56877 186
71.58889 160
71.609 178
71.62911 179
71.64923 165
71.66934 174
71.68946 178
71.70957 180
71.72968 169
71.7498 180
71.76991 172
71.79002 205
71.81014 176
71.83025 182
71.85037 173
71.87048 174
71.89059 201
71.91071 179
71.93082 184
71.95093 239
71.97105 216
71.99116 187
72.01127 196
72.03139 182
72.0515 217
72.07162 205
72.09173 212
72.11184 224
72.13196 204
72.15207 208
72.17218 179
72.1923 230
72.21241 241
72.23253 197
72.25264 221
72.27275 236
72.29287 198
72.31298 206
72.33309 195
72.35321 234
72.37332 223
72.39344 203
72.41355 212
72.43366 228
72.45378 200
72.47389 215
72.494 209
72.51412 195
72.53423 213
72.55434 233
72.57446 194
72.59457 185
72.61469 190
72.6348 187
72.65491 215
72.67503 196
72.69514 194
72.71525 193
72.73537 226
72.75548 197
72.7756 192
72.79571 215
72.81582 204
72.83594 250
72.85605 218
72.87616 191
72.89628 218
72.91639 216
72.9365 201
72.95662 245
72.97673 209
72.99685 195
73.01696 214
73.03707 236
73.05719 217
73.0773 268
73.09741 235
73.11753 255
73.13764 275
73.15776 307
73.17787 287
73.19798 290
73.2181 309
73.23821 324
73.25832 329
73.27844 371
73.29855 424
73.31867 393
73.33878 486
73.35889 481
73.37901 527
73.39912 528
73.41923 558
73.43935 475
73.45946 432
73.47957 395
73.49969 394
73.5198 344
73.53992 342
73.56003 360
73.58014 361
73.60026 382
73.62037 374
73.64048 371
73.6606 308
73.68071 262
73.70083 263
73.72094 263
73.74105 240
73.76117 214
73.78128 231
73.80139 215
73.82151 220
73.84162 225
73.86174 187
73.88185 217
73.90196 215
73.92208 212
73.94219 203
73.9623 222
73.98242 184
74.00253 187
74.02264 195
74.04276 218
74.06287 210
74.08299 200
74.1031 191
74.12321 193
74.14333 193
74.16344 198
74.18355 179
74.20367 193
74.22378 192
74.2439 208
74.26401 212
74.28412 195
74.30424 182
74.32435 181
74.34446 179
74.36458 206
74.38469 195
74.40481 205
74.42492 168
74.44503 174
74.46515 165
74.48526 176
74.50537 178
74.52549 172
74.5456 177
74.56571 180
74.58583 166
74.60594 185
74.62606 178
74.64617 188
74.66628 184
74.6864 192
74.70651 182
74.72662 164
74.74674 169
74.76685 196
74.78697 192
74.80708 180
74.82719 182
74.84731 170
74.86742 189
74.88753 201
74.90765 189
74.92776 195
74.94787 184
74.96799 176
74.9881 174
75.00822 206
