3.00117 21165
3.02128 20832
3.0414 20540
3.06151 19817
3.08162 19289
3.10174 18833
3.12185 18161
3.14197 17947
3.16208 16989
3.18219 16979
3.20231 16224
3.22242 15876
3.24253 15410
3.26265 14950
3.28276 14957
3.30288 14171
3.32299 13794
3.3431 13437
3.36322 12747
3.38333 12426
3.40344 12087
3.42356 11457
3.44367 11225
3.46379 10900
3.4839 10593
3.50401 10028
3.52413 9841
3.54424 9451
3.56435 9095
3.58447 8704
3.60458 8229
3.62469 7973
3.64481 8008
3.66492 7534
3.68504 7234
3.70515 6838
3.72526 6507
3.74538 6461
3.76549 5879
3.7856 6153
3.80572 5610
3.82583 5251
3.84595 5270
3.86606 4941
3.88617 4856
3.90629 4352
3.9264 4225
3.94651 4097
3.96663 3901
3.98674 3726
4.00686 3621
4.02697 3356
4.04708 3214
4.0672 3041
4.08731 2946
4.10742 2630
4.12754 2608
4.14765 2504
4.16776 2314
4.18788 2353
4.20799 2076
4.22811 2036
4.24822 2115
4.26833 1871
4.28845 1831
4.30856 1690
4.32867 1620
4.34879 1712
4.3689 1552
4.38902 1538
4.40913 1366
4.42924 1372
4.44936 1539
4.46947 1375
4.48958 1302
4.5097 1233
4.52981 1094
4.54992 1097
4.57004 1188
4.59015 1087
4.61027 1011
4.63038 990
4.65049 1066
4.67061 1055
4.69072 982
4.71083 990
4.73095 875
4.75106 922
4.77118 871
4.79129 834
4.8114 817
4.83152 822
4.85163 825
4.87174 840
4.89186 718
4.91197 686
4.93209 687
4.9522 704
4.97231 670
4.99243 679
5.01254 666
5.03265 646
5.05277 636
5.07288 638
5.09299 582
5.11311 606
5.13322 527
5.15334 543
5.17345 554
5.19356 506
5.21368 514
5.23379 519
5.2539 486
5.27402 482
5.29413 441
5.31425 450
5.33436 433
5.35447 430
5.37459 422
5.3947 345
5.41481 404
5.43493 381
5.45504 334
5.47516 370
5.49527 333
5.51538 290
5.5355 332
5.55561 310
5.57572 336
5.59584 337
5.61595 288
5.63606 307
5.65618 268
5.67629 286
5.69641 277
5.71652 271
5.73663 269
5.75675 239
5.77686 251
5.79697 269
5.81709 237
5.8372 221
5.85732 224
5.87743 252
5.89754 219
5.91766 234
5.93777 264
5.95788 221
5.978 197
5.99811 208
6.01823 222
6.03834 216
6.05845 203
6.07857 202
6.09868 197
6.11879 190
6.13891 205
6.15902 207
6.17913 173
6.19925 208
6.21936 192
6.23948 185
6.25959 208
6.2797 178
6.29982 181
6.31993 204
6.34004 187
6.36016 192
6.38027 162
6.40039 172
6.4205 158
6.44061 189
6.46073 176
6.48084 172
6.50095 146
6.52107 207
6.54118 177
6.56129 194
6.58141 156
6.60152 167
6.62164 153
6.64175 161
6.66186 158
6.68198 153
6.70209 168
6.7222 154
6.74232 156
6.76243 178
6.78255 158
6.80266 150
6.82277 175
6.84289 170
6.863 142
6.88311 143
6.90323 174
6.92334 189
6.94346 154
6.96357 156
6.98368 152
7.0038 169
7.02391 185
7.04402 135
7.06414 174
7.08425 168
7.10436 165
7.12448 165
7.14459 173
7.16471 186
7.18482 181
7.20493 196
7.22505 172
7.24516 138
7.26527 187
7.28539 198
7.3055 175
7.32562 156
7.34573 156
7.36584 187
7.38596 190
7.40607 168
7.42618 169
7.4463 169
7.46641 185
7.48653 186
7.50664 211
7.52675 163
7.54687 179
7.56698 170
7.58709 153
7.60721 162
7.62732 152
7.64743 162
7.66755 170
7.68766 164
7.70778 161
7.72789 187
7.748 163
7.76812 203
7.78823 156
7.80834 163
7.82846 184
7.84857 169
7.86869 176
7.8888 171
7.90891 174
7.92903 180
7.94914 199
7.96925 143
7.98937 164
8.00948 176
8.0296 212
8.04971 221
8.06982 182
8.08994 178
8.11005 224
8.13016 216
8.15028 189
8.17039 192
8.1905 187
8.21062 191
8.23073 178
8.25085 231
8.27096 205
8.29107 203
8.31119 210
8.3313 210
8.35141 195
8.37153 189
8.39164 201
8.41176 184
8.43187 208
8.45198 196
8.4721 232
8.49221 189
8.51232 201
8.53244 201
8.55255 179
8.57266 201
8.59278 221
8.61289 177
8.63301 181
8.65312 160
8.67323 202
8.69335 206
8.71346 211
8.73357 197
8.75369 209
8.7738 205
8.79392 207
8.81403 231
8.83414 191
8.85426 201
8.87437 200
8.89448 228
8.9146 215
8.93471 209
8.95483 191
8.97494 170
8.99505 199
9.01517 209
9.03528 184
9.05539 187
9.07551 233
9.09562 215
9.11573 193
9.13585 185
9.15596 177
9.17608 177
9.19619 196
9.2163 214
9.23642 178
9.25653 195
9.27664 213
9.29676 187
9.31687 223
9.33699 216
9.3571 182
9.37721 182
9.39733 189
9.41744 220
9.43755 196
9.45767 184
9.47778 222
9.4979 203
9.51801 226
9.53812 209
9.55824 182
9.57835 223
9.59846 250
9.61858 218
9.63869 226
9.6588 215
9.67892 213
9.69903 230
9.71915 194
9.73926 212
9.75937 198
9.77949 194
9.7996 239
9.81971 210
9.83983 203
9.85994 203
9.88006 219
9.90017 185
9.92028 218
9.9404 207
9.96051 212
9.98062 194
10.00074 189
10.02085 210
10.04097 195
10.06108 211
10.08119 233
10.10131 209
10.12142 206
10.14153 196
10.16165 224
10.18176 213
10.20187 241
10.22199 200
10.2421 194
10.26222 226
10.28233 219
10.30244 201
10.32256 190
10.34267 197
10.36278 209
10.3829 197
10.40301 201
10.42313 192
10.44324 192
10.46335 200
10.48347 194
10.50358 198
10.52369 199
10.54381 211
10.56392 185
10.58403 204
10.60415 202
10.62426 205
10.64438 217
10.66449 218
10.6846 191
10.70472 205
10.72483 211
10.74494 212
10.76506 169
10.78517 233
10.80529 227
10.8254 218
10.84551 224
10.86563 212
10.88574 214
10.90585 211
10.92597 208
10.94608 181
10.9662 199
10.98631 215
11.00642 214
11.02654 206
11.04665 203
11.06676 218
11.08688 224
11.10699 231
11.1271 197
11.14722 200
11.16733 223
11.18745 200
11.20756 221
11.22767 198
11.24779 193
11.2679 208
11.28801 192
11.30813 206
11.32824 213
11.34836 198
11.36847 214
11.38858 217
11.4087 198
11.42881 227
11.44892 181
11.46904 195
11.48915 224
11.50927 196
11.52938 203
11.54949 208
11.56961 226
11.58972 213
11.60983 214
11.62995 202
11.65006 221
11.67017 222
11.69029 209
11.7104 240
11.73052 178
11.75063 214
11.77074 198
11.79086 188
11.81097 200
11.83108 193
11.8512 213
11.87131 208
11.89143 236
11.91154 205
11.93165 222
11.95177 218
11.97188 203
11.99199 230
12.01211 209
12.03222 225
12.05234 223
12.07245 230
12.09256 246
12.11268 223
12.13279 236
12.1529 242
12.17302 246
12.19313 226
12.21324 240
12.23336 265
12.25347 266
12.27359 254
12.2937 238
12.31381 263
12.33393 260
12.35404 234
12.37415 258
12.39427 251
12.41438 223
12.4345 253
12.45461 209
12.47472 213
12.49484 239
12.51495 221
12.53506 221
12.55518 230
12.57529 230
12.5954 213
12.61552 200
12.63563 233
12.65575 203
12.67586 182
12.69597 223
12.71609 175
12.7362 190
12.75631 182
12.77643 177
12.79654 206
12.81666 196
12.83677 204
12.85688 212
12.877 206
12.89711 226
12.91722 195
12.93734 213
12.95745 185
12.97757 211
12.99768 223
13.01779 201
13.03791 190
13.05802 191
13.07813 178
13.09825 196
13.11836 209
13.13847 211
13.15859 192
13.1787 206
13.19882 229
13.21893 216
13.23904 200
13.25916 183
13.27927 203
13.29938 218
13.3195 180
13.33961 192
13.35973 207
13.37984 189
13.39995 174
13.42007 208
13.44018 192
13.46029 168
13.48041 200
13.50052 189
13.52064 176
13.54075 198
13.56086 169
13.58098 213
13.60109 197
13.6212 191
13.64132 213
13.66143 200
13.68154 194
13.70166 188
13.72177 205
13.74189 184
13.762 198
13.78211 186
13.80223 170
13.82234 192
13.84245 172
13.86257 171
13.88268 182
13.9028 182
13.92291 193
13.94302 188
13.96314 186
13.98325 189
14.00336 186
14.02348 195
14.04359 184
14.06371 208
14.08382 181
14.10393 184
14.12405 176
14.14416 184
14.16427 178
14.18439 210
14.2045 171
14.22461 174
14.24473 170
14.26484 144
14.28496 192
14.30507 167
14.32518 164
14.3453 186
14.36541 167
14.38552 185
14.40564 176
14.42575 199
14.44587 172
14.46598 188
14.48609 196
14.50621 173
14.52632 167
14.54643 171
14.56655 219
14.58666 144
14.60677 180
14.62689 164
14.647 161
14.66712 183
14.68723 162
14.70734 168
14.72746 155
14.74757 190
14.76768 167
14.7878 166
14.80791 180
14.82803 192
14.84814 208
14.86825 180
14.88837 193
14.90848 178
14.92859 187
14.94871 186
14.96882 160
14.98894 152
15.00905 181
15.02916 155
15.04928 184
15.06939 181
15.0895 135
15.10962 166
15.12973 195
15.14984 151
15.16996 172
15.19007 150
15.21019 153
15.2303 168
15.25041 161
15.27053 188
15.29064 175
15.31075 183
15.33087 169
15.35098 178
15.3711 159
15.39121 160
15.41132 193
15.43144 178
15.45155 181
15.47166 185
15.49178 191
15.51189 149
15.53201 178
15.55212 188
15.57223 176
15.59235 178
15.61246 160
15.63257 150
15.65269 167
15.6728 157
15.69291 185
15.71303 156
15.73314 175
15.75326 170
15.77337 193
15.79348 169
15.8136 157
15.83371 182
15.85382 162
15.87394 152
15.89405 173
15.91417 169
15.93428 183
15.95439 158
15.97451 169
15.99462 165
16.01473 183
16.03485 171
16.05496 185
16.07508 159
16.09519 178
16.1153 185
16.13542 154
16.15553 177
16.17564 180
16.19576 160
16.21587 180
16.23598 148
16.2561 162
16.27621 141
16.29633 154
16.31644 165
16.33655 175
16.35667 164
16.37678 156
16.39689 151
16.41701 144
16.43712 150
16.45724 138
16.47735 150
16.49746 161
16.51758 153
16.53769 155
16.5578 162
16.57792 141
16.59803 127
16.61814 159
16.63826 158
16.65837 154
16.67849 150
16.6986 146
16.71871 170
16.73883 178
16.75894 135
16.77905 144
16.79917 147
16.81928 163
16.8394 185
16.85951 161
16.87962 176
16.89974 169
16.91985 142
16.93996 172
16.96008 162
16.98019 163
17.00031 156
17.02042 166
17.04053 161
17.06065 172
17.08076 175
17.10087 155
17.12099 169
17.1411 158
17.16121 156
17.18133 143
17.20144 135
17.22156 161
17.24167 151
17.26178 170
17.2819 165
17.30201 163
17.32212 183
17.34224 140
17.36235 155
17.38247 175
17.40258 159
17.42269 157
17.44281 173
17.46292 129
17.48303 170
17.50315 155
17.52326 160
17.54338 156
17.56349 175
17.5836 178
17.60372 149
17.62383 145
17.64394 161
17.66406 166
17.68417 164
17.70428 170
17.7244 165
17.74451 140
17.76463 161
17.78474 159
17.80485 157
17.82497 158
17.84508 150
17.86519 157
17.88531 159
17.90542 171
17.92554 169
17.94565 160
17.96576 157
17.98588 141
18.00599 147
18.0261 175
18.04622 173
18.06633 124
18.08645 155
18.10656 135
18.12667 172
18.14679 179
18.1669 165
18.18701 180
18.20713 150
18.22724 173
18.24735 160
18.26747 153
18.28758 159
18.3077 178
18.32781 139
18.34792 146
18.36804 158
18.38815 149
18.40826 155
18.42838 167
18.44849 150
18.46861 144
18.48872 165
18.50883 170
18.52895 162
18.54906 174
18.56917 201
18.58929 160
18.6094 149
18.62951 167
18.64963 162
18.66974 164
18.68986 162
18.70997 180
18.73008 171
18.7502 167
18.77031 171
18.79042 162
18.81054 178
18.83065 170
18.85077 171
18.87088 181
18.89099 165
18.91111 150
18.93122 160
18.95133 153
18.97145 154
18.99156 155
19.01168 178
19.03179 179
19.0519 141
19.07202 142
19.09213 161
19.11224 154
19.13236 145
19.15247 188
19.17258 139
19.1927 156
19.21281 149
19.23293 146
19.25304 165
19.27315 159
19.29327 176
19.31338 167
19.33349 146
19.35361 165
19.37372 171
19.39384 187
19.41395 173
19.43406 162
19.45418 159
19.47429 147
19.4944 162
19.51452 183
19.53463 201
19.55475 196
19.57486 166
19.59497 196
19.61509 196
19.6352 157
19.65531 203
19.67543 208
19.69554 187
19.71565 185
19.73577 178
19.75588 199
19.776 182
19.79611 216
19.81622 196
19.83634 228
19.85645 213
19.87656 213
19.89668 207
19.91679 228
19.93691 244
19.95702 212
19.97713 249
19.99725 231
20.01736 233
20.03747 229
20.05759 221
20.0777 224
20.09782 240
20.11793 249
20.13804 253
20.15816 264
20.17827 224
20.19838 272
20.2185 302
20.23861 277
20.25872 270
20.27884 257
20.29895 295
20.31907 269
20.33918 318
20.35929 287
20.37941 330
20.39952 299
20.41963 317
20.43975 356
20.45986 379
20.47998 334
20.50009 360
20.5202 381
20.54032 400
20.56043 414
20.58054 437
20.60066 465
20.62077 463
20.64088 485
20.661 545
20.68111 602
20.70123 814
20.72134 938
20.74145 1342
20.76157 1938
20.78168 2644
20.80179 3676
20.82191 5212
20.84202 6783
20.86214 8466
20.88225 9108
20.90236 8881
20.92248 7517
20.94259 5502
20.9627 3809
20.98282 2372
21.00293 1481
21.02305 980
21.04316 777
21.06327 681
21.08339 630
21.1035 572
21.12361 493
21.14373 471
21.16384 443
21.18395 384
21.20407 379
21.22418 349
21.2443 311
21.26441 341
21.28452 304
21.30464 290
21.32475 273
21.34486 246
21.36498 273
21.38509 273
21.40521 296
21.42532 258
21.44543 262
21.46555 262
21.48566 262
21.50577 277
21.52589 257
21.546 264
21.56612 210
21.58623 233
21.60634 260
21.62646 232
21.64657 233
21.66668 193
21.6868 244
21.70691 224
21.72702 222
21.74714 209
21.76725 185
21.78737 231
21.80748 213
21.82759 255
21.84771 207
21.86782 197
21.88793 229
21.90805 217
21.92816 220
21.94828 204
21.96839 214
21.9885 223
22.00862 236
22.02873 244
22.04884 231
22.06896 218
22.08907 246
22.10919 190
22.1293 219
22.14941 239
22.16953 222
22.18964 203
22.20975 197
22.22987 228
22.24998 174
22.27009 232
22.29021 197
22.31032 226
22.33044 206
22.35055 228
22.37066 215
22.39078 221
22.41089 222
22.431 188
22.45112 188
22.47123 226
22.49135 230
22.51146 213
22.53157 210
22.55169 208
22.5718 204
22.59191 212
22.61203 208
22.63214 205
22.65225 234
22.67237 220
22.69248 186
22.7126 188
22.73271 227
22.75282 211
22.77294 230
22.79305 186
22.81316 198
22.83328 181
22.85339 194
22.87351 190
22.89362 187
22.91373 190
22.93385 193
22.95396 222
22.97407 203
22.99419 201
23.0143 172
23.03442 214
23.05453 204
23.07464 232
23.09476 218
23.11487 226
23.13498 222
23.1551 246
23.17521 230
23.19532 280
23.21544 248
23.23555 258
23.25567 237
23.27578 217
23.29589 203
23.31601 214
23.33612 199
23.35623 205
23.37635 217
23.39646 194
23.41658 171
23.43669 208
23.4568 215
23.47692 213
23.49703 211
23.51714 201
23.53726 186
23.55737 206
23.57749 186
23.5976 228
23.61771 214
23.63783 189
23.65794 206
23.67805 225
23.69817 187
23.71828 228
23.73839 220
23.75851 231
23.77862 233
23.79874 229
23.81885 204
23.83896 211
23.85908 205
23.87919 243
23.8993 216
23.91942 250
23.93953 210
23.95965 273
23.97976 293
23.99987 294
24.01999 332
24.0401 366
24.06021 314
24.08033 282
24.10044 282
24.12056 215
24.14067 212
24.16078 220
24.1809 230
24.20101 191
24.22112 196
24.24124 182
24.26135 210
24.28146 194
24.30158 211
24.32169 208
24.34181 204
24.36192 199
24.38203 215
24.40215 225
24.42226 241
24.44237 221
24.46249 200
24.4826 195
24.50272 219
24.52283 197
24.54294 220
24.56306 205
24.58317 189
24.60328 210
24.6234 198
24.64351 200
24.66362 230
24.68374 219
24.70385 239
24.72397 227
24.74408 233
24.76419 222
24.78431 242
24.80442 234
24.82453 221
24.84465 253
24.86476 268
24.88488 257
24.90499 214
24.9251 247
24.94522 226
24.96533 229
24.98544 226
25.00556 218
25.02567 230
25.04579 226
25.0659 218
25.08601 247
25.10613 241
25.12624 213
25.14635 218
25.16647 230
25.18658 239
25.20669 233
25.22681 234
25.24692 223
25.26704 217
25.28715 242
25.30726 239
25.32738 232
25.34749 243
25.3676 237
25.38772 242
25.40783 210
25.42795 224
25.44806 234
25.46817 263
25.48829 300
25.5084 301
25.52851 293
25.54863 312
25.56874 327
25.58886 327
25.60897 336
25.62908 340
25.6492 356
25.66931 351
25.68942 382
25.70954 344
25.72965 450
25.74976 415
25.76988 438
25.78999 443
25.81011 452
25.83022 458
25.85033 434
25.87045 458
25.89056 431
25.91067 488
25.93079 470
25.9509 490
25.97102 518
25.99113 537
26.01124 522
26.03136 531
26.05147 550
26.07158 566
26.0917 565
26.11181 607
26.13193 619
26.15204 631
26.17215 736
26.19227 754
26.21238 760
26.23249 859
26.25261 922
26.27272 1078
26.29283 1113
26.31295 1175
26.33306 1251
26.35318 1441
26.37329 1550
26.3934 1838
26.41352 2081
26.43363 2499
26.45374 3009
26.47386 3713
26.49397 4831
26.51409 6731
26.5342 9133
26.55431 12708
26.57443 17893
26.59454 24226
26.61465 31293
26.63477 37957
26.65488 41099
26.67499 39935
26.69511 33411
26.71522 26282
26.73534 19952
26.75545 13944
26.77556 8552
26.79568 5008
26.81579 3250
26.8359 2368
26.85602 1996
26.87613 1762
26.89625 1522
26.91636 1344
26.93647 1240
26.95659 1060
26.9767 1075
26.99681 956
27.01693 927
27.03704 800
27.05716 802
27.07727 769
27.09738 686
27.1175 629
27.13761 643
27.15772 617
27.17784 492
27.19795 516
27.21806 513
27.23818 489
27.25829 486
27.27841 464
27.29852 487
27.31863 485
27.33875 518
27.35886 543
27.37897 501
27.39909 558
27.4192 570
27.43932 578
27.45943 622
27.47954 545
27.49966 571
27.51977 510
27.53988 540
27.56 459
27.58011 426
27.60023 400
27.62034 368
27.64045 361
27.66057 367
27.68068 361
27.70079 343
27.72091 317
27.74102 336
27.76113 363
27.78125 344
27.80136 344
27.82148 294
27.84159 341
27.8617 307
27.88182 304
27.90193 304
27.92204 307
27.94216 289
27.96227 301
27.98239 304
28.0025 306
28.02261 293
28.04273 285
28.06284 282
28.08295 271
28.10307 273
28.12318 274
28.1433 310
28.16341 278
28.18352 275
28.20364 289
28.22375 295
28.24386 257
28.26398 253
28.28409 253
28.3042 252
28.32432 232
28.34443 249
28.36455 246
28.38466 229
28.40477 233
28.42489 234
28.445 240
28.46511 239
28.48523 231
28.50534 225
28.52546 227
28.54557 234
28.56568 224
28.5858 244
28.60591 231
28.62602 222
28.64614 236
28.66625 211
28.68636 241
28.70648 235
28.72659 200
28.74671 243
28.76682 234
28.78693 238
28.80705 253
28.82716 239
28.84727 232
28.86739 253
28.8875 231
28.90762 192
28.92773 256
28.94784 224
28.96796 201
28.98807 228
29.00818 198
29.0283 215
29.04841 228
29.06853 220
29.08864 235
29.10875 222
29.12887 233
29.14898 225
29.16909 235
29.18921 210
29.20932 232
29.22943 210
29.24955 222
29.26966 239
29.28978 229
29.30989 229
29.33 217
29.35012 242
29.37023 232
29.39034 222
29.41046 246
29.43057 263
29.45069 250
29.4708 259
29.49091 271
29.51103 243
29.53114 228
29.55125 214
29.57137 235
29.59148 227
29.6116 201
29.63171 229
29.65182 232
29.67194 210
29.69205 197
29.71216 220
29.73228 203
29.75239 208
29.7725 199
29.79262 215
29.81273 211
29.83285 197
29.85296 189
29.87307 213
29.89319 230
29.9133 207
29.93341 222
29.95353 216
29.97364 218
29.99376 230
30.01387 216
30.03398 226
30.0541 216
30.07421 213
30.09432 224
30.11444 217
30.13455 221
30.15467 234
30.17478 245
30.19489 265
30.21501 239
30.23512 228
30.25523 234
30.27535 240
30.29546 229
30.31557 249
30.33569 206
30.3558 199
30.37592 222
30.39603 184
30.41614 185
30.43626 195
30.45637 192
30.47648 177
30.4966 180
30.51671 176
30.53683 199
30.55694 205
30.57705 199
30.59717 202
30.61728 203
30.63739 220
30.65751 198
30.67762 228
30.69773 239
30.71785 228
30.73796 236
30.75808 240
30.77819 220
30.7983 221
30.81842 245
30.83853 202
30.85864 242
30.87876 247
30.89887 211
30.91899 226
30.9391 207
30.95921 187
30.97933 168
30.99944 206
31.01955 198
31.03967 174
31.05978 181
31.0799 179
31.10001 177
31.12012 172
31.14024 173
31.16035 168
31.18046 171
31.20058 152
31.22069 189
31.2408 158
31.26092 167
31.28103 185
31.30115 189
31.32126 181
31.34137 182
31.36149 185
31.3816 154
31.40171 161
31.42183 158
31.44194 181
31.46206 199
31.48217 169
31.50228 168
31.5224 168
31.54251 181
31.56262 151
31.58274 149
31.60285 157
31.62297 171
31.64308 179
31.66319 137
31.68331 163
31.70342 190
31.72353 183
31.74365 154
31.76376 148
31.78387 163
31.80399 154
31.8241 141
31.84422 183
31.86433 155
31.88444 153
31.90456 177
31.92467 172
31.94478 154
31.9649 140
31.98501 171
32.00513 175
32.02524 190
32.04535 157
32.06547 156
32.08558 185
32.10569 172
32.12581 170
32.14592 191
32.16604 164
32.18615 189
32.20626 175
32.22638 189
32.24649 182
32.2666 170
32.28672 171
32.30683 197
32.32694 165
32.34706 177
32.36717 172
32.38729 163
32.4074 167
32.42751 184
32.44763 195
32.46774 199
32.48785 166
32.50797 197
32.52808 180
32.5482 184
32.56831 175
32.58842 175
32.60854 181
32.62865 152
32.64876 161
32.66888 161
32.68899 175
32.7091 172
32.72922 145
32.74933 160
32.76945 155
32.78956 173
32.80967 156
32.82979 147
32.8499 163
32.87001 140
32.89013 163
32.91024 158
32.93036 168
32.95047 159
32.97058 166
32.9907 146
33.01081 129
33.03092 136
33.05104 168
33.07115 155
33.09127 160
33.11138 140
33.13149 137
33.15161 162
33.17172 148
33.19183 150
33.21195 149
33.23206 136
33.25217 148
33.27229 149
33.2924 152
33.31252 165
33.33263 151
33.35274 156
33.37286 141
33.39297 136
33.41308 142
33.4332 138
33.45331 136
33.47343 155
33.49354 123
33.51365 153
33.53377 146
33.55388 142
33.57399 165
33.59411 141
33.61422 153
33.63434 127
33.65445 146
33.67456 149
33.69468 138
33.71479 136
33.7349 144
33.75502 139
33.77513 151
33.79524 143
33.81536 150
33.83547 143
33.85559 143
33.8757 167
33.89581 152
33.91593 140
33.93604 142
33.95615 166
33.97627 148
33.99638 129
34.0165 130
34.03661 162
34.05672 149
34.07684 148
34.09695 135
34.11706 158
34.13718 163
34.15729 178
34.17741 153
34.19752 180
34.21763 181
34.23775 193
34.25786 178
34.27797 175
34.29809 170
34.3182 180
34.33831 179
34.35843 141
34.37854 130
34.39866 156
34.41877 135
34.43888 155
34.459 143
34.47911 158
34.49922 162
34.51934 142
34.53945 137
34.55957 128
34.57968 135
34.59979 173
34.61991 139
34.64002 176
34.66013 171
34.68025 148
34.70036 159
34.72047 164
34.74059 169
34.7607 188
34.78082 175
34.80093 179
34.82104 157
34.84116 165
34.86127 163
34.88138 178
34.9015 197
34.92161 156
34.94173 184
34.96184 171
34.98195 193
35.00207 159
35.02218 174
35.04229 179
35.06241 173
35.08252 178
35.10264 195
35.12275 173
35.14286 170
35.16298 186
35.18309 181
35.2032 188
35.22332 212
35.24343 187
35.26354 163
35.28366 187
35.30377 186
35.32389 179
35.344 198
35.36411 168
35.38423 216
35.40434 174
35.42445 193
35.44457 219
35.46468 196
35.4848 202
35.50491 182
35.52502 184
35.54514 213
35.56525 188
35.58536 207
35.60548 203
35.62559 183
35.64571 188
35.66582 189
35.68593 186
35.70605 181
35.72616 201
35.74627 167
35.76639 210
35.7865 190
35.80661 160
35.82673 202
35.84684 168
35.86696 218
35.88707 203
35.90718 192
35.9273 174
35.94741 162
35.96752 200
35.98764 187
36.00775 194
36.02787 207
36.04798 205
36.06809 197
36.08821 196
36.10832 211
36.12843 232
36.14855 222
36.16866 221
36.18878 201
36.20889 249
36.229 250
36.24912 279
36.26923 255
36.28934 287
36.30946 325
36.32957 345
36.34968 412
36.3698 483
36.38991 649
36.41003 681
36.43014 902
36.45025 1146
36.47037 1456
36.49048 1820
36.51059 2282
36.53071 2616
36.55082 2787
36.57094 2617
36.59105 2208
36.61116 1814
36.63128 1549
36.65139 1410
36.6715 1055
36.69162 746
36.71173 565
36.73184 397
36.75196 289
36.77207 303
36.79219 297
36.8123 251
36.83241 259
36.85253 268
36.87264 249
36.89275 242
36.91287 196
36.93298 218
36.9531 228
36.97321 221
36.99332 197
37.01344 184
37.03355 192
37.05366 204
37.07378 174
37.09389 167
37.11401 150
37.13412 172
37.15423 176
37.17435 189
37.19446 158
37.21457 173
37.23469 173
37.2548 156
37.27491 161
37.29503 155
37.31514 173
37.33526 183
37.35537 149
37.37548 172
37.3956 151
37.41571 142
37.43582 150
37.45594 152
37.47605 155
37.49617 161
37.51628 162
37.53639 152
37.55651 152
37.57662 166
37.59673 176
37.61685 181
37.63696 167
37.65708 171
37.67719 174
37.6973 158
37.71742 161
37.73753 182
37.75764 160
37.77776 163
37.79787 156
37.81798 143
37.8381 154
37.85821 172
37.87833 155
37.89844 161
37.91855 145
37.93867 160
37.95878 150
37.97889 153
37.99901 156
38.01912 141
38.03924 169
38.05935 169
38.07946 178
38.09958 146
38.11969 173
38.1398 166
38.15992 160
38.18003 189
38.20015 194
38.22026 178
38.24037 164
38.26049 145
38.2806 178
38.30071 182
38.32083 175
38.34094 170
38.36105 171
38.38117 162
38.40128 167
38.4214 173
38.44151 160
38.46162 163
38.48174 177
38.50185 176
38.52196 167
38.54208 174
38.56219 174
38.58231 191
38.60242 183
38.62253 189
38.64265 168
38.66276 173
38.68287 189
38.70299 157
38.7231 164
38.74321 175
38.76333 157
38.78344 161
38.80356 190
38.82367 205
38.84378 179
38.8639 160
38.88401 165
38.90412 191
38.92424 184
38.94435 177
38.96447 182
38.98458 184
39.00469 185
39.02481 190
39.04492 219
39.06503 213
39.08515 210
39.10526 216
39.12538 238
39.14549 247
39.1656 238
39.18572 276
39.20583 313
39.22594 332
39.24606 386
39.26617 402
39.28628 445
39.3064 618
39.32651 645
39.34663 878
39.36674 1015
39.38685 1301
39.40697 1630
39.42708 2014
39.44719 2405
39.46731 2432
39.48742 2504
39.50754 2120
39.52765 1686
39.54776 1498
39.56788 1316
39.58799 1180
39.6081 933
39.62822 615
39.64833 430
39.66845 370
39.68856 277
39.70867 269
39.72879 279
39.7489 283
39.76901 265
39.78913 205
39.80924 229
39.82935 221
39.84947 174
39.86958 211
39.8897 198
39.90981 202
39.92992 182
39.95004 218
39.97015 203
39.99026 221
40.01038 224
40.03049 248
40.05061 245
40.07072 284
40.09083 341
40.11095 283
40.13106 371
40.15117 467
40.17129 504
40.1914 609
40.21152 779
40.23163 912
40.25174 1069
40.27186 1195
40.29197 1266
40.31208 1176
40.3322 1103
40.35231 859
40.37242 793
40.39254 701
40.41265 644
40.43277 510
40.45288 402
40.47299 280
40.49311 232
40.51322 216
40.53333 194
40.55345 200
40.57356 176
40.59368 170
40.61379 163
40.6339 189
40.65402 173
40.67413 165
40.69424 191
40.71436 173
40.73447 161
40.75458 162
40.7747 159
40.79481 159
40.81493 150
40.83504 145
40.85515 145
40.87527 148
40.89538 168
40.91549 157
40.93561 149
40.95572 168
40.97584 160
40.99595 157
41.01606 150
41.03618 153
41.05629 152
41.0764 153
41.09652 163
41.11663 149
41.13675 182
41.15686 194
41.17697 146
41.19709 146
41.2172 161
41.23731 166
41.25743 167
41.27754 157
41.29765 150
41.31777 173
41.33788 163
41.358 143
41.37811 176
41.39822 162
41.41834 167
41.43845 174
41.45856 160
41.47868 160
41.49879 164
41.51891 179
41.53902 153
41.55913 180
41.57925 178
41.59936 186
41.61947 212
41.63959 249
41.6597 220
41.67982 223
41.69993 193
41.72004 209
41.74016 218
41.76027 233
41.78038 218
41.8005 200
41.82061 214
41.84072 219
41.86084 170
41.88095 191
41.90107 201
41.92118 204
41.94129 153
41.96141 202
41.98152 211
42.00163 190
42.02175 170
42.04186 171
42.06198 165
42.08209 214
42.1022 204
42.12232 192
42.14243 218
42.16254 233
42.18266 240
42.20277 291
42.22289 281
42.243 376
42.26311 402
42.28323 416
42.30334 497
42.32345 646
42.34357 814
42.36368 998
42.38379 1190
42.40391 1452
42.42402 1663
42.44414 1805
42.46425 1707
42.48436 1595
42.50448 1231
42.52459 1086
42.5447 1029
42.56482 937
42.58493 818
42.60505 632
42.62516 473
42.64527 355
42.66539 286
42.6855 248
42.70561 218
42.72573 223
42.74584 207
42.76595 198
42.78607 188
42.80618 173
42.8263 180
42.84641 183
42.86652 188
42.88664 175
42.90675 161
42.92686 180
42.94698 167
42.96709 147
42.98721 151
43.00732 142
43.02743 140
43.04755 153
43.06766 149
43.08777 150
43.10789 157
43.128 150
43.14812 152
43.16823 152
43.18834 146
43.20846 149
43.22857 150
43.24868 129
43.2688 135
43.28891 153
43.30902 167
43.32914 154
43.34925 137
43.36937 124
43.38948 151
43.40959 136
43.42971 161
43.44982 141
43.46993 138
43.49005 142
43.51016 140
43.53028 152
43.55039 145
43.5705 145
43.59062 132
43.61073 134
43.63084 174
43.65096 157
43.67107 136
43.69119 143
43.7113 154
43.73141 145
43.75153 133
43.77164 127
43.79175 152
43.81187 127
43.83198 145
43.85209 143
43.87221 134
43.89232 129
43.91244 136
43.93255 144
43.95266 129
43.97278 170
43.99289 140
44.013 139
44.03312 131
44.05323 151
44.07335 136
44.09346 138
44.11357 144
44.13369 142
44.1538 140
44.17391 151
44.19403 139
44.21414 159
44.23426 140
44.25437 142
44.27448 137
44.2946 139
44.31471 152
44.33482 134
44.35494 152
44.37505 131
44.39516 140
44.41528 129
44.43539 139
44.45551 148
44.47562 131
44.49573 146
44.51585 158
44.53596 156
44.55607 114
44.57619 121
44.5963 140
44.61642 140
44.63653 146
44.65664 134
44.67676 122
44.69687 121
44.71698 122
44.7371 135
44.75721 136
44.77732 151
44.79744 123
44.81755 125
44.83767 128
44.85778 165
44.87789 144
44.89801 143
44.91812 143
44.93823 144
44.95835 144
44.97846 165
44.99858 156
45.01869 164
45.0388 158
45.05892 158
45.07903 140
45.09914 142
45.11926 131
45.13937 134
45.15949 149
45.1796 122
45.19971 171
45.21983 148
45.23994 154
45.26005 152
45.28017 152
45.30028 175
45.32039 157
45.34051 150
45.36062 180
45.38074 164
45.40085 192
45.42096 198
45.44108 174
45.46119 187
45.4813 177
45.50142 183
45.52153 198
45.54165 233
45.56176 259
45.58187 284
45.60199 299
45.6221 346
45.64221 429
45.66233 527
45.68244 586
45.70256 683
45.72267 791
45.74278 917
45.7629 1111
45.78301 1227
45.80312 1178
45.82324 1052
45.84335 875
45.86346 714
45.88358 683
45.90369 641
45.92381 618
45.94392 513
45.96403 387
45.98415 306
46.00426 221
46.02437 191
46.04449 182
46.0646 185
46.08472 175
46.10483 162
46.12494 169
46.14506 171
46.16517 147
46.18528 161
46.2054 153
46.22551 172
46.24563 153
46.26574 159
46.28585 150
46.30597 143
46.32608 136
46.34619 127
46.36631 117
46.38642 122
46.40653 133
46.42665 129
46.44676 135
46.46688 121
46.48699 150
46.5071 115
46.52722 128
46.54733 108
46.56744 138
46.58756 131
46.60767 118
46.62779 154
46.6479 130
46.66801 131
46.68813 145
46.70824 139
46.72835 141
46.74847 99
46.76858 140
46.78869 136
46.80881 127
46.82892 130
46.84904 126
46.86915 131
46.88926 155
46.90938 139
46.92949 146
46.9496 142
46.96972 133
46.98983 138
47.00995 133
47.03006 136
47.05017 158
47.07029 142
47.0904 150
47.11051 148
47.13063 148
47.15074 131
47.17086 120
47.19097 147
47.21108 137
47.2312 150
47.25131 154
47.27142 144
47.29154 139
47.31165 136
47.33176 131
47.35188 123
47.37199 127
47.39211 134
47.41222 130
47.43233 130
47.45245 127
47.47256 128
47.49267 124
47.51279 125
47.5329 146
47.55302 135
47.57313 112
47.59324 120
47.61336 114
47.63347 121
47.65358 123
47.6737 122
47.69381 136
47.71393 126
47.73404 114
47.75415 143
47.77427 111
47.79438 134
47.81449 114
47.83461 124
47.85472 121
47.87483 119
47.89495 117
47.91506 117
47.93518 120
47.95529 144
47.9754 123
47.99552 135
48.01563 132
48.03574 118
48.05586 122
48.07597 131
48.09609 132
48.1162 134
48.13631 126
48.15643 142
48.17654 119
48.19665 124
48.21677 116
48.23688 112
48.257 121
48.27711 121
48.29722 130
48.31734 125
48.33745 152
48.35756 143
48.37768 136
48.39779 123
48.4179 159
48.43802 136
48.45813 141
48.47825 136
48.49836 128
48.51847 144
48.53859 142
48.5587 148
48.57881 134
48.59893 154
48.61904 138
48.63916 138
48.65927 138
48.67938 137
48.6995 143
48.71961 169
48.73972 117
48.75984 147
48.77995 162
48.80006 138
48.82018 139
48.84029 132
48.86041 160
48.88052 155
48.90063 163
48.92075 135
48.94086 159
48.96097 126
48.98109 165
49.0012 139
49.02132 140
49.04143 152
49.06154 161
49.08166 167
49.10177 140
49.12188 160
49.142 164
49.16211 153
49.18223 127
49.20234 133
49.22245 148
49.24257 149
49.26268 136
49.28279 155
49.30291 142
49.32302 153
49.34313 150
49.36325 184
49.38336 170
49.40348 145
49.42359 144
49.4437 187
49.46382 144
49.48393 153
49.50404 187
49.52416 154
49.54427 187
49.56439 170
49.5845 170
49.60461 198
49.62473 192
49.64484 184
49.66495 210
49.68507 206
49.70518 232
49.7253 237
49.74541 261
49.76552 280
49.78564 300
49.80575 326
49.82586 385
49.84598 398
49.86609 433
49.8862 519
49.90632 534
49.92643 687
49.94655 847
49.96666 924
49.98677 1112
50.00689 1372
50.027 1695
50.04711 2172
50.06723 2653
50.08734 3142
50.10746 3447
50.12757 3774
50.14768 3670
50.1678 3192
50.18791 2597
50.20802 2077
50.22814 2058
50.24825 1943
50.26837 1933
50.28848 1599
50.30859 1234
50.32871 910
50.34882 604
50.36893 481
50.38905 404
50.40916 323
50.42927 330
50.44939 309
50.4695 293
50.48962 307
50.50973 287
50.52984 290
50.54996 303
50.57007 325
50.59018 285
50.6103 274
50.63041 276
50.65053 240
50.67064 262
50.69075 209
50.71087 205
50.73098 198
50.75109 202
50.77121 205
50.79132 175
50.81143 198
50.83155 176
50.85166 172
50.87178 153
50.89189 148
50.912 162
50.93212 142
50.95223 158
50.97234 150
50.99246 139
51.01257 140
51.03269 152
51.0528 152
51.07291 126
51.09303 147
51.11314 153
51.13325 134
51.15337 152
51.17348 133
51.1936 122
51.21371 134
51.23382 158
51.25394 145
51.27405 134
51.29416 128
51.31428 132
51.33439 127
51.3545 128
51.37462 135
51.39473 133
51.41485 133
51.43496 114
51.45507 134
51.47519 137
51.4953 132
51.51541 154
51.53553 129
51.55564 111
51.57576 133
51.59587 131
51.61598 117
51.6361 136
51.65621 119
51.67632 126
51.69644 106
51.71655 115
51.73667 109
51.75678 116
51.77689 139
51.79701 119
51.81712 119
51.83723 125
51.85735 127
51.87746 131
51.89757 117
51.91769 111
51.9378 114
51.95792 106
51.97803 106
51.99814 114
52.01826 104
52.03837 123
52.05848 119
52.0786 123
52.09871 127
52.11883 128
52.13894 99
52.15905 108
52.17917 121
52.19928 111
52.21939 135
52.23951 124
52.25962 103
52.27974 127
52.29985 116
52.31996 112
52.34008 120
52.36019 119
52.3803 111
52.40042 120
52.42053 136
52.44064 123
52.46076 122
52.48087 115
52.50099 118
52.5211 133
52.54121 120
52.56133 130
52.58144 131
52.60155 121
52.62167 127
52.64178 120
52.6619 112
52.68201 113
52.70212 128
52.72224 102
52.74235 116
52.76246 127
52.78258 119
52.80269 137
52.8228 134
52.84292 105
52.86303 108
52.88315 133
52.90326 124
52.92337 127
52.94349 125
52.9636 134
52.98371 132
53.00383 124
53.02394 119
53.04406 138
53.06417 146
53.08428 118
53.1044 128
53.12451 133
53.14462 123
53.16474 136
53.18485 104
53.20497 136
53.22508 128
53.24519 121
53.26531 129
53.28542 123
53.30553 140
53.32565 126
53.34576 121
53.36587 124
53.38599 129
53.4061 149
53.42622 126
53.44633 123
53.46644 120
53.48656 124
53.50667 145
53.52678 128
53.5469 141
53.56701 131
53.58713 133
53.60724 116
53.62735 114
53.64747 110
53.66758 130
53.68769 143
53.70781 134
53.72792 134
53.74804 126
53.76815 142
53.78826 114
53.80838 116
53.82849 132
53.8486 148
53.86872 132
53.88883 116
53.90894 144
53.92906 134
53.94917 127
53.96929 131
53.9894 130
54.00951 149
54.02963 120
54.04974 135
54.06985 132
54.08997 128
54.11008 127
54.1302 139
54.15031 134
54.17042 154
54.19054 144
54.21065 146
54.23076 136
54.25088 129
54.27099 155
54.29111 146
54.31122 136
54.33133 137
54.35145 148
54.37156 151
54.39167 150
54.41179 155
54.4319 164
54.45201 171
54.47213 147
54.49224 155
54.51236 186
54.53247 176
54.55258 194
54.5727 199
54.59281 225
54.61292 242
54.63304 245
54.65315 297
54.67327 311
54.69338 361
54.71349 435
54.73361 487
54.75372 611
54.77383 650
54.79395 809
54.81406 977
54.83417 1008
54.85429 1129
54.8744 1128
54.89452 1005
54.91463 843
54.93474 694
54.95486 625
54.97497 625
54.99508 624
55.0152 606
55.03531 561
55.05543 464
55.07554 404
55.09565 359
55.11577 290
55.13588 310
55.15599 275
55.17611 321
55.19622 337
55.21634 348
55.23645 408
55.25656 480
55.27668 503
55.29679 575
55.3169 566
55.33702 555
55.35713 484
55.37724 395
55.39736 362
55.41747 337
55.43759 364
55.4577 371
55.47781 323
55.49793 261
55.51804 298
55.53815 211
55.55827 176
55.57838 153
55.5985 158
55.61861 153
55.63872 137
55.65884 152
55.67895 144
55.69906 123
55.71918 146
55.73929 157
55.75941 129
55.77952 160
55.79963 136
55.81975 153
55.83986 129
55.85997 113
55.88009 140
55.9002 120
55.92031 119
55.94043 112
55.96054 133
55.98066 139
56.00077 141
56.02088 112
56.041 131
56.06111 117
56.08122 124
56.10134 119
56.12145 124
56.14157 100
56.16168 132
56.18179 129
56.20191 101
56.22202 98
56.24213 111
56.26225 138
56.28236 107
56.30248 113
56.32259 117
56.3427 102
56.36282 123
56.38293 103
56.40304 123
56.42316 114
56.44327 106
56.46338 124
56.4835 104
56.50361 124
56.52373 112
56.54384 116
56.56395 103
56.58407 118
56.60418 101
56.62429 98
56.64441 115
56.66452 89
56.68464 110
56.70475 107
56.72486 122
56.74498 111
56.76509 135
56.7852 120
56.80532 117
56.82543 126
56.84554 127
56.86566 137
56.88577 105
56.90589 137
56.926 125
56.94611 101
56.96623 128
56.98634 111
57.00645 119
57.02657 98
57.04668 119
57.0668 123
57.08691 121
57.10702 142
57.12714 142
57.14725 125
57.16736 180
57.18748 141
57.20759 184
57.22771 160
57.24782 167
57.26793 173
57.28805 193
57.30816 138
57.32827 131
57.34839 146
57.3685 152
57.38861 148
57.40873 109
57.42884 122
57.44896 142
57.46907 122
57.48918 122
57.5093 117
57.52941 110
57.54952 99
57.56964 127
57.58975 118
57.60987 125
57.62998 130
57.65009 106
57.67021 123
57.69032 95
57.71043 110
57.73055 133
57.75066 139
57.77078 123
57.79089 133
57.811 113
57.83112 126
57.85123 104
57.87134 121
57.89146 117
57.91157 132
57.93168 99
57.9518 109
57.97191 113
57.99203 113
58.01214 139
58.03225 113
58.05237 141
58.07248 140
58.09259 135
58.11271 101
58.13282 138
58.15294 124
58.17305 138
58.19316 112
58.21328 122
58.23339 131
58.2535 118
58.27362 94
58.29373 98
58.31385 152
58.33396 114
58.35407 127
58.37419 130
58.3943 135
58.41441 137
58.43453 119
58.45464 111
58.47475 111
58.49487 117
58.51498 121
58.5351 125
58.55521 122
58.57532 112
58.59544 132
58.61555 119
58.63566 150
58.65578 126
58.67589 139
58.69601 136
58.71612 122
58.73623 120
58.75635 127
58.77646 127
58.79657 121
58.81669 121
58.8368 123
58.85691 126
58.87703 115
58.89714 111
58.91726 120
58.93737 115
58.95748 129
58.9776 115
58.99771 115
59.01782 107
59.03794 129
59.05805 134
59.07817 134
59.09828 123
59.11839 150
59.13851 137
59.15862 135
59.17873 138
59.19885 126
59.21896 120
59.23908 138
59.25919 133
59.2793 146
59.29942 123
59.31953 141
59.33964 143
59.35976 144
59.37987 169
59.39998 148
59.4201 154
59.44021 182
59.46033 140
59.48044 194
59.50055 202
59.52067 202
59.54078 203
59.56089 243
59.58101 240
59.60112 229
59.62124 287
59.64135 308
59.66146 323
59.68158 342
59.70169 387
59.7218 449
59.74192 584
59.76203 629
59.78215 783
59.80226 854
59.82237 1000
59.84249 1285
59.8626 1475
59.88271 1715
59.90283 1961
59.92294 2087
59.94305 2231
59.96317 2066
59.98328 1797
60.0034 1477
60.02351 1204
60.04362 1146
60.06374 1171
60.08385 1198
60.10396 1103
60.12408 1036
60.14419 862
60.16431 587
60.18442 463
60.20453 350
60.22465 284
60.24476 276
60.26487 232
60.28499 189
60.3051 197
60.32522 180
60.34533 178
60.36544 160
60.38556 152
60.40567 155
60.42578 166
60.4459 147
60.46601 148
60.48612 150
60.50624 159
60.52635 143
60.54647 137
60.56658 147
60.58669 126
60.60681 147
60.62692 130
60.64703 150
60.66715 143
60.68726 126
60.70738 131
60.72749 122
60.7476 135
60.76772 121
60.78783 105
60.80794 119
60.82806 129
60.84817 132
60.86828 126
60.8884 131
60.90851 130
60.92863 135
60.94874 122
60.96885 114
60.98897 114
61.00908 111
61.02919 123
61.04931 113
61.06942 128
61.08954 124
61.10965 127
61.12976 131
61.14988 119
61.16999 123
61.1901 113
61.21022 117
61.23033 119
61.25045 117
61.27056 109
61.29067 120
61.31079 112
61.3309 132
61.35101 121
61.37113 131
61.39124 114
61.41135 122
61.43147 118
61.45158 112
61.4717 115
61.49181 125
61.51192 99
61.53204 95
61.55215 114
61.57226 133
61.59238 113
61.61249 124
61.63261 127
61.65272 108
61.67283 119
61.69295 133
61.71306 125
61.73317 128
61.75329 119
61.7734 115
61.79352 134
61.81363 112
61.83374 119
61.85386 119
61.87397 127
61.89408 109
61.9142 101
61.93431 104
61.95442 106
61.97454 127
61.99465 110
62.01477 109
62.03488 105
62.05499 122
62.07511 105
62.09522 123
62.11533 125
62.13545 125
62.15556 132
62.17568 132
62.19579 126
62.2159 147
62.23602 128
62.25613 123
62.27624 143
62.29636 138
62.31647 128
62.33659 137
62.3567 126
62.37681 136
62.39693 126
62.41704 129
62.43715 120
62.45727 118
62.47738 127
62.49749 112
62.51761 121
62.53772 124
62.55784 123
62.57795 96
62.59806 111
62.61818 102
62.63829 123
62.6584 119
62.67852 119
62.69863 112
62.71875 97
62.73886 114
62.75897 132
62.77909 129
62.7992 113
62.81931 92
62.83943 100
62.85954 125
62.87965 95
62.89977 117
62.91988 139
62.94 106
62.96011 135
62.98022 131
63.00034 94
63.02045 115
63.04056 124
63.06068 116
63.08079 128
63.10091 104
63.12102 117
63.14113 126
63.16125 132
63.18136 120
63.20147 113
63.22159 116
63.2417 135
63.26182 109
63.28193 122
63.30204 126
63.32216 118
63.34227 123
63.36238 113
63.3825 116
63.40261 115
63.42272 120
63.44284 133
63.46295 128
63.48307 109
63.50318 125
63.52329 117
63.54341 130
63.56352 110
63.58363 114
63.60375 127
63.62386 135
63.64398 133
63.66409 151
63.6842 142
63.70432 145
63.72443 146
63.74454 131
63.76466 161
63.78477 181
63.80489 194
63.825 186
63.84511 222
63.86523 229
63.88534 266
63.90545 306
63.92557 343
63.94568 365
63.96579 407
63.98591 440
64.00602 494
64.02614 473
64.04625 426
64.06636 381
64.08648 309
64.10659 314
64.1267 307
64.14682 270
64.16693 251
64.18705 287
64.20716 281
64.22727 248
64.24739 222
64.2675 182
64.28761 165
64.30773 149
64.32784 105
64.34796 138
64.36807 126
64.38818 119
64.4083 117
64.42841 104
64.44852 109
64.46864 136
64.48875 123
64.50886 102
64.52898 101
64.54909 104
64.56921 99
64.58932 100
64.60943 91
64.62955 94
64.64966 101
64.66977 104
64.68989 91
64.71 96
64.73012 111
64.75023 102
64.77034 106
64.79046 101
64.81057 101
64.83068 99
64.8508 93
64.87091 114
64.89102 118
64.91114 104
64.93125 131
64.95137 96
64.97148 126
64.99159 112
65.01171 84
65.03182 95
65.05193 105
65.07205 95
65.09216 117
65.11228 106
65.13239 121
65.1525 120
65.17262 116
65.19273 103
65.21284 118
65.23296 111
65.25307 125
65.27319 118
65.2933 125
65.31341 100
65.33353 129
65.35364 122
65.37375 118
65.39387 109
65.41398 112
65.43409 113
65.45421 125
65.47432 136
65.49444 126
65.51455 127
65.53466 122
65.55478 140
65.57489 140
65.595 147
65.61512 144
65.63523 152
65.65535 156
65.67546 172
65.69557 152
65.71569 206
65.7358 200
65.75591 234
65.77603 208
65.79614 183
65.81626 180
65.83637 170
65.85648 154
65.8766 157
65.89671 155
65.91682 173
65.93694 145
65.95705 153
65.97716 167
65.99728 130
66.01739 123
66.03751 113
66.05762 115
66.07773 122
66.09785 117
66.11796 107
66.13807 133
66.15819 98
66.1783 126
66.19842 143
66.21853 127
66.23864 99
66.25876 117
66.27887 133
66.29898 117
66.3191 126
66.33921 113
66.35933 123
66.37944 119
66.39955 122
66.41967 109
66.43978 120
66.45989 115
66.48001 102
66.50012 108
66.52023 123
66.54035 109
66.56046 104
66.58058 125
66.60069 138
66.6208 107
66.64092 108
66.66103 133
66.68114 123
66.70126 142
66.72137 112
66.74149 110
66.7616 146
66.78171 124
66.80183 103
66.82194 125
66.84205 143
66.86217 138
66.88228 103
66.90239 128
66.92251 139
66.94262 151
66.96274 120
66.98285 132
67.00296 142
67.02308 141
67.04319 145
67.0633 136
67.08342 142
67.10353 134
67.12365 133
67.14376 134
67.16387 121
67.18399 144
67.2041 137
67.22421 143
67.24433 161
67.26444 155
67.28456 179
67.30467 155
67.32478 165
67.3449 188
67.36501 207
67.38512 243
67.40524 205
67.42535 240
67.44546 267
67.46558 320
67.48569 342
67.50581 354
67.52592 397
67.54603 472
67.56615 530
67.58626 629
67.60637 734
67.62649 780
67.6466 928
67.66672 1044
67.68683 1145
67.70694 1267
67.72706 1223
67.74717 1251
67.76728 1109
67.7874 980
67.80751 805
67.82763 810
67.84774 783
67.86785 824
67.88797 927
67.90808 899
67.92819 1023
67.94831 990
67.96842 949
67.98853 992
68.00865 997
68.02876 1071
68.04888 1245
68.06899 1334
68.0891 1486
68.10922 1658
68.12933 1634
68.14944 1656
68.16956 1566
68.18967 1365
68.20979 1342
68.2299 1332
68.25001 1411
68.27013 1527
68.29024 1505
68.31035 1548
68.33047 1362
68.35058 1209
68.3707 996
68.39081 799
68.41092 640
68.43104 574
68.45115 621
68.47126 584
68.49138 569
68.51149 481
68.5316 483
68.55172 386
68.57183 315
68.59195 252
68.61206 213
68.63217 207
68.65229 190
68.6724 184
68.69251 168
68.71263 168
68.73274 157
68.75286 154
68.77297 140
68.79308 155
68.8132 163
68.83331 142
68.85342 144
68.87354 134
68.89365 142
68.91376 126
68.93388 118
68.95399 131
68.97411 129
68.99422 127
69.01433 128
69.03445 115
69.05456 131
69.07467 110
69.09479 123
69.1149 131
69.13502 116
69.15513 121
69.17524 124
69.19536 119
69.21547 117
69.23558 124
69.2557 110
69.27581 111
69.29593 113
69.31604 111
69.33615 124
69.35627 130
69.37638 125
69.39649 110
69.41661 103
69.43672 110
69.45683 114
69.47695 113
69.49706 115
69.51718 105
69.53729 125
69.5574 111
69.57752 120
69.59763 109
69.61774 97
69.63786 109
69.65797 121
69.67809 109
69.6982 88
69.71831 102
69.73843 103
69.75854 98
69.77865 123
69.79877 118
69.81888 101
69.839 116
69.85911 103
69.87922 105
69.89934 74
69.91945 95
69.93956 98
69.95968 105
69.97979 93
69.9999 112
70.02002 112
70.04013 106
70.06025 108
70.08036 106
70.10047 123
70.12059 115
70.1407 98
70.16081 113
70.18093 107
70.20104 119
70.22116 99
70.24127 109
70.26138 87
70.2815 89
70.30161 92
70.32172 97
70.34184 127
70.36195 102
70.38207 99
70.40218 93
70.42229 106
70.44241 100
70.46252 109
70.48263 80
70.50275 99
70.52286 113
70.54297 112
70.56309 116
70.5832 98
70.60332 95
70.62343 99
70.64354 107
70.66366 105
70.68377 103
70.70388 127
70.724 95
70.74411 123
70.76423 128
70.78434 88
70.80445 117
70.82457 91
70.84468 92
70.86479 107
70.88491 90
70.90502 97
70.92513 91
70.94525 91
70.96536 127
70.98548 101
71.00559 97
71.0257 81
71.04582 94
71.06593 98
71.08604 100
71.10616 82
71.12627 88
71.14639 90
71.1665 95
71.18661 94
71.20673 108
71.22684 101
71.24695 103
71.26707 116
71.28718 87
71.3073 94
71.32741 94
71.34752 97
71.36764 92
71.38775 93
71.40786 103
71.42798 109
71.44809 106
71.4682 91
71.48832 109
71.50843 105
71.52855 102
71.54866 107
71.56877 109
71.58889 98
71.609 101
71.62911 109
71.64923 106
71.66934 94
71.68946 96
71.70957 112
71.72968 89
71.7498 108
71.76991 84
71.79002 114
71.81014 112
71.83025 94
71.85037 99
71.87048 106
71.89059 94
71.91071 91
71.93082 107
71.95093 80
71.97105 120
71.99116 87
72.01127 108
72.03139 74
72.0515 110
72.07162 99
72.09173 108
72.11184 101
72.13196 108
72.15207 87
72.17218 107
72.1923 97
72.21241 95
72.23253 107
72.25264 122
72.27275 106
72.29287 95
72.31298 99
72.33309 110
72.35321 95
72.37332 115
72.39344 113
72.41355 112
72.43366 89
72.45378 98
72.47389 94
72.494 102
72.51412 129
72.53423 93
72.55434 104
72.57446 110
72.59457 95
72.61469 108
72.6348 101
72.65491 110
72.67503 107
72.69514 112
72.71525 104
72.73537 100
72.75548 106
72.7756 97
72.79571 95
72.81582 107
72.83594 103
72.85605 114
72.87616 111
72.89628 103
72.91639 98
72.9365 123
72.95662 111
72.97673 124
72.99685 105
73.01696 124
73.03707 112
73.05719 126
73.0773 113
73.09741 125
73.11753 136
73.13764 152
73.15776 164
73.17787 129
73.19798 156
73.2181 173
73.23821 180
73.25832 216
73.27844 235
73.29855 259
73.31867 265
73.33878 315
73.35889 330
73.37901 433
73.39912 396
73.41923 499
73.43935 432
73.45946 457
73.47957 445
73.49969 353
73.5198 332
73.53992 241
73.56003 268
73.58014 264
73.60026 290
73.62037 296
73.64048 287
73.6606 271
73.68071 284
73.70083 232
73.72094 178
73.74105 149
73.76117 156
73.78128 148
73.80139 128
73.82151 122
73.84162 124
73.86174 131
73.88185 129
73.90196 114
73.92208 114
73.94219 120
73.9623 92
73.98242 99
74.00253 112
74.02264 95
74.04276 108
74.06287 111
74.08299 115
74.1031 100
74.12321 112
74.14333 85
74.16344 99
74.18355 101
74.20367 114
74.22378 98
74.2439 110
74.26401 84
74.28412 109
74.30424 104
74.32435 99
74.34446 86
74.36458 105
74.38469 103
74.40481 84
74.42492 97
74.44503 101
74.46515 103
74.48526 82
74.50537 104
74.52549 87
74.5456 102
74.56571 111
74.58583 88
74.60594 92
74.62606 106
74.64617 117
74.66628 99
74.6864 97
74.70651 115
74.72662 85
74.74674 101
74.76685 94
74.78697 107
74.80708 98
74.82719 105
74.84731 96
74.86742 101
74.88753 85
74.90765 120
74.92776 91
74.94787 104
74.96799 111
74.9881 116
75.00822 111
