3.00117 19951
3.02128 19770
3.0414 18822
3.06151 18735
3.08162 17783
3.10174 17407
3.12185 17254
3.14197 16272
3.16208 16307
3.18219 15383
3.20231 14992
3.22242 14714
3.24253 14059
3.26265 13855
3.28276 13300
3.30288 12709
3.32299 12751
3.3431 12180
3.36322 11746
3.38333 11144
3.40344 10892
3.42356 10595
3.44367 10104
3.46379 10031
3.4839 9332
3.50401 9161
3.52413 8961
3.54424 8416
3.56435 8322
3.58447 7662
3.60458 7614
3.62469 7292
3.64481 6956
3.66492 6773
3.68504 6363
3.70515 6277
3.72526 5971
3.74538 5582
3.76549 5727
3.7856 5139
3.80572 5087
3.82583 5010
3.84595 4627
3.86606 4581
3.88617 4189
3.90629 4054
3.9264 3952
3.94651 3669
3.96663 3680
3.98674 3234
4.00686 3316
4.02697 3093
4.04708 2973
4.0672 3017
4.08731 2625
4.10742 2556
4.12754 2539
4.14765 2395
4.16776 2344
4.18788 2060
4.20799 2071
4.22811 2084
4.24822 1967
4.26833 1923
4.28845 1713
4.30856 1704
4.32867 1720
4.34879 1691
4.3689 1666
4.38902 1425
4.40913 1442
4.42924 1486
4.44936 1451
4.46947 1429
4.48958 1253
4.5097 1278
4.52981 1314
4.54992 1240
4.57004 1197
4.59015 1111
4.61027 1175
4.63038 1127
4.65049 1113
4.67061 1032
4.69072 1021
4.71083 966
4.73095 1046
4.75106 944
4.77118 1007
4.79129 842
4.8114 848
4.83152 897
4.85163 892
4.87174 795
4.89186 792
4.91197 733
4.93209 749
4.9522 780
4.97231 690
4.99243 678
5.01254 631
5.03265 700
5.05277 700
5.07288 651
5.09299 649
5.11311 594
5.13322 577
5.15334 614
5.17345 503
5.19356 578
5.21368 554
5.23379 490
5.2539 530
5.27402 499
5.29413 485
5.31425 480
5.33436 486
5.35447 442
5.37459 432
5.3947 439
5.41481 389
5.43493 423
5.45504 428
5.47516 378
5.49527 419
5.51538 382
5.5355 362
5.55561 357
5.57572 305
5.59584 328
5.61595 332
5.63606 350
5.65618 319
5.67629 280
5.69641 303
5.71652 340
5.73663 323
5.75675 270
5.77686 273
5.79697 266
5.81709 281
5.8372 295
5.85732 262
5.87743 281
5.89754 235
5.91766 245
5.93777 255
5.95788 235
5.978 245
5.99811 268
6.01823 239
6.03834 237
6.05845 242
6.07857 230
6.09868 249
6.11879 233
6.13891 225
6.15902 232
6.17913 228
6.19925 210
6.21936 197
6.23948 236
6.25959 230
6.2797 174
6.29982 195
6.31993 235
6.34004 235
6.36016 211
6.38027 241
6.40039 216
6.4205 219
6.44061 199
6.46073 199
6.48084 221
6.50095 216
6.52107 214
6.54118 216
6.56129 191
6.58141 181
6.60152 181
6.62164 187
6.64175 205
6.66186 196
6.68198 220
6.70209 166
6.7222 188
6.74232 188
6.76243 183
6.78255 196
6.80266 182
6.82277 174
6.84289 182
6.863 195
6.88311 185
6.90323 189
6.92334 192
6.94346 192
6.96357 183
6.98368 205
7.0038 184
7.02391 178
7.04402 184
7.06414 161
7.08425 157
7.10436 200
7.12448 202
7.14459 190
7.16471 203
7.18482 186
7.20493 206
7.22505 206
7.24516 204
7.26527 220
7.28539 171
7.3055 191
7.32562 218
7.34573 208
7.36584 203
7.38596 172
7.40607 193
7.42618 192
7.4463 171
7.46641 203
7.48653 168
7.50664 209
7.52675 192
7.54687 210
7.56698 195
7.58709 196
7.60721 178
7.62732 195
7.64743 219
7.66755 204
7.68766 203
7.70778 206
7.72789 222
7.748 243
7.76812 197
7.78823 211
7.80834 197
7.82846 193
7.84857 225
7.86869 196
7.8888 201
7.90891 195
7.92903 188
7.94914 197
7.96925 219
7.98937 186
8.00948 226
8.0296 215
8.04971 223
8.06982 218
8.08994 188
8.11005 201
8.13016 212
8.15028 232
8.17039 224
8.1905 218
8.21062 202
8.23073 201
8.25085 191
8.27096 198
8.29107 233
8.31119 251
8.3313 208
8.35141 182
8.37153 213
8.39164 202
8.41176 190
8.43187 226
8.45198 219
8.4721 200
8.49221 212
8.51232 219
8.53244 191
8.55255 220
8.57266 217
8.59278 211
8.61289 207
8.63301 192
8.65312 219
8.67323 205
8.69335 264
8.71346 225
8.73357 228
8.75369 207
8.7738 211
8.79392 213
8.81403 201
8.83414 202
8.85426 215
8.87437 196
8.89448 247
8.9146 218
8.93471 238
8.95483 233
8.97494 192
8.99505 221
9.01517 220
9.03528 208
9.05539 217
9.07551 216
9.09562 248
9.11573 198
9.13585 219
9.15596 207
9.17608 223
9.19619 211
9.2163 238
9.23642 220
9.25653 243
9.27664 220
9.29676 223
9.31687 180
9.33699 223
9.3571 197
9.37721 212
9.39733 241
9.41744 212
9.43755 230
9.45767 263
9.47778 260
9.4979 193
9.51801 231
9.53812 200
9.55824 227
9.57835 209
9.59846 227
9.61858 212
9.63869 222
9.6588 216
9.67892 199
9.69903 243
9.71915 245
9.73926 224
9.75937 215
9.77949 227
9.7996 233
9.81971 223
9.83983 224
9.85994 245
9.88006 240
9.90017 240
9.92028 202
9.9404 203
9.96051 236
9.98062 214
10.00074 235
10.02085 217
10.04097 171
10.06108 187
10.08119 220
10.10131 204
10.12142 239
10.14153 258
10.16165 251
10.18176 209
10.20187 188
10.22199 237
10.2421 252
10.26222 226
10.28233 224
10.30244 246
10.32256 204
10.34267 257
10.36278 215
10.3829 220
10.40301 218
10.42313 246
10.44324 227
10.46335 225
10.48347 227
10.50358 205
10.52369 218
10.54381 221
10.56392 237
10.58403 252
10.60415 187
10.62426 214
10.64438 235
10.66449 215
10.6846 227
10.70472 246
10.72483 247
10.74494 235
10.76506 195
10.78517 203
10.80529 228
10.8254 228
10.84551 178
10.86563 255
10.88574 207
10.90585 231
10.92597 205
10.94608 210
10.9662 216
10.98631 240
11.00642 223
11.02654 237
11.04665 222
11.06676 240
11.08688 215
11.10699 223
11.1271 212
11.14722 226
11.16733 193
11.18745 214
11.20756 249
11.22767 212
11.24779 229
11.2679 229
11.28801 226
11.30813 220
11.32824 233
11.34836 196
11.36847 227
11.38858 222
11.4087 221
11.42881 230
11.44892 208
11.46904 219
11.48915 193
11.50927 222
11.52938 204
11.54949 251
11.56961 233
11.58972 229
11.60983 227
11.62995 222
11.65006 216
11.67017 219
11.69029 246
11.7104 237
11.73052 229
11.75063 234
11.77074 245
11.79086 250
11.81097 216
11.83108 252
11.8512 249
11.87131 224
11.89143 262
11.91154 280
11.93165 267
11.95177 297
11.97188 301
11.99199 288
12.01211 289
12.03222 305
12.05234 314
12.07245 337
12.09256 335
12.11268 373
12.13279 325
12.1529 311
12.17302 378
12.19313 425
12.21324 441
12.23336 444
12.25347 430
12.27359 449
12.2937 400
12.31381 465
12.33393 454
12.35404 407
12.37415 422
12.39427 396
12.41438 344
12.4345 367
12.45461 334
12.47472 311
12.49484 287
12.51495 257
12.53506 296
12.55518 226
12.57529 245
12.5954 244
12.61552 257
12.63563 280
12.65575 210
12.67586 236
12.69597 208
12.71609 233
12.7362 238
12.75631 248
12.77643 193
12.79654 211
12.81666 222
12.83677 210
12.85688 235
12.877 226
12.89711 207
12.91722 200
12.93734 215
12.95745 204
12.97757 196
12.99768 198
13.01779 194
13.03791 184
13.05802 209
13.07813 190
13.09825 192
13.11836 184
13.13847 207
13.15859 210
13.1787 172
13.19882 207
13.21893 175
13.23904 186
13.25916 224
13.27927 179
13.29938 195
13.3195 219
13.33961 208
13.35973 172
13.37984 212
13.39995 212
13.42007 235
13.44018 204
13.46029 210
13.48041 221
13.50052 221
13.52064 216
13.54075 185
13.56086 185
13.58098 224
13.60109 244
13.6212 191
13.64132 196
13.66143 196
13.68154 224
13.70166 213
13.72177 198
13.74189 185
13.762 205
13.78211 212
13.80223 203
13.82234 173
13.84245 190
13.86257 212
13.88268 233
13.9028 190
13.92291 207
13.94302 216
13.96314 202
13.98325 200
14.00336 218
14.02348 177
14.04359 197
14.06371 196
14.08382 223
14.10393 217
14.12405 198
14.14416 200
14.16427 203
14.18439 173
14.2045 149
14.22461 167
14.24473 191
14.26484 168
14.28496 186
14.30507 192
14.32518 174
14.3453 186
14.36541 205
14.38552 202
14.40564 178
14.42575 190
14.44587 181
14.46598 194
14.48609 221
14.50621 201
14.52632 164
14.54643 178
14.56655 177
14.58666 180
14.60677 181
14.62689 209
14.647 160
14.66712 203
14.68723 179
14.70734 192
14.72746 194
14.74757 165
14.76768 186
14.7878 172
14.80791 192
14.82803 177
14.84814 194
14.86825 198
14.88837 183
14.90848 196
14.92859 188
14.94871 199
14.96882 168
14.98894 179
15.00905 184
15.02916 190
15.04928 182
15.06939 167
15.0895 186
15.10962 160
15.12973 178
15.14984 204
15.16996 169
15.19007 172
15.21019 194
15.2303 173
15.25041 144
15.27053 184
15.29064 182
15.31075 182
15.33087 174
15.35098 168
15.3711 170
15.39121 170
15.41132 196
15.43144 182
15.45155 182
15.47166 163
15.49178 188
15.51189 170
15.53201 154
15.55212 170
15.57223 171
15.59235 175
15.61246 176
15.63257 193
15.65269 175
15.6728 175
15.69291 178
15.71303 153
15.73314 157
15.75326 178
15.77337 197
15.79348 179
15.8136 185
15.83371 172
15.85382 176
15.87394 166
15.89405 175
15.91417 176
15.93428 195
15.95439 164
15.97451 188
15.99462 179
16.01473 171
16.03485 188
16.05496 164
16.07508 188
16.09519 178
16.1153 176
16.13542 191
16.15553 190
16.17564 167
16.19576 179
16.21587 154
16.23598 169
16.2561 153
16.27621 175
16.29633 172
16.31644 182
16.33655 183
16.35667 150
16.37678 191
16.39689 171
16.41701 175
16.43712 184
16.45724 175
16.47735 173
16.49746 154
16.51758 180
16.53769 184
16.5578 187
16.57792 189
16.59803 151
16.61814 159
16.63826 160
16.65837 165
16.67849 160
16.6986 152
16.71871 142
16.73883 167
16.75894 168
16.77905 193
16.79917 188
16.81928 169
16.8394 159
16.85951 172
16.87962 174
16.89974 154
16.91985 166
16.93996 159
16.96008 152
16.98019 161
17.00031 167
17.02042 140
17.04053 169
17.06065 164
17.08076 203
17.10087 160
17.12099 195
17.1411 182
17.16121 190
17.18133 167
17.20144 150
17.22156 190
17.24167 179
17.26178 187
17.2819 158
17.30201 182
17.32212 171
17.34224 150
17.36235 179
17.38247 159
17.40258 192
17.42269 164
17.44281 174
17.46292 148
17.48303 185
17.50315 171
17.52326 175
17.54338 172
17.56349 183
17.5836 153
17.60372 180
17.62383 190
17.64394 195
17.66406 180
17.68417 179
17.70428 153
17.7244 161
17.74451 182
17.76463 170
17.78474 157
17.80485 155
17.82497 210
17.84508 161
17.86519 186
17.88531 166
17.90542 172
17.92554 164
17.94565 178
17.96576 179
17.98588 177
18.00599 173
18.0261 161
18.04622 147
18.06633 152
18.08645 128
18.10656 168
18.12667 192
18.14679 166
18.1669 157
18.18701 166
18.20713 159
18.22724 170
18.24735 164
18.26747 170
18.28758 172
18.3077 162
18.32781 187
18.34792 159
18.36804 177
18.38815 144
18.40826 174
18.42838 161
18.44849 187
18.46861 181
18.48872 202
18.50883 160
18.52895 151
18.54906 159
18.56917 167
18.58929 183
18.6094 171
18.62951 176
18.64963 197
18.66974 176
18.68986 183
18.70997 193
18.73008 176
18.7502 153
18.77031 164
18.79042 184
18.81054 165
18.83065 170
18.85077 151
18.87088 163
18.89099 172
18.91111 166
18.93122 161
18.95133 155
18.97145 181
18.99156 188
19.01168 131
19.03179 166
19.0519 159
19.07202 170
19.09213 160
19.11224 192
19.13236 176
19.15247 167
19.17258 157
19.1927 171
19.21281 185
19.23293 200
19.25304 171
19.27315 163
19.29327 174
19.31338 190
19.33349 184
19.35361 176
19.37372 182
19.39384 196
19.41395 188
19.43406 179
19.45418 186
19.47429 205
19.4944 219
19.51452 211
19.53463 202
19.55475 204
19.57486 195
19.59497 207
19.61509 228
19.6352 238
19.65531 217
19.67543 210
19.69554 236
19.71565 246
19.73577 241
19.75588 289
19.776 299
19.79611 282
19.81622 339
19.83634 342
19.85645 383
19.87656 326
19.89668 318
19.91679 325
19.93691 370
19.95702 320
19.97713 356
19.99725 319
20.01736 320
20.03747 323
20.05759 358
20.0777 318
20.09782 353
20.11793 334
20.13804 333
20.15816 335
20.17827 362
20.19838 370
20.2185 328
20.23861 350
20.25872 371
20.27884 403
20.29895 393
20.31907 410
20.33918 355
20.35929 424
20.37941 435
20.39952 426
20.41963 411
20.43975 451
20.45986 482
20.47998 441
20.50009 503
20.5202 519
20.54032 621
20.56043 693
20.58054 771
20.60066 971
20.62077 1174
20.64088 1468
20.661 1835
20.68111 2283
20.70123 3100
20.72134 3701
20.74145 4505
20.76157 5345
20.78168 5857
20.80179 6103
20.82191 6146
20.84202 5593
20.86214 4813
20.88225 3776
20.90236 2762
20.92248 1854
20.94259 1211
20.9627 871
20.98282 718
21.00293 592
21.02305 510
21.04316 472
21.06327 423
21.08339 438
21.1035 437
21.12361 383
21.14373 374
21.16384 366
21.18395 356
21.20407 386
21.22418 354
21.2443 363
21.26441 344
21.28452 338
21.30464 320
21.32475 305
21.34486 316
21.36498 329
21.38509 305
21.40521 282
21.42532 313
21.44543 303
21.46555 307
21.48566 311
21.50577 268
21.52589 270
21.546 275
21.56612 265
21.58623 245
21.60634 262
21.62646 264
21.64657 279
21.66668 260
21.6868 271
21.70691 262
21.72702 226
21.74714 244
21.76725 233
21.78737 282
21.80748 227
21.82759 259
21.84771 254
21.86782 269
21.88793 281
21.90805 246
21.92816 266
21.94828 254
21.96839 229
21.9885 276
22.00862 227
22.02873 240
22.04884 240
22.06896 232
22.08907 276
22.10919 248
22.1293 250
22.14941 231
22.16953 240
22.18964 233
22.20975 245
22.22987 254
22.24998 234
22.27009 248
22.29021 227
22.31032 242
22.33044 257
22.35055 188
22.37066 236
22.39078 237
22.41089 227
22.431 229
22.45112 242
22.47123 249
22.49135 248
22.51146 221
22.53157 217
22.55169 238
22.5718 221
22.59191 216
22.61203 211
22.63214 236
22.65225 229
22.67237 230
22.69248 223
22.7126 238
22.73271 208
22.75282 223
22.77294 221
22.79305 241
22.81316 220
22.83328 220
22.85339 188
22.87351 217
22.89362 221
22.91373 187
22.93385 244
22.95396 233
22.97407 224
22.99419 230
23.0143 224
23.03442 223
23.05453 219
23.07464 237
23.09476 208
23.11487 206
23.13498 213
23.1551 232
23.17521 228
23.19532 228
23.21544 210
23.23555 250
23.25567 223
23.27578 199
23.29589 219
23.31601 189
23.33612 179
23.35623 207
23.37635 203
23.39646 223
23.41658 219
23.43669 214
23.4568 210
23.47692 199
23.49703 225
23.51714 213
23.53726 229
23.55737 230
23.57749 226
23.5976 218
23.61771 216
23.63783 244
23.65794 189
23.67805 209
23.69817 197
23.71828 236
23.73839 201
23.75851 238
23.77862 225
23.79874 248
23.81885 243
23.83896 250
23.85908 301
23.87919 272
23.8993 303
23.91942 253
23.93953 279
23.95965 263
23.97976 266
23.99987 273
24.01999 230
24.0401 267
24.06021 216
24.08033 225
24.10044 248
24.12056 223
24.14067 179
24.16078 236
24.1809 226
24.20101 229
24.22112 219
24.24124 231
24.26135 221
24.28146 213
24.30158 227
24.32169 243
24.34181 206
24.36192 223
24.38203 206
24.40215 246
24.42226 248
24.44237 216
24.46249 255
24.4826 256
24.50272 262
24.52283 297
24.54294 260
24.56306 314
24.58317 287
24.60328 301
24.6234 266
24.64351 306
24.66362 326
24.68374 328
24.70385 354
24.72397 353
24.74408 390
24.76419 379
24.78431 398
24.80442 340
24.82453 367
24.84465 386
24.86476 365
24.88488 334
24.90499 302
24.9251 299
24.94522 294
24.96533 260
24.98544 281
25.00556 269
25.02567 274
25.04579 264
25.0659 249
25.08601 265
25.10613 271
25.12624 285
25.14635 250
25.16647 267
25.18658 255
25.20669 255
25.22681 240
25.24692 278
25.26704 270
25.28715 235
25.30726 267
25.32738 248
25.34749 260
25.3676 231
25.38772 236
25.40783 275
25.42795 273
25.44806 288
25.46817 281
25.48829 287
25.5084 310
25.52851 307
25.54863 307
25.56874 294
25.58886 342
25.60897 308
25.62908 372
25.6492 426
25.66931 382
25.68942 424
25.70954 428
25.72965 384
25.74976 420
25.76988 480
25.78999 491
25.81011 433
25.83022 499
25.85033 495
25.87045 502
25.89056 528
25.91067 558
25.93079 530
25.9509 551
25.97102 562
25.99113 588
26.01124 620
26.03136 648
26.05147 734
26.07158 815
26.0917 735
26.11181 832
26.13193 925
26.15204 945
26.17215 1076
26.19227 1111
26.21238 1268
26.23249 1379
26.25261 1522
26.27272 1700
26.29283 2070
26.31295 2313
26.33306 2835
26.35318 3568
26.37329 4394
26.3934 5529
26.41352 7033
26.43363 9078
26.45374 11386
26.47386 14441
26.49397 17660
26.51409 21205
26.5342 24441
26.55431 26860
26.57443 28077
26.59454 27754
26.61465 25936
26.63477 22722
26.65488 18312
26.67499 13980
26.69511 9776
26.71522 6987
26.73534 4575
26.75545 3085
26.77556 2191
26.79568 1696
26.81579 1539
26.8359 1352
26.85602 1225
26.87613 1138
26.89625 1012
26.91636 872
26.93647 879
26.95659 718
26.9767 709
26.99681 679
27.01693 651
27.03704 548
27.05716 572
27.07727 519
27.09738 489
27.1175 470
27.13761 481
27.15772 446
27.17784 462
27.19795 461
27.21806 431
27.23818 411
27.25829 374
27.27841 411
27.29852 432
27.31863 388
27.33875 370
27.35886 396
27.37897 385
27.39909 374
27.4192 328
27.43932 369
27.45943 355
27.47954 364
27.49966 325
27.51977 343
27.53988 324
27.56 306
27.58011 326
27.60023 314
27.62034 326
27.64045 337
27.66057 318
27.68068 279
27.70079 305
27.72091 292
27.74102 332
27.76113 281
27.78125 312
27.80136 272
27.82148 291
27.84159 305
27.8617 270
27.88182 281
27.90193 276
27.92204 261
27.94216 269
27.96227 302
27.98239 284
28.0025 284
28.02261 268
28.04273 283
28.06284 279
28.08295 245
28.10307 258
28.12318 265
28.1433 261
28.16341 256
28.18352 242
28.20364 251
28.22375 250
28.24386 255
28.26398 265
28.28409 294
28.3042 256
28.32432 261
28.34443 266
28.36455 229
28.38466 248
28.40477 266
28.42489 237
28.445 228
28.46511 212
28.48523 231
28.50534 224
28.52546 237
28.54557 247
28.56568 233
28.5858 244
28.60591 264
28.62602 253
28.64614 239
28.66625 243
28.68636 232
28.70648 233
28.72659 214
28.74671 253
28.76682 242
28.78693 252
28.80705 237
28.82716 221
28.84727 257
28.86739 233
28.8875 224
28.90762 246
28.92773 232
28.94784 213
28.96796 206
28.98807 233
29.00818 219
29.0283 244
29.04841 213
29.06853 232
29.08864 233
29.10875 226
29.12887 203
29.14898 249
29.16909 226
29.18921 226
29.20932 241
29.22943 210
29.24955 194
29.26966 228
29.28978 203
29.30989 206
29.33 220
29.35012 211
29.37023 213
29.39034 212
29.41046 209
29.43057 220
29.45069 227
29.4708 218
29.49091 226
29.51103 220
29.53114 210
29.55125 206
29.57137 214
29.59148 209
29.6116 213
29.63171 200
29.65182 213
29.67194 199
29.69205 212
29.71216 186
29.73228 179
29.75239 230
29.7725 213
29.79262 220
29.81273 216
29.83285 226
29.85296 208
29.87307 207
29.89319 199
29.9133 208
29.93341 199
29.95353 208
29.97364 218
29.99376 198
30.01387 215
30.03398 212
30.0541 225
30.07421 185
30.09432 208
30.11444 204
30.13455 208
30.15467 183
30.17478 206
30.19489 217
30.21501 219
30.23512 216
30.25523 199
30.27535 210
30.29546 174
30.31557 206
30.33569 213
30.3558 206
30.37592 219
30.39603 219
30.41614 207
30.43626 201
30.45637 190
30.47648 211
30.4966 199
30.51671 215
30.53683 183
30.55694 185
30.57705 204
30.59717 177
30.61728 213
30.63739 184
30.65751 206
30.67762 205
30.69773 211
30.71785 184
30.73796 210
30.75808 191
30.77819 199
30.7983 182
30.81842 212
30.83853 202
30.85864 203
30.87876 205
30.89887 191
30.91899 186
30.9391 171
30.95921 185
30.97933 184
30.99944 176
31.01955 175
31.03967 161
31.05978 185
31.0799 217
31.10001 164
31.12012 189
31.14024 178
31.16035 171
31.18046 188
31.20058 214
31.22069 169
31.2408 184
31.26092 204
31.28103 190
31.30115 183
31.32126 191
31.34137 169
31.36149 194
31.3816 171
31.40171 192
31.42183 184
31.44194 173
31.46206 189
31.48217 198
31.50228 185
31.5224 168
31.54251 172
31.56262 165
31.58274 154
31.60285 189
31.62297 150
31.64308 185
31.66319 175
31.68331 164
31.70342 169
31.72353 218
31.74365 179
31.76376 166
31.78387 168
31.80399 158
31.8241 177
31.84422 180
31.86433 165
31.88444 171
31.90456 161
31.92467 177
31.94478 161
31.9649 153
31.98501 168
32.00513 191
32.02524 181
32.04535 181
32.06547 141
32.08558 189
32.10569 178
32.12581 187
32.14592 189
32.16604 172
32.18615 211
32.20626 198
32.22638 172
32.24649 165
32.2666 183
32.28672 170
32.30683 174
32.32694 168
32.34706 160
32.36717 180
32.38729 171
32.4074 164
32.42751 193
32.44763 168
32.46774 194
32.48785 180
32.50797 181
32.52808 167
32.5482 172
32.56831 187
32.58842 175
32.60854 179
32.62865 192
32.64876 184
32.66888 177
32.68899 196
32.7091 176
32.72922 198
32.74933 169
32.76945 177
32.78956 177
32.80967 188
32.82979 168
32.8499 168
32.87001 177
32.89013 191
32.91024 147
32.93036 180
32.95047 153
32.97058 180
32.9907 183
33.01081 191
33.03092 157
33.05104 169
33.07115 172
33.09127 197
33.11138 154
33.13149 177
33.15161 160
33.17172 141
33.19183 162
33.21195 154
33.23206 174
33.25217 171
33.27229 192
33.2924 172
33.31252 177
33.33263 172
33.35274 176
33.37286 130
33.39297 181
33.41308 185
33.4332 171
33.45331 143
33.47343 172
33.49354 155
33.51365 156
33.53377 155
33.55388 171
33.57399 198
33.59411 166
33.61422 168
33.63434 165
33.65445 171
33.67456 149
33.69468 160
33.71479 162
33.7349 182
33.75502 180
33.77513 166
33.79524 179
33.81536 153
33.83547 175
33.85559 155
33.8757 176
33.89581 163
33.91593 158
33.93604 168
33.95615 131
33.97627 135
33.99638 170
34.0165 128
34.03661 146
34.05672 143
34.07684 159
34.09695 138
34.11706 155
34.13718 155
34.15729 168
34.17741 167
34.19752 140
34.21763 163
34.23775 160
34.25786 165
34.27797 130
34.29809 163
34.3182 169
34.33831 165
34.35843 161
34.37854 154
34.39866 155
34.41877 149
34.43888 183
34.459 162
34.47911 142
34.49922 162
34.51934 155
34.53945 139
34.55957 163
34.57968 174
34.59979 196
34.61991 176
34.64002 166
34.66013 178
34.68025 183
34.70036 170
34.72047 200
34.74059 191
34.7607 205
34.78082 201
34.80093 202
34.82104 208
34.84116 220
34.86127 216
34.88138 205
34.9015 236
34.92161 217
34.94173 193
34.96184 217
34.98195 225
35.00207 217
35.02218 224
35.04229 205
35.06241 181
35.08252 221
35.10264 217
35.12275 201
35.14286 204
35.16298 224
35.18309 186
35.2032 203
35.22332 225
35.24343 205
35.26354 194
35.28366 196
35.30377 205
35.32389 200
35.344 196
35.36411 220
35.38423 234
35.40434 200
35.42445 232
35.44457 234
35.46468 228
35.4848 228
35.50491 229
35.52502 209
35.54514 229
35.56525 230
35.58536 251
35.60548 236
35.62559 227
35.64571 209
35.66582 227
35.68593 238
35.70605 228
35.72616 231
35.74627 224
35.76639 236
35.7865 261
35.80661 230
35.82673 263
35.84684 250
35.86696 251
35.88707 263
35.90718 207
35.9273 234
35.94741 237
35.96752 260
35.98764 237
36.00775 260
36.02787 243
36.04798 266
36.06809 239
36.08821 318
36.10832 296
36.12843 310
36.14855 330
36.16866 356
36.18878 352
36.20889 423
36.229 407
36.24912 517
36.26923 567
36.28934 671
36.30946 829
36.32957 854
36.34968 1042
36.3698 1271
36.38991 1425
36.41003 1628
36.43014 1828
36.45025 1946
36.47037 1935
36.49048 1895
36.51059 1786
36.53071 1729
36.55082 1410
36.57094 1126
36.59105 962
36.61116 823
36.63128 634
36.65139 489
36.6715 376
36.69162 347
36.71173 317
36.73184 299
36.75196 241
36.77207 249
36.79219 249
36.8123 259
36.83241 234
36.85253 240
36.87264 239
36.89275 214
36.91287 227
36.93298 233
36.9531 217
36.97321 202
36.99332 197
37.01344 184
37.03355 217
37.05366 215
37.07378 205
37.09389 193
37.11401 168
37.13412 218
37.15423 193
37.17435 192
37.19446 173
37.21457 208
37.23469 179
37.2548 199
37.27491 185
37.29503 193
37.31514 190
37.33526 173
37.35537 204
37.37548 210
37.3956 194
37.41571 203
37.43582 202
37.45594 192
37.47605 189
37.49617 197
37.51628 179
37.53639 188
37.55651 200
37.57662 205
37.59673 178
37.61685 199
37.63696 212
37.65708 214
37.67719 200
37.6973 188
37.71742 178
37.73753 213
37.75764 168
37.77776 195
37.79787 204
37.81798 201
37.8381 177
37.85821 205
37.87833 166
37.89844 177
37.91855 203
37.93867 190
37.95878 224
37.97889 204
37.99901 208
38.01912 202
38.03924 195
38.05935 203
38.07946 221
38.09958 216
38.11969 198
38.1398 237
38.15992 207
38.18003 243
38.20015 233
38.22026 189
38.24037 239
38.26049 215
38.2806 240
38.30071 231
38.32083 237
38.34094 233
38.36105 236
38.38117 203
38.40128 234
38.4214 222
38.44151 226
38.46162 254
38.48174 226
38.50185 231
38.52196 229
38.54208 218
38.56219 217
38.58231 215
38.60242 207
38.62253 202
38.64265 201
38.66276 234
38.68287 202
38.70299 237
38.7231 223
38.74321 214
38.76333 227
38.78344 224
38.80356 210
38.82367 215
38.84378 232
38.8639 233
38.88401 222
38.90412 245
38.92424 235
38.94435 269
38.96447 260
38.98458 277
39.00469 312
39.02481 292
39.04492 289
39.06503 325
39.08515 294
39.10526 336
39.12538 384
39.14549 462
39.1656 494
39.18572 566
39.20583 639
39.22594 691
39.24606 812
39.26617 970
39.28628 1099
39.3064 1238
39.32651 1464
39.34663 1587
39.36674 1757
39.38685 1821
39.40697 1810
39.42708 1779
39.44719 1669
39.46731 1412
39.48742 1161
39.50754 1036
39.52765 887
39.54776 730
39.56788 603
39.58799 462
39.6081 370
39.62822 305
39.64833 277
39.66845 265
39.68856 273
39.70867 282
39.72879 247
39.7489 242
39.76901 213
39.78913 236
39.80924 214
39.82935 232
39.84947 261
39.86958 263
39.8897 238
39.90981 274
39.92992 271
39.95004 254
39.97015 318
39.99026 304
40.01038 375
40.03049 378
40.05061 471
40.07072 498
40.09083 608
40.11095 634
40.13106 702
40.15117 749
40.17129 855
40.1914 931
40.21152 924
40.23163 958
40.25174 930
40.27186 853
40.29197 719
40.31208 624
40.3322 581
40.35231 525
40.37242 421
40.39254 385
40.41265 311
40.43277 262
40.45288 212
40.47299 217
40.49311 221
40.51322 221
40.53333 205
40.55345 196
40.57356 204
40.59368 200
40.61379 194
40.6339 199
40.65402 194
40.67413 198
40.69424 163
40.71436 185
40.73447 181
40.75458 177
40.7747 185
40.79481 178
40.81493 183
40.83504 187
40.85515 183
40.87527 175
40.89538 175
40.91549 154
40.93561 187
40.95572 180
40.97584 191
40.99595 178
41.01606 181
41.03618 161
41.05629 180
41.0764 194
41.09652 177
41.11663 182
41.13675 205
41.15686 190
41.17697 198
41.19709 166
41.2172 186
41.23731 188
41.25743 182
41.27754 194
41.29765 187
41.31777 180
41.33788 178
41.358 202
41.37811 182
41.39822 183
41.41834 180
41.43845 175
41.45856 171
41.47868 190
41.49879 193
41.51891 167
41.53902 173
41.55913 178
41.57925 178
41.59936 165
41.61947 184
41.63959 175
41.6597 191
41.67982 178
41.69993 178
41.72004 187
41.74016 157
41.76027 206
41.78038 181
41.8005 165
41.82061 188
41.84072 180
41.86084 200
41.88095 190
41.90107 212
41.92118 182
41.94129 211
41.96141 216
41.98152 235
42.00163 258
42.02175 236
42.04186 232
42.06198 272
42.08209 294
42.1022 294
42.12232 358
42.14243 352
42.16254 416
42.18266 464
42.20277 499
42.22289 660
42.243 722
42.26311 812
42.28323 936
42.30334 1103
42.32345 1244
42.34357 1286
42.36368 1301
42.38379 1336
42.40391 1267
42.42402 1200
42.44414 1020
42.46425 903
42.48436 840
42.50448 658
42.52459 624
42.5447 515
42.56482 399
42.58493 337
42.60505 268
42.62516 260
42.64527 234
42.66539 226
42.6855 191
42.70561 206
42.72573 183
42.74584 187
42.76595 186
42.78607 167
42.80618 170
42.8263 196
42.84641 187
42.86652 154
42.88664 148
42.90675 162
42.92686 139
42.94698 127
42.96709 149
42.98721 170
43.00732 132
43.02743 151
43.04755 148
43.06766 148
43.08777 163
43.10789 169
43.128 140
43.14812 159
43.16823 132
43.18834 159
43.20846 178
43.22857 148
43.24868 138
43.2688 159
43.28891 168
43.30902 170
43.32914 156
43.34925 143
43.36937 175
43.38948 171
43.40959 151
43.42971 169
43.44982 185
43.46993 148
43.49005 161
43.51016 146
43.53028 147
43.55039 144
43.5705 155
43.59062 147
43.61073 144
43.63084 147
43.65096 133
43.67107 146
43.69119 150
43.7113 174
43.73141 157
43.75153 165
43.77164 151
43.79175 155
43.81187 133
43.83198 138
43.85209 146
43.87221 165
43.89232 141
43.91244 167
43.93255 158
43.95266 160
43.97278 142
43.99289 154
44.013 153
44.03312 141
44.05323 156
44.07335 146
44.09346 142
44.11357 153
44.13369 132
44.1538 137
44.17391 148
44.19403 159
44.21414 160
44.23426 161
44.25437 158
44.27448 146
44.2946 152
44.31471 156
44.33482 135
44.35494 145
44.37505 132
44.39516 151
44.41528 182
44.43539 140
44.45551 164
44.47562 142
44.49573 148
44.51585 170
44.53596 144
44.55607 153
44.57619 168
44.5963 165
44.61642 158
44.63653 163
44.65664 156
44.67676 150
44.69687 160
44.71698 147
44.7371 155
44.75721 161
44.77732 155
44.79744 170
44.81755 173
44.83767 156
44.85778 160
44.87789 170
44.89801 177
44.91812 149
44.93823 171
44.95835 169
44.97846 156
44.99858 192
45.01869 181
45.0388 173
45.05892 186
45.07903 156
45.09914 145
45.11926 188
45.13937 201
45.15949 164
45.1796 168
45.19971 177
45.21983 181
45.23994 193
45.26005 172
45.28017 183
45.30028 223
45.32039 205
45.34051 211
45.36062 204
45.38074 234
45.40085 237
45.42096 247
45.44108 240
45.46119 294
45.4813 294
45.50142 354
45.52153 373
45.54165 410
45.56176 425
45.58187 515
45.60199 628
45.6221 648
45.64221 698
45.66233 835
45.68244 887
45.70256 914
45.72267 903
45.74278 922
45.7629 778
45.78301 742
45.80312 667
45.82324 587
45.84335 512
45.86346 448
45.88358 416
45.90369 343
45.92381 320
45.94392 211
45.96403 204
45.98415 169
46.00426 178
46.02437 175
46.04449 192
46.0646 150
46.08472 195
46.10483 160
46.12494 169
46.14506 153
46.16517 162
46.18528 172
46.2054 177
46.22551 162
46.24563 156
46.26574 179
46.28585 127
46.30597 163
46.32608 160
46.34619 152
46.36631 153
46.38642 178
46.40653 157
46.42665 150
46.44676 132
46.46688 149
46.48699 164
46.5071 155
46.52722 153
46.54733 155
46.56744 156
46.58756 147
46.60767 143
46.62779 125
46.6479 142
46.66801 157
46.68813 155
46.70824 157
46.72835 147
46.74847 164
46.76858 128
46.78869 125
46.80881 151
46.82892 163
46.84904 153
46.86915 133
46.88926 148
46.90938 152
46.92949 145
46.9496 150
46.96972 164
46.98983 164
47.00995 161
47.03006 150
47.05017 159
47.07029 145
47.0904 149
47.11051 141
47.13063 145
47.15074 133
47.17086 156
47.19097 148
47.21108 142
47.2312 154
47.25131 153
47.27142 127
47.29154 136
47.31165 134
47.33176 133
47.35188 164
47.37199 146
47.39211 136
47.41222 135
47.43233 142
47.45245 146
47.47256 139
47.49267 122
47.51279 154
47.5329 139
47.55302 151
47.57313 140
47.59324 153
47.61336 142
47.63347 136
47.65358 138
47.6737 137
47.69381 142
47.71393 144
47.73404 128
47.75415 142
47.77427 150
47.79438 155
47.81449 153
47.83461 140
47.85472 157
47.87483 179
47.89495 153
47.91506 158
47.93518 160
47.95529 146
47.9754 163
47.99552 155
48.01563 174
48.03574 155
48.05586 139
48.07597 148
48.09609 148
48.1162 144
48.13631 134
48.15643 156
48.17654 168
48.19665 158
48.21677 148
48.23688 153
48.257 150
48.27711 147
48.29722 135
48.31734 144
48.33745 158
48.35756 147
48.37768 145
48.39779 144
48.4179 146
48.43802 157
48.45813 171
48.47825 151
48.49836 162
48.51847 188
48.53859 152
48.5587 145
48.57881 159
48.59893 148
48.61904 154
48.63916 158
48.65927 176
48.67938 165
48.6995 159
48.71961 179
48.73972 142
48.75984 151
48.77995 133
48.80006 173
48.82018 188
48.84029 161
48.86041 189
48.88052 172
48.90063 155
48.92075 145
48.94086 160
48.96097 145
48.98109 155
49.0012 143
49.02132 172
49.04143 163
49.06154 162
49.08166 160
49.10177 159
49.12188 187
49.142 152
49.16211 187
49.18223 162
49.20234 186
49.22245 147
49.24257 180
49.26268 178
49.28279 168
49.30291 176
49.32302 175
49.34313 171
49.36325 162
49.38336 196
49.40348 201
49.42359 200
49.4437 188
49.46382 169
49.48393 210
49.50404 205
49.52416 199
49.54427 236
49.56439 239
49.5845 241
49.60461 279
49.62473 268
49.64484 334
49.66495 318
49.68507 371
49.70518 391
49.7253 385
49.74541 429
49.76552 523
49.78564 568
49.80575 704
49.82586 739
49.84598 887
49.86609 1014
49.8862 1121
49.90632 1354
49.92643 1502
49.94655 1749
49.96666 1938
49.98677 2265
50.00689 2522
50.027 2780
50.04711 2824
50.06723 2877
50.08734 2785
50.10746 2510
50.12757 2226
50.14768 2017
50.1678 1733
50.18791 1604
50.20802 1403
50.22814 1170
50.24825 1004
50.26837 846
50.28848 577
50.30859 499
50.32871 352
50.34882 353
50.36893 323
50.38905 315
50.40916 295
50.42927 269
50.44939 290
50.4695 279
50.48962 262
50.50973 264
50.52984 279
50.54996 239
50.57007 227
50.59018 234
50.6103 256
50.63041 228
50.65053 200
50.67064 206
50.69075 205
50.71087 177
50.73098 204
50.75109 189
50.77121 153
50.79132 188
50.81143 158
50.83155 175
50.85166 165
50.87178 159
50.89189 162
50.912 159
50.93212 173
50.95223 166
50.97234 162
50.99246 159
51.01257 169
51.03269 154
51.0528 153
51.07291 166
51.09303 146
51.11314 157
51.13325 158
51.15337 146
51.17348 143
51.1936 139
51.21371 151
51.23382 146
51.25394 156
51.27405 151
51.29416 137
51.31428 117
51.33439 148
51.3545 134
51.37462 143
51.39473 146
51.41485 153
51.43496 142
51.45507 133
51.47519 141
51.4953 143
51.51541 140
51.53553 159
51.55564 135
51.57576 124
51.59587 134
51.61598 129
51.6361 129
51.65621 142
51.67632 156
51.69644 153
51.71655 121
51.73667 133
51.75678 158
51.77689 149
51.79701 141
51.81712 145
51.83723 133
51.85735 153
51.87746 122
51.89757 144
51.91769 147
51.9378 132
51.95792 121
51.97803 138
51.99814 138
52.01826 145
52.03837 135
52.05848 132
52.0786 132
52.09871 126
52.11883 110
52.13894 136
52.15905 171
52.17917 139
52.19928 135
52.21939 140
52.23951 139
52.25962 114
52.27974 122
52.29985 133
52.31996 158
52.34008 128
52.36019 127
52.3803 149
52.40042 132
52.42053 138
52.44064 136
52.46076 135
52.48087 161
52.50099 137
52.5211 120
52.54121 128
52.56133 145
52.58144 129
52.60155 141
52.62167 131
52.64178 144
52.6619 115
52.68201 135
52.70212 146
52.72224 151
52.74235 127
52.76246 141
52.78258 154
52.80269 158
52.8228 155
52.84292 130
52.86303 148
52.88315 140
52.90326 137
52.92337 144
52.94349 132
52.9636 131
52.98371 150
53.00383 143
53.02394 147
53.04406 142
53.06417 148
53.08428 179
53.1044 130
53.12451 151
53.14462 142
53.16474 169
53.18485 162
53.20497 149
53.22508 139
53.24519 147
53.26531 142
53.28542 134
53.30553 156
53.32565 160
53.34576 148
53.36587 152
53.38599 168
53.4061 154
53.42622 163
53.44633 146
53.46644 145
53.48656 129
53.50667 162
53.52678 157
53.5469 164
53.56701 149
53.58713 159
53.60724 141
53.62735 172
53.64747 162
53.66758 154
53.68769 158
53.70781 140
53.72792 161
53.74804 154
53.76815 160
53.78826 180
53.80838 168
53.82849 170
53.8486 186
53.86872 154
53.88883 171
53.90894 164
53.92906 171
53.94917 153
53.96929 170
53.9894 156
54.00951 159
54.02963 150
54.04974 170
54.06985 160
54.08997 166
54.11008 175
54.1302 159
54.15031 187
54.17042 189
54.19054 170
54.21065 202
54.23076 183
54.25088 186
54.27099 184
54.29111 189
54.31122 199
54.33133 223
54.35145 224
54.37156 195
54.39167 217
54.41179 225
54.4319 211
54.45201 233
54.47213 240
54.49224 272
54.51236 313
54.53247 349
54.55258 306
54.5727 407
54.59281 387
54.61292 470
54.63304 524
54.65315 559
54.67327 636
54.69338 693
54.71349 797
54.73361 831
54.75372 856
54.77383 980
54.79395 935
54.81406 873
54.83417 827
54.85429 820
54.8744 731
54.89452 682
54.91463 654
54.93474 583
54.95486 549
54.97497 534
54.99508 450
55.0152 424
55.03531 363
55.05543 364
55.07554 396
55.09565 378
55.11577 371
55.13588 422
55.15599 445
55.17611 449
55.19622 454
55.21634 528
55.23645 528
55.25656 533
55.27668 448
55.29679 456
55.3169 409
55.33702 364
55.35713 345
55.37724 307
55.39736 367
55.41747 287
55.43759 232
55.4577 266
55.47781 247
55.49793 201
55.51804 230
55.53815 192
55.55827 158
55.57838 196
55.5985 190
55.61861 175
55.63872 177
55.65884 174
55.67895 192
55.69906 167
55.71918 152
55.73929 159
55.75941 137
55.77952 172
55.79963 180
55.81975 157
55.83986 145
55.85997 162
55.88009 163
55.9002 147
55.92031 155
55.94043 161
55.96054 147
55.98066 175
56.00077 157
56.02088 133
56.041 127
56.06111 170
56.08122 119
56.10134 153
56.12145 144
56.14157 156
56.16168 166
56.18179 144
56.20191 126
56.22202 133
56.24213 162
56.26225 142
56.28236 147
56.30248 127
56.32259 160
56.3427 160
56.36282 139
56.38293 145
56.40304 154
56.42316 141
56.44327 141
56.46338 137
56.4835 135
56.50361 151
56.52373 168
56.54384 144
56.56395 148
56.58407 139
56.60418 166
56.62429 147
56.64441 142
56.66452 124
56.68464 147
56.70475 148
56.72486 164
56.74498 136
56.76509 140
56.7852 156
56.80532 155
56.82543 158
56.84554 162
56.86566 156
56.88577 168
56.90589 137
56.926 152
56.94611 154
56.96623 157
56.98634 173
57.00645 172
57.02657 164
57.04668 180
57.0668 163
57.08691 167
57.10702 187
57.12714 197
57.14725 173
57.16736 160
57.18748 168
57.20759 159
57.22771 187
57.24782 161
57.26793 165
57.28805 130
57.30816 161
57.32827 161
57.34839 146
57.3685 165
57.38861 145
57.40873 143
57.42884 139
57.44896 152
57.46907 144
57.48918 153
57.5093 154
57.52941 131
57.54952 130
57.56964 136
57.58975 142
57.60987 120
57.62998 155
57.65009 126
57.67021 131
57.69032 135
57.71043 145
57.73055 160
57.75066 136
57.77078 137
57.79089 160
57.811 149
57.83112 145
57.85123 161
57.87134 154
57.89146 142
57.91157 151
57.93168 145
57.9518 149
57.97191 155
57.99203 143
58.01214 145
58.03225 140
58.05237 148
58.07248 137
58.09259 151
58.11271 157
58.13282 125
58.15294 163
58.17305 153
58.19316 114
58.21328 130
58.23339 151
58.2535 121
58.27362 132
58.29373 140
58.31385 142
58.33396 140
58.35407 141
58.37419 141
58.3943 140
58.41441 139
58.43453 139
58.45464 148
58.47475 173
58.49487 160
58.51498 150
58.5351 180
58.55521 129
58.57532 127
58.59544 151
58.61555 127
58.63566 139
58.65578 146
58.67589 140
58.69601 155
58.71612 128
58.73623 142
58.75635 138
58.77646 148
58.79657 152
58.81669 154
58.8368 149
58.85691 156
58.87703 141
58.89714 167
58.91726 131
58.93737 154
58.95748 144
58.9776 165
58.99771 138
59.01782 158
59.03794 136
59.05805 162
59.07817 149
59.09828 155
59.11839 145
59.13851 131
59.15862 163
59.17873 159
59.19885 169
59.21896 146
59.23908 173
59.25919 183
59.2793 201
59.29942 195
59.31953 192
59.33964 197
59.35976 207
59.37987 237
59.39998 243
59.4201 222
59.44021 254
59.46033 265
59.48044 310
59.50055 294
59.52067 282
59.54078 351
59.56089 392
59.58101 414
59.60112 484
59.62124 539
59.64135 609
59.66146 666
59.68158 786
59.70169 907
59.7218 924
59.74192 1061
59.76203 1341
59.78215 1368
59.80226 1533
59.82237 1701
59.84249 1761
59.8626 1807
59.88271 1758
59.90283 1718
59.92294 1548
59.94305 1419
59.96317 1252
59.98328 1174
60.0034 1084
60.02351 1029
60.04362 956
60.06374 903
60.08385 731
60.10396 603
60.12408 463
60.14419 387
60.16431 309
60.18442 280
60.20453 208
60.22465 240
60.24476 205
60.26487 196
60.28499 200
60.3051 179
60.32522 196
60.34533 174
60.36544 191
60.38556 169
60.40567 171
60.42578 189
60.4459 154
60.46601 177
60.48612 167
60.50624 175
60.52635 163
60.54647 172
60.56658 152
60.58669 162
60.60681 160
60.62692 142
60.64703 159
60.66715 139
60.68726 154
60.70738 146
60.72749 139
60.7476 134
60.76772 154
60.78783 134
60.80794 132
60.82806 165
60.84817 128
60.86828 137
60.8884 122
60.90851 143
60.92863 151
60.94874 154
60.96885 117
60.98897 149
61.00908 137
61.02919 124
61.04931 152
61.06942 151
61.08954 139
61.10965 126
61.12976 124
61.14988 138
61.16999 130
61.1901 117
61.21022 127
61.23033 150
61.25045 161
61.27056 126
61.29067 159
61.31079 137
61.3309 151
61.35101 162
61.37113 137
61.39124 147
61.41135 130
61.43147 136
61.45158 125
61.4717 136
61.49181 147
61.51192 128
61.53204 150
61.55215 137
61.57226 155
61.59238 148
61.61249 119
61.63261 120
61.65272 144
61.67283 141
61.69295 141
61.71306 167
61.73317 159
61.75329 127
61.7734 147
61.79352 159
61.81363 133
61.83374 150
61.85386 153
61.87397 150
61.89408 129
61.9142 150
61.93431 161
61.95442 147
61.97454 170
61.99465 162
62.01477 181
62.03488 186
62.05499 174
62.07511 193
62.09522 173
62.11533 165
62.13545 182
62.15556 196
62.17568 192
62.19579 186
62.2159 197
62.23602 201
62.25613 190
62.27624 185
62.29636 173
62.31647 200
62.33659 209
62.3567 163
62.37681 177
62.39693 177
62.41704 167
62.43715 160
62.45727 204
62.47738 164
62.49749 160
62.51761 169
62.53772 152
62.55784 162
62.57795 138
62.59806 134
62.61818 167
62.63829 131
62.6584 146
62.67852 135
62.69863 120
62.71875 148
62.73886 148
62.75897 145
62.77909 124
62.7992 140
62.81931 124
62.83943 137
62.85954 144
62.87965 136
62.89977 155
62.91988 151
62.94 151
62.96011 130
62.98022 140
63.00034 149
63.02045 159
63.04056 141
63.06068 141
63.08079 133
63.10091 135
63.12102 142
63.14113 142
63.16125 111
63.18136 121
63.20147 121
63.22159 144
63.2417 132
63.26182 123
63.28193 151
63.30204 151
63.32216 122
63.34227 138
63.36238 143
63.3825 144
63.40261 149
63.42272 128
63.44284 153
63.46295 148
63.48307 154
63.50318 134
63.52329 167
63.54341 164
63.56352 148
63.58363 166
63.60375 173
63.62386 181
63.64398 194
63.66409 193
63.6842 194
63.70432 203
63.72443 224
63.74454 238
63.76466 277
63.78477 281
63.80489 279
63.825 327
63.84511 370
63.86523 382
63.88534 399
63.90545 428
63.92557 416
63.94568 439
63.96579 429
63.98591 420
64.00602 363
64.02614 330
64.04625 325
64.06636 310
64.08648 282
64.10659 288
64.1267 293
64.14682 255
64.16693 234
64.18705 236
64.20716 189
64.22727 198
64.24739 161
64.2675 145
64.28761 143
64.30773 169
64.32784 139
64.34796 167
64.36807 152
64.38818 151
64.4083 129
64.42841 125
64.44852 110
64.46864 140
64.48875 145
64.50886 135
64.52898 136
64.54909 109
64.56921 123
64.58932 128
64.60943 121
64.62955 127
64.64966 131
64.66977 143
64.68989 122
64.71 126
64.73012 123
64.75023 119
64.77034 130
64.79046 141
64.81057 143
64.83068 117
64.8508 136
64.87091 142
64.89102 133
64.91114 122
64.93125 141
64.95137 141
64.97148 155
64.99159 141
65.01171 143
65.03182 121
65.05193 145
65.07205 143
65.09216 149
65.11228 117
65.13239 139
65.1525 173
65.17262 124
65.19273 148
65.21284 136
65.23296 142
65.25307 156
65.27319 147
65.2933 144
65.31341 158
65.33353 148
65.35364 156
65.37375 143
65.39387 138
65.41398 163
65.43409 160
65.45421 163
65.47432 157
65.49444 180
65.51455 188
65.53466 176
65.55478 210
65.57489 204
65.595 197
65.61512 214
65.63523 213
65.65535 204
65.67546 199
65.69557 213
65.71569 214
65.7358 219
65.75591 181
65.77603 202
65.79614 200
65.81626 179
65.83637 184
65.85648 182
65.8766 163
65.89671 178
65.91682 159
65.93694 161
65.95705 173
65.97716 160
65.99728 147
66.01739 154
66.03751 158
66.05762 155
66.07773 132
66.09785 125
66.11796 107
66.13807 159
66.15819 153
66.1783 136
66.19842 154
66.21853 125
66.23864 148
66.25876 151
66.27887 121
66.29898 133
66.3191 150
66.33921 153
66.35933 122
66.37944 169
66.39955 131
66.41967 131
66.43978 161
66.45989 130
66.48001 144
66.50012 156
66.52023 140
66.54035 141
66.56046 131
66.58058 154
66.60069 161
66.6208 137
66.64092 154
66.66103 134
66.68114 144
66.70126 145
66.72137 151
66.74149 149
66.7616 162
66.78171 155
66.80183 140
66.82194 137
66.84205 153
66.86217 163
66.88228 159
66.90239 150
66.92251 169
66.94262 148
66.96274 151
66.98285 162
67.00296 155
67.02308 179
67.04319 150
67.0633 163
67.08342 190
67.10353 175
67.12365 182
67.14376 205
67.16387 203
67.18399 211
67.2041 205
67.22421 226
67.24433 245
67.26444 265
67.28456 282
67.30467 286
67.32478 267
67.3449 315
67.36501 355
67.38512 370
67.40524 421
67.42535 478
67.44546 496
67.46558 520
67.48569 660
67.50581 704
67.52592 753
67.54603 861
67.56615 938
67.58626 1075
67.60637 1066
67.62649 1159
67.6466 1162
67.66672 1159
67.68683 1127
67.70694 1088
67.72706 991
67.74717 979
67.76728 938
67.7874 963
67.80751 950
67.82763 972
67.84774 1027
67.86785 1039
67.88797 1087
67.90808 1099
67.92819 1075
67.94831 1219
67.96842 1304
67.98853 1472
68.00865 1550
68.02876 1592
68.04888 1634
68.06899 1648
68.0891 1603
68.10922 1542
68.12933 1499
68.14944 1494
68.16956 1479
68.18967 1422
68.20979 1383
68.2299 1376
68.25001 1229
68.27013 1214
68.29024 1065
68.31035 949
68.33047 850
68.35058 751
68.3707 665
68.39081 571
68.41092 571
68.43104 545
68.45115 484
68.47126 388
68.49138 375
68.51149 270
68.5316 300
68.55172 253
68.57183 233
68.59195 229
68.61206 205
68.63217 177
68.65229 184
68.6724 175
68.69251 189
68.71263 156
68.73274 156
68.75286 162
68.77297 153
68.79308 157
68.8132 141
68.83331 178
68.85342 168
68.87354 157
68.89365 160
68.91376 164
68.93388 166
68.95399 151
68.97411 159
68.99422 156
69.01433 149
69.03445 140
69.05456 149
69.07467 131
69.09479 128
69.1149 142
69.13502 126
69.15513 166
69.17524 143
69.19536 149
69.21547 139
69.23558 151
69.2557 143
69.27581 142
69.29593 137
69.31604 151
69.33615 119
69.35627 135
69.37638 153
69.39649 133
69.41661 119
69.43672 135
69.45683 144
69.47695 143
69.49706 122
69.51718 150
69.53729 121
69.5574 134
69.57752 130
69.59763 124
69.61774 136
69.63786 148
69.65797 135
69.67809 149
69.6982 128
69.71831 156
69.73843 136
69.75854 132
69.77865 132
69.79877 128
69.81888 135
69.839 144
69.85911 139
69.87922 135
69.89934 143
69.91945 133
69.93956 124
69.95968 142
69.97979 138
69.9999 141
70.02002 131
70.04013 138
70.06025 124
70.08036 107
70.10047 128
70.12059 127
70.1407 116
70.16081 124
70.18093 114
70.20104 105
70.22116 139
70.24127 122
70.26138 143
70.2815 132
70.30161 138
70.32172 131
70.34184 126
70.36195 130
70.38207 128
70.40218 100
70.42229 116
70.44241 131
70.46252 131
70.48263 119
70.50275 130
70.52286 128
70.54297 128
70.56309 121
70.5832 106
70.60332 105
70.62343 109
70.64354 116
70.66366 132
70.68377 128
70.70388 126
70.724 122
70.74411 128
70.76423 134
70.78434 120
70.80445 108
70.82457 128
70.84468 134
70.86479 125
70.88491 119
70.90502 121
70.92513 124
70.94525 121
70.96536 149
70.98548 122
71.00559 105
71.0257 117
71.04582 118
71.06593 138
71.08604 124
71.10616 118
71.12627 146
71.14639 116
71.1665 127
71.18661 122
71.20673 113
71.22684 120
71.24695 133
71.26707 118
71.28718 129
71.3073 140
71.32741 131
71.34752 116
71.36764 125
71.38775 130
71.40786 112
71.42798 111
71.44809 113
71.4682 124
71.48832 118
71.50843 118
71.52855 143
71.54866 114
71.56877 118
71.58889 141
71.609 141
71.62911 134
71.64923 121
71.66934 118
71.68946 136
71.70957 111
71.72968 123
71.7498 109
71.76991 147
71.79002 135
71.81014 118
71.83025 115
71.85037 119
71.87048 119
71.89059 122
71.91071 122
71.93082 137
71.95093 108
71.97105 115
71.99116 115
72.01127 128
72.03139 123
72.0515 114
72.07162 116
72.09173 109
72.11184 130
72.13196 120
72.15207 112
72.17218 126
72.1923 126
72.21241 125
72.23253 116
72.25264 131
72.27275 160
72.29287 118
72.31298 125
72.33309 125
72.35321 118
72.37332 133
72.39344 129
72.41355 107
72.43366 124
72.45378 118
72.47389 121
72.494 138
72.51412 129
72.53423 132
72.55434 136
72.57446 137
72.59457 133
72.61469 124
72.6348 121
72.65491 116
72.67503 114
72.69514 138
72.71525 132
72.73537 111
72.75548 129
72.7756 138
72.79571 131
72.81582 129
72.83594 141
72.85605 147
72.87616 142
72.89628 158
72.91639 133
72.9365 133
72.95662 155
72.97673 155
72.99685 159
73.01696 148
73.03707 170
73.05719 153
73.0773 174
73.09741 207
73.11753 225
73.13764 231
73.15776 248
73.17787 247
73.19798 251
73.2181 266
73.23821 340
73.25832 330
73.27844 376
73.29855 429
73.31867 451
73.33878 464
73.35889 471
73.37901 501
73.39912 463
73.41923 423
73.43935 365
73.45946 336
73.47957 334
73.49969 305
73.5198 328
73.53992 291
73.56003 302
73.58014 284
73.60026 245
73.62037 249
73.64048 244
73.6606 232
73.68071 208
73.70083 183
73.72094 165
73.74105 146
73.76117 147
73.78128 164
73.80139 147
73.82151 149
73.84162 154
73.86174 128
73.88185 133
73.90196 125
73.92208 156
73.94219 126
73.9623 134
73.98242 116
74.00253 123
74.02264 113
74.04276 123
74.06287 141
74.08299 131
74.1031 134
74.12321 126
74.14333 110
74.16344 133
74.18355 125
74.20367 121
74.22378 124
74.2439 132
74.26401 134
74.28412 135
74.30424 115
74.32435 143
74.34446 136
74.36458 135
74.38469 131
74.40481 146
74.42492 133
74.44503 121
74.46515 116
74.48526 125
74.50537 137
74.52549 123
74.5456 124
74.56571 110
74.58583 128
74.60594 138
74.62606 123
74.64617 99
74.66628 119
74.6864 107
74.70651 126
74.72662 134
74.74674 130
74.76685 137
74.78697 155
74.80708 149
74.82719 128
74.84731 134
74.86742 155
74.88753 119
74.90765 144
74.92776 143
74.94787 137
74.96799 136
74.9881 148
75.00822 127
