3.00117 20165
3.02128 19488
3.0414 19361
3.06151 18515
3.08162 17943
3.10174 17771
3.12185 17214
3.14197 16885
3.16208 16209
3.18219 15633
3.20231 15240
3.22242 14612
3.24253 14462
3.26265 13781
3.28276 13257
3.30288 12896
3.32299 12677
3.3431 12207
3.36322 11625
3.38333 11438
3.40344 10964
3.42356 10510
3.44367 10407
3.46379 9869
3.4839 9610
3.50401 9355
3.52413 8833
3.54424 8822
3.56435 8206
3.58447 7848
3.60458 7702
3.62469 7322
3.64481 7202
3.66492 7017
3.68504 6772
3.70515 6662
3.72526 6074
3.74538 5994
3.76549 5579
3.7856 5295
3.80572 5228
3.82583 5068
3.84595 4955
3.86606 4595
3.88617 4379
3.90629 4199
3.9264 4080
3.94651 3876
3.96663 3507
3.98674 3447
4.00686 3473
4.02697 3198
4.04708 3221
4.0672 2980
4.08731 2798
4.10742 2862
4.12754 2686
4.14765 2481
4.16776 2329
4.18788 2315
4.20799 2213
4.22811 2109
4.24822 2119
4.26833 1978
4.28845 1869
4.30856 1855
4.32867 1886
4.34879 1761
4.3689 1637
4.38902 1585
4.40913 1605
4.42924 1576
4.44936 1536
4.46947 1511
4.48958 1426
4.5097 1439
4.52981 1449
4.54992 1392
4.57004 1317
4.59015 1224
4.61027 1357
4.63038 1346
4.65049 1170
4.67061 1185
4.69072 1206
4.71083 1151
4.73095 1128
4.75106 1058
4.77118 1118
4.79129 1042
4.8114 1048
4.83152 1049
4.85163 921
4.87174 931
4.89186 937
4.91197 871
4.93209 932
4.9522 787
4.97231 869
4.99243 832
5.01254 822
5.03265 868
5.05277 775
5.07288 862
5.09299 760
5.11311 777
5.13322 729
5.15334 697
5.17345 670
5.19356 654
5.21368 662
5.23379 700
5.2539 564
5.27402 645
5.29413 613
5.31425 612
5.33436 620
5.35447 624
5.37459 506
5.3947 531
5.41481 584
5.43493 563
5.45504 557
5.47516 503
5.49527 512
5.51538 538
5.5355 476
5.55561 528
5.57572 483
5.59584 470
5.61595 455
5.63606 458
5.65618 455
5.67629 479
5.69641 426
5.71652 425
5.73663 420
5.75675 400
5.77686 480
5.79697 415
5.81709 416
5.8372 375
5.85732 367
5.87743 433
5.89754 388
5.91766 422
5.93777 404
5.95788 405
5.978 380
5.99811 394
6.01823 390
6.03834 384
6.05845 370
6.07857 351
6.09868 363
6.11879 360
6.13891 387
6.15902 370
6.17913 391
6.19925 398
6.21936 367
6.23948 375
6.25959 342
6.2797 316
6.29982 395
6.31993 362
6.34004 348
6.36016 379
6.38027 333
6.40039 323
6.4205 346
6.44061 348
6.46073 362
6.48084 332
6.50095 369
6.52107 346
6.54118 328
6.56129 320
6.58141 359
6.60152 363
6.62164 313
6.64175 320
6.66186 327
6.68198 331
6.70209 344
6.7222 368
6.74232 351
6.76243 326
6.78255 357
6.80266 348
6.82277 346
6.84289 325
6.863 347
6.88311 320
6.90323 341
6.92334 327
6.94346 319
6.96357 296
6.98368 315
7.0038 339
7.02391 332
7.04402 335
7.06414 362
7.08425 309
7.10436 308
7.12448 323
7.14459 320
7.16471 342
7.18482 345
7.20493 303
7.22505 324
7.24516 322
7.26527 296
7.28539 327
7.3055 337
7.32562 330
7.34573 274
7.36584 306
7.38596 291
7.40607 313
7.42618 335
7.4463 360
7.46641 327
7.48653 338
7.50664 292
7.52675 313
7.54687 322
7.56698 326
7.58709 335
7.60721 341
7.62732 354
7.64743 340
7.66755 329
7.68766 332
7.70778 300
7.72789 331
7.748 347
7.76812 320
7.78823 361
7.80834 331
7.82846 319
7.84857 348
7.86869 278
7.8888 335
7.90891 344
7.92903 327
7.94914 301
7.96925 315
7.98937 313
8.00948 328
8.0296 318
8.04971 285
8.06982 309
8.08994 330
8.11005 313
8.13016 320
8.15028 350
8.17039 309
8.1905 333
8.21062 345
8.23073 300
8.25085 323
8.27096 310
8.29107 305
8.31119 334
8.3313 292
8.35141 326
8.37153 325
8.39164 377
8.41176 321
8.43187 348
8.45198 307
8.4721 335
8.49221 343
8.51232 322
8.53244 332
8.55255 355
8.57266 328
8.59278 328
8.61289 332
8.63301 349
8.65312 313
8.67323 372
8.69335 304
8.71346 328
8.73357 324
8.75369 336
8.7738 336
8.79392 351
8.81403 343
8.83414 337
8.85426 318
8.87437 364
8.89448 315
8.9146 352
8.93471 374
8.95483 335
8.97494 339
8.99505 340
9.01517 343
9.03528 350
9.05539 361
9.07551 338
9.09562 337
9.11573 361
9.13585 311
9.15596 355
9.17608 316
9.19619 339
9.2163 307
9.23642 322
9.25653 328
9.27664 348
9.29676 347
9.31687 323
9.33699 323
9.3571 378
9.37721 354
9.39733 302
9.41744 279
9.43755 317
9.45767 313
9.47778 329
9.4979 327
9.51801 312
9.53812 324
9.55824 326
9.57835 338
9.59846 329
9.61858 308
9.63869 367
9.6588 357
9.67892 329
9.69903 314
9.71915 334
9.73926 311
9.75937 359
9.77949 331
9.7996 322
9.81971 368
9.83983 320
9.85994 359
9.88006 351
9.90017 329
9.92028 311
9.9404 349
9.96051 318
9.98062 370
10.00074 323
10.02085 284
10.04097 307
10.06108 338
10.08119 352
10.10131 325
10.12142 364
10.14153 317
10.16165 334
10.18176 347
10.20187 324
10.22199 330
10.2421 314
10.26222 346
10.28233 345
10.30244 321
10.32256 348
10.34267 361
10.36278 315
10.3829 317
10.40301 362
10.42313 335
10.44324 321
10.46335 359
10.48347 332
10.50358 327
10.52369 319
10.54381 294
10.56392 347
10.58403 345
10.60415 343
10.62426 308
10.64438 325
10.66449 339
10.6846 330
10.70472 319
10.72483 319
10.74494 303
10.76506 316
10.78517 300
10.80529 306
10.8254 350
10.84551 361
10.86563 333
10.88574 363
10.90585 321
10.92597 328
10.94608 373
10.9662 344
10.98631 335
11.00642 344
11.02654 342
11.04665 370
11.06676 379
11.08688 339
11.10699 315
11.1271 326
11.14722 356
11.16733 356
11.18745 368
11.20756 360
11.22767 316
11.24779 370
11.2679 327
11.28801 303
11.30813 348
11.32824 347
11.34836 317
11.36847 342
11.38858 369
11.4087 354
11.42881 362
11.44892 328
11.46904 347
11.48915 348
11.50927 345
11.52938 382
11.54949 372
11.56961 366
11.58972 356
11.60983 354
11.62995 385
11.65006 332
11.67017 447
11.69029 398
11.7104 402
11.73052 369
11.75063 375
11.77074 375
11.79086 395
11.81097 406
11.83108 425
11.8512 434
11.87131 470
11.89143 448
11.91154 440
11.93165 473
11.95177 465
11.97188 456
11.99199 453
12.01211 489
12.03222 462
12.05234 510
12.07245 516
12.09256 590
12.11268 582
12.13279 554
12.1529 600
12.17302 615
12.19313 625
12.21324 706
12.23336 713
12.25347 672
12.27359 752
12.2937 713
12.31381 813
12.33393 762
12.35404 790
12.37415 702
12.39427 728
12.41438 672
12.4345 616
12.45461 579
12.47472 580
12.49484 560
12.51495 482
12.53506 462
12.55518 417
12.57529 481
12.5954 433
12.61552 393
12.63563 389
12.65575 389
12.67586 405
12.69597 404
12.71609 356
12.7362 374
12.75631 349
12.77643 361
12.79654 360
12.81666 368
12.83677 344
12.85688 340
12.877 335
12.89711 324
12.91722 331
12.93734 341
12.95745 361
12.97757 372
12.99768 316
13.01779 325
13.03791 315
13.05802 321
13.07813 334
13.09825 349
13.11836 365
13.13847 352
13.15859 344
13.1787 312
13.19882 309
13.21893 322
13.23904 309
13.25916 321
13.27927 314
13.29938 313
13.3195 302
13.33961 333
13.35973 337
13.37984 329
13.39995 329
13.42007 318
13.44018 345
13.46029 327
13.48041 327
13.50052 309
13.52064 298
13.54075 312
13.56086 312
13.58098 344
13.60109 306
13.6212 261
13.64132 335
13.66143 317
13.68154 287
13.70166 300
13.72177 293
13.74189 285
13.762 318
13.78211 295
13.80223 289
13.82234 301
13.84245 313
13.86257 309
13.88268 320
13.9028 302
13.92291 303
13.94302 340
13.96314 309
13.98325 326
14.00336 277
14.02348 303
14.04359 307
14.06371 302
14.08382 253
14.10393 313
14.12405 303
14.14416 320
14.16427 312
14.18439 316
14.2045 328
14.22461 285
14.24473 320
14.26484 271
14.28496 285
14.30507 306
14.32518 307
14.3453 292
14.36541 292
14.38552 289
14.40564 281
14.42575 297
14.44587 308
14.46598 278
14.48609 287
14.50621 300
14.52632 305
14.54643 315
14.56655 275
14.58666 266
14.60677 326
14.62689 283
14.647 291
14.66712 264
14.68723 271
14.70734 305
14.72746 290
14.74757 269
14.76768 270
14.7878 253
14.80791 278
14.82803 290
14.84814 272
14.86825 302
14.88837 323
14.90848 276
14.92859 275
14.94871 298
14.96882 289
14.98894 320
15.00905 305
15.02916 256
15.04928 283
15.06939 298
15.0895 281
15.10962 299
15.12973 338
15.14984 266
15.16996 299
15.19007 324
15.21019 290
15.2303 294
15.25041 278
15.27053 323
15.29064 299
15.31075 275
15.33087 257
15.35098 304
15.3711 293
15.39121 294
15.41132 272
15.43144 305
15.45155 298
15.47166 312
15.49178 279
15.51189 319
15.53201 298
15.55212 297
15.57223 322
15.59235 291
15.61246 272
15.63257 283
15.65269 313
15.6728 301
15.69291 310
15.71303 262
15.73314 288
15.75326 270
15.77337 279
15.79348 289
15.8136 287
15.83371 319
15.85382 293
15.87394 268
15.89405 307
15.91417 308
15.93428 255
15.95439 307
15.97451 265
15.99462 263
16.01473 253
16.03485 288
16.05496 316
16.07508 312
16.09519 264
16.1153 320
16.13542 286
16.15553 271
16.17564 288
16.19576 292
16.21587 268
16.23598 251
16.2561 281
16.27621 302
16.29633 269
16.31644 293
16.33655 320
16.35667 259
16.37678 275
16.39689 277
16.41701 299
16.43712 280
16.45724 288
16.47735 274
16.49746 271
16.51758 307
16.53769 277
16.5578 303
16.57792 283
16.59803 274
16.61814 253
16.63826 265
16.65837 256
16.67849 269
16.6986 292
16.71871 284
16.73883 277
16.75894 300
16.77905 281
16.79917 271
16.81928 304
16.8394 278
16.85951 280
16.87962 301
16.89974 265
16.91985 309
16.93996 279
16.96008 291
16.98019 295
17.00031 291
17.02042 292
17.04053 280
17.06065 268
17.08076 293
17.10087 263
17.12099 347
17.1411 280
17.16121 295
17.18133 337
17.20144 296
17.22156 283
17.24167 293
17.26178 286
17.2819 304
17.30201 274
17.32212 304
17.34224 296
17.36235 307
17.38247 262
17.40258 272
17.42269 295
17.44281 262
17.46292 285
17.48303 315
17.50315 271
17.52326 284
17.54338 279
17.56349 273
17.5836 294
17.60372 281
17.62383 276
17.64394 257
17.66406 287
17.68417 298
17.70428 272
17.7244 283
17.74451 275
17.76463 282
17.78474 286
17.80485 317
17.82497 271
17.84508 322
17.86519 308
17.88531 318
17.90542 284
17.92554 312
17.94565 324
17.96576 298
17.98588 281
18.00599 287
18.0261 283
18.04622 292
18.06633 291
18.08645 279
18.10656 310
18.12667 302
18.14679 291
18.1669 311
18.18701 294
18.20713 303
18.22724 288
18.24735 292
18.26747 307
18.28758 306
18.3077 277
18.32781 309
18.34792 298
18.36804 302
18.38815 281
18.40826 299
18.42838 297
18.44849 274
18.46861 273
18.48872 323
18.50883 286
18.52895 286
18.54906 308
18.56917 323
18.58929 278
18.6094 325
18.62951 278
18.64963 290
18.66974 287
18.68986 318
18.70997 275
18.73008 333
18.7502 297
18.77031 288
18.79042 299
18.81054 275
18.83065 300
18.85077 293
18.87088 319
18.89099 291
18.91111 287
18.93122 279
18.95133 278
18.97145 289
18.99156 277
19.01168 285
19.03179 299
19.0519 299
19.07202 252
19.09213 292
19.11224 283
19.13236 285
19.15247 260
19.17258 351
19.1927 286
19.21281 308
19.23293 288
19.25304 293
19.27315 311
19.29327 311
19.31338 310
19.33349 312
19.35361 308
19.37372 298
19.39384 313
19.41395 335
19.43406 340
19.45418 306
19.47429 315
19.4944 348
19.51452 332
19.53463 341
19.55475 326
19.57486 343
19.59497 354
19.61509 330
19.6352 351
19.65531 417
19.67543 450
19.69554 420
19.71565 460
19.73577 482
19.75588 505
19.776 519
19.79611 582
19.81622 612
19.83634 655
19.85645 596
19.87656 600
19.89668 650
19.91679 655
19.93691 635
19.95702 622
19.97713 601
19.99725 573
20.01736 600
20.03747 628
20.05759 555
20.0777 631
20.09782 579
20.11793 558
20.13804 556
20.15816 562
20.17827 575
20.19838 638
20.2185 598
20.23861 538
20.25872 590
20.27884 597
20.29895 606
20.31907 595
20.33918 626
20.35929 611
20.37941 579
20.39952 608
20.41963 630
20.43975 609
20.45986 627
20.47998 604
20.50009 616
20.5202 636
20.54032 677
20.56043 665
20.58054 690
20.60066 744
20.62077 774
20.64088 902
20.661 1005
20.68111 1191
20.70123 1546
20.72134 1929
20.74145 2562
20.76157 3324
20.78168 4249
20.80179 4843
20.82191 5233
20.84202 4950
20.86214 4555
20.88225 3583
20.90236 2737
20.92248 1987
20.94259 1417
20.9627 1041
20.98282 817
21.00293 731
21.02305 740
21.04316 688
21.06327 709
21.08339 629
21.1035 697
21.12361 617
21.14373 657
21.16384 646
21.18395 579
21.20407 659
21.22418 664
21.2443 640
21.26441 640
21.28452 657
21.30464 635
21.32475 649
21.34486 618
21.36498 647
21.38509 666
21.40521 656
21.42532 594
21.44543 619
21.46555 611
21.48566 649
21.50577 602
21.52589 532
21.546 543
21.56612 574
21.58623 515
21.60634 534
21.62646 494
21.64657 518
21.66668 495
21.6868 490
21.70691 481
21.72702 502
21.74714 436
21.76725 501
21.78737 457
21.80748 474
21.82759 463
21.84771 469
21.86782 462
21.88793 458
21.90805 464
21.92816 481
21.94828 469
21.96839 449
21.9885 455
22.00862 459
22.02873 452
22.04884 450
22.06896 429
22.08907 472
22.10919 455
22.1293 449
22.14941 445
22.16953 441
22.18964 433
22.20975 408
22.22987 488
22.24998 409
22.27009 431
22.29021 399
22.31032 424
22.33044 442
22.35055 399
22.37066 409
22.39078 414
22.41089 429
22.431 394
22.45112 415
22.47123 387
22.49135 433
22.51146 428
22.53157 436
22.55169 376
22.5718 398
22.59191 399
22.61203 409
22.63214 375
22.65225 354
22.67237 375
22.69248 406
22.7126 371
22.73271 394
22.75282 384
22.77294 418
22.79305 417
22.81316 435
22.83328 392
22.85339 383
22.87351 404
22.89362 385
22.91373 389
22.93385 397
22.95396 418
22.97407 394
22.99419 375
23.0143 388
23.03442 374
23.05453 379
23.07464 374
23.09476 391
23.11487 337
23.13498 377
23.1551 384
23.17521 340
23.19532 338
23.21544 383
23.23555 382
23.25567 356
23.27578 413
23.29589 370
23.31601 390
23.33612 377
23.35623 367
23.37635 385
23.39646 360
23.41658 383
23.43669 357
23.4568 341
23.47692 383
23.49703 342
23.51714 384
23.53726 347
23.55737 405
23.57749 397
23.5976 374
23.61771 373
23.63783 366
23.65794 406
23.67805 343
23.69817 378
23.71828 371
23.73839 424
23.75851 426
23.77862 398
23.79874 409
23.81885 373
23.83896 383
23.85908 429
23.87919 415
23.8993 399
23.91942 426
23.93953 433
23.95965 436
23.97976 432
23.99987 465
24.01999 446
24.0401 461
24.06021 425
24.08033 403
24.10044 396
24.12056 415
24.14067 427
24.16078 415
24.1809 432
24.20101 442
24.22112 470
24.24124 374
24.26135 436
24.28146 399
24.30158 412
24.32169 464
24.34181 448
24.36192 391
24.38203 408
24.40215 456
24.42226 428
24.44237 464
24.46249 431
24.4826 435
24.50272 419
24.52283 494
24.54294 483
24.56306 499
24.58317 501
24.60328 481
24.6234 540
24.64351 534
24.66362 562
24.68374 628
24.70385 607
24.72397 581
24.74408 607
24.76419 653
24.78431 656
24.80442 679
24.82453 689
24.84465 690
24.86476 662
24.88488 656
24.90499 674
24.9251 665
24.94522 630
24.96533 578
24.98544 559
25.00556 612
25.02567 557
25.04579 531
25.0659 524
25.08601 517
25.10613 455
25.12624 499
25.14635 501
25.16647 520
25.18658 506
25.20669 507
25.22681 552
25.24692 536
25.26704 487
25.28715 532
25.30726 444
25.32738 500
25.34749 459
25.3676 472
25.38772 425
25.40783 458
25.42795 419
25.44806 432
25.46817 493
25.48829 416
25.5084 434
25.52851 388
25.54863 394
25.56874 467
25.58886 432
25.60897 468
25.62908 423
25.6492 478
25.66931 491
25.68942 474
25.70954 475
25.72965 492
25.74976 499
25.76988 494
25.78999 568
25.81011 519
25.83022 550
25.85033 566
25.87045 510
25.89056 519
25.91067 541
25.93079 547
25.9509 533
25.97102 545
25.99113 538
26.01124 580
26.03136 569
26.05147 561
26.07158 631
26.0917 619
26.11181 635
26.13193 681
26.15204 750
26.17215 697
26.19227 730
26.21238 796
26.23249 893
26.25261 871
26.27272 1021
26.29283 1030
26.31295 1122
26.33306 1208
26.35318 1495
26.37329 1658
26.3934 1879
26.41352 2390
26.43363 3050
26.45374 4103
26.47386 5706
26.49397 7817
26.51409 10683
26.5342 14088
26.55431 18047
26.57443 20888
26.59454 22017
26.61465 21335
26.63477 19183
26.65488 15855
26.67499 12077
26.69511 8925
26.71522 6070
26.73534 3770
26.75545 2434
26.77556 1789
26.79568 1485
26.81579 1256
26.8359 1098
26.85602 1047
26.87613 991
26.89625 910
26.91636 914
26.93647 823
26.95659 756
26.9767 690
26.99681 696
27.01693 625
27.03704 605
27.05716 583
27.07727 568
27.09738 556
27.1175 511
27.13761 524
27.15772 527
27.17784 494
27.19795 455
27.21806 463
27.23818 492
27.25829 451
27.27841 468
27.29852 470
27.31863 472
27.33875 488
27.35886 479
27.37897 484
27.39909 477
27.4192 463
27.43932 475
27.45943 451
27.47954 428
27.49966 437
27.51977 448
27.53988 441
27.56 429
27.58011 401
27.60023 409
27.62034 421
27.64045 397
27.66057 404
27.68068 402
27.70079 409
27.72091 422
27.74102 434
27.76113 411
27.78125 376
27.80136 398
27.82148 377
27.84159 377
27.8617 417
27.88182 380
27.90193 392
27.92204 387
27.94216 442
27.96227 387
27.98239 401
28.0025 388
28.02261 335
28.04273 346
28.06284 372
28.08295 349
28.10307 329
28.12318 369
28.1433 364
28.16341 374
28.18352 367
28.20364 366
28.22375 401
28.24386 359
28.26398 386
28.28409 361
28.3042 354
28.32432 369
28.34443 373
28.36455 329
28.38466 380
28.40477 361
28.42489 358
28.445 360
28.46511 336
28.48523 384
28.50534 360
28.52546 412
28.54557 357
28.56568 354
28.5858 352
28.60591 372
28.62602 373
28.64614 335
28.66625 353
28.68636 350
28.70648 353
28.72659 337
28.74671 325
28.76682 379
28.78693 300
28.80705 337
28.82716 314
28.84727 301
28.86739 333
28.8875 348
28.90762 328
28.92773 349
28.94784 310
28.96796 326
28.98807 353
29.00818 334
29.0283 328
29.04841 336
29.06853 323
29.08864 372
29.10875 329
29.12887 336
29.14898 348
29.16909 363
29.18921 348
29.20932 328
29.22943 353
29.24955 327
29.26966 318
29.28978 311
29.30989 329
29.33 322
29.35012 314
29.37023 310
29.39034 338
29.41046 337
29.43057 340
29.45069 346
29.4708 320
29.49091 324
29.51103 339
29.53114 335
29.55125 314
29.57137 309
29.59148 327
29.6116 326
29.63171 315
29.65182 364
29.67194 328
29.69205 303
29.71216 340
29.73228 349
29.75239 327
29.7725 343
29.79262 373
29.81273 334
29.83285 345
29.85296 331
29.87307 312
29.89319 300
29.9133 334
29.93341 326
29.95353 325
29.97364 313
29.99376 359
30.01387 310
30.03398 301
30.0541 317
30.07421 322
30.09432 308
30.11444 320
30.13455 331
30.15467 324
30.17478 304
30.19489 305
30.21501 306
30.23512 313
30.25523 347
30.27535 345
30.29546 309
30.31557 325
30.33569 305
30.3558 301
30.37592 350
30.39603 306
30.41614 316
30.43626 341
30.45637 298
30.47648 321
30.4966 298
30.51671 313
30.53683 292
30.55694 332
30.57705 321
30.59717 306
30.61728 312
30.63739 358
30.65751 287
30.67762 310
30.69773 340
30.71785 284
30.73796 321
30.75808 341
30.77819 334
30.7983 313
30.81842 335
30.83853 324
30.85864 310
30.87876 326
30.89887 297
30.91899 296
30.9391 347
30.95921 304
30.97933 308
30.99944 307
31.01955 336
31.03967 324
31.05978 321
31.0799 324
31.10001 345
31.12012 327
31.14024 316
31.16035 305
31.18046 304
31.20058 338
31.22069 331
31.2408 310
31.26092 311
31.28103 307
31.30115 293
31.32126 318
31.34137 305
31.36149 320
31.3816 312
31.40171 285
31.42183 307
31.44194 301
31.46206 307
31.48217 318
31.50228 315
31.5224 295
31.54251 303
31.56262 310
31.58274 334
31.60285 323
31.62297 316
31.64308 297
31.66319 319
31.68331 309
31.70342 284
31.72353 331
31.74365 314
31.76376 298
31.78387 318
31.80399 310
31.8241 335
31.84422 324
31.86433 309
31.88444 304
31.90456 282
31.92467 296
31.94478 312
31.9649 299
31.98501 282
32.00513 312
32.02524 315
32.04535 320
32.06547 328
32.08558 323
32.10569 313
32.12581 315
32.14592 307
32.16604 282
32.18615 283
32.20626 316
32.22638 295
32.24649 334
32.2666 319
32.28672 320
32.30683 307
32.32694 309
32.34706 326
32.36717 332
32.38729 315
32.4074 323
32.42751 342
32.44763 384
32.46774 350
32.48785 323
32.50797 359
32.52808 338
32.5482 351
32.56831 359
32.58842 303
32.60854 323
32.62865 334
32.64876 329
32.66888 348
32.68899 373
32.7091 357
32.72922 347
32.74933 303
32.76945 328
32.78956 346
32.80967 361
32.82979 332
32.8499 360
32.87001 319
32.89013 354
32.91024 378
32.93036 342
32.95047 392
32.97058 381
32.9907 378
33.01081 354
33.03092 372
33.05104 411
33.07115 358
33.09127 349
33.11138 366
33.13149 396
33.15161 388
33.17172 394
33.19183 395
33.21195 384
33.23206 367
33.25217 383
33.27229 377
33.2924 386
33.31252 393
33.33263 368
33.35274 384
33.37286 387
33.39297 371
33.41308 368
33.4332 409
33.45331 424
33.47343 378
33.49354 371
33.51365 377
33.53377 362
33.55388 379
33.57399 350
33.59411 368
33.61422 345
33.63434 350
33.65445 329
33.67456 320
33.69468 364
33.71479 355
33.7349 346
33.75502 355
33.77513 354
33.79524 354
33.81536 317
33.83547 309
33.85559 330
33.8757 309
33.89581 308
33.91593 341
33.93604 303
33.95615 313
33.97627 309
33.99638 353
34.0165 295
34.03661 315
34.05672 322
34.07684 334
34.09695 304
34.11706 301
34.13718 314
34.15729 352
34.17741 306
34.19752 299
34.21763 303
34.23775 327
34.25786 358
34.27797 291
34.29809 321
34.3182 308
34.33831 315
34.35843 319
34.37854 305
34.39866 313
34.41877 327
34.43888 353
34.459 310
34.47911 329
34.49922 339
34.51934 272
34.53945 326
34.55957 349
34.57968 381
34.59979 348
34.61991 345
34.64002 373
34.66013 376
34.68025 389
34.70036 351
34.72047 378
34.74059 404
34.7607 415
34.78082 409
34.80093 421
34.82104 427
34.84116 421
34.86127 460
34.88138 478
34.9015 494
34.92161 483
34.94173 518
34.96184 461
34.98195 477
35.00207 496
35.02218 481
35.04229 477
35.06241 458
35.08252 468
35.10264 465
35.12275 435
35.14286 456
35.16298 492
35.18309 470
35.2032 479
35.22332 398
35.24343 439
35.26354 468
35.28366 479
35.30377 443
35.32389 444
35.344 432
35.36411 463
35.38423 481
35.40434 484
35.42445 510
35.44457 473
35.46468 479
35.4848 468
35.50491 468
35.52502 471
35.54514 525
35.56525 499
35.58536 510
35.60548 514
35.62559 472
35.64571 475
35.66582 510
35.68593 519
35.70605 552
35.72616 527
35.74627 486
35.76639 514
35.7865 513
35.80661 512
35.82673 509
35.84684 501
35.86696 494
35.88707 508
35.90718 489
35.9273 509
35.94741 472
35.96752 488
35.98764 505
36.00775 467
36.02787 458
36.04798 473
36.06809 442
36.08821 455
36.10832 432
36.12843 424
36.14855 408
36.16866 413
36.18878 482
36.20889 450
36.229 473
36.24912 462
36.26923 534
36.28934 534
36.30946 550
36.32957 649
36.34968 693
36.3698 832
36.38991 912
36.41003 1152
36.43014 1291
36.45025 1546
36.47037 1732
36.49048 1769
36.51059 1780
36.53071 1532
36.55082 1476
36.57094 1246
36.59105 1136
36.61116 979
36.63128 813
36.65139 651
36.6715 550
36.69162 471
36.71173 486
36.73184 451
36.75196 417
36.77207 433
36.79219 437
36.8123 413
36.83241 416
36.85253 450
36.87264 445
36.89275 442
36.91287 421
36.93298 412
36.9531 452
36.97321 490
36.99332 429
37.01344 450
37.03355 489
37.05366 418
37.07378 454
37.09389 426
37.11401 454
37.13412 422
37.15423 386
37.17435 404
37.19446 400
37.21457 402
37.23469 408
37.2548 371
37.27491 379
37.29503 403
37.31514 340
37.33526 359
37.35537 382
37.37548 375
37.3956 386
37.41571 381
37.43582 392
37.45594 383
37.47605 371
37.49617 388
37.51628 375
37.53639 376
37.55651 388
37.57662 388
37.59673 430
37.61685 366
37.63696 416
37.65708 411
37.67719 375
37.6973 362
37.71742 399
37.73753 421
37.75764 388
37.77776 383
37.79787 351
37.81798 370
37.8381 395
37.85821 407
37.87833 435
37.89844 358
37.91855 368
37.93867 406
37.95878 386
37.97889 417
37.99901 415
38.01912 374
38.03924 376
38.05935 410
38.07946 378
38.09958 439
38.11969 457
38.1398 421
38.15992 413
38.18003 460
38.20015 420
38.22026 473
38.24037 467
38.26049 480
38.2806 485
38.30071 463
38.32083 445
38.34094 521
38.36105 469
38.38117 492
38.40128 527
38.4214 517
38.44151 499
38.46162 475
38.48174 461
38.50185 474
38.52196 445
38.54208 502
38.56219 413
38.58231 433
38.60242 412
38.62253 375
38.64265 437
38.66276 455
38.68287 432
38.70299 411
38.7231 419
38.74321 415
38.76333 429
38.78344 385
38.80356 375
38.82367 412
38.84378 396
38.8639 399
38.88401 384
38.90412 414
38.92424 425
38.94435 404
38.96447 400
38.98458 430
39.00469 439
39.02481 451
39.04492 407
39.06503 442
39.08515 412
39.10526 449
39.12538 479
39.14549 477
39.1656 446
39.18572 537
39.20583 537
39.22594 613
39.24606 594
39.26617 702
39.28628 781
39.3064 905
39.32651 1064
39.34663 1300
39.36674 1463
39.38685 1617
39.40697 1551
39.42708 1650
39.44719 1518
39.46731 1449
39.48742 1252
39.50754 1058
39.52765 1026
39.54776 854
39.56788 672
39.58799 586
39.6081 458
39.62822 414
39.64833 420
39.66845 401
39.68856 356
39.70867 345
39.72879 367
39.7489 361
39.76901 324
39.78913 349
39.80924 380
39.82935 378
39.84947 355
39.86958 374
39.8897 376
39.90981 312
39.92992 317
39.95004 342
39.97015 388
39.99026 412
40.01038 409
40.03049 405
40.05061 402
40.07072 434
40.09083 476
40.11095 551
40.13106 572
40.15117 704
40.17129 753
40.1914 821
40.21152 951
40.23163 933
40.25174 967
40.27186 921
40.29197 794
40.31208 733
40.3322 656
40.35231 701
40.37242 536
40.39254 493
40.41265 435
40.43277 401
40.45288 397
40.47299 442
40.49311 391
40.51322 418
40.53333 393
40.55345 347
40.57356 404
40.59368 353
40.61379 373
40.6339 348
40.65402 359
40.67413 356
40.69424 366
40.71436 357
40.73447 336
40.75458 361
40.7747 370
40.79481 317
40.81493 337
40.83504 354
40.85515 337
40.87527 350
40.89538 363
40.91549 365
40.93561 365
40.95572 345
40.97584 360
40.99595 343
41.01606 352
41.03618 372
41.05629 352
41.0764 342
41.09652 341
41.11663 345
41.13675 367
41.15686 329
41.17697 345
41.19709 342
41.2172 343
41.23731 320
41.25743 330
41.27754 351
41.29765 327
41.31777 335
41.33788 397
41.358 339
41.37811 352
41.39822 335
41.41834 352
41.43845 305
41.45856 333
41.47868 345
41.49879 336
41.51891 331
41.53902 310
41.55913 327
41.57925 346
41.59936 321
41.61947 321
41.63959 334
41.6597 325
41.67982 334
41.69993 338
41.72004 339
41.74016 357
41.76027 347
41.78038 327
41.8005 320
41.82061 331
41.84072 341
41.86084 318
41.88095 340
41.90107 297
41.92118 310
41.94129 305
41.96141 310
41.98152 329
42.00163 316
42.02175 344
42.04186 332
42.06198 348
42.08209 345
42.1022 364
42.12232 349
42.14243 367
42.16254 368
42.18266 401
42.20277 437
42.22289 474
42.243 505
42.26311 571
42.28323 672
42.30334 751
42.32345 890
42.34357 1050
42.36368 1173
42.38379 1267
42.40391 1157
42.42402 1105
42.44414 1038
42.46425 916
42.48436 857
42.50448 739
42.52459 687
42.5447 616
42.56482 471
42.58493 439
42.60505 378
42.62516 380
42.64527 333
42.66539 352
42.6855 298
42.70561 333
42.72573 336
42.74584 337
42.76595 280
42.78607 304
42.80618 297
42.8263 283
42.84641 279
42.86652 264
42.88664 304
42.90675 287
42.92686 296
42.94698 290
42.96709 295
42.98721 303
43.00732 282
43.02743 276
43.04755 285
43.06766 293
43.08777 268
43.10789 281
43.128 301
43.14812 309
43.16823 288
43.18834 278
43.20846 283
43.22857 290
43.24868 293
43.2688 275
43.28891 270
43.30902 284
43.32914 293
43.34925 274
43.36937 283
43.38948 301
43.40959 276
43.42971 302
43.44982 285
43.46993 261
43.49005 284
43.51016 278
43.53028 281
43.55039 275
43.5705 268
43.59062 276
43.61073 263
43.63084 324
43.65096 298
43.67107 276
43.69119 277
43.7113 277
43.73141 296
43.75153 256
43.77164 308
43.79175 287
43.81187 254
43.83198 266
43.85209 285
43.87221 284
43.89232 259
43.91244 291
43.93255 271
43.95266 291
43.97278 316
43.99289 277
44.013 284
44.03312 272
44.05323 297
44.07335 263
44.09346 302
44.11357 253
44.13369 290
44.1538 263
44.17391 302
44.19403 294
44.21414 250
44.23426 282
44.25437 287
44.27448 272
44.2946 297
44.31471 283
44.33482 285
44.35494 273
44.37505 287
44.39516 277
44.41528 318
44.43539 285
44.45551 274
44.47562 294
44.49573 296
44.51585 268
44.53596 303
44.55607 278
44.57619 279
44.5963 263
44.61642 304
44.63653 296
44.65664 259
44.67676 291
44.69687 288
44.71698 285
44.7371 265
44.75721 260
44.77732 263
44.79744 293
44.81755 305
44.83767 290
44.85778 281
44.87789 280
44.89801 308
44.91812 301
44.93823 267
44.95835 315
44.97846 297
44.99858 271
45.01869 262
45.0388 300
45.05892 299
45.07903 325
45.09914 278
45.11926 318
45.13937 326
45.15949 297
45.1796 304
45.19971 318
45.21983 313
45.23994 319
45.26005 315
45.28017 313
45.30028 305
45.32039 320
45.34051 312
45.36062 325
45.38074 332
45.40085 321
45.42096 334
45.44108 364
45.46119 367
45.4813 366
45.50142 371
45.52153 407
45.54165 375
45.56176 431
45.58187 449
45.60199 491
45.6221 577
45.64221 628
45.66233 727
45.68244 795
45.70256 826
45.72267 903
45.74278 919
45.7629 885
45.78301 837
45.80312 733
45.82324 680
45.84335 690
45.86346 560
45.88358 524
45.90369 475
45.92381 400
45.94392 390
45.96403 318
45.98415 354
46.00426 314
46.02437 310
46.04449 345
46.0646 329
46.08472 320
46.10483 294
46.12494 343
46.14506 291
46.16517 293
46.18528 312
46.2054 297
46.22551 290
46.24563 288
46.26574 298
46.28585 317
46.30597 303
46.32608 293
46.34619 293
46.36631 310
46.38642 275
46.40653 273
46.42665 287
46.44676 295
46.46688 283
46.48699 300
46.5071 298
46.52722 288
46.54733 290
46.56744 323
46.58756 321
46.60767 316
46.62779 259
46.6479 267
46.66801 309
46.68813 287
46.70824 279
46.72835 297
46.74847 285
46.76858 332
46.78869 283
46.80881 291
46.82892 304
46.84904 321
46.86915 290
46.88926 308
46.90938 285
46.92949 295
46.9496 293
46.96972 276
46.98983 289
47.00995 272
47.03006 296
47.05017 273
47.07029 324
47.0904 289
47.11051 289
47.13063 303
47.15074 272
47.17086 275
47.19097 323
47.21108 276
47.2312 305
47.25131 257
47.27142 282
47.29154 303
47.31165 305
47.33176 276
47.35188 283
47.37199 291
47.39211 300
47.41222 284
47.43233 289
47.45245 257
47.47256 291
47.49267 301
47.51279 297
47.5329 295
47.55302 286
47.57313 290
47.59324 326
47.61336 282
47.63347 291
47.65358 292
47.6737 321
47.69381 324
47.71393 286
47.73404 305
47.75415 290
47.77427 291
47.79438 332
47.81449 331
47.83461 302
47.85472 325
47.87483 313
47.89495 315
47.91506 318
47.93518 327
47.95529 293
47.9754 287
47.99552 302
48.01563 316
48.03574 327
48.05586 270
48.07597 314
48.09609 317
48.1162 281
48.13631 298
48.15643 309
48.17654 292
48.19665 318
48.21677 286
48.23688 280
48.257 262
48.27711 304
48.29722 290
48.31734 292
48.33745 307
48.35756 280
48.37768 301
48.39779 289
48.4179 285
48.43802 278
48.45813 267
48.47825 268
48.49836 302
48.51847 291
48.53859 301
48.5587 270
48.57881 278
48.59893 272
48.61904 299
48.63916 266
48.65927 299
48.67938 306
48.6995 317
48.71961 320
48.73972 308
48.75984 310
48.77995 259
48.80006 312
48.82018 286
48.84029 293
48.86041 275
48.88052 299
48.90063 273
48.92075 296
48.94086 278
48.96097 285
48.98109 294
49.0012 311
49.02132 292
49.04143 291
49.06154 299
49.08166 296
49.10177 323
49.12188 273
49.142 286
49.16211 308
49.18223 332
49.20234 298
49.22245 306
49.24257 319
49.26268 298
49.28279 337
49.30291 319
49.32302 316
49.34313 325
49.36325 353
49.38336 334
49.40348 315
49.42359 284
49.4437 345
49.46382 308
49.48393 329
49.50404 314
49.52416 328
49.54427 342
49.56439 339
49.5845 366
49.60461 354
49.62473 374
49.64484 371
49.66495 374
49.68507 377
49.70518 372
49.7253 391
49.74541 427
49.76552 378
49.78564 429
49.80575 446
49.82586 505
49.84598 531
49.86609 573
49.8862 684
49.90632 730
49.92643 886
49.94655 998
49.96666 1164
49.98677 1412
50.00689 1732
50.027 1975
50.04711 2307
50.06723 2456
50.08734 2426
50.10746 2340
50.12757 1945
50.14768 1712
50.1678 1605
50.18791 1467
50.20802 1403
50.22814 1208
50.24825 1053
50.26837 855
50.28848 652
50.30859 514
50.32871 441
50.34882 417
50.36893 365
50.38905 418
50.40916 340
50.42927 346
50.44939 411
50.4695 351
50.48962 337
50.50973 370
50.52984 380
50.54996 398
50.57007 355
50.59018 387
50.6103 332
50.63041 345
50.65053 288
50.67064 353
50.69075 301
50.71087 295
50.73098 348
50.75109 318
50.77121 314
50.79132 301
50.81143 301
50.83155 328
50.85166 315
50.87178 282
50.89189 304
50.912 298
50.93212 305
50.95223 325
50.97234 329
50.99246 342
51.01257 320
51.03269 329
51.0528 315
51.07291 300
51.09303 330
51.11314 294
51.13325 295
51.15337 310
51.17348 273
51.1936 292
51.21371 261
51.23382 283
51.25394 260
51.27405 258
51.29416 269
51.31428 272
51.33439 304
51.3545 279
51.37462 283
51.39473 279
51.41485 268
51.43496 293
51.45507 280
51.47519 240
51.4953 289
51.51541 301
51.53553 283
51.55564 281
51.57576 278
51.59587 285
51.61598 297
51.6361 264
51.65621 274
51.67632 277
51.69644 287
51.71655 303
51.73667 290
51.75678 264
51.77689 290
51.79701 251
51.81712 270
51.83723 239
51.85735 259
51.87746 247
51.89757 283
51.91769 253
51.9378 276
51.95792 279
51.97803 274
51.99814 293
52.01826 271
52.03837 278
52.05848 273
52.0786 280
52.09871 281
52.11883 273
52.13894 269
52.15905 277
52.17917 276
52.19928 241
52.21939 274
52.23951 276
52.25962 270
52.27974 267
52.29985 271
52.31996 232
52.34008 271
52.36019 252
52.3803 264
52.40042 292
52.42053 259
52.44064 247
52.46076 245
52.48087 269
52.50099 266
52.5211 261
52.54121 275
52.56133 276
52.58144 278
52.60155 275
52.62167 246
52.64178 262
52.6619 275
52.68201 287
52.70212 271
52.72224 286
52.74235 278
52.76246 267
52.78258 282
52.80269 271
52.8228 285
52.84292 279
52.86303 268
52.88315 286
52.90326 283
52.92337 299
52.94349 282
52.9636 321
52.98371 278
53.00383 288
53.02394 280
53.04406 275
53.06417 276
53.08428 281
53.1044 309
53.12451 299
53.14462 302
53.16474 331
53.18485 253
53.20497 289
53.22508 278
53.24519 293
53.26531 295
53.28542 301
53.30553 319
53.32565 302
53.34576 304
53.36587 310
53.38599 295
53.4061 301
53.42622 306
53.44633 306
53.46644 320
53.48656 325
53.50667 336
53.52678 309
53.5469 342
53.56701 354
53.58713 330
53.60724 330
53.62735 348
53.64747 337
53.66758 363
53.68769 343
53.70781 356
53.72792 369
53.74804 333
53.76815 325
53.78826 343
53.80838 339
53.82849 387
53.8486 350
53.86872 336
53.88883 337
53.90894 332
53.92906 337
53.94917 355
53.96929 345
53.9894 364
54.00951 322
54.02963 365
54.04974 368
54.06985 365
54.08997 379
54.11008 377
54.1302 383
54.15031 366
54.17042 370
54.19054 407
54.21065 361
54.23076 396
54.25088 365
54.27099 389
54.29111 370
54.31122 373
54.33133 386
54.35145 356
54.37156 366
54.39167 371
54.41179 361
54.4319 348
54.45201 387
54.47213 405
54.49224 409
54.51236 409
54.53247 377
54.55258 439
54.5727 440
54.59281 450
54.61292 455
54.63304 471
54.65315 513
54.67327 533
54.69338 595
54.71349 694
54.73361 742
54.75372 832
54.77383 932
54.79395 994
54.81406 918
54.83417 939
54.85429 894
54.8744 776
54.89452 688
54.91463 675
54.93474 713
54.95486 699
54.97497 636
54.99508 576
55.0152 556
55.03531 491
55.05543 441
55.07554 464
55.09565 465
55.11577 444
55.13588 430
55.15599 466
55.17611 510
55.19622 545
55.21634 583
55.23645 629
55.25656 651
55.27668 623
55.29679 531
55.3169 529
55.33702 490
55.35713 508
55.37724 516
55.39736 464
55.41747 423
55.43759 427
55.4577 413
55.47781 382
55.49793 372
55.51804 344
55.53815 337
55.55827 314
55.57838 331
55.5985 326
55.61861 347
55.63872 330
55.65884 319
55.67895 351
55.69906 311
55.71918 323
55.73929 297
55.75941 306
55.77952 302
55.79963 324
55.81975 310
55.83986 316
55.85997 328
55.88009 300
55.9002 319
55.92031 299
55.94043 282
55.96054 320
55.98066 308
56.00077 311
56.02088 284
56.041 284
56.06111 298
56.08122 271
56.10134 313
56.12145 286
56.14157 291
56.16168 295
56.18179 283
56.20191 288
56.22202 302
56.24213 291
56.26225 336
56.28236 301
56.30248 305
56.32259 311
56.3427 326
56.36282 291
56.38293 335
56.40304 310
56.42316 293
56.44327 254
56.46338 290
56.4835 298
56.50361 289
56.52373 297
56.54384 296
56.56395 301
56.58407 294
56.60418 283
56.62429 297
56.64441 309
56.66452 311
56.68464 312
56.70475 320
56.72486 301
56.74498 299
56.76509 301
56.7852 300
56.80532 295
56.82543 283
56.84554 274
56.86566 312
56.88577 282
56.90589 265
56.926 307
56.94611 295
56.96623 318
56.98634 283
57.00645 289
57.02657 324
57.04668 307
57.0668 316
57.08691 307
57.10702 316
57.12714 317
57.14725 317
57.16736 322
57.18748 308
57.20759 302
57.22771 272
57.24782 315
57.26793 309
57.28805 299
57.30816 287
57.32827 278
57.34839 302
57.3685 255
57.38861 284
57.40873 277
57.42884 263
57.44896 272
57.46907 289
57.48918 294
57.5093 309
57.52941 292
57.54952 262
57.56964 278
57.58975 278
57.60987 267
57.62998 286
57.65009 245
57.67021 321
57.69032 305
57.71043 287
57.73055 280
57.75066 296
57.77078 268
57.79089 290
57.811 299
57.83112 315
57.85123 285
57.87134 282
57.89146 275
57.91157 291
57.93168 276
57.9518 290
57.97191 265
57.99203 273
58.01214 288
58.03225 267
58.05237 292
58.07248 271
58.09259 262
58.11271 302
58.13282 287
58.15294 294
58.17305 272
58.19316 283
58.21328 315
58.23339 273
58.2535 270
58.27362 260
58.29373 308
58.31385 297
58.33396 293
58.35407 254
58.37419 300
58.3943 253
58.41441 300
58.43453 257
58.45464 258
58.47475 283
58.49487 292
58.51498 272
58.5351 264
58.55521 289
58.57532 273
58.59544 281
58.61555 303
58.63566 277
58.65578 271
58.67589 288
58.69601 264
58.71612 257
58.73623 258
58.75635 257
58.77646 313
58.79657 263
58.81669 272
58.8368 287
58.85691 231
58.87703 308
58.89714 267
58.91726 250
58.93737 278
58.95748 287
58.9776 272
58.99771 278
59.01782 268
59.03794 307
59.05805 252
59.07817 261
59.09828 292
59.11839 292
59.13851 267
59.15862 287
59.17873 317
59.19885 317
59.21896 282
59.23908 289
59.25919 290
59.2793 293
59.29942 297
59.31953 283
59.33964 274
59.35976 327
59.37987 315
59.39998 294
59.4201 316
59.44021 329
59.46033 324
59.48044 353
59.50055 345
59.52067 373
59.54078 361
59.56089 399
59.58101 362
59.60112 384
59.62124 441
59.64135 457
59.66146 490
59.68158 519
59.70169 526
59.7218 633
59.74192 702
59.76203 839
59.78215 932
59.80226 1131
59.82237 1198
59.84249 1416
59.8626 1682
59.88271 1660
59.90283 1601
59.92294 1483
59.94305 1282
59.96317 1122
59.98328 1054
60.0034 1076
60.02351 993
60.04362 1003
60.06374 964
60.08385 815
60.10396 743
60.12408 591
60.14419 504
60.16431 413
60.18442 378
60.20453 352
60.22465 355
60.24476 336
60.26487 312
60.28499 300
60.3051 296
60.32522 327
60.34533 304
60.36544 320
60.38556 282
60.40567 287
60.42578 283
60.4459 315
60.46601 282
60.48612 287
60.50624 285
60.52635 271
60.54647 272
60.56658 298
60.58669 290
60.60681 300
60.62692 289
60.64703 288
60.66715 285
60.68726 257
60.70738 308
60.72749 257
60.7476 286
60.76772 273
60.78783 249
60.80794 276
60.82806 256
60.84817 263
60.86828 243
60.8884 286
60.90851 279
60.92863 282
60.94874 266
60.96885 278
60.98897 291
61.00908 254
61.02919 274
61.04931 284
61.06942 293
61.08954 273
61.10965 269
61.12976 285
61.14988 294
61.16999 266
61.1901 271
61.21022 270
61.23033 274
61.25045 279
61.27056 258
61.29067 275
61.31079 279
61.3309 278
61.35101 278
61.37113 246
61.39124 306
61.41135 267
61.43147 280
61.45158 277
61.4717 245
61.49181 303
61.51192 278
61.53204 259
61.55215 304
61.57226 269
61.59238 290
61.61249 290
61.63261 309
61.65272 305
61.67283 318
61.69295 273
61.71306 291
61.73317 322
61.75329 326
61.7734 300
61.79352 282
61.81363 326
61.83374 334
61.85386 319
61.87397 283
61.89408 312
61.9142 331
61.93431 335
61.95442 346
61.97454 360
61.99465 357
62.01477 362
62.03488 367
62.05499 373
62.07511 400
62.09522 396
62.11533 403
62.13545 388
62.15556 462
62.17568 420
62.19579 412
62.2159 445
62.23602 421
62.25613 397
62.27624 375
62.29636 388
62.31647 394
62.33659 419
62.3567 397
62.37681 406
62.39693 405
62.41704 352
62.43715 401
62.45727 333
62.47738 347
62.49749 369
62.51761 351
62.53772 340
62.55784 318
62.57795 329
62.59806 310
62.61818 304
62.63829 304
62.6584 314
62.67852 304
62.69863 314
62.71875 273
62.73886 304
62.75897 315
62.77909 285
62.7992 306
62.81931 279
62.83943 303
62.85954 286
62.87965 280
62.89977 286
62.91988 287
62.94 277
62.96011 307
62.98022 276
63.00034 305
63.02045 271
63.04056 295
63.06068 308
63.08079 306
63.10091 299
63.12102 316
63.14113 286
63.16125 308
63.18136 307
63.20147 293
63.22159 297
63.2417 287
63.26182 294
63.28193 273
63.30204 307
63.32216 287
63.34227 313
63.36238 309
63.3825 283
63.40261 324
63.42272 280
63.44284 280
63.46295 298
63.48307 267
63.50318 293
63.52329 259
63.54341 271
63.56352 300
63.58363 313
63.60375 300
63.62386 348
63.64398 333
63.66409 307
63.6842 307
63.70432 292
63.72443 318
63.74454 342
63.76466 309
63.78477 341
63.80489 328
63.825 401
63.84511 403
63.86523 419
63.88534 457
63.90545 480
63.92557 513
63.94568 571
63.96579 534
63.98591 534
64.00602 505
64.02614 485
64.04625 439
64.06636 428
64.08648 451
64.10659 407
64.1267 414
64.14682 415
64.16693 449
64.18705 394
64.20716 352
64.22727 312
64.24739 365
64.2675 315
64.28761 322
64.30773 293
64.32784 273
64.34796 287
64.36807 308
64.38818 275
64.4083 277
64.42841 306
64.44852 299
64.46864 289
64.48875 258
64.50886 307
64.52898 297
64.54909 292
64.56921 302
64.58932 264
64.60943 248
64.62955 273
64.64966 251
64.66977 291
64.68989 285
64.71 251
64.73012 254
64.75023 256
64.77034 270
64.79046 296
64.81057 266
64.83068 278
64.8508 268
64.87091 260
64.89102 260
64.91114 258
64.93125 262
64.95137 239
64.97148 276
64.99159 271
65.01171 282
65.03182 268
65.05193 259
65.07205 253
65.09216 279
65.11228 270
65.13239 265
65.1525 262
65.17262 266
65.19273 261
65.21284 299
65.23296 275
65.25307 272
65.27319 264
65.2933 270
65.31341 234
65.33353 265
65.35364 255
65.37375 244
65.39387 287
65.41398 265
65.43409 274
65.45421 255
65.47432 258
65.49444 308
65.51455 254
65.53466 260
65.55478 275
65.57489 282
65.595 279
65.61512 279
65.63523 271
65.65535 317
65.67546 334
65.69557 312
65.71569 312
65.7358 348
65.75591 296
65.77603 327
65.79614 302
65.81626 294
65.83637 288
65.85648 301
65.8766 280
65.89671 256
65.91682 278
65.93694 293
65.95705 283
65.97716 297
65.99728 289
66.01739 274
66.03751 257
66.05762 266
66.07773 268
66.09785 274
66.11796 276
66.13807 292
66.15819 293
66.1783 253
66.19842 267
66.21853 250
66.23864 263
66.25876 291
66.27887 269
66.29898 240
66.3191 275
66.33921 267
66.35933 267
66.37944 260
66.39955 259
66.41967 280
66.43978 269
66.45989 253
66.48001 269
66.50012 239
66.52023 242
66.54035 268
66.56046 269
66.58058 272
66.60069 280
66.6208 243
66.64092 270
66.66103 270
66.68114 277
66.70126 287
66.72137 253
66.74149 259
66.7616 270
66.78171 265
66.80183 241
66.82194 269
66.84205 276
66.86217 255
66.88228 265
66.90239 271
66.92251 264
66.94262 269
66.96274 235
66.98285 276
67.00296 247
67.02308 299
67.04319 251
67.0633 256
67.08342 256
67.10353 298
67.12365 317
67.14376 290
67.16387 315
67.18399 299
67.2041 276
67.22421 293
67.24433 303
67.26444 329
67.28456 329
67.30467 312
67.32478 316
67.3449 348
67.36501 340
67.38512 334
67.40524 371
67.42535 359
67.44546 397
67.46558 422
67.48569 454
67.50581 499
67.52592 539
67.54603 597
67.56615 685
67.58626 732
67.60637 796
67.62649 971
67.6466 959
67.66672 1056
67.68683 988
67.70694 936
67.72706 866
67.74717 808
67.76728 697
67.7874 707
67.80751 779
67.82763 817
67.84774 814
67.86785 752
67.88797 777
67.90808 819
67.92819 822
67.94831 807
67.96842 858
67.98853 906
68.00865 1076
68.02876 1188
68.04888 1283
68.06899 1322
68.0891 1382
68.10922 1243
68.12933 1207
68.14944 1164
68.16956 1112
68.18967 1202
68.20979 1150
68.2299 1256
68.25001 1293
68.27013 1208
68.29024 1064
68.31035 935
68.33047 814
68.35058 705
68.3707 629
68.39081 677
68.41092 614
68.43104 646
68.45115 581
68.47126 505
68.49138 466
68.51149 401
68.5316 376
68.55172 368
68.57183 345
68.59195 302
68.61206 294
68.63217 289
68.65229 326
68.6724 304
68.69251 268
68.71263 315
68.73274 301
68.75286 270
68.77297 267
68.79308 295
68.8132 255
68.83331 247
68.85342 221
68.87354 295
68.89365 284
68.91376 279
68.93388 288
68.95399 285
68.97411 271
68.99422 246
69.01433 265
69.03445 260
69.05456 262
69.07467 293
69.09479 251
69.1149 264
69.13502 269
69.15513 285
69.17524 262
69.19536 273
69.21547 272
69.23558 254
69.2557 237
69.27581 249
69.29593 286
69.31604 252
69.33615 270
69.35627 265
69.37638 279
69.39649 245
69.41661 259
69.43672 261
69.45683 284
69.47695 233
69.49706 284
69.51718 254
69.53729 248
69.5574 267
69.57752 250
69.59763 264
69.61774 251
69.63786 254
69.65797 253
69.67809 268
69.6982 242
69.71831 273
69.73843 267
69.75854 261
69.77865 246
69.79877 254
69.81888 251
69.839 225
69.85911 278
69.87922 294
69.89934 248
69.91945 263
69.93956 299
69.95968 248
69.97979 291
69.9999 254
70.02002 261
70.04013 235
70.06025 266
70.08036 250
70.10047 243
70.12059 224
70.1407 243
70.16081 249
70.18093 253
70.20104 290
70.22116 247
70.24127 272
70.26138 244
70.2815 236
70.30161 256
70.32172 240
70.34184 230
70.36195 240
70.38207 246
70.40218 280
70.42229 250
70.44241 261
70.46252 242
70.48263 257
70.50275 260
70.52286 251
70.54297 218
70.56309 230
70.5832 266
70.60332 256
70.62343 204
70.64354 261
70.66366 213
70.68377 242
70.70388 261
70.724 241
70.74411 269
70.76423 244
70.78434 248
70.80445 250
70.82457 244
70.84468 224
70.86479 267
70.88491 275
70.90502 235
70.92513 264
70.94525 256
70.96536 255
70.98548 250
71.00559 215
71.0257 204
71.04582 240
71.06593 251
71.08604 245
71.10616 267
71.12627 245
71.14639 256
71.1665 248
71.18661 219
71.20673 235
71.22684 229
71.24695 248
71.26707 272
71.28718 239
71.3073 248
71.32741 264
71.34752 250
71.36764 242
71.38775 249
71.40786 260
71.42798 246
71.44809 259
71.4682 260
71.48832 246
71.50843 211
71.52855 237
71.54866 251
71.56877 256
71.58889 253
71.609 228
71.62911 250
71.64923 242
71.66934 248
71.68946 265
71.70957 248
71.72968 252
71.7498 236
71.76991 265
71.79002 263
71.81014 266
71.83025 238
71.85037 241
71.87048 242
71.89059 253
71.91071 263
71.93082 265
71.95093 287
71.97105 264
71.99116 246
72.01127 237
72.03139 265
72.0515 261
72.07162 226
72.09173 269
72.11184 268
72.13196 246
72.15207 284
72.17218 242
72.1923 257
72.21241 253
72.23253 252
72.25264 272
72.27275 263
72.29287 256
72.31298 238
72.33309 232
72.35321 261
72.37332 246
72.39344 255
72.41355 253
72.43366 252
72.45378 243
72.47389 241
72.494 251
72.51412 246
72.53423 225
72.55434 251
72.57446 269
72.59457 239
72.61469 267
72.6348 253
72.65491 239
72.67503 269
72.69514 277
72.71525 240
72.73537 259
72.75548 252
72.7756 232
72.79571 232
72.81582 234
72.83594 222
72.85605 239
72.87616 272
72.89628 226
72.91639 246
72.9365 265
72.95662 250
72.97673 273
72.99685 301
73.01696 279
73.03707 283
73.05719 248
73.0773 271
73.09741 293
73.11753 304
73.13764 270
73.15776 292
73.17787 315
73.19798 325
73.2181 340
73.23821 362
73.25832 370
73.27844 408
73.29855 411
73.31867 433
73.33878 459
73.35889 517
73.37901 516
73.39912 508
73.41923 485
73.43935 460
73.45946 439
73.47957 400
73.49969 404
73.5198 420
73.53992 377
73.56003 395
73.58014 387
73.60026 391
73.62037 387
73.64048 374
73.6606 342
73.68071 336
73.70083 287
73.72094 292
73.74105 257
73.76117 289
73.78128 273
73.80139 300
73.82151 250
73.84162 250
73.86174 249
73.88185 251
73.90196 264
73.92208 254
73.94219 230
73.9623 232
73.98242 257
74.00253 249
74.02264 260
74.04276 260
74.06287 254
74.08299 260
74.1031 242
74.12321 233
74.14333 250
74.16344 238
74.18355 265
74.20367 237
74.22378 258
74.2439 232
74.26401 219
74.28412 238
74.30424 255
74.32435 269
74.34446 262
74.36458 265
74.38469 270
74.40481 256
74.42492 223
74.44503 236
74.46515 218
74.48526 253
74.50537 252
74.52549 230
74.5456 259
74.56571 242
74.58583 266
74.60594 252
74.62606 246
74.64617 240
74.66628 241
74.6864 236
74.70651 232
74.72662 249
74.74674 231
74.76685 240
74.78697 214
74.80708 221
74.82719 242
74.84731 244
74.86742 254
74.88753 254
74.90765 241
74.92776 246
74.94787 268
74.96799 239
74.9881 230
75.00822 259
