3.00117 23419.0224321826
3.02128 22313.5996915111
3.0414 22115
3.06151 21651.5978031237
3.08162 20754.3001043052
3.10174 20228.7201596501
3.12185 19541.8914983771
3.14197 19476.2666054419
3.16208 18916.7966609675
3.18219 18174.2606006432
3.20231 17769.7298628581
3.22242 17181.7207828594
3.24253 17084.4204632705
3.26265 16259.6876033297
3.28276 15615.5863143281
3.30288 15433.3676684943
3.32299 14892.1967454467
3.3431 14588
3.36322 13743.2916699282
3.38333 13433.9580641837
3.40344 13307.0378441854
3.42356 12637.8396765799
3.44367 12545.1649084189
3.46379 12130.326456309
3.4839 11483
3.50401 11238.8919369459
3.52413 10895.3392771284
3.54424 10447.2332144039
3.56435 10069.2277691145
3.58447 9642.07816172646
3.60458 9696.4133279561
3.62469 8913.23403042367
3.64481 8852.88392477489
3.66492 8292.54445384903
3.68504 8144.88474139528
3.70515 7893.74179031892
3.72526 7390.35719478676
3.74538 7445.1202563716
3.76549 6993.26224663298
3.7856 6627
3.80572 6443.77883514481
3.82583 6147.51655041737
3.84595 5884.6051455963
3.86606 5719.64542012681
3.88617 5345.2401887929
3.90629 5313.12532871275
3.9264 4897
3.94651 4986.98705847462
3.96663 4683.46166106691
3.98674 4421.55109482106
4.00686 4198.38137718784
4.02697 4020.31439111742
4.04708 3842.03352454394
4.0672 3844
4.08731 3555.95505016849
4.10742 3604.82915890525
4.12754 3227.58636826589
4.14765 3315.66089770489
4.16776 3234.63316120667
4.18788 2876.1806257214
4.20799 2870.02420226968
4.22811 2678.89317906129
4.24822 2589.06466544373
4.26833 2615.65047260852
4.28845 2232.50829133566
4.30856 2302.82661967205
4.32867 2250.14770071054
4.34879 2186.02095105603
4.3689 2142
4.38902 2066.91226994742
4.40913 1992.9439003573
4.42924 1962.85406943367
4.44936 1878.02652363943
4.46947 1892.12746512956
4.48958 1738.06394701418
4.5097 1766
4.52981 1624.93522705213
4.54992 1627.13965176437
4.57004 1726.75048100172
4.59015 1471.26157742201
4.61027 1561.92198873855
4.63038 1473.09699077946
4.65049 1460.98281323952
4.67061 1473.98115196992
4.69072 1401.94018603964
4.71083 1369.94997070677
4.73095 1316.8484393231
4.75106 1284.95518681794
4.77118 1333.97793034133
4.79129 1294.04182348273
4.8114 1229
4.83152 1280.04494110075
4.85163 1258.86532084178
4.87174 1140.79781496251
4.89186 1110.89460828951
4.91197 1174.01599646906
4.93209 1084.0449616991
4.9522 1061
4.97231 1075.96671913859
4.99243 978.982534958834
5.01254 1053.09062608062
5.03265 1025.08041538769
5.05277 1019.02737798461
5.07288 983.020104966391
5.09299 983.004445657504
5.11311 953.984568789796
5.13322 926.965207622326
5.15334 898.005821775746
5.17345 905.901630039791
5.19356 838.048447956601
5.21368 873.958811396886
5.23379 865.029969637822
5.2539 806
5.27402 829.972414860917
5.29413 754.943037413783
5.31425 784.106652322889
5.33436 780.115754552596
5.35447 723.985457395325
5.37459 782.986270060158
5.3947 746
5.41481 731.016367031225
5.43493 776.018671364675
5.45504 740.893839091414
5.47516 706.017423716297
5.49527 699.055370872306
5.51538 663.968832965966
5.5355 726
5.55561 661.996573925527
5.57572 711.993369248458
5.59584 617.803193267649
5.61595 574.027524505598
5.63606 570.000180100005
5.65618 566.012528986096
5.67629 572.970414984901
5.69641 651.014683591195
5.71652 603.915628912154
5.73663 549.005574244668
5.75675 581.002869998733
5.77686 557.963252829888
5.79697 606.995569351019
5.81709 567.999940090409
5.8372 601
5.85732 526.963154280203
5.87743 549.020919750738
5.89754 528.973607870117
5.91766 535.005878549324
5.93777 525.975956067411
5.95788 554.004646067625
5.978 504
5.99811 481.019215258271
6.01823 546.051871516185
6.03834 532.956109145457
6.05845 512.119712115646
6.07857 467.970128117102
6.09868 532.969573541854
6.11879 498.025908631736
6.13891 485.016818310121
6.15902 515.970978401578
6.17913 458.002452098216
6.19925 518.072294148713
6.21936 493.025969137961
6.23948 513.989023232801
6.25959 509.990073880347
6.2797 543
6.29982 500.968868921793
6.31993 504.018311880411
6.34004 493.922598231739
6.36016 457.988942548501
6.38027 495.965687621198
6.40039 489.002147677682
6.4205 486
6.44061 438.998579503077
6.46073 480.043608067999
6.48084 470.963527663774
6.50095 463.016943052602
6.52107 449.030182782088
6.54118 436.990330756772
6.56129 457.995901508045
6.58141 438.981773471021
6.60152 406.985408421706
6.62164 418.064562703797
6.64175 443.989866744855
6.66186 417.037921002779
6.68198 427.967725756446
6.70209 443.016306582028
6.7222 394
6.74232 436.024365692119
6.76243 430.019435075336
6.78255 470.063723225258
6.80266 452.098222914375
6.82277 416.980781646981
6.84289 450.004251464408
6.863 412
6.88311 460.006460219135
6.90323 408.899246376125
6.92334 383.052315922482
6.94346 427.962082361647
6.96357 415.010305191487
6.98368 441.94982421981
7.0038 468
7.02391 399.98372713634
7.04402 422.028773427169
7.06414 422.971987045273
7.08425 421.932216943044
7.10436 457.980104766825
7.12448 442.006871489289
7.14459 451.001695657253
7.16471 432.996813333673
7.18482 444.008061003344
7.20493 425.929669805203
7.22505 386.015874404232
7.24516 426.951253758011
7.26527 418.012850629871
7.28539 421.004034409028
7.3055 401
7.32562 414.026745826125
7.34573 428.979657596299
7.36584 395.947138287686
7.38596 400.928803716944
7.40607 430.021673457959
7.42618 386.022232201487
7.4463 402
7.46641 413.012133553802
7.48653 444.013008332599
7.50664 414.89341270018
7.52675 376.988042087539
7.54687 404.993085142127
7.56698 396.963379251708
7.58709 461.9905926663
7.60721 421.981458153909
7.62732 420.004311386119
7.64743 414.998365614452
7.66755 423.022661184861
7.68766 429.981037015761
7.70778 434.014265715257
7.72789 412.003030217486
7.748 422
7.76812 406.980566982367
7.78823 401.018712575392
7.80834 426.052756647265
7.82846 439.009395884646
7.84857 413.069763189814
7.86869 386.982189058125
7.8888 447
7.90891 397.987926807634
7.92903 420.016128070222
7.94914 403.997609480594
7.96925 428.948312001799
7.98937 429.010465819445
8.00948 431.983782275272
8.0296 443
8.04971 411.994402340127
8.06982 421.998336300854
8.08994 411.029672318839
8.11005 446.035618718181
8.13016 435.000591840266
8.15028 446.013131638716
8.17039 405.018301791221
8.1905 410
8.21062 452.971454042629
8.23073 378.953861664287
8.25085 424.16394145139
8.27096 456.998225250777
8.29107 439.037257224109
8.31119 418.008961003715
8.3313 408
8.35141 419.002493197108
8.37153 424.03578498466
8.39164 447.972440174287
8.41176 413.002793230005
8.43187 449.96169762751
8.45198 445.0050621591
8.4721 440
8.49221 402.008698829108
8.51232 454.007470015309
8.53244 420.012525117602
8.55255 481.87356186199
8.57266 478.071410086857
8.59278 446.014983426783
8.61289 454.986562293359
8.63301 480.004452968586
8.65312 490.041975568413
8.67323 553.06186428948
8.69335 557.989415730748
8.71346 564.977184247509
8.73357 582.950288830382
8.75369 628.976530007606
8.7738 670
8.79392 717.060629884634
8.81403 806.187214903397
8.83414 932.16406601564
8.85426 976.886948118663
8.87437 1070.84132052637
8.89448 1136.00499477841
8.9146 1070
8.93471 985.955425973316
8.95483 883.834566474304
8.97494 781.842766067907
8.99505 703.285233006961
9.01517 568.153514336033
9.03528 524.011193590071
9.05539 509.014571252626
9.07551 484.004217018764
9.09562 503.980527602665
9.11573 448.947141783438
9.13585 457.051090593699
9.15596 460.027327310617
9.17608 449.98676238871
9.19619 473.000295634566
9.2163 449
9.23642 460.016950648822
9.25653 453.941192406108
9.27664 398.915176396775
9.29676 390.958160845233
9.31687 417.976568086682
9.33699 419.998360844502
9.3571 428
9.37721 414.988639767279
9.39733 394.986898970796
9.41744 398.014032703697
9.43755 406.959143952874
9.45767 425.983471890915
9.47778 418.027484250348
9.4979 389
9.51801 399.008235820123
9.53812 414.020157645784
9.55824 430.996793545851
9.57835 419.002536638034
9.59846 438.957452627281
9.61858 445.0086420792
9.63869 422.018678528236
9.6588 388
9.67892 403.028791643888
9.69903 433.046804505263
9.71915 457.01884511207
9.73926 436.104289285337
9.75937 381.038349512746
9.77949 393.985627766547
9.7996 410
9.81971 400.000435502987
9.83983 412.008143645176
9.85994 397.942586425311
9.88006 381.960199866023
9.90017 412.013394729509
9.92028 370.019671964364
9.9404 390
9.96051 394.002083003106
9.98062 398.988434078103
10.00074 382.012507359838
10.02085 413.922398205035
10.04097 422.016842379843
10.06108 409.00092012764
10.08119 421.992582865994
10.10131 413.978239383314
10.12142 370.004030924718
10.14153 416.050439107215
10.16165 404.914097204684
10.18176 378.018756135549
10.20187 385.976789880123
10.22199 390.008360086507
10.2421 372
10.26222 393.989883063302
10.28233 368.028052714096
10.30244 430.086324306243
10.32256 414.10769804513
10.34267 369.014727683508
10.36278 390.975837214038
10.3829 399
10.40301 395.989914796905
10.42313 375.009492788645
10.44324 404.037933885492
10.46335 402.004167768799
10.48347 408.00073373148
10.50358 392.02615306734
10.52369 383.98326084652
10.54381 426.998271562278
10.56392 383.9801994472
10.58403 395.985447599323
10.60415 374.071686536147
10.62426 427.024978404069
10.64438 360.020699240016
10.66449 402.988290035352
10.6846 390
10.70472 426.981624144726
10.72483 370.999789926994
10.74494 421.002979223167
10.76506 367.034854100618
10.78517 401.982332555951
10.80529 376.999772411292
10.8254 411
10.84551 376.973273129571
10.86563 350.027895318779
10.88574 399.090099401682
10.90585 399.130987757141
10.92597 346.985979146498
10.94608 413.940723958979
10.9662 420
10.98631 386.986975670382
11.00642 373.995356331518
11.02654 378.035636090862
11.04665 396.00267279327
11.06676 382.003432201998
11.08688 400.977331040601
11.10699 411.999712679324
11.1271 407
11.14722 405.006650974176
11.16733 416.010978950741
11.18745 407.932284236218
11.20756 382.000622239924
11.22767 395.015309318544
11.24779 364.006183459649
11.2679 385
11.28801 410.015234838129
11.30813 417.920071940601
11.32824 347.994617175365
11.34836 406.93825631226
11.36847 387.007090560549
11.38858 418.976342700724
11.4087 415
11.42881 424.008121316066
11.44892 423.968077254827
11.46904 395.049797678768
11.48915 456.923935205152
11.50927 437.032279703638
11.52938 433.015982349314
11.54949 402.009476182718
11.56961 403.001097650219
11.58972 397.998190221555
11.60983 407.025555586131
11.62995 424.028228458109
11.65006 429.987387284827
11.67017 436.001215710188
11.69029 426.00746869918
11.7104 423
11.73052 438.966549352214
11.75063 383.993131998512
11.77074 436.08659236513
11.79086 437.020974688895
11.81097 436.997852267713
11.83108 430.016118872346
11.8512 427
11.87131 466.996776011648
11.89143 427.993229677145
11.91154 465.037860993701
11.93165 456.961959425213
11.95177 487.02155187552
11.97188 446.98729153233
11.99199 519.9691416404
12.01211 525.988138224074
12.03222 502.982474353992
12.05234 489.972778249749
12.07245 486.053217258386
12.09256 528.911058048285
12.11268 550.008572863626
12.13279 522.015452776896
12.1529 525
12.17302 595.018386546868
12.19313 576.031251241608
12.21324 636.042031344844
12.23336 599.071964464992
12.25347 603.958712297898
12.27359 634.983399708284
12.2937 656
12.31381 636.996619470153
12.33393 650.021445516063
12.35404 660.036377668031
12.37415 669.075652360887
12.39427 617.03804412374
12.41438 632.975997203303
12.4345 619
12.45461 549.993538049951
12.47472 587.02101128737
12.49484 559.917001324291
12.51495 535.024814173329
12.53506 531.010013708633
12.55518 526.993914995854
12.57529 528.014160965897
12.5954 469
12.61552 425.987283897659
12.63563 444.063383415317
12.65575 477.99727382898
12.67586 447.057647018985
12.69597 438.99972977109
12.71609 422.023271252203
12.7362 369
12.75631 383.01081676736
12.77643 398.034348257557
12.79654 429.048332738546
12.81666 424.083639528149
12.83677 379.009145010641
12.85688 415.958033212085
12.877 421
12.89711 377.995110206074
12.91722 399.009926295732
12.93734 383.975744324462
12.95745 377.067082935941
12.97757 356.941372577509
12.99768 430.968745709056
13.01779 397.022206027693
13.03791 382.000078559393
13.05802 376.984044981174
13.07813 364.014893097976
13.09825 398.097827358954
13.11836 409.064349451487
13.13847 359.040451454362
13.15859 367.991297728692
13.1787 371
13.19882 369.013160049782
13.21893 393.029986401235
13.23904 387.926863873454
13.25916 344.039174091528
13.27927 355.970257625888
13.29938 361.008982454879
13.3195 356
13.33961 388.012434656593
13.35973 385.960710533147
13.37984 364.016457874423
13.39995 388.002031404995
13.42007 358.0343135266
13.44018 356.003278980595
13.46029 343.004382131746
13.48041 349.008716049459
13.50052 366.007682104274
13.52064 362.987141675328
13.54075 360.000358308558
13.56086 363.982416667855
13.58098 371.999544530531
13.60109 366.002301540585
13.6212 366
13.64132 368.010414202003
13.66143 376.986717493739
13.68154 347.930263500555
13.70166 331.971743929919
13.72177 368.938209030926
13.74189 383.013318399795
13.762 350
13.78211 388.003242053286
13.80223 358.988145604927
13.82234 380.00305423383
13.84245 344.106483629772
13.86257 337.934506927093
13.88268 391.98910920255
13.9028 363
13.92291 384.007272421586
13.94302 380.004822451563
13.96314 382.926293561771
13.98325 324.06030242317
14.00336 339.989259535887
14.02348 328.982246160742
14.04359 365.999450214691
14.06371 338.002433589008
14.08382 369.991497691951
14.10393 321.97171699811
14.12405 342.001552845897
14.14416 311.03272843786
14.16427 339.911603517599
14.18439 378.009761424526
14.2045 334
14.22461 377.005438706034
14.24473 337.950348294542
14.26484 347.064590682153
14.28496 367.019224774374
14.30507 337.035839760241
14.32518 343.963599295466
14.3453 375
14.36541 334.985239041602
14.38552 341.025137784994
14.40564 357.995208445791
14.42575 336.075621410556
14.44587 325.957944531719
14.46598 363.998574546359
14.48609 336.001840650528
14.50621 370.0155582959
14.52632 365.968623760677
14.54643 339.002745481534
14.56655 359.008319120769
14.58666 330.083529671417
14.60677 313.955615430579
14.62689 358.995193237944
14.647 326
14.66712 318.999615522192
14.68723 320.023658040487
14.70734 350.059923655119
14.72746 358.044456578847
14.74757 325.023661370859
14.76768 343.956671143043
14.7878 375
14.80791 326.969780900443
14.82803 307.071019378705
14.84814 373.017339703435
14.86825 323.085001730221
14.88837 351.903000623534
14.90848 397.003967563431
14.92859 357.016799409562
14.94871 354.004991873054
14.96882 358.999595047909
14.98894 348.953302805259
15.00905 323.97313328071
15.02916 338.927316188473
15.04928 365.012366693425
15.06939 326.012739475871
15.0895 328
15.10962 315.980422715928
15.12973 308.022297842352
15.14984 336.039927267317
15.16996 345.96304740284
15.19007 365.011261966195
15.21019 342.000075373934
15.2303 371
15.25041 369.989888466952
15.27053 353.001810645666
15.29064 365.00118638225
15.31075 345.068072825222
15.33087 327.007399129259
15.35098 330.994937746417
15.3711 335
15.39121 346.0027245562
15.41132 337.978552549535
15.43144 327.047360290477
15.45155 360.019263528911
15.47166 319.033651650735
15.49178 348.958226207369
15.51189 369.000538280474
15.53201 359.997719580223
15.55212 350.965585512686
15.57223 308.98486333699
15.59235 336.07575798439
15.61246 339.043229082945
15.63257 316.005489954962
15.65269 331.992412390967
15.6728 340
15.69291 358.002049162053
15.71303 360.04311896048
15.73314 381.905227888353
15.75326 291.088803383276
15.77337 328.898746816047
15.79348 366.001811886682
15.8136 337
15.83371 329.01802914551
15.85382 369.99044302988
15.87394 314.920276224177
15.89405 322.928196826658
15.91417 339.004922838438
15.93428 326.006491963786
15.95439 329.998830212813
15.97451 327.000064699826
15.99462 332.003134288012
16.01473 327.985425851489
16.03485 314.962367735784
16.05496 315.932036448027
16.07508 356.995587701176
16.09519 329.006319299321
16.1153 347
16.13542 343.992410207749
16.15553 353.048161723135
16.17564 376.95537210969
16.19576 337.974985356673
16.21587 381.023248524218
16.23598 315.01867000617
16.2561 369
16.27621 367.980354983578
16.29633 324.95772833731
16.31644 318.005883568018
16.33655 321.981426731069
16.35667 329.995371214446
16.37678 320.025677806877
16.39689 291.008358669551
16.41701 298.013423627448
16.43712 325.010807285046
16.45724 329.044855771719
16.47735 349.935487860849
16.49746 299.017179942611
16.51758 341.963449202038
16.53769 343.003121378628
16.5578 342
16.57792 322.992794221677
16.59803 335.029403248238
16.61814 350.018778028355
16.63826 345.054397100994
16.65837 320.980673941085
16.67849 366.979502381813
16.6986 368
16.71871 333.001959714504
16.73883 354.973163353496
16.75894 312.009306545274
16.77905 359.965054941546
16.79917 329.01481096873
16.81928 356.983620670706
16.8394 347
16.85951 364.005881008927
16.87962 358.990522807374
16.89974 356.004580917482
16.91985 343.117754509815
16.93996 305.925892572432
16.96008 378.99444546911
16.98019 318.011559953436
17.00031 364.020999325426
17.02042 355.96833861759
17.04053 333.992654559
17.06065 345.046395937306
17.08076 354.019361548496
17.10087 331.032553327042
17.12099 321.001028959654
17.1411 333
17.16121 359.987467811132
17.18133 301.957692950302
17.20144 325.067691826841
17.22156 340.981913789749
17.24167 348.997998965076
17.26178 342.01132973774
17.2819 342
17.30201 365.995250414545
17.32212 345.023808370964
17.34224 396.007891574684
17.36235 351.053772573124
17.38247 369.993193660992
17.40258 340.029335481021
17.42269 345.979446258619
17.44281 384.999545343999
17.46292 350.977339344628
17.48303 366.052530823658
17.50315 385.967501729983
17.52326 348.072986455889
17.54338 344.963105887554
17.56349 379.009366673689
17.5836 336
17.60372 399.033053339345
17.62383 370.940826068884
17.64394 360.016923247261
17.66406 380.929605374741
17.68417 414.978033263535
17.70428 410.007034969295
17.7244 416
17.74451 440.015338959562
17.76463 485.100261740464
17.78474 554.08465897113
17.80485 548.120097402964
17.82497 510.967795495976
17.84508 553.023305254045
17.86519 464.034079029276
17.88531 447.991208010036
17.90542 408.974198733945
17.92554 405.991049552332
17.94565 387.952213090594
17.96576 383.969441579816
17.98588 398.012083728508
18.00599 366.010270586377
18.0261 357
18.04622 333.034818603241
18.06633 407.057658759806
18.08645 384.915503266989
18.10656 374.997195237315
18.12667 370.024480205519
18.14679 344.014280430717
18.1669 333
18.18701 360.999372181507
18.20713 339.004160950024
18.22724 358.968796774436
18.24735 319.992323869315
18.26747 368.950262598057
18.28758 351.042973435037
18.3077 326
18.32781 352.001986909164
18.34792 340.015359554515
18.36804 381.042555906878
18.38815 370.027394429553
18.40826 371.014730083145
18.42838 344.037044697251
18.44849 325.989376631121
18.46861 374.020736811654
18.48872 367.938060812993
18.50883 308.013791827836
18.52895 362.01913674611
18.54906 318.020043803862
18.56917 351.995950108978
18.58929 317.00170747834
18.6094 358
18.62951 355.000750750102
18.64963 359.956665244119
18.66974 313.982895206695
18.68986 346.95182554105
18.70997 332.051297593267
18.73008 313.985734675327
18.7502 337
18.77031 305.997180513163
18.79042 338.033782567645
18.81054 355.033425710674
18.83065 385.89453804801
18.85077 402.068218769606
18.87088 335.01208134332
18.89099 371.998032632362
18.91111 331.993767181769
18.93122 364.022236610523
18.95133 352.979064129866
18.97145 359.046949444107
18.99156 369.026810687722
19.01168 346.004032850067
19.03179 361.995727152422
19.0519 354
19.07202 347.974630808685
19.09213 315.99133495318
19.11224 338.037736597035
19.13236 339.002189865259
19.15247 354.9458497287
19.17258 385.006094222093
19.1927 355
19.21281 369.002181641027
19.23293 362.022398834955
19.25304 388.99153352511
19.27315 349.091140812988
19.29327 349.949247073191
19.31338 382.997606113714
19.33349 368.993266838932
19.35361 397.994193615697
19.37372 362.011981440694
19.39384 415.029258741181
19.41395 369.881770876846
19.43406 378.86627672018
19.45418 440.011237999892
19.47429 378.012263371687
19.4944 402
19.51452 369.014517298672
19.53463 437.076452278595
19.55475 439.983069903966
19.57486 454.940746915553
19.59497 475.011045949059
19.61509 462.988037826894
19.6352 516
19.65531 522.008151002858
19.67543 565.070741661888
19.69554 592.007752995406
19.71565 598.903823840706
19.73577 667.896950418382
19.75588 756.841716887067
19.776 922
19.79611 873.983568944907
19.81622 932.10562470616
19.83634 1020.0922855866
19.85645 1043.89140655023
19.87656 1118.8501975053
19.89668 1152.02050030036
19.91679 1060.08432967286
19.93691 899.971613126276
19.95702 914.963174269551
19.97713 802.871169147632
19.99725 767.85475476242
20.01736 692.02503842943
20.03747 705.118672392024
20.05759 562.029113686463
20.0777 619
20.09782 610.983783143678
20.11793 626.046181629989
20.13804 644.989069466221
20.15816 619.059143444211
20.17827 612.957346442762
20.19838 638.027649548861
20.2185 575
20.23861 597.014539237708
20.25872 592.968252496434
20.27884 572.046660214891
20.29895 611.01985183001
20.31907 562.032166676574
20.33918 598.942385560649
20.35929 623.013483242165
20.37941 571.984919284678
20.39952 577.010437587546
20.41963 576.000462417417
20.43975 574.955849106516
20.45986 575.860110406272
20.47998 675.960925534228
20.50009 634.02638803503
20.5202 625
20.54032 647.012236817194
20.56043 649.004205458899
20.58054 648.96500910145
20.60066 637.931477923815
20.62077 703.93311520559
20.64088 717.973597082255
20.661 763
20.68111 776.021743441397
20.70123 847.076560825798
20.72134 884.149117776616
20.74145 1042.41638643927
20.76157 1329.51930864003
20.78168 1699.55448026484
20.80179 2219.72313868521
20.82191 2794.30258907419
20.84202 3380.48818497998
20.86214 3710.35096019527
20.88225 3691.34798005544
20.90236 3167.49939649736
20.92248 2340.7687588973
20.94259 1716.25199245948
20.9627 1266
20.98282 890.727890287074
21.00293 723.839164590111
21.02305 645.925115418232
21.04316 662.909956675965
21.06327 690.028195874018
21.08339 629.035458433953
21.1035 600
21.12361 648.997523576649
21.14373 587.924980824683
21.16384 575.974827312069
21.18395 557.972715364992
21.20407 604.916897048663
21.22418 611.074247984648
21.2443 512
21.26441 558.029164423815
21.28452 563.957303931195
21.30464 521.003957809951
21.32475 561.92854606457
21.34486 563.976312239447
21.36498 579.025339848986
21.38509 531.004400501317
21.40521 556.997353808807
21.42532 514.982050342835
21.44543 535.017436892733
21.46555 529.032850232406
21.48566 566.937908389515
21.50577 573.00943789732
21.52589 567.002902920302
21.546 568
21.56612 591.019074934461
21.58623 590.966499772304
21.60634 569.009046690551
21.62646 597.950224214489
21.64657 589.066821051011
21.66668 546.998732886867
21.6868 572
21.70691 512.971678255577
21.72702 486.984477975006
21.74714 487.082475238877
21.76725 537.993733408248
21.78737 491.059275754029
21.80748 477.026594919043
21.82759 451.985233392798
21.84771 514.009344289769
21.86782 493.017928895054
21.88793 552.034904065899
21.90805 509.848147572322
21.92816 476.013505406634
21.94828 484.986378265306
21.96839 487.007457616969
21.9885 475
22.00862 506.006624371965
22.02873 474.935549523276
22.04884 447.984338527608
22.06896 454.970862083796
22.08907 466.990665482499
22.10919 460.012236512589
22.1293 435
22.14941 463.024315258253
22.16953 491.968988345534
22.18964 449.989964787709
22.20975 491.898976665782
22.22987 496.029220093954
22.24998 478.004120426315
22.27009 482.00295155917
22.29021 474.007923404878
22.31032 499.996291084981
22.33044 472.991779657258
22.35055 502.066255035256
22.37066 507.995173117774
22.39078 509.015451355398
22.41089 486.003100788691
22.431 490
22.45112 463.003629791791
22.47123 483.976341124495
22.49135 449.043768177992
22.51146 506.971458660538
22.53157 456.080934970162
22.55169 444.991811070182
22.5718 463
22.59191 461.998722731515
22.61203 471.037369536007
22.63214 491.984949585752
22.65225 462.053642914357
22.67237 466.971693012287
22.69248 480.000381262013
22.7126 473
22.73271 487.009358851662
22.75282 502.011040554297
22.77294 503.975621147415
22.79305 509.84695365254
22.81316 590.946631437292
22.83328 571.982215484336
22.85339 625.996749791443
22.87351 591.00656978973
22.89362 653.021748265982
22.91373 620.983679754683
22.93385 668.167366590719
22.95396 696.06643993325
22.97407 618.125369650439
22.99419 556.02520032198
23.0143 515
23.03442 516.02033286681
23.05453 536.005547773318
23.07464 513.917403502497
23.09476 476.03441761602
23.11487 480.981905889316
23.13498 465.063836809476
23.1551 411
23.17521 506.023884786741
23.19532 467.944203652109
23.21544 452.028767477669
23.23555 454.108137013723
23.25567 405.967738806352
23.27578 470.99253260599
23.29589 423.000145958915
23.31601 489.023619320656
23.33612 480.984232082595
23.35623 464.91626854862
23.37635 401.000366707678
23.39646 456.937432925835
23.41658 438.015074033786
23.43669 454.988485530883
23.4568 455
23.47692 431.01065978043
23.49703 454.975700221489
23.51714 417.024199642408
23.53726 482.898414471157
23.55737 486.014734507532
23.57749 486.001252903039
23.5976 482
23.61771 498.003355453915
23.63783 494.00157964568
23.65794 504.014136954145
23.67805 509.954327982357
23.69817 532.990648616998
23.71828 526.992336472075
23.73839 552.988637581616
23.75851 576.023869912017
23.77862 637.037113049101
23.79874 637.977382625776
23.81885 635.005471353581
23.83896 648.929689787515
23.85908 673.029574782326
23.87919 603.026942717338
23.8993 591
23.91942 578.981033265032
23.93953 568.01042656358
23.95965 567.895752660509
23.97976 520.960735423202
23.99987 575.023369414817
24.01999 509.994744972958
24.0401 591
24.06021 539.997188192891
24.08033 610.087337921172
24.10044 597.890646165464
24.12056 547.054198419417
24.14067 546.982843092485
24.16078 540.039561476362
24.1809 510
24.20101 572.995910219524
24.22112 486.927277371557
24.24124 476.019607518657
24.26135 481.953840711028
24.28146 498.036257787447
24.30158 454.029133913484
24.32169 460.987935050861
24.34181 478.002097920826
24.36192 476.003845202994
24.38203 476.966151382763
24.40215 437.932093038066
24.42226 438.964223835806
24.44237 453.994798115011
24.46249 455.990461489579
24.4826 492
24.50272 488.944882694828
24.52283 430.002543115466
24.54294 488.091730961484
24.56306 492.994591930318
24.58317 509.986957234609
24.60328 502.010520173959
24.6234 503
24.64351 513.998178033883
24.66362 513.03194435837
24.68374 552.984635980722
24.70385 505.062104601992
24.72397 532.928825030604
24.74408 568.974037878743
24.76419 597.978614414249
24.78431 621.980533780919
24.80442 557.99346914791
24.82453 609.039887805693
24.84465 583.943558878152
24.86476 592.968050108531
24.88488 604.978601788004
24.90499 627.998563085144
24.9251 610
24.94522 600.988168688527
24.96533 584.985860672293
24.98544 578.967809235957
25.00556 561.989463771841
25.02567 579.007236408127
25.04579 544.019736353228
25.0659 534
25.08601 570.001663218826
25.10613 539.964149896879
25.12624 541.011818088879
25.14635 525.110417741427
25.16647 487.980810761922
25.18658 535.974551720622
25.20669 516.015418073806
25.22681 507.005685531784
25.24692 515.985333086751
25.26704 499.046823205695
25.28715 555.094705650133
25.30726 551.0397008425
25.32738 541.997438191003
25.34749 551.993739676838
25.3676 567
25.38772 587.004029458282
25.40783 595.068216228343
25.42795 661.087871143671
25.44806 640.103435051453
25.46817 624.903694318436
25.48829 728.970039294986
25.5084 718
25.52851 706.989641966598
25.54863 675.975532203166
25.56874 679.00511479513
25.58886 678.970057255658
25.60897 684.071268411742
25.62908 597.069268284844
25.6492 581
25.66931 582.979741048156
25.68942 536.010752709886
25.70954 592.049214123304
25.72965 568.034180877625
25.74976 581.999714293085
25.76988 554.028448447145
25.78999 550.989447205479
25.81011 575.00331110611
25.83022 558.976207495801
25.85033 537.967151937224
25.87045 518.980021382782
25.89056 521.987692075864
25.91067 524.00251743278
25.93079 522.998215840576
25.9509 530
25.97102 519.966226450095
25.99113 493.029012520822
26.01124 547.074694455791
26.03136 561.926372840156
26.05147 592.075893613584
26.07158 505.003991885359
26.0917 583
26.11181 559.004270652317
26.13193 616.037956331738
26.15204 593.988560474389
26.17215 625.932150871655
26.19227 634.970889629014
26.21238 678.946670493994
26.23249 717.9924924014
26.25261 732.02246051532
26.27272 803.05912534816
26.29283 824.994008335326
26.31295 837.146001739706
26.33306 896.035757198153
26.35318 855.930636273904
26.37329 1021.94200664543
26.3934 1061
26.41352 1205.11515132991
26.43363 1319.34595868752
26.45374 1662.65496458805
26.47386 1973.18090237154
26.49397 2555.94952092626
26.51409 3373.51633915091
26.5342 4574
26.55431 6314.00133725307
26.57443 8594.79570879963
26.59454 11264.2820231437
26.61465 13672.8604462916
26.63477 15161.8647600011
26.65488 14930.3413254827
26.67499 12711.3538264905
26.69511 10060.8226567223
26.71522 7963.96607589457
26.73534 5827.72645011711
26.75545 3827.60461255314
26.77556 2446.83979290107
26.79568 1898.31574728078
26.81579 1640.11073521105
26.8359 1448
26.85602 1356.94374581208
26.87613 1288.83817416521
26.89625 1145.64407615061
26.91636 1029.1939666512
26.93647 947.092972988751
26.95659 897.02463892157
26.9767 828
26.99681 733.973665425542
27.01693 714.954369632128
27.03704 676.002183827897
27.05716 690.096663294872
27.07727 599.056192191017
27.09738 616.023197483133
27.1175 555
27.13761 616.013189084931
27.15772 571.945801870446
27.17784 548.981073724472
27.19795 536.037953203328
27.21806 514.068129898078
27.23818 483.006668910523
27.25829 505.981641818007
27.27841 521.988075450902
27.29852 485.998943632087
27.31863 523.046921837524
27.33875 520.950482083573
27.35886 525.886821643325
27.37897 586.018918103194
27.39909 521.010204555535
27.4192 560
27.43932 522.960044980773
27.45943 523.04953050164
27.47954 555.006975131645
27.49966 529.057695844515
27.51977 515.010936316217
27.53988 518.971912547959
27.56 541
27.58011 496.006826599524
27.60023 548.995352762455
27.62034 477.888742858701
27.64045 484.913628212711
27.66057 513.962460700287
27.68068 544.955539988361
27.70079 589.988031019831
27.72091 584.989626036101
27.74102 587.050187258133
27.76113 649.016750875227
27.78125 615.978357485899
27.80136 660.882089672676
27.82148 696.985716012567
27.84159 711.981872333807
27.8617 747
27.88182 696.959466470704
27.90193 688.998978209736
27.92204 690.044788799461
27.94216 706.076180880426
27.96227 630.073688452582
27.98239 617.015690620294
28.0025 550
28.02261 508.9828024973
28.04273 477.980239254405
28.06284 483.019289461404
28.08295 477.070521794509
28.10307 448.997263572611
28.12318 474.985293258224
28.1433 461
28.16341 440.9913917279
28.18352 430.001081669115
28.20364 439.013934178107
28.22375 442.017058594572
28.24386 455.967365926583
28.26398 449.05130252462
28.28409 392.999480169832
28.3042 451
28.32432 437.921387215304
28.34443 364.002643387924
28.36455 423.068233995595
28.38466 398.019228252043
28.40477 423.978904541862
28.42489 407.009799483663
28.445 405
28.46511 406.994481835163
28.48523 405.054829240747
28.50534 449.986715146735
28.52546 404.025449327888
28.54557 445.931272481317
28.56568 452.027170183708
28.5858 429
28.60591 465.008404068556
28.62602 448.980080201963
28.64614 435.952630411309
28.66625 415.959455261182
28.68636 445.028447368459
28.70648 394.024465502826
28.72659 417.984326067829
28.74671 423.994299702903
28.76682 415.005323156662
28.78693 432.021092703846
28.80705 427.942774056285
28.82716 405.999989258738
28.84727 411.041433997109
28.86739 372.993871091252
28.8875 419
28.90762 375.987317822457
28.92773 401.996854057304
28.94784 363.969907226874
28.96796 383.983057941783
28.98807 375.974618243944
29.00818 426.948047160321
29.0283 442
29.04841 397.986150950351
29.06853 401.024278274503
29.08864 405.973570207078
29.10875 384.034721692521
29.12887 391.959337805106
29.14898 423.975281449526
29.16909 423.016687373655
29.18921 381.991765927908
29.20932 398.024736654235
29.22943 408.997104889843
29.24955 406.017074148445
29.26966 411.038630713127
29.28978 383.995194285448
29.30989 411.000029591246
29.33 378
29.35012 391.029990047626
29.37023 411.00134975209
29.39034 401.998261787261
29.41046 423.91787624286
29.43057 450.030450351651
29.45069 409.002126808455
29.4708 433
29.49091 384.993312880558
29.51103 426.069366133142
29.53114 438.97871609048
29.55125 427.994287345277
29.57137 435.015565006661
29.59148 417.990519224957
29.6116 449
29.63171 453.01935435413
29.65182 496.974396892546
29.67194 432.001645103677
29.69205 500.080328917381
29.71216 465.061636349521
29.73228 490.935791090027
29.75239 545.99221048351
29.7725 535
29.79262 566.024377544996
29.81273 580.047696277994
29.83285 618.009272572754
29.85296 617.867537890124
29.87307 725.919916726285
29.89319 695.024668950302
29.9133 675
29.93341 659.988709650828
29.95353 629.946175551488
29.97364 599.974060556478
29.99376 582.110085097001
30.01387 517.021387432423
30.03398 537.02265578893
30.0541 467
30.07421 480.014431606929
30.09432 481.973305654835
30.11444 447.964673035584
30.13455 451.980354181535
30.15467 460.962383802283
30.17478 477.033603475782
30.19489 409.022807353089
30.21501 399.993061280762
30.23512 395.059321013234
30.25523 472.992022866129
30.27535 393.895884503638
30.29546 426.930607377396
30.31557 414.056023560495
30.33569 391.99482690694
30.3558 417
30.37592 395.982305777201
30.39603 390.982644947031
30.41614 376.008466202985
30.43626 392.004865916022
30.45637 372.009777102325
30.47648 394.962707267453
30.4966 409
30.51671 370.008608066525
30.53683 424.01233995814
30.55694 378.95246331183
30.57705 400.954776580596
30.59717 379.072664127288
30.61728 354.961520252417
30.63739 428.978277166601
30.65751 418.989443999389
30.67762 407.978393676727
30.69773 380.991097396301
30.71785 389.979356049108
30.73796 378.934388986973
30.75808 441.967877571559
30.77819 423.014891751366
30.7983 410
30.81842 396.986073088926
30.83853 389.002293006847
30.85864 403.05165002287
30.87876 419.03071187567
30.89887 392.991629436456
30.91899 425.993185933934
30.9391 405
30.95921 394.995432671094
30.97933 393.037519987233
30.99944 420.973594492963
31.01955 379.034410245443
31.03967 408.951205058537
31.05978 419.993960965142
31.0799 434
31.10001 459.019286738723
31.12012 499.02178865867
31.14024 502.005055657099
31.16035 514.960757448465
31.18046 533.939929607607
31.20058 565.983706574935
31.22069 572.989358445936
31.2408 610
31.26092 609.969616573383
31.28103 573.976211893065
31.30115 575.98118459402
31.32126 557.009391109279
31.34137 551.072183963656
31.36149 485.00868915301
31.3816 509
31.40171 463.993022436257
31.42183 479.965694476231
31.44194 413.91152475659
31.46206 411.011832806883
31.48217 388.014129231419
31.50228 401.983421532748
31.5224 405
31.54251 393.992062109511
31.56262 393.033868581134
31.58274 431.987723171957
31.60285 381.111870364622
31.62297 376.968161837147
31.64308 400.980638294586
31.66319 415.991113762033
31.68331 417.980126257301
31.70342 353.956066295647
31.72353 370.108744362767
31.74365 431.967050862789
31.76376 372.027602467291
31.78387 417.959691367627
31.80399 400.004914732593
31.8241 410
31.84422 388.019715444764
31.86433 434.006601590941
31.88444 396.978352593821
31.90456 435.911044486447
31.92467 451.009230117867
31.94478 442.00181948492
31.9649 451
31.98501 464.006972921312
32.00513 478.017143143242
32.02524 492.047854765164
32.04535 508.044079805341
32.06547 490.934710661806
32.08558 559.004638019891
32.10569 500.997360087094
32.12581 561.996095045504
32.14592 471.939059348769
32.16604 494.097973829531
32.18615 495.840840531033
32.20626 411.083039927517
32.22638 418.002292754724
32.24649 402.986590873353
32.2666 450
32.28672 383.954844407641
32.30683 393.030592156283
32.32694 398.010619030519
32.34706 397.059151213402
32.36717 356.018426038637
32.38729 383.980196301542
32.4074 407
32.42751 399.992031264901
32.44763 396.03742228993
32.46774 432.023641579868
32.48785 405.112695458907
32.50797 373.011111820396
32.52808 401.934500555387
32.5482 446
32.56831 368.99177909849
32.58842 422.03121275757
32.60854 396.949834009595
32.62865 401.976374315694
32.64876 403.983442602999
32.66888 412.012780404542
32.68899 381.012851923035
32.7091 376
32.72922 388.014114940428
32.74933 399.006098356891
32.76945 397.998564258485
32.78956 403.973866927174
32.80967 415.001515059477
32.82979 405.0029673952
32.8499 413
32.87001 430.002715575507
32.89013 428.00639197717
32.91024 444.038826920471
32.93036 474.884288751495
32.95047 528.996329474598
32.97058 497.998581273086
32.9907 537
33.01081 544.036900945255
33.03092 665.071504725684
33.05104 659.97212249168
33.07115 679.927997748553
33.09127 701.964013923803
33.11138 702.059025319594
33.13149 619.01767549784
33.15161 649.021029480457
33.17172 645.947518955022
33.19183 569.897800164722
33.21195 531.96231574401
33.23206 512.088384272838
33.25217 461.029604789219
33.27229 472.996790320437
33.2924 461
33.31252 459.9785844054
33.33263 422.967110194774
33.35274 425.009662828245
33.37286 414.048136569517
33.39297 387.032778501407
33.41308 377.99605347144
33.4332 388
33.45331 392.000954831318
33.47343 396.010904614735
33.49354 396.96781740818
33.51365 380.96914907652
33.53377 412.978288415004
33.55388 396.025292265261
33.57399 387.993960294414
33.59411 395.988442985424
33.61422 373.035589814327
33.63434 433.988618806524
33.65445 370.951054601269
33.67456 401.02855784132
33.69468 343.006712653695
33.71479 401.978071720194
33.7349 392
33.75502 393.018939208346
33.77513 399.955724572695
33.79524 349.941081295066
33.81536 354.973843325313
33.83547 374.922317189205
33.85559 431.995318281327
33.8757 395
33.89581 382.981046881184
33.91593 340.025380648002
33.93604 403.06082412931
33.95615 381.040390823532
33.97627 395.980259653815
33.99638 382.033439561185
34.0165 356
34.03661 378.00815904575
34.05672 376.996068147456
34.07684 382.02277409198
34.09695 389.014559219985
34.11706 378.994196222014
34.13718 385.017859060423
34.15729 351.007465977296
34.17741 364.007415937686
34.19752 363.994339377718
34.21763 360.998288416388
34.23775 367.048094102796
34.25786 395.94328543292
34.27797 415.980111545498
34.29809 421.003354718001
34.3182 405
34.33831 394.001504298357
34.35843 413.046676427129
34.37854 443.037617426173
34.39866 451.980280311972
34.41877 468.971262578813
34.43888 492.964132375522
34.459 526
34.47911 501.980594712306
34.49922 487.031448133948
34.51934 550.112978385423
34.53945 582.928564061304
34.55957 613.970535376356
34.57968 613.017473675922
34.59979 598.997227987342
34.61991 628.020007519894
34.64002 649.986562899758
34.66013 605.921809597585
34.68025 573.987980247364
34.70036 582.9943850021
34.72047 579.982803650136
34.74059 612.97963252952
34.7607 628
34.78082 592.021344292957
34.80093 665.084870058335
34.82104 691.09525300145
34.84116 762.910727075587
34.86127 776.955354956666
34.88138 829.963853113692
34.9015 864
34.92161 997.060228755105
34.94173 1037.92770821799
34.96184 958.916951210365
34.98195 974.934370963744
35.00207 986.969689974386
35.02218 1014.98772952784
35.04229 976.050989141114
35.06241 853.957640185415
35.08252 831.008243141396
35.10264 815.876444125422
35.12275 725.812546440491
35.14286 678.098646709857
35.16298 621.040255166286
35.18309 591.024715676254
35.2032 553
35.22332 629.022527118771
35.24343 591.986265226365
35.26354 619.975074111479
35.28366 569.01862541017
35.30377 609.96975817555
35.32389 573.029546184947
35.344 539
35.36411 558.999874141167
35.38423 535.981438831014
35.40434 560.106017708943
35.42445 610.940694081272
35.44457 602.034482941509
35.46468 596.9735034726
35.4848 646
35.50491 677.009811099543
35.52502 692.010650637054
35.54514 703.030772694274
35.56525 715.009066756542
35.58536 712.942344217583
35.60548 741.034360097402
35.62559 656.030606440508
35.64571 655.011209347919
35.66582 660.986366158959
35.68593 635.96298091452
35.70605 612.922675881996
35.72616 584.013103726352
35.74627 590.016786041189
35.76639 562.007091433606
35.7865 551
35.80661 494.002647495121
35.82673 559.077023068968
35.84684 550.917999572212
35.86696 534.918152244388
35.88707 598.968933618155
35.90718 576.998010629153
35.9273 603
35.94741 531.965661024692
35.96752 522.050021345211
35.98764 581.029884155388
36.00775 547.087498968138
36.02787 539.000324441197
36.04798 541.979139158811
36.06809 563.005832730767
36.08821 521.983109109313
36.10832 512.997645432166
36.12843 495.948299163721
36.14855 468.014780721821
36.16866 502.936926727086
36.18878 513.995016211744
36.20889 517.00481685335
36.229 513
36.24912 548.982642253705
36.26923 493.972748681144
36.28934 533.085432347796
36.30946 545.995329608541
36.32957 544.029236805279
36.34968 532.963097243168
36.3698 615
36.38991 685.041342562501
36.41003 770.072593843808
36.43014 801.139534672885
36.45025 929.628863450909
36.47037 1081.73971602599
36.49048 1272.81883893125
36.51059 1409.95947783762
36.53071 1444.00263475221
36.55082 1410.90078171644
36.57094 1254.65416949499
36.59105 1086.55931525196
36.61116 944.097222375452
36.63128 972.967905650888
36.65139 925.068226500952
36.6715 730
36.69162 575.940401354861
36.71173 577.994687407124
36.73184 536.914217098137
36.75196 502.102337668825
36.77207 464.95026092265
36.79219 533.993271395167
36.8123 486
36.83241 503.99690763776
36.85253 449.912028283483
36.87264 432.052248079078
36.89275 461.03257735213
36.91287 423.001380665402
36.93298 470.953759441484
36.9531 472
36.97321 425.985180714852
36.99332 417.995139757068
37.01344 416.038531667068
37.03355 445.972109993738
37.05366 426.068345007103
37.07378 407.987843173874
37.09389 437.989398077943
37.11401 437.996304534695
37.13412 431.990471082107
37.15423 424.005575876645
37.17435 435.009206233367
37.19446 441.929998651757
37.21457 482.005346956425
37.23469 433.023594954878
37.2548 424
37.27491 438.994064417599
37.29503 410.98413779083
37.31514 426.031185678844
37.33526 435.954751900377
37.35537 465.980370474488
37.37548 450.032991680832
37.3956 431
37.41571 461.003932811424
37.43582 450.010713284619
37.45594 478.000201514694
37.47605 448.042336950272
37.49617 454.005873210195
37.51628 451.955437155078
37.53639 527.976847684212
37.55651 512.976196869816
37.57662 470.974033136669
37.59673 481.084203649895
37.61685 540.018738166171
37.63696 498.070615399935
37.65708 497.991442397634
37.67719 506.986063269446
37.6973 555
37.71742 573.97188039157
37.73753 527.972547702148
37.75764 553.077958066079
37.77776 573.006928661497
37.79787 561.002293323537
37.81798 557.038236184484
37.8381 508
37.85821 537.997799305422
37.87833 475.888165512322
37.89844 446.05655793331
37.91855 481.058967909484
37.93867 418.026206600862
37.95878 460.966618976924
37.97889 445.017670079867
37.99901 427.003280327012
38.01912 449.021078475906
38.03924 459.009193944536
38.05935 463.005761210046
38.07946 456.045270957267
38.09958 425.025052448199
38.11969 416.996806551
38.1398 426
38.15992 435.037600648614
38.18003 474.99021912537
38.20015 434.970471924363
38.22026 465.946315682188
38.24037 465.009178128951
38.26049 469.99521518651
38.2806 477
38.30071 479.001371784099
38.32083 486.01840259298
38.34094 489.96196688669
38.36105 457.056171855901
38.38117 463.952759288655
38.40128 491.002163567784
38.4214 468
38.44151 489.019556281957
38.46162 509.979584404634
38.48174 461.923583236165
38.50185 449.021331830874
38.52196 445.950309570552
38.54208 478.004559820675
38.56219 446.003213535056
38.58231 469.001646222828
38.60242 446.99612824135
38.62253 460.982631074163
38.64265 424.960820560169
38.66276 440.970774044414
38.68287 438.005959182404
38.70299 442.996387372476
38.7231 427
38.74321 373.007500995188
38.76333 429.005686199769
38.78344 382.998336356493
38.80356 436.953905882405
38.82367 402.052356900465
38.84378 402.9850279865
38.8639 408
38.88401 406.011261767921
38.90412 438.006613648272
38.92424 417.973411973106
38.94435 426.965790401782
38.96447 426.02628667695
38.98458 404.012124725381
39.00469 409.990904298392
39.02481 435.015931781389
39.04492 448.97071559867
39.06503 415.038231329075
39.08515 481.058029630231
39.10526 452.016158938063
39.12538 481.987994544475
39.14549 454.016939488257
39.1656 447
39.18572 475.020325060209
39.20583 481.001580281997
39.22594 498.088395060123
39.24606 532.051541738612
39.26617 484.970380226969
39.28628 566.949319475798
39.3064 573
39.32651 663.037025289264
39.34663 700.06350261992
39.36674 786.248175734172
39.38685 944.524004270584
39.40697 1125.80958526267
39.42708 1186.97528387819
39.44719 1213.98148156857
39.46731 1229.97770732486
39.48742 1125.87843297125
39.50754 1001.70039258598
39.52765 871.906490026612
39.54776 884.103876837292
39.56788 747.12732445984
39.58799 680.023881013813
39.6081 599
39.62822 471.92087376902
39.64833 448.988851089546
39.66845 437.011041458385
39.68856 452.996609603402
39.70867 427.061604694919
39.72879 401.994792654211
39.7489 429
39.76901 399.981243713814
39.78913 386.024755540004
39.80924 417.044824335216
39.82935 414.056323338158
39.84947 395.992488672229
39.86958 416.988723106032
39.8897 425
39.90981 468.99890599868
39.92992 431.993013867052
39.95004 463.024798431292
39.97015 454.935455506706
39.99026 504.981110299175
40.01038 466.030212024401
40.03049 463.006998563215
40.05061 446.013288328
40.07072 499.015255892574
40.09083 472.989134756492
40.11095 491.982490140562
40.13106 485.852856318447
40.15117 600.943292455896
40.17129 561.000072045858
40.1914 647
40.21152 697.005748021011
40.23163 705.075077859623
40.25174 798.191832451552
40.27186 855.967450747939
40.29197 827.112761141687
40.31208 741.058554036551
40.3322 706
40.35231 627.964576121715
40.37242 602.02506661672
40.39254 632.971121846497
40.41265 563.207479913509
40.43277 504.05698006855
40.45288 481.010019714018
40.47299 477.001299059234
40.49311 464.986318090854
40.51322 432.980698338697
40.53333 427.991308439499
40.55345 419.001694762093
40.57356 436.940487219458
40.59368 458.003476250573
40.61379 436.009351562218
40.6339 438
40.65402 447.980150274924
40.67413 411.974630469395
40.69424 426.044141699051
40.71436 441.964077512909
40.73447 456.006916163814
40.75458 448.978504814905
40.7747 487
40.79481 477.009071718593
40.81493 521.026964642928
40.83504 494.926609955782
40.85515 475.020695326696
40.87527 463.038056398407
40.89538 438.000610230355
40.91549 458.992134635477
40.93561 462.004678610327
40.95572 466.97072378549
40.97584 422.982510847586
40.99595 454.06483170151
41.01606 449.034779680524
41.03618 427.037011404666
41.05629 399.990391782181
41.0764 453
41.09652 447.97354617791
41.11663 424.976943304626
41.13675 414.973706439546
41.15686 422.897595593046
41.17697 475.022984222402
41.19709 411.012562299264
41.2172 440
41.23731 407.985474844655
41.25743 407.009713568548
41.27754 415.048099827067
41.29765 447.951539819697
41.31777 443.027378962956
41.33788 429.00300603273
41.358 427
41.37811 395.987348279781
41.39822 397.029290863671
41.41834 421.971475762791
41.43845 373.108648980633
41.45856 368.93961810091
41.47868 400.994011118828
41.49879 393.989699476039
41.51891 428.997530035766
41.53902 378.954214803937
41.55913 370.018198356608
41.57925 384.030631713179
41.59936 385.032705902647
41.61947 363.014295759971
41.63959 366.999690271763
41.6597 377
41.67982 422.971054584107
41.69993 349.979006713658
41.72004 402.04561727777
41.74016 355.123648518849
41.76027 339.940518581556
41.78038 394.977760753724
41.8005 380
41.82061 398.011359357409
41.84072 399.97774767188
41.86084 380.025129006666
41.88095 414.958609389098
41.90107 406.997541953959
41.92118 435.960534115636
41.94129 458.003642340091
41.96141 436.996382681493
41.98152 450.012423198251
42.00163 453.007889936894
42.02175 456.968539914762
42.04186 438.993359409893
42.06198 466.970779021103
42.08209 471.012336911176
42.1022 449
42.12232 484.000093899032
42.14243 461.029138556497
42.16254 498.934431309575
42.18266 417.03815273415
42.20277 485.893815487808
42.22289 489.024492649658
42.243 472
42.26311 593.012555122544
42.28323 541.032780271191
42.30334 663.194716158313
42.32345 675.029161495224
42.34357 719.822022691797
42.36368 864.896314101163
42.38379 916.972538018425
42.40391 1002.04277506093
42.42402 1076.07743781252
42.44414 1145.06299606224
42.46425 1086.57140969697
42.48436 877.287578666483
42.50448 828.024224104031
42.52459 780.024511498111
42.5447 756
42.56482 749.937782331024
42.58493 639.845343070933
42.60505 564.806423916367
42.62516 475.157051443656
42.64527 420.060244364492
42.66539 398.993904711646
42.6855 431
42.70561 423.982930907265
42.72573 388.980596980381
42.74584 392.987040452934
42.76595 379.970011987594
42.78607 398.039893413664
42.80618 342.018720681454
42.8263 368
42.84641 346.993468833247
42.86652 357.007824848132
42.88664 366.077019566166
42.90675 403.06163175672
42.92686 341.029238908264
42.94698 384.971257466449
42.96709 359.023267774988
42.98721 328.995154431448
43.00732 335.01369851612
43.02743 342.99501096785
43.04755 343.058734500264
43.06766 368.032073578632
43.08777 326.015360645885
43.10789 364.976153525281
43.128 386
43.14812 368.970242819135
43.16823 333.947904240842
43.18834 316.021141981732
43.20846 342.961794849452
43.22857 352.965219035634
43.24868 370.031315198611
43.2688 321
43.28891 372.004941964047
43.30902 319.950437906862
43.32914 316.042820560929
43.34925 339.941608835511
43.36937 347.033845626406
43.38948 322.983665831554
43.40959 372.982695522384
43.42971 367.989803994902
43.44982 352.987305591182
43.46993 337.972416158096
43.49005 330.044166679409
43.51016 358.97945922177
43.53028 344.017162617327
43.55039 339.000652900821
43.5705 344
43.59062 365.992347502799
43.61073 347.025622321291
43.63084 394.046386234129
43.65096 374.05822904709
43.67107 361.007756576856
43.69119 350.010940068203
43.7113 345
43.73141 393.986650595654
43.75153 315.962785157852
43.77164 362.062144151413
43.79175 350.987714011507
43.81187 387.960161610018
43.83198 367.063222499879
43.85209 318.98973628948
43.87221 385.01729344832
43.89232 367.987179490261
43.91244 383.021675237135
43.93255 368.930555770993
43.95266 349.996206294544
43.97278 376.955761772265
43.99289 400.014829051617
44.013 342
44.03312 366.04790749579
44.05323 387.963231603431
44.07335 343.960633871443
44.09346 359.991875034134
44.11357 351.96493016795
44.13369 399.989238642922
44.1538 376
44.17391 355.999166102741
44.19403 359.995056846478
44.21414 354.017664823843
44.23426 365.034180948114
44.25437 332.009256770373
44.27448 357.97937525189
44.2946 357
44.31471 363.000437059167
44.33482 352.986165914546
44.35494 341.983568158784
44.37505 337.002476033051
44.39516 351.915984433895
44.41528 385.023970294401
44.43539 324.014709226024
44.45551 341.005088815881
44.47562 329.003517819926
44.49573 357.035466645434
44.51585 358.978287439826
44.53596 357.971991344919
44.55607 370.021706901736
44.57619 347.992875236231
44.5963 388
44.61642 352.956176776471
44.63653 341.036064764108
44.65664 373.015011929998
44.67676 347.071812715218
44.69687 340.938896277302
44.71698 385.013892101274
44.7371 337
44.75721 387.003419601523
44.77732 332.957253122772
44.79744 336.024234403841
44.81755 338.969808812869
44.83767 358.987931194653
44.85778 352.005351946914
44.87789 357.994823656567
44.89801 356.98941955249
44.91812 337.011609298095
44.93823 370.02050775178
44.95835 349.930651444405
44.97846 348.930946536369
44.99858 387.99693171384
45.01869 356.012857054033
45.0388 360
45.05892 366.993758637956
45.07903 359.008651801386
45.09914 383.062160444785
45.11926 403.991984683375
45.13937 387.053092466705
45.15949 350.011746586641
45.1796 360
45.19971 416.01275253943
45.21983 405.979693541407
45.23994 418.069581130855
45.26005 453.956694882324
45.28017 451.008847878679
45.30028 458.978807660424
45.32039 489.981263260336
45.34051 507.987564909276
45.36062 471.005253268547
45.38074 516.055882748518
45.40085 509.997557238325
45.42096 520.024118584894
45.44108 493.001472981344
45.46119 516.995564215654
45.4813 505
45.50142 526.010572303335
45.52153 527.03217123349
45.54165 554.975659922044
45.56176 512.054198330496
45.58187 520.97462969401
45.60199 528.994911408008
45.6221 524
45.64221 476.013167705005
45.66233 569.116701214694
45.68244 585.980677615678
45.70256 603.870390352708
45.72267 695.882353671882
45.74278 746.951501792703
45.7629 806
45.78301 822.97730810028
45.80312 721.874702923709
45.82324 641.00702535553
45.84335 675.071993653458
45.86346 586.104505611669
45.88358 598.989654654343
45.90369 577.008000066585
45.92381 572.98799985427
45.94392 511.91784000199
45.96403 457.009693606845
45.98415 494.007235947353
46.00426 443.118985114226
46.02437 415.000562729233
46.04449 421.002437710945
46.0646 406
46.08472 407.993930998938
46.10483 396.002013167407
46.12494 411.019553130669
46.14506 409.003320465719
46.16517 404.036050814386
46.18528 380.985675897693
46.2054 406
46.22551 358.013579783985
46.24563 436.012755298631
46.26574 364.917916529987
46.28585 385.983862320571
46.30597 358.008067516445
46.32608 378.008987180031
46.34619 352.986722535781
46.36631 420.013964256879
46.38642 388.968959028833
46.40653 383.983333827191
46.42665 357.957140512869
46.44676 352.03116981255
46.46688 337.980024685452
46.48699 379.990451803597
46.5071 373
46.52722 405.022784198887
46.54733 402.985117531821
46.56744 401.009971593037
46.58756 408.984383774899
46.60767 413.996258990123
46.62779 406.013353406136
46.6479 382
46.66801 414.007550585626
46.68813 395.9586399368
46.70824 371.939681021886
46.72835 345.009404700034
46.74847 360.981150829818
46.76858 365.983794437064
46.78869 388.996933301545
46.80881 373.99160004987
46.82892 367.998431977842
46.84904 367.004376868078
46.86915 363.952126566459
46.88926 337.029857631943
46.90938 335.007439878189
46.92949 327.991084552206
46.9496 367
46.96972 379.008136990729
46.98983 382.97546300771
47.00995 357.986300484507
47.03006 370.000886013131
47.05017 352.015962201871
47.07029 348.011374038925
47.0904 327
47.11051 385.01249081982
47.13063 358.952624576204
47.15074 355.023992314308
47.17086 364.003004049572
47.19097 354.013590120954
47.21108 349.007051277864
47.2312 337
47.25131 329.000609282063
47.27142 340.017573565048
47.29154 358.030125447206
47.31165 361.037842081858
47.33176 347.96882402969
47.35188 376.999761260253
47.37199 352.002232115772
47.39211 381.014740769887
47.41222 381.975972457335
47.43233 351.969997072059
47.45245 359.088959936107
47.47256 397.970617279277
47.49267 381.043558118107
47.51279 363.999990928874
47.5329 361
47.55302 323.000824509736
47.57313 363.050580048885
47.59324 357.937047485823
47.61336 337.964779841506
47.63347 375.977582276474
47.65358 353.032365076392
47.6737 335
47.69381 332.000529195255
47.71393 334.000947361307
47.73404 328.974842023169
47.75415 328.913538239002
47.77427 375.978469570121
47.79438 361.993241817309
47.81449 386.005826960424
47.83461 343.993137601064
47.85472 370.018954085297
47.87483 352.946904720227
47.89495 340.082986111642
47.91506 385.998017531288
47.93518 341.034445458945
47.95529 337.004759740087
47.9754 318
47.99552 350.032787093815
48.01563 356.971867051262
48.03574 342.036599088948
48.05586 373.01363691997
48.07597 331.03606072568
48.09609 335.005335302092
48.1162 318
48.13631 374.007680050232
48.15643 339.964289274407
48.17654 351.023006446231
48.19665 350.973619984467
48.21677 369.00021572242
48.23688 358.985975208547
48.257 376
48.27711 312.994784690326
48.29722 365.044297286957
48.31734 370.006442159743
48.33745 369.894375668417
48.35756 321.954831271379
48.37768 395.970262602089
48.39779 357.018414779444
48.4179 359
48.43802 358.011302897377
48.45813 372.984251843499
48.47825 342.964374130303
48.49836 363.919030059315
48.51847 385.033621053513
48.53859 344.005088622116
48.5587 375
48.57881 384.999835152819
48.59893 380.978994054161
48.61904 364.993202716657
48.63916 376.968895163106
48.65927 384.998799530904
48.67938 378.015702681609
48.6995 359
48.71961 347.994183925906
48.73972 339.002387757852
48.75984 356.052090981829
48.77995 365.072286866
48.80006 325.999896732694
48.82018 367.962838697302
48.84029 368.011645518665
48.86041 348.999685959718
48.88052 368.025866411061
48.90063 374.962050215066
48.92075 340.986552640248
48.94086 361.983884666276
48.96097 350.000068918723
48.98109 361.005495070488
49.0012 337
49.02132 372.022822686904
49.04143 360.962353200784
49.06154 343.987986691344
49.08166 347.979394574713
49.10177 363.963339997239
49.12188 375.02747634964
49.142 341
49.16211 399.01547913171
49.18223 375.945179275964
49.20234 362.00984746485
49.22245 385.884082148167
49.24257 425.999542556709
49.26268 398.011459228459
49.28279 427.974316539098
49.30291 457.992498965731
49.32302 410.957799303957
49.34313 406.043131812553
49.36325 446.079533269858
49.38336 446.073223674264
49.40348 414.97794668854
49.42359 475.98116165212
49.4437 448
49.46382 393.011451471233
49.48393 437.998183266104
49.50404 380.914206909445
49.52416 386.95886052394
49.54427 400.969363242471
49.56439 412.013842610605
49.5845 367
49.60461 399.016587525956
49.62473 405.992066161359
49.64484 395.957964505441
49.66495 376.992694722251
49.68507 399.96798229857
49.70518 404.007665108779
49.7253 394
49.74541 395.007481385771
49.76552 413.005411229964
49.78564 417.058128616093
49.80575 451.987296426173
49.82586 413.041123894291
49.84598 446.927462171605
49.86609 503.999065964094
49.8862 480
49.90632 546.04882705086
49.92643 547.983088498072
49.94655 573.192693317831
49.96666 679.808243198426
49.98677 757.864525834442
50.00689 848.976392545874
50.027 927
50.04711 1245.11657569711
50.06723 1368.23724329634
50.08734 1651.69422338563
50.10746 1896.94040926478
50.12757 1751.25594091268
50.14768 1623.16517423333
50.1678 1376
50.18791 1108.89108152578
50.20802 1006.05500509085
50.22814 1104.97234755689
50.24825 986.14698284573
50.26837 1020.0065352294
50.28848 894.197927315471
50.30859 688.097321664477
50.32871 529.944965455442
50.34882 449.924549177495
50.36893 384.968636479592
50.38905 410.100200530899
50.40916 418.081711253794
50.42927 367.007693515705
50.44939 408.982968714368
50.4695 392
50.48962 346.004083283245
50.50973 385.029305503953
50.52984 370.9842761687
50.54996 374.041653971374
50.57007 339.006367009899
50.59018 372.965475739826
50.6103 376
50.63041 341.983232434976
50.65053 333.043878701923
50.67064 376.036414366442
50.69075 366.009090469144
50.71087 372.023553205287
50.73098 339.013991822134
50.75109 351.994078365003
50.77121 344.99226669649
50.79132 339.011259991332
50.81143 357.009454605205
50.83155 348.983167239566
50.85166 349.006373718565
50.87178 338.013277850633
50.89189 334.992745595574
50.912 364
50.93212 374.9736202547
50.95223 342.010445238019
50.97234 366.949742163127
50.99246 309.009188488597
51.01257 363.947633656675
51.03269 340.021103596187
51.0528 315
51.07291 319.014257009806
51.09303 350.00396971956
51.11314 340.046821651706
51.13325 382.002458092731
51.15337 339.033803834008
51.17348 363.962815721259
51.1936 375
51.21371 345.992104367895
51.23382 351.010356234703
51.25394 343.936621617587
51.27405 314.977297686301
51.29416 349.973166598687
51.31428 332.01167974506
51.33439 340.996794052959
51.3545 337
51.37462 347.007637081021
51.39473 348.001918505302
51.41485 348.983021606711
51.43496 333.037449374805
51.45507 327.971288899027
51.47519 354.996178326049
51.4953 335
51.51541 322.004499773207
51.53553 339.007092210368
51.55564 325.967744800754
51.57576 318.999680118608
51.59587 320.998979760131
51.61598 321.993918487835
51.6361 327
51.65621 322.011224204776
51.67632 350.988995758257
51.69644 310.97717304736
51.71655 337.955596811948
51.73667 326.022262518354
51.75678 315.027017774844
51.77689 293.986273341559
51.79701 349.009251539901
51.81712 318.972971694975
51.83723 327.03614917297
51.85735 336.960768019437
51.87746 311.017958537778
51.89757 316.016268950606
51.91769 300.988670745748
51.9378 346
51.95792 312.974481500425
51.97803 323.035937716947
51.99814 345.05047271249
52.01826 358.040991549104
52.03837 326.000141604227
52.05848 351.000286286752
52.0786 317
52.09871 334.025690596159
52.11883 376.998429797932
52.13894 343.964645709653
52.15905 356.969977237802
52.17917 352.009612231376
52.19928 345.02217118082
52.21939 307.019571991208
52.23951 300.022228911499
52.25962 355.004620593476
52.27974 315.969192533092
52.29985 343.054121327173
52.31996 334.034870900926
52.34008 334.975853232176
52.36019 354.009776367529
52.3803 315
52.40042 343.008771333196
52.42053 327.009114203375
52.44064 351.987935705147
52.46076 328.95198728629
52.48087 376.027407205013
52.50099 310.003512518294
52.5211 377
52.54121 364.987054509724
52.56133 351.969556961462
52.58144 333.023039481516
52.60155 354.049409951694
52.62167 313.983657616487
52.64178 372.967499940185
52.6619 348
52.68201 332.000979334961
52.70212 345.022428094712
52.72224 363.001691164395
52.74235 354.99000595788
52.76246 369.99195553574
52.78258 356.016933805601
52.80269 354.990528610844
52.8228 379
52.84292 384.028624624519
52.86303 410.956962064808
52.88315 346.938441362724
52.90326 377.942530046057
52.92337 373.019099555593
52.94349 369.002326703746
52.9636 371
52.98371 412.015760730404
53.00383 411.956237883591
53.02394 378.973156003879
53.04406 387.977580839391
53.06417 384.02470827548
53.08428 373.987056774586
53.1044 400
53.12451 382.9823022856
53.14462 358.003921232382
53.16474 382.033681900827
53.18485 372.073426252553
53.20497 358.951977147745
53.22508 405.00048645277
53.24519 356.019372661702
53.26531 356.004579486219
53.28542 365.028940517228
53.30553 407.041107727796
53.32565 393.869258432569
53.34576 349.976342256123
53.36587 407.929314138261
53.38599 406.016478477805
53.4061 375
53.42622 387.030970662354
53.44633 409.991373472403
53.46644 378.935834992652
53.48656 371.958627425518
53.50667 395.999672994326
53.52678 378.0034524428
53.5469 396
53.56701 390.994146926805
53.58713 383.996309847569
53.60724 382.995371477205
53.62735 395.881981483236
53.64747 447.989217240362
53.66758 410.033796541603
53.68769 410.991260040619
53.70781 414.989367343555
53.72792 392.010860894298
53.74804 431.051463440312
53.76815 423.953494332465
53.78826 417.980275159037
53.80838 434.987939031775
53.82849 432.008140221965
53.8486 434
53.86872 504.030653053826
53.88883 482.959819626551
53.90894 493.087721233609
53.92906 540.951957337082
53.94917 536.018159999613
53.96929 527.008681227468
53.9894 499
54.00951 486.005246670575
54.02963 504.002742004861
54.04974 493.005900887392
54.06985 499.071010527399
54.08997 444.053027248126
54.11008 458.949822957175
54.1302 505
54.15031 482.977610963316
54.17042 432.947617365728
54.19054 405.043230906967
54.21065 452.936729202825
54.23076 440.037273485996
54.25088 442.980660753239
54.27099 454.008501574126
54.29111 425.999020837356
54.31122 448.007020922548
54.33133 430.983005855776
54.35145 448.096223404585
54.37156 467.070291523556
54.39167 410.017231952513
54.41179 458.97162741495
54.4319 471
54.45201 429.995337581199
54.47213 463.070530680584
54.49224 482.958594868113
54.51236 441.059063055431
54.53247 443.965830474243
54.55258 469.975147465705
54.5727 476
54.59281 440.997625263195
54.61292 474.039797804533
54.63304 488.977454423515
54.65315 466.046006980426
54.67327 470.953059579434
54.69338 502.996492790715
54.71349 504.971850353045
54.73361 588.012397118863
54.75372 550.981598306004
54.77383 597.113989849081
54.79395 679.241634873673
54.81406 770.888641638323
54.83417 781.02398247278
54.85429 781.979377109745
54.8744 825
54.89452 740.907456350796
54.91463 672.901556491135
54.93474 621.999861392993
54.95486 652.987738169659
54.97497 623.032394777878
54.99508 620.018357230995
55.0152 589
55.03531 586.97262003177
55.05543 497.930556782764
55.07554 513.039185417813
55.09565 498.079583816332
55.11577 475.00842050837
55.13588 490.966774929875
55.15599 521.993531037008
55.17611 520.000827454364
55.19622 535.019304691994
55.21634 554.045254953855
55.23645 579.053910915867
55.25656 596.961667743515
55.27668 626.955271444619
55.29679 646.025921503317
55.3169 561
55.33702 589.018311351792
55.35713 562.949909356204
55.37724 541.950034893104
55.39736 516.013370884721
55.41747 520.020476868796
55.43759 489.009564882133
55.4577 508
55.47781 538.975473352345
55.49793 448.948565483711
55.51804 483.039374719946
55.53815 450.102843335507
55.55827 441.96617164601
55.57838 466.001514171072
55.5985 431
55.61861 415.023017399432
55.63872 485.026291075861
55.65884 452.92386252033
55.67895 456.894291789971
55.69906 494.017292314129
55.71918 454.016136166017
55.73929 473.993313981084
55.75941 461.993279631459
55.77952 476.046467161354
55.79963 518.996630204195
55.81975 472.882974927663
55.83986 462.955015588894
55.85997 489.988271989468
55.88009 476.007386182738
55.9002 466
55.92031 438.992859971314
55.94043 442.008807560025
55.96054 445.017358540447
55.98066 452.02149906207
56.00077 432.006782721237
56.02088 443.995184808547
56.041 435
56.06111 445.010544180546
56.08122 458.992988156461
56.10134 432.942057322994
56.12145 416.013084949785
56.14157 409.032208415705
56.16168 388.989397463512
56.18179 420.992642676461
56.20191 405.990673675658
56.22202 404.009227029501
56.24213 406.977077631618
56.26225 385.995253591151
56.28236 403.972239796162
56.30248 398.017872768315
56.32259 392.987588538704
56.3427 429
56.36282 403.963885402998
56.38293 391.030169949061
56.40304 420.007146940432
56.42316 398.026765356059
56.44327 403.996523287871
56.46338 391.01671668147
56.4835 388
56.50361 399.98817691997
56.52373 365.013719860889
56.54384 414.058503407203
56.56395 407.994800410869
56.58407 421.025338211973
56.60418 386.99699449465
56.62429 429.984244340407
56.64441 425.993704971
56.66452 417.983072857936
56.68464 402.017343515426
56.70475 431.053294763827
56.72486 418.092012073342
56.74498 376.998367072186
56.76509 404.999772484172
56.7852 374
56.80532 393.013027172215
56.82543 381.975922191529
56.84554 379.018904176863
56.86566 393.972174557441
56.88577 403.985985272065
56.90589 409.003250904684
56.926 396
56.94611 392.993736326037
56.96623 373.987423805953
56.98634 385.04468334125
57.00645 402.986450260667
57.02657 394.025965730844
57.04668 380.004784755301
57.0668 377
57.08691 361.00274297346
57.10702 384.013356335778
57.12714 379.995447014924
57.14725 390.958717745844
57.16736 405.97254669687
57.18748 413.005717962034
57.20759 402.001365033089
57.22771 401.991880186037
57.24782 384.013941419838
57.26793 428.057400663795
57.28805 428.917661012898
57.30816 395.009714157839
57.32827 413.988135968145
57.34839 395.013314501848
57.3685 390
57.38861 412.986131989985
57.40873 356.978095415222
57.42884 392.04785586919
57.44896 389.965494664279
57.46907 423.000872494115
57.48918 387.023576385834
57.5093 402
57.52941 425.004297706899
57.54952 409.957342537181
57.56964 374.019653041806
57.58975 403.043693471201
57.60987 350.017164699269
57.62998 392.966954099963
57.65009 388.003603563057
57.67021 387.990420603202
57.69032 356.991253370411
57.71043 374.01875338566
57.73055 373.016047379627
57.75066 385.010703169039
57.77078 360.023828350511
57.79089 360.985499367784
57.811 386
57.83112 344.981886542995
57.85123 364.032501325645
57.87134 362.97009490773
57.89146 344.042676273626
57.91157 329.996947571187
57.93168 349.969039905204
57.9518 366
57.97191 331.994600340532
57.99203 352.029923847517
58.01214 351.981108796896
58.03225 355.926054367703
58.05237 382.029145140117
58.07248 338.005264746118
58.09259 375.988829141367
58.11271 353.981856509908
58.13282 343.024411181751
58.15294 379.026690183976
58.17305 351.871627175852
58.19316 309.033017285122
58.21328 319.977649098948
58.23339 334.997672275025
58.2535 338
58.27362 354.000877340059
58.29373 347.015748185402
58.31385 367.997515003257
58.33396 342.04266999872
58.35407 336.01350949531
58.37419 327.992196365918
58.3943 359
58.41441 344.987211079034
58.43453 331.00540217235
58.45464 346.028548381845
58.47475 351.995259295024
58.49487 349.019494635108
58.51498 332.009540688154
58.5351 344
58.55521 385.011491249645
58.57532 375.967314871431
58.59544 337.93481773739
58.61555 323.979996081591
58.63566 341.974641334832
58.65578 350.978051461386
58.67589 379.993549541393
58.69601 367.988621663102
58.71612 357.009523618026
58.73623 369.986017354633
58.75635 344.979518359956
58.77646 353.017008415404
58.79657 335.976924806285
58.81669 372.996813000069
58.8368 343
58.85691 349.00086260447
58.87703 345.028510636942
58.89714 369.97010755457
58.91726 322.054981931701
58.93737 330.986694609802
58.95748 330.981097344354
58.9776 370
58.99771 370.986609335199
59.01782 339.985755182773
59.03794 343.00053863112
59.05805 343.937636004825
59.07817 381.975766088709
59.09828 370.011767653885
59.11839 373.996495126011
59.13851 374.999322836531
59.15862 376.004389523985
59.17873 375.980150158249
59.19885 375.114079295965
59.21896 424.052130525814
59.23908 345.03114071992
59.25919 381.987491827618
59.2793 365
59.29942 382.011744134499
59.31953 373.983428602351
59.33964 375.023226907087
59.35976 388.981533500985
59.37987 387.019296362488
59.39998 372.008451447124
59.4201 381
59.44021 410.003492541217
59.46033 392.968652201479
59.48044 383.998156747375
59.50055 387.975948744466
59.52067 396.998222702193
59.54078 389.011304385008
59.56089 378.006334652894
59.58101 378.014586818682
59.60112 423.030351636228
59.62124 423.973160977702
59.64135 413.991110579986
59.66146 419.968717490094
59.68158 441.975521180249
59.70169 471.979178590399
59.7218 514
59.74192 523.01525398634
59.76203 550.034029106216
59.78215 570.085716944613
59.80226 629.843623962071
59.82237 721.841263700746
59.84249 820.96571261782
59.8626 893
59.88271 1071.07802532492
59.90283 1156.04535088806
59.92294 1201.22208383245
59.94305 1307.06075051896
59.96317 1143.2807839465
59.98328 983.193921517074
60.0034 790
60.02351 793.996096498946
60.04362 736.963476020069
60.06374 771.171215565841
60.08385 839.997465173011
60.10396 790.066968297146
60.12408 774.064349066874
60.14419 641.076809244454
60.16431 531.978270293252
60.18442 516.957379580423
60.20453 430.868322229472
60.22465 392.052368754727
60.24476 432.980148620796
60.26487 404.037633345537
60.28499 400.004088877718
60.3051 391
60.32522 418.988888415228
60.34533 374.9662032222
60.36544 383.994020576404
60.38556 366.978657424171
60.40567 397.996778265224
60.42578 361.036885275773
60.4459 359
60.46601 382.993368064453
60.48612 347.991218246395
60.50624 374.043396148027
60.52635 376.979039598942
60.54647 392.998109645175
60.56658 379.007336698466
60.58669 386.994938148075
60.60681 389.999835760536
60.62692 385.988199692967
60.64703 376.008602884237
60.66715 395.039602155188
60.68726 397.012974737203
60.70738 388.010853868571
60.72749 391.982517316648
60.7476 427
60.76772 382.988970305025
60.78783 412.018449572882
60.80794 392.982891436709
60.82806 403.009909500015
60.84817 383.997713406708
60.86828 402.004298897314
60.8884 367
60.90851 355.001862310652
60.92863 363.012130176817
60.94874 366.999441676383
60.96885 365.995088942783
60.98897 369.997958964943
61.00908 363.016325200536
61.02919 348.999354049624
61.04931 371.017497758463
61.06942 395.998980387859
61.08954 378.985742413399
61.10965 390.029559197401
61.12976 383.056172608687
61.14988 348.024745397283
61.16999 350.984264677184
61.1901 386
61.21022 376.997317795486
61.23033 377.962031568643
61.25045 346.028305811955
61.27056 387.980370746732
61.29067 359.01799159453
61.31079 375.000428823521
61.3309 351
61.35101 378.021804033994
61.37113 411.019600761256
61.39124 401.951150898726
61.41135 387.960024580169
61.43147 425.951849287149
61.45158 433.00997901364
61.4717 438
61.49181 486.998121308711
61.51192 439.977150028559
61.53204 469.083360645492
61.55215 487.009445724582
61.57226 481.97610565662
61.59238 509.975562458289
61.61249 524.990663508862
61.63261 541.998181074076
61.65272 506.942045522288
61.67283 479.071244410421
61.69295 579.208471047978
61.71306 586.123735159992
61.73317 521.014028722949
61.75329 572.970031636682
61.7734 583
61.79352 521.969524491799
61.81363 522.982621899442
61.83374 492.980206502517
61.85386 505.999165499217
61.87397 489.005568939141
61.89408 499.006581967585
61.9142 474
61.93431 464.981782741952
61.95442 421.002122012092
61.97454 473.104187159802
61.99465 477.10830815465
62.01477 421.051050047666
62.03488 434.946165962659
62.05499 495.978805579926
62.07511 498.983847278881
62.09522 452.958456137732
62.11533 446.060649607031
62.13545 490.98339733353
62.15556 446.027682886414
62.17568 485.952776140951
62.19579 494.015897173483
62.2159 464
62.23602 508.015918699707
62.25613 483.972044742767
62.27624 497.051994081384
62.29636 508.027491751214
62.31647 484.014922104263
62.33659 481.013595187059
62.3567 445
62.37681 480.007408234108
62.39693 463.992559527165
62.41704 469.950616257651
62.43715 424.038333921924
62.45727 449.960224795126
62.47738 454.001158346205
62.49749 452.007944540341
62.51761 428.995072878137
62.53772 430.992668314384
62.55784 414.994709787741
62.57795 422.985463363992
62.59806 420.912896606203
62.61818 467.037205990125
62.63829 375.015815788487
62.6584 419
62.67852 384.980399043948
62.69863 393.975576152875
62.71875 352.972571815758
62.73886 390.898013265013
62.75897 409.039065716788
62.77909 367.009059548447
62.7992 385
62.81931 395.998654525468
62.83943 381.96240179286
62.85954 363.008909150767
62.87965 383.967275258854
62.89977 386.977942036173
62.91988 404.012270512442
62.94 376
62.96011 397.993723775555
62.98022 358.997652879957
63.00034 395.026339732904
63.02045 372.028703625876
63.04056 382.012120142527
63.06068 354.017771591764
63.08079 357.997273259054
63.10091 351.994992404746
63.12102 350.010759973483
63.14113 364.004244149719
63.16125 349.944473081373
63.18136 338.977106529878
63.20147 363.972522436307
63.22159 365.003508412551
63.2417 360
63.26182 356.99174311612
63.28193 366.079739411923
63.30204 424.997537254681
63.32216 367.089640657157
63.34227 365.99278900261
63.36238 361.989342680949
63.3825 374
63.40261 326.989751616411
63.42272 344.016206213313
63.44284 338.982807573497
63.46295 345.939994702436
63.48307 371.983538521751
63.50318 365.011049725257
63.52329 365.992342782365
63.54341 379.997253370379
63.56352 361.994672913933
63.58363 369.995543806896
63.60375 353.983088002954
63.62386 370.934300583382
63.64398 393.008365569616
63.66409 366.007076911648
63.6842 381
63.70432 394.984167283696
63.72443 372.010901198635
63.74454 400.003802594108
63.76466 378.987867429227
63.78477 406.012271783837
63.80489 379.985014966549
63.825 453
63.84511 419.987748109216
63.86523 442.055247843339
63.88534 463.0108901035
63.90545 458.027106470991
63.92557 462.943147589096
63.94568 522.946995034853
63.96579 555.986124703085
63.98591 575.997097562785
64.00602 554.992433758013
64.02614 558.970742181627
64.04625 519.903299418354
64.06636 493.054431768832
64.08648 460.031071675416
64.10659 441.001870474974
64.1267 441
64.14682 426.001898264872
64.16693 459.085561010067
64.18705 493.932033574937
64.20716 427.086944873831
64.22727 421.024393015832
64.24739 391.997909436183
64.2675 415
64.28761 358.985544411405
64.30773 368.995287002139
64.32784 337.957085828643
64.34796 346.953578417872
64.36807 357.021976975327
64.38818 336.994293699415
64.4083 354
64.42841 312.995920225893
64.44852 339.005263947792
64.46864 322.027761367401
64.48875 368.92895934975
64.50886 360.028703524674
64.52898 358.003868098151
64.54909 342.011946931048
64.56921 326.001980374999
64.58932 344.014064632876
64.60943 338.967743524809
64.62955 324.030661695695
64.64966 351.977700583482
64.66977 346.982646587776
64.68989 364.010880261199
64.71 319
64.73012 350.012006042709
64.75023 334.006852724627
64.77034 357.987554418247
64.79046 327.00083438919
64.81057 360.974506826064
64.83068 343.019598605407
64.8508 343
64.87091 348.001959013767
64.89102 352.003550012262
64.91114 350.981620585034
64.93125 336.035957957493
64.95137 334.971370140187
64.97148 355.005372353638
64.99159 327.010665478728
65.01171 331.009518621801
65.03182 341.989916304813
65.05193 332.036377585235
65.07205 365.962062067053
65.09216 316.022447757951
65.11228 347.993425202689
65.13239 324.994053736857
65.1525 372
65.17262 331.939397560277
65.19273 307.046743687762
65.21284 356.015733585326
65.23296 326.011642092885
65.25307 351.994625240125
65.27319 322.010096378672
65.2933 337
65.31341 352.991498227496
65.33353 315.959300705028
65.35364 322.066497553853
65.37375 351.996473616198
65.39387 334.00492013581
65.41398 350.991396583195
65.43409 339.008070123639
65.45421 329.996641085766
65.47432 334.028112075508
65.49444 369.021452764521
65.51455 350.948470966531
65.53466 343.011500979444
65.55478 334.006939046431
65.57489 331.00116250677
65.595 334
65.61512 347.988075021646
65.63523 324.00226393507
65.65535 354.060058805262
65.67546 354.016342524555
65.69557 353.987210810947
65.71569 359.005531173154
65.7358 346
65.75591 376.007126937962
65.77603 361.968173192092
65.79614 347.974163525023
65.81626 340.979487940884
65.83637 358.992816404095
65.85648 347.011373535248
65.8766 352
65.89671 367.997433279199
65.91682 347.988760143232
65.93694 359.046681484617
65.95705 371.033766729771
65.97716 334.087871405695
65.99728 312.983909328733
66.01739 350.984941631375
66.03751 349.986951828003
66.05762 325.999666803483
66.07773 346.023421948905
66.09785 339.948800931331
66.11796 323.004463297799
66.13807 330.995907589882
66.15819 324.002815028277
66.1783 339
66.19842 376.989026648175
66.21853 331.968614558108
66.23864 342.98687388174
66.25876 313.01860332735
66.27887 329.992262690295
66.29898 312.014177101094
66.3191 318
66.33921 339.016011915004
66.35933 358.967809323124
66.37944 324.017660068985
66.39955 363.00506445665
66.41967 320.018964396784
66.43978 351.980496015397
66.45989 339.004276392843
66.48001 343.995396296069
66.50012 314.973661444443
66.52023 299.974909933147
66.54035 293.069140084059
66.56046 343.925874964482
66.58058 346.018150350404
66.60069 319.019480042859
66.6208 294
66.64092 334.008449041572
66.66103 306.978948057511
66.68114 329.066033917513
66.70126 344.015407590054
66.72137 332.985744276081
66.74149 354.00032195836
66.7616 334
66.78171 351.003649290241
66.80183 338.984377934628
66.82194 334.973323941274
66.84205 313.034057688456
66.86217 324.942862470824
66.88228 355.013514452953
66.90239 318.002350168255
66.92251 350.00863091263
66.94262 336.992235688482
66.96274 347.009827145435
66.98285 347.044703328782
67.00296 366.039405245927
67.02308 329.989872620197
67.04319 373.998571859695
67.0633 339
67.08342 390.023120572196
67.10353 353.919741429349
67.12365 329.022375509848
67.14376 351.976611779601
67.16387 346.007718237896
67.18399 349.000051846908
67.2041 346
67.22421 349.990416958383
67.24433 328.026107649992
67.26444 362.977190551269
67.28456 315.020615583474
67.30467 359.934108584803
67.32478 366.013045408114
67.3449 358
67.36501 370.007754083056
67.38512 377.995277180194
67.40524 374.030652972968
67.42535 397.99254352139
67.44546 378.030822298846
67.46558 387.971329691308
67.48569 412.997443220802
67.50581 407.00383497592
67.52592 435.02995637136
67.54603 451.00568219793
67.56615 467.126194640228
67.58626 538.887419400044
67.60637 574.931125123472
67.62649 641.966312909194
67.6466 690
67.66672 743.122850396975
67.68683 876.054197509599
67.70694 827.971131871696
67.72706 881.921887118663
67.74717 844.141281621475
67.76728 738.091785890545
67.7874 651
67.80751 546.990614133734
67.82763 607.088239266174
67.84774 614.972134420868
67.86785 622.889191159455
67.88797 686.923090598116
67.90808 706.001508705946
67.92819 693.013609600251
67.94831 652.976108772173
67.96842 615.988539562529
67.98853 645.104942974897
68.00865 706.000704115785
68.02876 686.892498998851
68.04888 815.88730429473
68.06899 878.96566782256
68.0891 960
68.10922 975.048046483077
68.12933 1045.02888386038
68.14944 1000.90402954071
68.16956 958.172433379493
68.18967 817.233125815221
68.20979 735.977423026822
68.2299 864
68.25001 914.013630389062
68.27013 966.121217329896
68.29024 1024.96156225425
68.31035 949.13537597276
68.33047 915.13794560596
68.35058 763.132743060705
68.3707 669
68.39081 556.982041086929
68.41092 578.986758683465
68.43104 537.058170576742
68.45115 612.997801941586
68.47126 517.169459273163
68.49138 507.973049032194
68.51149 517.011632597068
68.5316 470
68.55172 438.979363832735
68.57183 418.966310009539
68.59195 391.925357211811
68.61206 358.079397559832
68.63217 330.989494447595
68.65229 368.977891682914
68.6724 387
68.69251 353.989022525479
68.71263 355.013672705521
68.73274 355.982842955274
68.75286 342.026909906584
68.77297 339.977843449827
68.79308 361.986049049877
68.8132 355
68.83331 323.987804449662
68.85342 317.009923807019
68.87354 326.987320692739
68.89365 314.976395578248
68.91376 347.937628956338
68.93388 356.011687592469
68.95399 348.990677954183
68.97411 371.992377971832
68.99422 328.982525176745
69.01433 349.025037857556
69.03445 348.018313331679
69.05456 366.984741617984
69.07467 362.989815581774
69.09479 383.992079926509
69.1149 376
69.13502 343.990195463211
69.15513 365.056864611906
69.17524 393.008849869793
69.19536 368.092723075984
69.21547 332.001228515886
69.23558 361.968573431216
69.2557 365
69.27581 340.004199615807
69.29593 374.029516331669
69.31604 366.986507733828
69.33615 376.959686067369
69.35627 385.006111129324
69.37638 382.98185104977
69.39649 407.001474430477
69.41661 379.992397443511
69.43672 379.983247317711
69.45683 358.0247441381
69.47695 403.049174232941
69.49706 381.053046546037
69.51718 374.997120514802
69.53729 372.005953545584
69.5574 368
69.57752 403.008868006153
69.59763 381.973364724773
69.61774 385.017122597655
69.63786 381.038706149349
69.65797 367.972826259294
69.67809 400.996835901479
69.6982 377
69.71831 375.992551487835
69.73843 347.984275961879
69.75854 365.048457957161
69.77865 374.022178045187
69.79877 365.978822359121
69.81888 402.961224873018
69.839 407
69.85911 346.990705175796
69.87922 374.022807873828
69.89934 365.967875704877
69.91945 349.924476076766
69.93956 326.958895201451
69.95968 371.986209579534
69.97979 344.01240305973
69.9999 349
70.02002 343.957657254095
70.04013 305.03183389908
70.06025 371.096112702449
70.08036 355.051794153681
70.10047 349.000937787601
70.12059 341.006702453009
70.1407 334
70.16081 353.00562865042
70.18093 345.971867724547
70.20104 337.032073027348
70.22116 367.959989589412
70.24127 365.019127300833
70.26138 361.986880355362
70.2815 374
70.30161 350.001446379493
70.32172 374.001447615226
70.34184 347.97043049072
70.36195 360.952964322084
70.38207 367.005642242808
70.40218 366.985803143517
70.42229 386.99669827443
70.44241 363.975231005615
70.46252 326.009509974577
70.48263 367.030996236516
70.50275 350.955494748356
70.52286 350.99427343432
70.54297 340.039515936109
70.56309 319.994962713071
70.5832 347
70.60332 326.983386866717
70.62343 331.017934961907
70.64354 351.080999035536
70.66366 385.025999718593
70.68377 331.072685732839
70.70388 318.99032692923
70.724 332
70.74411 349.014648447169
70.76423 365.957374278901
70.78434 307.923326412608
70.80445 309.963265966737
70.82457 320.97222058102
70.84468 332.023115736869
70.86479 294.003239561695
70.88491 321.008037756425
70.90502 307.983842969234
70.92513 306.005752750772
70.94525 312.031981103144
70.96536 324.002694400224
70.98548 314.998549521633
71.00559 327.996282752187
71.0257 327
71.04582 334.994847334002
71.06593 316.979036745107
71.08604 319.026801226998
71.10616 338.948421800351
71.12627 353.022940097126
71.14639 327.000099748594
71.1665 340
71.18661 293.996391624869
71.20673 330.032816620717
71.22684 311.946216261564
71.24695 306.957470041478
71.26707 330.976594739892
71.28718 327.019627585727
71.3073 316
71.32741 341.995763693141
71.34752 308.994709567527
71.36764 330.993846601875
71.38775 294.067285025979
71.40786 298.96927442858
71.42798 304.004721900821
71.44809 305.987770412154
71.4682 333
71.48832 299.984130050026
71.50843 310.002420089609
71.52855 305.060773963224
71.54866 341.012796577982
71.56877 297.034203128747
71.58889 317.985659887555
71.609 324
71.62911 314.002472548177
71.64923 335.036724667919
71.66934 349.003067307803
71.68946 344.007502235146
71.70957 342.011080034998
71.72968 338.981608376654
71.7498 360
71.76991 322.992085967473
71.79002 323.968482420772
71.81014 276.003070593553
71.83025 323.937119323731
71.85037 305.023524986976
71.87048 332.93565749773
71.89059 382.005988023943
71.91071 325.981443883563
71.93082 329.00238853141
71.95093 322.023362414499
71.97105 353.017702407018
71.99116 334.016241382406
72.01127 349.975302154465
72.03139 349.006459200985
72.0515 329
72.07162 314.018222281593
72.09173 347.012588703003
72.11184 332.003453719722
72.13196 343.054319610766
72.15207 298.987358518126
72.17218 356.965218761861
72.1923 333
72.21241 316.013201839525
72.23253 355.008876576041
72.25264 325.958883320021
72.27275 328.01046940176
72.29287 312.00643227931
72.31298 333.960879370997
72.33309 362.001500477539
72.35321 337.992467392001
72.37332 342.003642349208
72.39344 336.994956614945
72.41355 337.986377915151
72.43366 328.999058012806
72.45378 342.981479346168
72.47389 352.002957104549
72.494 340
72.51412 346.003096992317
72.53423 345.009417403184
72.55434 349.967488414585
72.57446 325.001587142281
72.59457 356.939297450768
72.61469 372.010389759564
72.6348 346
72.65491 384.008438114492
72.67503 365.973272841541
72.69514 363.98964837656
72.71525 350.022730529442
72.73537 344.027065749195
72.75548 333.96645471353
72.7756 390
72.79571 370.996622875646
72.81582 378.973322712544
72.83594 335.011859824845
72.85605 379.985428304786
72.87616 344.99894585473
72.89628 386.987539746457
72.91639 351.016154697374
72.9365 350
72.95662 364.045867771421
72.97673 405.966117870483
72.99685 335.901205738413
73.01696 348.978448375896
73.03707 342.973813940508
73.05719 372.00608456131
73.0773 344
73.09741 419.007627232266
73.11753 359.928412196447
73.13764 373.077614018598
73.15776 394.012267493172
73.17787 364.062040381191
73.19798 342.980656328209
73.2181 384
73.23821 383.003115638272
73.25832 405.014361369188
73.27844 405.003856617714
73.29855 412.995607707138
73.31867 409.991083118724
73.33878 422.995749637256
73.35889 429.98160483128
73.37901 480.009305533873
73.39912 473.017018818119
73.41923 526.076234364936
73.43935 541.963581568993
73.45946 513.062273688233
73.47957 498.983433981057
73.49969 506.017055274778
73.5198 428
73.53992 380.003837023288
73.56003 405.003884127342
73.58014 380.977131511584
73.60026 400.938030976595
73.62037 424.971984095335
73.64048 438.992215569324
73.6606 432
73.68071 396.991203801647
73.70083 390.96531689246
73.72094 355.975102850788
73.74105 366.004114808945
73.76117 337.056263235145
73.78128 322.976673125304
73.80139 357.996648080033
73.82151 327.98244003732
73.84162 322.026433905486
73.86174 357.032029283891
73.88185 340.914709278711
73.90196 317.99164903939
73.92208 333.006210985389
73.94219 308.004540419843
73.9623 326
73.98242 329.988347537458
74.00253 315.992715564732
74.02264 323.020559570349
74.04276 327.006908788868
74.06287 318.017148754533
74.08299 313.994809202258
74.1031 331
74.12321 319.986418070241
74.14333 306.038147291983
74.16344 350.030446883544
74.18355 329.043976455894
74.20367 337.971085204584
74.22378 340.026710801515
74.2439 309
74.26401 331.999081170204
74.28412 303.991179369116
74.30424 329.056662123184
74.32435 338.007871312516
74.34446 335.990059572767
74.36458 337.019770210896
74.38469 313.995734837747
74.40481 342.000221796387
74.42492 311.983601816107
74.44503 326.026315880076
74.46515 328.992234431669
74.48526 327.004248206362
74.50537 319.027279753758
74.52549 296.008792243954
74.5456 306
74.56571 359.003374825176
74.58583 325.974364837416
74.60594 336.992401701274
74.62606 317.983032979209
74.64617 352.973485624565
74.66628 329.046126185724
74.6864 297
74.70651 315.00262443207
74.72662 314.029965174835
74.74674 370.078403963846
74.76685 358.138177886037
74.78697 295.062750114905
74.80708 298.953758083737
74.82719 348.991067384954
74.84731 336.997923886144
74.86742 339.971932877429
74.88753 297.999842312935
74.90765 332.012222060424
74.92776 304.003208458886
74.94787 331.997623671394
74.96799 297.012667485493
74.9881 308
75.00822 335.026235395161
