3.00117 20268
3.02128 20045
3.0414 19209
3.06151 18894
3.08162 18232
3.10174 17290
3.12185 17153
3.14197 16550
3.16208 16538
3.18219 15993
3.20231 14997
3.22242 14952
3.24253 14393
3.26265 13763
3.28276 13454
3.30288 12951
3.32299 12870
3.3431 12019
3.36322 12030
3.38333 11483
3.40344 10956
3.42356 10715
3.44367 10306
3.46379 10086
3.4839 9679
3.50401 9170
3.52413 9021
3.54424 8508
3.56435 8332
3.58447 7866
3.60458 7533
3.62469 7570
3.64481 7064
3.66492 6785
3.68504 6574
3.70515 6209
3.72526 6253
3.74538 5758
3.76549 5559
3.7856 5272
3.80572 5068
3.82583 4924
3.84595 4643
3.86606 4713
3.88617 4420
3.90629 4102
3.9264 4107
3.94651 3773
3.96663 3557
3.98674 3568
4.00686 3229
4.02697 3127
4.04708 3004
4.0672 2855
4.08731 2800
4.10742 2572
4.12754 2494
4.14765 2379
4.16776 2314
4.18788 2261
4.20799 1991
4.22811 2069
4.24822 1928
4.26833 1954
4.28845 1870
4.30856 1732
4.32867 1622
4.34879 1624
4.3689 1575
4.38902 1585
4.40913 1410
4.42924 1449
4.44936 1448
4.46947 1370
4.48958 1469
4.5097 1273
4.52981 1267
4.54992 1251
4.57004 1205
4.59015 1274
4.61027 1050
4.63038 1144
4.65049 1091
4.67061 1052
4.69072 1032
4.71083 956
4.73095 996
4.75106 947
4.77118 973
4.79129 899
4.8114 819
4.83152 894
4.85163 891
4.87174 786
4.89186 804
4.91197 765
4.93209 779
4.9522 736
4.97231 770
4.99243 780
5.01254 618
5.03265 611
5.05277 710
5.07288 643
5.09299 636
5.11311 594
5.13322 568
5.15334 609
5.17345 538
5.19356 567
5.21368 541
5.23379 560
5.2539 522
5.27402 494
5.29413 528
5.31425 495
5.33436 490
5.35447 453
5.37459 456
5.3947 462
5.41481 415
5.43493 415
5.45504 431
5.47516 380
5.49527 402
5.51538 402
5.5355 393
5.55561 332
5.57572 387
5.59584 335
5.61595 360
5.63606 331
5.65618 346
5.67629 354
5.69641 309
5.71652 329
5.73663 272
5.75675 264
5.77686 313
5.79697 269
5.81709 293
5.8372 264
5.85732 258
5.87743 309
5.89754 242
5.91766 266
5.93777 247
5.95788 250
5.978 253
5.99811 258
6.01823 277
6.03834 261
6.05845 218
6.07857 284
6.09868 233
6.11879 255
6.13891 255
6.15902 223
6.17913 240
6.19925 226
6.21936 233
6.23948 243
6.25959 260
6.2797 259
6.29982 221
6.31993 229
6.34004 219
6.36016 227
6.38027 223
6.40039 221
6.4205 208
6.44061 229
6.46073 217
6.48084 248
6.50095 202
6.52107 238
6.54118 219
6.56129 243
6.58141 235
6.60152 218
6.62164 227
6.64175 227
6.66186 199
6.68198 184
6.70209 197
6.7222 192
6.74232 220
6.76243 229
6.78255 206
6.80266 183
6.82277 180
6.84289 208
6.863 215
6.88311 204
6.90323 192
6.92334 211
6.94346 234
6.96357 228
6.98368 191
7.0038 200
7.02391 204
7.04402 199
7.06414 209
7.08425 216
7.10436 170
7.12448 206
7.14459 221
7.16471 204
7.18482 222
7.20493 198
7.22505 234
7.24516 181
7.26527 228
7.28539 242
7.3055 201
7.32562 197
7.34573 259
7.36584 194
7.38596 218
7.40607 228
7.42618 199
7.4463 199
7.46641 204
7.48653 214
7.50664 231
7.52675 202
7.54687 213
7.56698 230
7.58709 208
7.60721 236
7.62732 206
7.64743 213
7.66755 204
7.68766 214
7.70778 213
7.72789 204
7.748 211
7.76812 233
7.78823 204
7.80834 226
7.82846 204
7.84857 224
7.86869 213
7.8888 212
7.90891 232
7.92903 217
7.94914 231
7.96925 261
7.98937 220
8.00948 273
8.0296 199
8.04971 229
8.06982 232
8.08994 217
8.11005 210
8.13016 232
8.15028 228
8.17039 230
8.1905 223
8.21062 211
8.23073 199
8.25085 221
8.27096 226
8.29107 255
8.31119 197
8.3313 215
8.35141 262
8.37153 223
8.39164 219
8.41176 249
8.43187 211
8.45198 215
8.4721 214
8.49221 236
8.51232 222
8.53244 208
8.55255 245
8.57266 241
8.59278 195
8.61289 213
8.63301 261
8.65312 223
8.67323 255
8.69335 246
8.71346 221
8.73357 222
8.75369 216
8.7738 263
8.79392 222
8.81403 248
8.83414 278
8.85426 236
8.87437 249
8.89448 239
8.9146 253
8.93471 243
8.95483 240
8.97494 227
8.99505 215
9.01517 237
9.03528 243
9.05539 235
9.07551 194
9.09562 238
9.11573 229
9.13585 223
9.15596 228
9.17608 237
9.19619 228
9.2163 238
9.23642 230
9.25653 215
9.27664 211
9.29676 219
9.31687 212
9.33699 241
9.3571 274
9.37721 213
9.39733 244
9.41744 241
9.43755 236
9.45767 229
9.47778 206
9.4979 233
9.51801 219
9.53812 216
9.55824 232
9.57835 261
9.59846 223
9.61858 220
9.63869 239
9.6588 259
9.67892 236
9.69903 253
9.71915 248
9.73926 260
9.75937 272
9.77949 242
9.7996 270
9.81971 251
9.83983 271
9.85994 236
9.88006 239
9.90017 263
9.92028 228
9.9404 251
9.96051 248
9.98062 243
10.00074 239
10.02085 243
10.04097 242
10.06108 236
10.08119 242
10.10131 231
10.12142 261
10.14153 252
10.16165 244
10.18176 236
10.20187 175
10.22199 272
10.2421 255
10.26222 242
10.28233 251
10.30244 195
10.32256 260
10.34267 280
10.36278 280
10.3829 272
10.40301 316
10.42313 342
10.44324 372
10.46335 410
10.48347 451
10.50358 467
10.52369 425
10.54381 403
10.56392 369
10.58403 319
10.60415 296
10.62426 283
10.64438 248
10.66449 259
10.6846 221
10.70472 248
10.72483 238
10.74494 247
10.76506 241
10.78517 245
10.80529 254
10.8254 245
10.84551 200
10.86563 245
10.88574 201
10.90585 231
10.92597 260
10.94608 240
10.9662 234
10.98631 226
11.00642 246
11.02654 231
11.04665 259
11.06676 238
11.08688 207
11.10699 223
11.1271 235
11.14722 209
11.16733 227
11.18745 197
11.20756 237
11.22767 213
11.24779 244
11.2679 194
11.28801 248
11.30813 219
11.32824 229
11.34836 229
11.36847 222
11.38858 227
11.4087 201
11.42881 220
11.44892 218
11.46904 241
11.48915 244
11.50927 233
11.52938 223
11.54949 243
11.56961 232
11.58972 207
11.60983 226
11.62995 247
11.65006 205
11.67017 220
11.69029 221
11.7104 236
11.73052 230
11.75063 235
11.77074 249
11.79086 218
11.81097 243
11.83108 187
11.8512 200
11.87131 244
11.89143 242
11.91154 195
11.93165 221
11.95177 221
11.97188 228
11.99199 227
12.01211 232
12.03222 241
12.05234 233
12.07245 240
12.09256 234
12.11268 230
12.13279 206
12.1529 200
12.17302 235
12.19313 217
12.21324 240
12.23336 253
12.25347 234
12.27359 242
12.2937 217
12.31381 215
12.33393 232
12.35404 215
12.37415 229
12.39427 240
12.41438 214
12.4345 231
12.45461 245
12.47472 259
12.49484 234
12.51495 233
12.53506 242
12.55518 234
12.57529 229
12.5954 202
12.61552 229
12.63563 209
12.65575 197
12.67586 230
12.69597 212
12.71609 188
12.7362 214
12.75631 198
12.77643 217
12.79654 214
12.81666 217
12.83677 208
12.85688 208
12.877 215
12.89711 201
12.91722 203
12.93734 236
12.95745 234
12.97757 228
12.99768 202
13.01779 231
13.03791 218
13.05802 215
13.07813 245
13.09825 243
13.11836 237
13.13847 251
13.15859 235
13.1787 261
13.19882 233
13.21893 240
13.23904 237
13.25916 239
13.27927 240
13.29938 218
13.3195 199
13.33961 230
13.35973 224
13.37984 229
13.39995 211
13.42007 225
13.44018 206
13.46029 220
13.48041 214
13.50052 252
13.52064 224
13.54075 227
13.56086 271
13.58098 246
13.60109 245
13.6212 285
13.64132 263
13.66143 303
13.68154 315
13.70166 261
13.72177 271
13.74189 246
13.762 258
13.78211 247
13.80223 240
13.82234 281
13.84245 295
13.86257 338
13.88268 312
13.9028 335
13.92291 280
13.94302 287
13.96314 229
13.98325 241
14.00336 219
14.02348 226
14.04359 275
14.06371 219
14.08382 209
14.10393 216
14.12405 189
14.14416 226
14.16427 238
14.18439 193
14.2045 216
14.22461 203
14.24473 176
14.26484 201
14.28496 189
14.30507 219
14.32518 186
14.3453 188
14.36541 224
14.38552 189
14.40564 211
14.42575 219
14.44587 225
14.46598 245
14.48609 195
14.50621 198
14.52632 204
14.54643 214
14.56655 186
14.58666 208
14.60677 177
14.62689 204
14.647 255
14.66712 200
14.68723 215
14.70734 223
14.72746 218
14.74757 211
14.76768 187
14.7878 210
14.80791 175
14.82803 193
14.84814 211
14.86825 224
14.88837 191
14.90848 227
14.92859 249
14.94871 218
14.96882 239
14.98894 239
15.00905 253
15.02916 246
15.04928 274
15.06939 271
15.0895 248
15.10962 251
15.12973 250
15.14984 261
15.16996 247
15.19007 218
15.21019 211
15.2303 217
15.25041 239
15.27053 214
15.29064 200
15.31075 217
15.33087 186
15.35098 206
15.3711 183
15.39121 190
15.41132 175
15.43144 194
15.45155 189
15.47166 201
15.49178 220
15.51189 218
15.53201 211
15.55212 230
15.57223 220
15.59235 224
15.61246 191
15.63257 208
15.65269 181
15.6728 200
15.69291 199
15.71303 213
15.73314 221
15.75326 183
15.77337 232
15.79348 213
15.8136 192
15.83371 181
15.85382 198
15.87394 217
15.89405 188
15.91417 212
15.93428 197
15.95439 178
15.97451 206
15.99462 194
16.01473 167
16.03485 179
16.05496 205
16.07508 170
16.09519 198
16.1153 180
16.13542 170
16.15553 193
16.17564 197
16.19576 215
16.21587 198
16.23598 178
16.2561 189
16.27621 193
16.29633 207
16.31644 199
16.33655 179
16.35667 166
16.37678 177
16.39689 201
16.41701 205
16.43712 190
16.45724 197
16.47735 186
16.49746 212
16.51758 208
16.53769 193
16.5578 204
16.57792 173
16.59803 198
16.61814 182
16.63826 180
16.65837 168
16.67849 204
16.6986 213
16.71871 177
16.73883 195
16.75894 186
16.77905 169
16.79917 190
16.81928 222
16.8394 213
16.85951 188
16.87962 199
16.89974 179
16.91985 158
16.93996 173
16.96008 186
16.98019 184
17.00031 189
17.02042 185
17.04053 172
17.06065 204
17.08076 165
17.10087 174
17.12099 181
17.1411 184
17.16121 183
17.18133 191
17.20144 166
17.22156 161
17.24167 211
17.26178 205
17.2819 188
17.30201 193
17.32212 179
17.34224 176
17.36235 193
17.38247 182
17.40258 182
17.42269 199
17.44281 201
17.46292 210
17.48303 195
17.50315 188
17.52326 182
17.54338 180
17.56349 206
17.5836 211
17.60372 218
17.62383 199
17.64394 164
17.66406 234
17.68417 213
17.70428 211
17.7244 206
17.74451 172
17.76463 192
17.78474 208
17.80485 192
17.82497 206
17.84508 187
17.86519 215
17.88531 201
17.90542 197
17.92554 222
17.94565 232
17.96576 213
17.98588 199
18.00599 196
18.0261 208
18.04622 222
18.06633 218
18.08645 224
18.10656 212
18.12667 214
18.14679 202
18.1669 189
18.18701 196
18.20713 198
18.22724 168
18.24735 182
18.26747 204
18.28758 178
18.3077 206
18.32781 167
18.34792 182
18.36804 195
18.38815 186
18.40826 180
18.42838 183
18.44849 162
18.46861 194
18.48872 212
18.50883 190
18.52895 201
18.54906 177
18.56917 196
18.58929 197
18.6094 191
18.62951 203
18.64963 185
18.66974 207
18.68986 173
18.70997 184
18.73008 195
18.7502 198
18.77031 220
18.79042 187
18.81054 186
18.83065 212
18.85077 204
18.87088 213
18.89099 199
18.91111 215
18.93122 182
18.95133 196
18.97145 211
18.99156 186
19.01168 182
19.03179 197
19.0519 181
19.07202 212
19.09213 168
19.11224 188
19.13236 200
19.15247 188
19.17258 228
19.1927 209
19.21281 183
19.23293 212
19.25304 236
19.27315 240
19.29327 228
19.31338 251
19.33349 214
19.35361 216
19.37372 207
19.39384 203
19.41395 196
19.43406 199
19.45418 196
19.47429 198
19.4944 229
19.51452 223
19.53463 205
19.55475 230
19.57486 234
19.59497 238
19.61509 257
19.6352 259
19.65531 239
19.67543 263
19.69554 246
19.71565 257
19.73577 253
19.75588 237
19.776 233
19.79611 276
19.81622 262
19.83634 239
19.85645 257
19.87656 259
19.89668 253
19.91679 252
19.93691 287
19.95702 248
19.97713 251
19.99725 248
20.01736 230
20.03747 297
20.05759 239
20.0777 246
20.09782 240
20.11793 257
20.13804 268
20.15816 260
20.17827 220
20.19838 239
20.2185 267
20.23861 275
20.25872 268
20.27884 260
20.29895 286
20.31907 285
20.33918 316
20.35929 261
20.37941 264
20.39952 291
20.41963 329
20.43975 296
20.45986 320
20.47998 319
20.50009 327
20.5202 347
20.54032 333
20.56043 353
20.58054 346
20.60066 385
20.62077 381
20.64088 392
20.661 472
20.68111 509
20.70123 576
20.72134 742
20.74145 1048
20.76157 1455
20.78168 2091
20.80179 2954
20.82191 4051
20.84202 5037
20.86214 5857
20.88225 5841
20.90236 4930
20.92248 3703
20.94259 2555
20.9627 1714
20.98282 1162
21.00293 965
21.02305 893
21.04316 872
21.06327 789
21.08339 704
21.1035 577
21.12361 486
21.14373 416
21.16384 389
21.18395 380
21.20407 325
21.22418 304
21.2443 342
21.26441 304
21.28452 272
21.30464 259
21.32475 297
21.34486 302
21.36498 277
21.38509 247
21.40521 235
21.42532 243
21.44543 259
21.46555 229
21.48566 243
21.50577 276
21.52589 268
21.546 275
21.56612 260
21.58623 245
21.60634 291
21.62646 261
21.64657 250
21.66668 294
21.6868 255
21.70691 268
21.72702 239
21.74714 252
21.76725 249
21.78737 249
21.80748 260
21.82759 295
21.84771 291
21.86782 318
21.88793 327
21.90805 404
21.92816 430
21.94828 527
21.96839 648
21.9885 802
22.00862 828
22.02873 833
22.04884 781
22.06896 701
22.08907 631
22.10919 480
22.1293 406
22.14941 314
22.16953 283
22.18964 290
22.20975 287
22.22987 321
22.24998 294
22.27009 304
22.29021 291
22.31032 320
22.33044 315
22.35055 330
22.37066 321
22.39078 324
22.41089 299
22.431 306
22.45112 305
22.47123 315
22.49135 286
22.51146 298
22.53157 257
22.55169 284
22.5718 300
22.59191 294
22.61203 269
22.63214 292
22.65225 248
22.67237 285
22.69248 263
22.7126 252
22.73271 274
22.75282 253
22.77294 278
22.79305 269
22.81316 290
22.83328 275
22.85339 272
22.87351 317
22.89362 345
22.91373 334
22.93385 313
22.95396 346
22.97407 336
22.99419 322
23.0143 340
23.03442 318
23.05453 363
23.07464 338
23.09476 342
23.11487 319
23.13498 368
23.1551 377
23.17521 383
23.19532 377
23.21544 429
23.23555 374
23.25567 346
23.27578 403
23.29589 336
23.31601 337
23.33612 315
23.35623 293
23.37635 316
23.39646 311
23.41658 346
23.43669 328
23.4568 393
23.47692 387
23.49703 415
23.51714 498
23.53726 503
23.55737 567
23.57749 577
23.5976 612
23.61771 565
23.63783 578
23.65794 499
23.67805 466
23.69817 409
23.71828 394
23.73839 379
23.75851 392
23.77862 382
23.79874 396
23.81885 357
23.83896 448
23.85908 452
23.87919 450
23.8993 448
23.91942 423
23.93953 471
23.95965 524
23.97976 523
23.99987 568
24.01999 508
24.0401 532
24.06021 498
24.08033 468
24.10044 389
24.12056 377
24.14067 387
24.16078 394
24.1809 434
24.20101 409
24.22112 444
24.24124 487
24.26135 492
24.28146 508
24.30158 574
24.32169 570
24.34181 522
24.36192 457
24.38203 435
24.40215 395
24.42226 356
24.44237 351
24.46249 285
24.4826 303
24.50272 306
24.52283 278
24.54294 254
24.56306 254
24.58317 261
24.60328 286
24.6234 297
24.64351 299
24.66362 263
24.68374 299
24.70385 282
24.72397 274
24.74408 292
24.76419 312
24.78431 296
24.80442 243
24.82453 263
24.84465 234
24.86476 268
24.88488 283
24.90499 268
24.9251 258
24.94522 247
24.96533 257
24.98544 244
25.00556 288
25.02567 262
25.04579 283
25.0659 265
25.08601 268
25.10613 241
25.12624 259
25.14635 263
25.16647 307
25.18658 263
25.20669 282
25.22681 284
25.24692 290
25.26704 291
25.28715 286
25.30726 287
25.32738 279
25.34749 316
25.3676 331
25.38772 342
25.40783 333
25.42795 392
25.44806 404
25.46817 438
25.48829 480
25.5084 516
25.52851 565
25.54863 571
25.56874 585
25.58886 599
25.60897 632
25.62908 612
25.6492 623
25.66931 591
25.68942 601
25.70954 535
25.72965 518
25.74976 466
25.76988 422
25.78999 466
25.81011 437
25.83022 446
25.85033 449
25.87045 419
25.89056 439
25.91067 421
25.93079 368
25.9509 430
25.97102 429
25.99113 448
26.01124 421
26.03136 426
26.05147 418
26.07158 480
26.0917 461
26.11181 476
26.13193 534
26.15204 528
26.17215 551
26.19227 659
26.21238 690
26.23249 705
26.25261 737
26.27272 821
26.29283 833
26.31295 952
26.33306 1046
26.35318 1117
26.37329 1206
26.3934 1418
26.41352 1582
26.43363 1959
26.45374 2275
26.47386 2786
26.49397 3689
26.51409 4739
26.5342 6627
26.55431 9358
26.57443 12871
26.59454 17759
26.61465 22987
26.63477 26419
26.65488 26315
26.67499 21668
26.69511 17185
26.71522 13040
26.73534 9449
26.75545 5571
26.77556 3009
26.79568 1942
26.81579 1634
26.8359 1376
26.85602 1241
26.87613 1265
26.89625 1110
26.91636 1060
26.93647 1037
26.95659 920
26.9767 990
26.99681 936
27.01693 931
27.03704 967
27.05716 1031
27.07727 1030
27.09738 999
27.1175 902
27.13761 831
27.15772 745
27.17784 681
27.19795 638
27.21806 580
27.23818 587
27.25829 612
27.27841 573
27.29852 587
27.31863 640
27.33875 712
27.35886 780
27.37897 828
27.39909 968
27.4192 1057
27.43932 1169
27.45943 1297
27.47954 1288
27.49966 1348
27.51977 1232
27.53988 1052
27.56 958
27.58011 824
27.60023 786
27.62034 693
27.64045 680
27.66057 691
27.68068 726
27.70079 874
27.72091 925
27.74102 1066
27.76113 1073
27.78125 1163
27.80136 1152
27.82148 1169
27.84159 1196
27.8617 1128
27.88182 1199
27.90193 1225
27.92204 1238
27.94216 1292
27.96227 1294
27.98239 1199
28.0025 1203
28.02261 1059
28.04273 899
28.06284 810
28.08295 691
28.10307 643
28.12318 545
28.1433 500
28.16341 470
28.18352 455
28.20364 531
28.22375 500
28.24386 481
28.26398 509
28.28409 496
28.3042 508
28.32432 537
28.34443 471
28.36455 478
28.38466 444
28.40477 397
28.42489 382
28.445 390
28.46511 390
28.48523 369
28.50534 371
28.52546 374
28.54557 380
28.56568 401
28.5858 340
28.60591 359
28.62602 341
28.64614 357
28.66625 283
28.68636 305
28.70648 255
28.72659 262
28.74671 271
28.76682 268
28.78693 274
28.80705 257
28.82716 259
28.84727 291
28.86739 252
28.8875 236
28.90762 271
28.92773 279
28.94784 270
28.96796 258
28.98807 248
29.00818 247
29.0283 244
29.04841 255
29.06853 285
29.08864 271
29.10875 255
29.12887 250
29.14898 239
29.16909 267
29.18921 257
29.20932 260
29.22943 270
29.24955 238
29.26966 250
29.28978 260
29.30989 273
29.33 287
29.35012 289
29.37023 307
29.39034 356
29.41046 314
29.43057 341
29.45069 363
29.4708 361
29.49091 360
29.51103 348
29.53114 304
29.55125 311
29.57137 342
29.59148 312
29.6116 320
29.63171 341
29.65182 327
29.67194 349
29.69205 387
29.71216 353
29.73228 391
29.75239 407
29.7725 439
29.79262 414
29.81273 390
29.83285 424
29.85296 416
29.87307 417
29.89319 394
29.9133 365
29.93341 399
29.95353 372
29.97364 346
29.99376 328
30.01387 338
30.03398 353
30.0541 365
30.07421 382
30.09432 420
30.11444 430
30.13455 374
30.15467 426
30.17478 395
30.19489 439
30.21501 473
30.23512 436
30.25523 426
30.27535 471
30.29546 464
30.31557 440
30.33569 441
30.3558 463
30.37592 439
30.39603 475
30.41614 473
30.43626 467
30.45637 479
30.47648 489
30.4966 484
30.51671 410
30.53683 422
30.55694 397
30.57705 364
30.59717 366
30.61728 347
30.63739 315
30.65751 350
30.67762 368
30.69773 347
30.71785 362
30.73796 380
30.75808 465
30.77819 459
30.7983 462
30.81842 478
30.83853 420
30.85864 413
30.87876 401
30.89887 398
30.91899 375
30.9391 327
30.95921 328
30.97933 294
30.99944 280
31.01955 245
31.03967 250
31.05978 263
31.0799 255
31.10001 249
31.12012 264
31.14024 255
31.16035 252
31.18046 227
31.20058 272
31.22069 236
31.2408 291
31.26092 275
31.28103 271
31.30115 280
31.32126 261
31.34137 285
31.36149 276
31.3816 296
31.40171 292
31.42183 275
31.44194 281
31.46206 270
31.48217 254
31.50228 260
31.5224 276
31.54251 247
31.56262 244
31.58274 235
31.60285 246
31.62297 262
31.64308 214
31.66319 238
31.68331 232
31.70342 245
31.72353 276
31.74365 240
31.76376 234
31.78387 225
31.80399 256
31.8241 239
31.84422 260
31.86433 223
31.88444 218
31.90456 225
31.92467 215
31.94478 234
31.9649 203
31.98501 232
32.00513 237
32.02524 242
32.04535 245
32.06547 225
32.08558 243
32.10569 248
32.12581 255
32.14592 267
32.16604 269
32.18615 276
32.20626 256
32.22638 276
32.24649 274
32.2666 264
32.28672 284
32.30683 309
32.32694 297
32.34706 291
32.36717 277
32.38729 299
32.4074 283
32.42751 303
32.44763 321
32.46774 348
32.48785 327
32.50797 332
32.52808 315
32.5482 291
32.56831 287
32.58842 322
32.60854 280
32.62865 294
32.64876 282
32.66888 273
32.68899 278
32.7091 250
32.72922 266
32.74933 240
32.76945 236
32.78956 224
32.80967 228
32.82979 208
32.8499 252
32.87001 243
32.89013 262
32.91024 304
32.93036 314
32.95047 295
32.97058 321
32.9907 337
33.01081 310
33.03092 308
33.05104 305
33.07115 291
33.09127 261
33.11138 229
33.13149 215
33.15161 241
33.17172 227
33.19183 229
33.21195 233
33.23206 230
33.25217 200
33.27229 212
33.2924 243
33.31252 255
33.33263 225
33.35274 186
33.37286 227
33.39297 202
33.41308 227
33.4332 168
33.45331 231
33.47343 227
33.49354 207
33.51365 216
33.53377 192
33.55388 210
33.57399 240
33.59411 221
33.61422 203
33.63434 207
33.65445 203
33.67456 222
33.69468 222
33.71479 257
33.7349 247
33.75502 212
33.77513 236
33.79524 256
33.81536 258
33.83547 247
33.85559 279
33.8757 268
33.89581 253
33.91593 241
33.93604 222
33.95615 229
33.97627 247
33.99638 223
34.0165 233
34.03661 250
34.05672 233
34.07684 238
34.09695 251
34.11706 254
34.13718 244
34.15729 274
34.17741 293
34.19752 308
34.21763 270
34.23775 297
34.25786 274
34.27797 305
34.29809 323
34.3182 339
34.33831 278
34.35843 301
34.37854 293
34.39866 299
34.41877 338
34.43888 327
34.459 345
34.47911 320
34.49922 292
34.51934 320
34.53945 302
34.55957 320
34.57968 321
34.59979 306
34.61991 268
34.64002 285
34.66013 265
34.68025 311
34.70036 321
34.72047 338
34.74059 313
34.7607 263
34.78082 277
34.80093 290
34.82104 279
34.84116 292
34.86127 304
34.88138 291
34.9015 283
34.92161 319
34.94173 329
34.96184 338
34.98195 341
35.00207 365
35.02218 401
35.04229 374
35.06241 371
35.08252 393
35.10264 371
35.12275 392
35.14286 362
35.16298 371
35.18309 362
35.2032 366
35.22332 369
35.24343 395
35.26354 380
35.28366 375
35.30377 418
35.32389 387
35.344 371
35.36411 379
35.38423 397
35.40434 354
35.42445 362
35.44457 357
35.46468 350
35.4848 363
35.50491 355
35.52502 335
35.54514 363
35.56525 331
35.58536 339
35.60548 314
35.62559 318
35.64571 292
35.66582 282
35.68593 299
35.70605 272
35.72616 216
35.74627 247
35.76639 229
35.7865 270
35.80661 266
35.82673 231
35.84684 245
35.86696 256
35.88707 256
35.90718 263
35.9273 274
35.94741 249
35.96752 261
35.98764 258
36.00775 256
36.02787 244
36.04798 262
36.06809 262
36.08821 246
36.10832 278
36.12843 254
36.14855 294
36.16866 276
36.18878 288
36.20889 288
36.229 304
36.24912 311
36.26923 268
36.28934 326
36.30946 343
36.32957 334
36.34968 372
36.3698 426
36.38991 477
36.41003 606
36.43014 699
36.45025 911
36.47037 1128
36.49048 1415
36.51059 1761
36.53071 2009
36.55082 1882
36.57094 1578
36.59105 1291
36.61116 1098
36.63128 1088
36.65139 962
36.6715 727
36.69162 480
36.71173 371
36.73184 360
36.75196 337
36.77207 299
36.79219 301
36.8123 286
36.83241 274
36.85253 263
36.87264 277
36.89275 256
36.91287 285
36.93298 304
36.9531 289
36.97321 254
36.99332 299
37.01344 292
37.03355 285
37.05366 272
37.07378 243
37.09389 269
37.11401 242
37.13412 259
37.15423 236
37.17435 238
37.19446 273
37.21457 232
37.23469 239
37.2548 246
37.27491 267
37.29503 257
37.31514 263
37.33526 231
37.35537 243
37.37548 259
37.3956 240
37.41571 236
37.43582 264
37.45594 258
37.47605 264
37.49617 242
37.51628 276
37.53639 245
37.55651 261
37.57662 245
37.59673 245
37.61685 280
37.63696 284
37.65708 254
37.67719 232
37.6973 227
37.71742 242
37.73753 245
37.75764 253
37.77776 230
37.79787 227
37.81798 212
37.8381 212
37.85821 206
37.87833 214
37.89844 219
37.91855 194
37.93867 198
37.95878 203
37.97889 221
37.99901 224
38.01912 206
38.03924 208
38.05935 219
38.07946 202
38.09958 232
38.11969 207
38.1398 213
38.15992 202
38.18003 225
38.20015 252
38.22026 215
38.24037 239
38.26049 219
38.2806 227
38.30071 240
38.32083 256
38.34094 253
38.36105 234
38.38117 223
38.40128 258
38.4214 223
38.44151 227
38.46162 249
38.48174 236
38.50185 267
38.52196 266
38.54208 256
38.56219 282
38.58231 263
38.60242 246
38.62253 237
38.64265 247
38.66276 235
38.68287 250
38.70299 228
38.7231 225
38.74321 226
38.76333 222
38.78344 229
38.80356 231
38.82367 235
38.84378 216
38.8639 228
38.88401 198
38.90412 205
38.92424 218
38.94435 206
38.96447 233
38.98458 231
39.00469 238
39.02481 231
39.04492 229
39.06503 271
39.08515 257
39.10526 282
39.12538 282
39.14549 292
39.1656 282
39.18572 279
39.20583 291
39.22594 318
39.24606 324
39.26617 344
39.28628 386
39.3064 501
39.32651 510
39.34663 671
39.36674 856
39.38685 1056
39.40697 1222
39.42708 1480
39.44719 1656
39.46731 1699
39.48742 1518
39.50754 1166
39.52765 1027
39.54776 998
39.56788 937
39.58799 736
39.6081 534
39.62822 389
39.64833 314
39.66845 289
39.68856 267
39.70867 241
39.72879 244
39.7489 233
39.76901 211
39.78913 246
39.80924 239
39.82935 236
39.84947 235
39.86958 238
39.8897 235
39.90981 244
39.92992 221
39.95004 218
39.97015 224
39.99026 231
40.01038 250
40.03049 253
40.05061 229
40.07072 273
40.09083 272
40.11095 328
40.13106 336
40.15117 389
40.17129 447
40.1914 536
40.21152 608
40.23163 674
40.25174 820
40.27186 930
40.29197 950
40.31208 830
40.3322 681
40.35231 577
40.37242 609
40.39254 565
40.41265 470
40.43277 361
40.45288 304
40.47299 274
40.49311 252
40.51322 228
40.53333 237
40.55345 224
40.57356 233
40.59368 220
40.61379 222
40.6339 236
40.65402 216
40.67413 223
40.69424 203
40.71436 205
40.73447 207
40.75458 198
40.7747 231
40.79481 216
40.81493 196
40.83504 195
40.85515 208
40.87527 248
40.89538 226
40.91549 216
40.93561 258
40.95572 231
40.97584 223
40.99595 205
41.01606 200
41.03618 225
41.05629 217
41.0764 193
41.09652 221
41.11663 229
41.13675 214
41.15686 184
41.17697 204
41.19709 223
41.2172 226
41.23731 227
41.25743 240
41.27754 232
41.29765 211
41.31777 227
41.33788 197
41.358 211
41.37811 206
41.39822 197
41.41834 200
41.43845 221
41.45856 213
41.47868 251
41.49879 242
41.51891 224
41.53902 259
41.55913 239
41.57925 259
41.59936 278
41.61947 299
41.63959 289
41.6597 306
41.67982 307
41.69993 320
41.72004 369
41.74016 364
41.76027 360
41.78038 383
41.8005 375
41.82061 378
41.84072 367
41.86084 316
41.88095 270
41.90107 279
41.92118 288
41.94129 259
41.96141 235
41.98152 252
42.00163 244
42.02175 197
42.04186 238
42.06198 200
42.08209 234
42.1022 237
42.12232 238
42.14243 255
42.16254 299
42.18266 270
42.20277 286
42.22289 289
42.243 350
42.26311 379
42.28323 419
42.30334 483
42.32345 546
42.34357 656
42.36368 738
42.38379 953
42.40391 1118
42.42402 1222
42.44414 1287
42.46425 1199
42.48436 948
42.50448 786
42.52459 762
42.5447 740
42.56482 696
42.58493 576
42.60505 451
42.62516 330
42.64527 326
42.66539 310
42.6855 323
42.70561 313
42.72573 309
42.74584 280
42.76595 280
42.78607 294
42.80618 301
42.8263 283
42.84641 298
42.86652 236
42.88664 269
42.90675 262
42.92686 233
42.94698 227
42.96709 249
42.98721 220
43.00732 213
43.02743 221
43.04755 229
43.06766 236
43.08777 204
43.10789 243
43.128 210
43.14812 184
43.16823 208
43.18834 215
43.20846 193
43.22857 214
43.24868 200
43.2688 200
43.28891 207
43.30902 205
43.32914 221
43.34925 186
43.36937 163
43.38948 215
43.40959 186
43.42971 202
43.44982 203
43.46993 184
43.49005 188
43.51016 207
43.53028 204
43.55039 189
43.5705 172
43.59062 203
43.61073 219
43.63084 196
43.65096 178
43.67107 199
43.69119 212
43.7113 183
43.73141 221
43.75153 189
43.77164 196
43.79175 187
43.81187 197
43.83198 197
43.85209 191
43.87221 192
43.89232 207
43.91244 178
43.93255 182
43.95266 188
43.97278 194
43.99289 188
44.013 194
44.03312 204
44.05323 224
44.07335 215
44.09346 187
44.11357 234
44.13369 219
44.1538 225
44.17391 199
44.19403 193
44.21414 207
44.23426 206
44.25437 193
44.27448 204
44.2946 201
44.31471 185
44.33482 162
44.35494 194
44.37505 193
44.39516 164
44.41528 182
44.43539 195
44.45551 189
44.47562 179
44.49573 193
44.51585 195
44.53596 184
44.55607 202
44.57619 177
44.5963 200
44.61642 211
44.63653 195
44.65664 195
44.67676 214
44.69687 206
44.71698 229
44.7371 216
44.75721 205
44.77732 229
44.79744 203
44.81755 194
44.83767 210
44.85778 235
44.87789 202
44.89801 223
44.91812 220
44.93823 199
44.95835 225
44.97846 205
44.99858 192
45.01869 211
45.0388 209
45.05892 213
45.07903 204
45.09914 185
45.11926 203
45.13937 207
45.15949 217
45.1796 219
45.19971 214
45.21983 223
45.23994 194
45.26005 185
45.28017 192
45.30028 214
45.32039 194
45.34051 210
45.36062 223
45.38074 221
45.40085 234
45.42096 231
45.44108 239
45.46119 247
45.4813 239
45.50142 256
45.52153 283
45.54165 260
45.56176 268
45.58187 321
45.60199 303
45.6221 362
45.64221 392
45.66233 434
45.68244 535
45.70256 551
45.72267 675
45.74278 795
45.7629 833
45.78301 840
45.80312 770
45.82324 705
45.84335 582
45.86346 553
45.88358 528
45.90369 538
45.92381 458
45.94392 378
45.96403 295
45.98415 248
46.00426 257
46.02437 222
46.04449 218
46.0646 201
46.08472 215
46.10483 185
46.12494 200
46.14506 200
46.16517 233
46.18528 204
46.2054 202
46.22551 209
46.24563 191
46.26574 183
46.28585 191
46.30597 196
46.32608 173
46.34619 188
46.36631 174
46.38642 185
46.40653 167
46.42665 178
46.44676 190
46.46688 184
46.48699 165
46.5071 164
46.52722 167
46.54733 153
46.56744 195
46.58756 177
46.60767 165
46.62779 174
46.6479 161
46.66801 165
46.68813 169
46.70824 174
46.72835 185
46.74847 221
46.76858 190
46.78869 176
46.80881 185
46.82892 158
46.84904 190
46.86915 178
46.88926 198
46.90938 187
46.92949 190
46.9496 204
46.96972 161
46.98983 175
47.00995 211
47.03006 198
47.05017 216
47.07029 234
47.0904 199
47.11051 216
47.13063 198
47.15074 213
47.17086 217
47.19097 207
47.21108 221
47.2312 208
47.25131 181
47.27142 206
47.29154 203
47.31165 193
47.33176 199
47.35188 184
47.37199 207
47.39211 188
47.41222 192
47.43233 209
47.45245 202
47.47256 206
47.49267 226
47.51279 197
47.5329 172
47.55302 204
47.57313 198
47.59324 182
47.61336 195
47.63347 196
47.65358 202
47.6737 201
47.69381 179
47.71393 195
47.73404 162
47.75415 160
47.77427 188
47.79438 215
47.81449 169
47.83461 152
47.85472 176
47.87483 172
47.89495 173
47.91506 190
47.93518 178
47.95529 194
47.9754 175
47.99552 203
48.01563 201
48.03574 195
48.05586 168
48.07597 187
48.09609 169
48.1162 193
48.13631 210
48.15643 179
48.17654 185
48.19665 201
48.21677 208
48.23688 202
48.257 226
48.27711 228
48.29722 204
48.31734 214
48.33745 189
48.35756 196
48.37768 242
48.39779 219
48.4179 219
48.43802 184
48.45813 187
48.47825 180
48.49836 229
48.51847 210
48.53859 202
48.5587 204
48.57881 196
48.59893 211
48.61904 210
48.63916 219
48.65927 211
48.67938 250
48.6995 237
48.71961 217
48.73972 233
48.75984 217
48.77995 248
48.80006 197
48.82018 230
48.84029 235
48.86041 233
48.88052 228
48.90063 244
48.92075 249
48.94086 233
48.96097 249
48.98109 234
49.0012 234
49.02132 231
49.04143 235
49.06154 211
49.08166 242
49.10177 233
49.12188 232
49.142 284
49.16211 244
49.18223 280
49.20234 270
49.22245 225
49.24257 255
49.26268 253
49.28279 227
49.30291 220
49.32302 224
49.34313 225
49.36325 231
49.38336 224
49.40348 170
49.42359 219
49.4437 210
49.46382 196
49.48393 210
49.50404 190
49.52416 235
49.54427 202
49.56439 191
49.5845 254
49.60461 244
49.62473 226
49.64484 245
49.66495 254
49.68507 263
49.70518 295
49.7253 276
49.74541 313
49.76552 321
49.78564 372
49.80575 362
49.82586 383
49.84598 418
49.86609 453
49.8862 469
49.90632 466
49.92643 538
49.94655 633
49.96666 745
49.98677 865
50.00689 1003
50.027 1260
50.04711 1503
50.06723 1840
50.08734 2170
50.10746 2401
50.12757 2431
50.14768 2326
50.1678 1853
50.18791 1467
50.20802 1374
50.22814 1282
50.24825 1420
50.26837 1270
50.28848 988
50.30859 718
50.32871 542
50.34882 385
50.36893 378
50.38905 332
50.40916 312
50.42927 354
50.44939 354
50.4695 388
50.48962 382
50.50973 383
50.52984 396
50.54996 409
50.57007 365
50.59018 398
50.6103 422
50.63041 373
50.65053 395
50.67064 409
50.69075 347
50.71087 326
50.73098 311
50.75109 332
50.77121 313
50.79132 294
50.81143 289
50.83155 286
50.85166 221
50.87178 263
50.89189 252
50.912 256
50.93212 242
50.95223 211
50.97234 231
50.99246 217
51.01257 231
51.03269 228
51.0528 214
51.07291 248
51.09303 211
51.11314 218
51.13325 239
51.15337 228
51.17348 233
51.1936 228
51.21371 240
51.23382 227
51.25394 220
51.27405 221
51.29416 234
51.31428 242
51.33439 249
51.3545 220
51.37462 208
51.39473 221
51.41485 203
51.43496 233
51.45507 218
51.47519 192
51.4953 183
51.51541 197
51.53553 192
51.55564 177
51.57576 182
51.59587 175
51.61598 169
51.6361 165
51.65621 171
51.67632 170
51.69644 179
51.71655 153
51.73667 188
51.75678 170
51.77689 166
51.79701 179
51.81712 152
51.83723 163
51.85735 179
51.87746 173
51.89757 180
51.91769 189
51.9378 168
51.95792 176
51.97803 189
51.99814 173
52.01826 168
52.03837 183
52.05848 185
52.0786 170
52.09871 179
52.11883 178
52.13894 163
52.15905 185
52.17917 189
52.19928 167
52.21939 200
52.23951 163
52.25962 191
52.27974 177
52.29985 184
52.31996 173
52.34008 198
52.36019 171
52.3803 182
52.40042 210
52.42053 194
52.44064 187
52.46076 204
52.48087 184
52.50099 175
52.5211 170
52.54121 178
52.56133 201
52.58144 207
52.60155 211
52.62167 156
52.64178 184
52.6619 185
52.68201 196
52.70212 200
52.72224 178
52.74235 215
52.76246 195
52.78258 194
52.80269 202
52.8228 225
52.84292 211
52.86303 171
52.88315 217
52.90326 201
52.92337 208
52.94349 224
52.9636 188
52.98371 194
53.00383 205
53.02394 225
53.04406 224
53.06417 210
53.08428 238
53.1044 230
53.12451 218
53.14462 208
53.16474 196
53.18485 201
53.20497 210
53.22508 217
53.24519 221
53.26531 195
53.28542 220
53.30553 207
53.32565 204
53.34576 202
53.36587 204
53.38599 208
53.4061 186
53.42622 191
53.44633 178
53.46644 178
53.48656 166
53.50667 164
53.52678 194
53.5469 183
53.56701 204
53.58713 180
53.60724 173
53.62735 170
53.64747 198
53.66758 177
53.68769 196
53.70781 210
53.72792 185
53.74804 152
53.76815 194
53.78826 167
53.80838 171
53.82849 184
53.8486 203
53.86872 200
53.88883 206
53.90894 200
53.92906 207
53.94917 202
53.96929 169
53.9894 198
54.00951 230
54.02963 178
54.04974 199
54.06985 183
54.08997 208
54.11008 217
54.1302 189
54.15031 205
54.17042 200
54.19054 202
54.21065 184
54.23076 213
54.25088 203
54.27099 179
54.29111 210
54.31122 198
54.33133 196
54.35145 219
54.37156 232
54.39167 215
54.41179 216
54.4319 222
54.45201 202
54.47213 208
54.49224 210
54.51236 217
54.53247 187
54.55258 210
54.5727 215
54.59281 224
54.61292 251
54.63304 237
54.65315 268
54.67327 283
54.69338 303
54.71349 350
54.73361 389
54.75372 441
54.77383 519
54.79395 617
54.81406 691
54.83417 785
54.85429 805
54.8744 769
54.89452 668
54.91463 575
54.93474 490
54.95486 460
54.97497 497
54.99508 521
55.0152 476
55.03531 420
55.05543 359
55.07554 292
55.09565 261
55.11577 273
55.13588 257
55.15599 253
55.17611 269
55.19622 317
55.21634 344
55.23645 349
55.25656 385
55.27668 450
55.29679 455
55.3169 439
55.33702 391
55.35713 378
55.37724 345
55.39736 323
55.41747 324
55.43759 316
55.4577 318
55.47781 296
55.49793 320
55.51804 268
55.53815 240
55.55827 216
55.57838 199
55.5985 199
55.61861 186
55.63872 199
55.65884 192
55.67895 210
55.69906 180
55.71918 185
55.73929 202
55.75941 194
55.77952 200
55.79963 164
55.81975 161
55.83986 177
55.85997 168
55.88009 156
55.9002 176
55.92031 183
55.94043 197
55.96054 174
55.98066 179
56.00077 178
56.02088 201
56.041 180
56.06111 177
56.08122 176
56.10134 188
56.12145 191
56.14157 175
56.16168 176
56.18179 203
56.20191 173
56.22202 180
56.24213 186
56.26225 183
56.28236 174
56.30248 161
56.32259 165
56.3427 173
56.36282 165
56.38293 169
56.40304 182
56.42316 171
56.44327 187
56.46338 163
56.4835 189
56.50361 188
56.52373 184
56.54384 189
56.56395 198
56.58407 168
56.60418 171
56.62429 185
56.64441 194
56.66452 160
56.68464 178
56.70475 180
56.72486 188
56.74498 183
56.76509 195
56.7852 199
56.80532 165
56.82543 170
56.84554 173
56.86566 168
56.88577 191
56.90589 184
56.926 165
56.94611 177
56.96623 160
56.98634 161
57.00645 166
57.02657 165
57.04668 156
57.0668 163
57.08691 154
57.10702 176
57.12714 193
57.14725 178
57.16736 205
57.18748 188
57.20759 183
57.22771 192
57.24782 180
57.26793 195
57.28805 184
57.30816 178
57.32827 171
57.34839 176
57.3685 193
57.38861 198
57.40873 187
57.42884 200
57.44896 173
57.46907 160
57.48918 175
57.5093 182
57.52941 197
57.54952 187
57.56964 191
57.58975 189
57.60987 161
57.62998 181
57.65009 180
57.67021 183
57.69032 202
57.71043 168
57.73055 171
57.75066 199
57.77078 183
57.79089 174
57.811 181
57.83112 206
57.85123 211
57.87134 178
57.89146 172
57.91157 176
57.93168 192
57.9518 175
57.97191 171
57.99203 196
58.01214 194
58.03225 208
58.05237 160
58.07248 194
58.09259 187
58.11271 188
58.13282 180
58.15294 168
58.17305 184
58.19316 178
58.21328 158
58.23339 189
58.2535 158
58.27362 184
58.29373 168
58.31385 188
58.33396 177
58.35407 185
58.37419 173
58.3943 181
58.41441 184
58.43453 171
58.45464 181
58.47475 191
58.49487 159
58.51498 213
58.5351 195
58.55521 175
58.57532 193
58.59544 197
58.61555 191
58.63566 221
58.65578 186
58.67589 186
58.69601 166
58.71612 194
58.73623 193
58.75635 196
58.77646 202
58.79657 198
58.81669 196
58.8368 193
58.85691 195
58.87703 199
58.89714 177
58.91726 159
58.93737 178
58.95748 187
58.9776 164
58.99771 167
59.01782 161
59.03794 157
59.05805 155
59.07817 178
59.09828 153
59.11839 161
59.13851 155
59.15862 165
59.17873 174
59.19885 171
59.21896 205
59.23908 173
59.25919 172
59.2793 185
59.29942 185
59.31953 191
59.33964 172
59.35976 167
59.37987 190
59.39998 196
59.4201 213
59.44021 192
59.46033 184
59.48044 191
59.50055 178
59.52067 223
59.54078 229
59.56089 217
59.58101 221
59.60112 238
59.62124 239
59.64135 230
59.66146 263
59.68158 314
59.70169 326
59.7218 367
59.74192 420
59.76203 444
59.78215 580
59.80226 617
59.82237 743
59.84249 841
59.8626 1059
59.88271 1112
59.90283 1306
59.92294 1466
59.94305 1444
59.96317 1359
59.98328 1154
60.0034 878
60.02351 771
60.04362 756
60.06374 787
60.08385 846
60.10396 793
60.12408 709
60.14419 562
60.16431 441
60.18442 324
60.20453 288
60.22465 247
60.24476 250
60.26487 249
60.28499 199
60.3051 214
60.32522 215
60.34533 215
60.36544 210
60.38556 200
60.40567 199
60.42578 205
60.4459 180
60.46601 201
60.48612 178
60.50624 166
60.52635 176
60.54647 177
60.56658 196
60.58669 182
60.60681 168
60.62692 201
60.64703 159
60.66715 180
60.68726 174
60.70738 170
60.72749 160
60.7476 182
60.76772 197
60.78783 171
60.80794 208
60.82806 171
60.84817 193
60.86828 194
60.8884 189
60.90851 177
60.92863 172
60.94874 177
60.96885 183
60.98897 165
61.00908 181
61.02919 183
61.04931 172
61.06942 194
61.08954 207
61.10965 201
61.12976 187
61.14988 206
61.16999 200
61.1901 210
61.21022 187
61.23033 187
61.25045 184
61.27056 198
61.29067 165
61.31079 188
61.3309 215
61.35101 195
61.37113 197
61.39124 170
61.41135 175
61.43147 198
61.45158 209
61.4717 196
61.49181 182
61.51192 205
61.53204 163
61.55215 171
61.57226 203
61.59238 180
61.61249 184
61.63261 201
61.65272 205
61.67283 197
61.69295 183
61.71306 191
61.73317 184
61.75329 180
61.7734 202
61.79352 172
61.81363 182
61.83374 186
61.85386 174
61.87397 188
61.89408 192
61.9142 169
61.93431 179
61.95442 189
61.97454 161
61.99465 176
62.01477 175
62.03488 171
62.05499 168
62.07511 196
62.09522 187
62.11533 186
62.13545 174
62.15556 174
62.17568 165
62.19579 190
62.2159 178
62.23602 169
62.25613 157
62.27624 181
62.29636 166
62.31647 171
62.33659 177
62.3567 181
62.37681 199
62.39693 177
62.41704 176
62.43715 201
62.45727 175
62.47738 174
62.49749 177
62.51761 126
62.53772 183
62.55784 162
62.57795 160
62.59806 160
62.61818 183
62.63829 170
62.6584 172
62.67852 172
62.69863 183
62.71875 170
62.73886 170
62.75897 180
62.77909 165
62.7992 195
62.81931 192
62.83943 161
62.85954 205
62.87965 180
62.89977 182
62.91988 179
62.94 156
62.96011 193
62.98022 185
63.00034 196
63.02045 172
63.04056 179
63.06068 182
63.08079 178
63.10091 170
63.12102 183
63.14113 183
63.16125 178
63.18136 192
63.20147 193
63.22159 192
63.2417 178
63.26182 170
63.28193 165
63.30204 177
63.32216 191
63.34227 191
63.36238 179
63.3825 177
63.40261 169
63.42272 200
63.44284 184
63.46295 217
63.48307 178
63.50318 200
63.52329 201
63.54341 192
63.56352 193
63.58363 211
63.60375 191
63.62386 227
63.64398 213
63.66409 202
63.6842 206
63.70432 212
63.72443 214
63.74454 228
63.76466 219
63.78477 255
63.80489 256
63.825 262
63.84511 277
63.86523 286
63.88534 319
63.90545 337
63.92557 342
63.94568 334
63.96579 385
63.98591 386
64.00602 426
64.02614 410
64.04625 393
64.06636 338
64.08648 286
64.10659 262
64.1267 273
64.14682 290
64.16693 285
64.18705 311
64.20716 283
64.22727 225
64.24739 200
64.2675 217
64.28761 193
64.30773 179
64.32784 193
64.34796 171
64.36807 178
64.38818 169
64.4083 156
64.42841 167
64.44852 168
64.46864 172
64.48875 154
64.50886 168
64.52898 154
64.54909 175
64.56921 169
64.58932 177
64.60943 160
64.62955 167
64.64966 175
64.66977 144
64.68989 187
64.71 151
64.73012 174
64.75023 184
64.77034 166
64.79046 151
64.81057 151
64.83068 172
64.8508 157
64.87091 167
64.89102 162
64.91114 190
64.93125 182
64.95137 175
64.97148 158
64.99159 190
65.01171 176
65.03182 174
65.05193 188
65.07205 196
65.09216 197
65.11228 192
65.13239 162
65.1525 164
65.17262 191
65.19273 177
65.21284 187
65.23296 185
65.25307 190
65.27319 171
65.2933 174
65.31341 185
65.33353 143
65.35364 182
65.37375 173
65.39387 211
65.41398 204
65.43409 196
65.45421 160
65.47432 175
65.49444 193
65.51455 170
65.53466 206
65.55478 150
65.57489 185
65.595 186
65.61512 181
65.63523 193
65.65535 193
65.67546 204
65.69557 194
65.71569 227
65.7358 202
65.75591 197
65.77603 224
65.79614 194
65.81626 176
65.83637 189
65.85648 155
65.8766 199
65.89671 204
65.91682 164
65.93694 164
65.95705 190
65.97716 194
65.99728 171
66.01739 152
66.03751 178
66.05762 158
66.07773 167
66.09785 157
66.11796 167
66.13807 153
66.15819 171
66.1783 159
66.19842 161
66.21853 161
66.23864 174
66.25876 194
66.27887 167
66.29898 182
66.3191 178
66.33921 148
66.35933 158
66.37944 171
66.39955 196
66.41967 150
66.43978 176
66.45989 166
66.48001 174
66.50012 177
66.52023 175
66.54035 161
66.56046 168
66.58058 169
66.60069 152
66.6208 145
66.64092 163
66.66103 186
66.68114 153
66.70126 142
66.72137 152
66.74149 152
66.7616 158
66.78171 139
66.80183 174
66.82194 150
66.84205 180
66.86217 152
66.88228 158
66.90239 174
66.92251 175
66.94262 197
66.96274 164
66.98285 142
67.00296 163
67.02308 167
67.04319 166
67.0633 182
67.08342 158
67.10353 201
67.12365 176
67.14376 174
67.16387 188
67.18399 183
67.2041 174
67.22421 192
67.24433 177
67.26444 196
67.28456 184
67.30467 204
67.32478 193
67.3449 195
67.36501 217
67.38512 231
67.40524 221
67.42535 243
67.44546 225
67.46558 255
67.48569 267
67.50581 305
67.52592 285
67.54603 365
67.56615 404
67.58626 450
67.60637 505
67.62649 580
67.6466 671
67.66672 726
67.68683 809
67.70694 797
67.72706 861
67.74717 803
67.76728 682
67.7874 613
67.80751 538
67.82763 531
67.84774 547
67.86785 589
67.88797 638
67.90808 628
67.92819 628
67.94831 667
67.96842 646
67.98853 611
68.00865 736
68.02876 773
68.04888 880
68.06899 942
68.0891 995
68.10922 1083
68.12933 1174
68.14944 1096
68.16956 1007
68.18967 940
68.20979 873
68.2299 895
68.25001 973
68.27013 985
68.29024 1050
68.31035 1094
68.33047 919
68.35058 766
68.3707 619
68.39081 540
68.41092 509
68.43104 437
68.45115 462
68.47126 453
68.49138 423
68.51149 376
68.5316 347
68.55172 292
68.57183 257
68.59195 222
68.61206 208
68.63217 209
68.65229 194
68.6724 197
68.69251 180
68.71263 200
68.73274 186
68.75286 195
68.77297 210
68.79308 192
68.8132 160
68.83331 176
68.85342 165
68.87354 158
68.89365 173
68.91376 157
68.93388 160
68.95399 167
68.97411 155
68.99422 152
69.01433 168
69.03445 163
69.05456 164
69.07467 152
69.09479 177
69.1149 163
69.13502 180
69.15513 157
69.17524 170
69.19536 161
69.21547 164
69.23558 162
69.2557 175
69.27581 153
69.29593 165
69.31604 172
69.33615 156
69.35627 179
69.37638 178
69.39649 174
69.41661 192
69.43672 176
69.45683 149
69.47695 174
69.49706 177
69.51718 155
69.53729 183
69.5574 166
69.57752 161
69.59763 186
69.61774 179
69.63786 160
69.65797 152
69.67809 183
69.6982 153
69.71831 174
69.73843 179
69.75854 162
69.77865 177
69.79877 195
69.81888 146
69.839 184
69.85911 174
69.87922 167
69.89934 166
69.91945 157
69.93956 171
69.95968 162
69.97979 160
69.9999 154
70.02002 179
70.04013 163
70.06025 172
70.08036 148
70.10047 153
70.12059 153
70.1407 140
70.16081 156
70.18093 155
70.20104 153
70.22116 151
70.24127 139
70.26138 156
70.2815 140
70.30161 149
70.32172 122
70.34184 145
70.36195 139
70.38207 143
70.40218 154
70.42229 136
70.44241 162
70.46252 155
70.48263 135
70.50275 160
70.52286 127
70.54297 140
70.56309 142
70.5832 156
70.60332 150
70.62343 120
70.64354 134
70.66366 152
70.68377 174
70.70388 151
70.724 142
70.74411 149
70.76423 132
70.78434 163
70.80445 152
70.82457 146
70.84468 149
70.86479 154
70.88491 154
70.90502 144
70.92513 163
70.94525 159
70.96536 139
70.98548 132
71.00559 149
71.0257 149
71.04582 158
71.06593 157
71.08604 166
71.10616 159
71.12627 165
71.14639 133
71.1665 128
71.18661 146
71.20673 146
71.22684 130
71.24695 123
71.26707 147
71.28718 143
71.3073 141
71.32741 155
71.34752 160
71.36764 142
71.38775 157
71.40786 151
71.42798 149
71.44809 153
71.4682 160
71.48832 150
71.50843 160
71.52855 136
71.54866 166
71.56877 164
71.58889 175
71.609 121
71.62911 162
71.64923 149
71.66934 161
71.68946 170
71.70957 159
71.72968 148
71.7498 157
71.76991 164
71.79002 163
71.81014 132
71.83025 153
71.85037 157
71.87048 149
71.89059 131
71.91071 151
71.93082 129
71.95093 151
71.97105 138
71.99116 148
72.01127 149
72.03139 155
72.0515 155
72.07162 130
72.09173 129
72.11184 148
72.13196 150
72.15207 153
72.17218 133
72.1923 160
72.21241 134
72.23253 131
72.25264 143
72.27275 123
72.29287 156
72.31298 147
72.33309 151
72.35321 152
72.37332 129
72.39344 145
72.41355 151
72.43366 162
72.45378 138
72.47389 140
72.494 142
72.51412 137
72.53423 135
72.55434 144
72.57446 120
72.59457 140
72.61469 142
72.6348 144
72.65491 156
72.67503 163
72.69514 152
72.71525 155
72.73537 133
72.75548 133
72.7756 138
72.79571 147
72.81582 145
72.83594 134
72.85605 150
72.87616 160
72.89628 142
72.91639 145
72.9365 154
72.95662 162
72.97673 144
72.99685 152
73.01696 152
73.03707 181
73.05719 155
73.0773 155
73.09741 163
73.11753 168
73.13764 165
73.15776 167
73.17787 188
73.19798 175
73.2181 194
73.23821 192
73.25832 190
73.27844 208
73.29855 220
73.31867 278
73.33878 271
73.35889 287
73.37901 325
73.39912 322
73.41923 344
73.43935 395
73.45946 385
73.47957 342
73.49969 299
73.5198 284
73.53992 219
73.56003 249
73.58014 245
73.60026 235
73.62037 224
73.64048 243
73.6606 240
73.68071 270
73.70083 242
73.72094 204
73.74105 172
73.76117 159
73.78128 167
73.80139 167
73.82151 155
73.84162 181
73.86174 176
73.88185 166
73.90196 149
73.92208 147
73.94219 146
73.9623 167
73.98242 149
74.00253 139
74.02264 146
74.04276 136
74.06287 135
74.08299 138
74.1031 137
74.12321 150
74.14333 140
74.16344 131
74.18355 151
74.20367 164
74.22378 144
74.2439 133
74.26401 142
74.28412 145
74.30424 142
74.32435 158
74.34446 171
74.36458 133
74.38469 154
74.40481 154
74.42492 157
74.44503 168
74.46515 162
74.48526 157
74.50537 160
74.52549 182
74.5456 131
74.56571 159
74.58583 159
74.60594 184
74.62606 140
74.64617 138
74.66628 158
74.6864 153
74.70651 159
74.72662 130
74.74674 165
74.76685 154
74.78697 149
74.80708 145
74.82719 144
74.84731 141
74.86742 142
74.88753 145
74.90765 128
74.92776 148
74.94787 148
74.96799 160
74.9881 140
75.00822 146
