3.00117 18974
3.02128 18240
3.0414 17588
3.06151 17372
3.08162 16883
3.10174 16448
3.12185 15623
3.14197 15539
3.16208 15089
3.18219 14593
3.20231 14115
3.22242 13677
3.24253 13438
3.26265 13067
3.28276 12402
3.30288 12178
3.32299 11707
3.3431 11330
3.36322 11170
3.38333 10710
3.40344 10325
3.42356 10111
3.44367 9526
3.46379 9315
3.4839 8776
3.50401 8854
3.52413 8377
3.54424 8055
3.56435 7919
3.58447 7613
3.60458 7464
3.62469 6800
3.64481 6637
3.66492 6554
3.68504 6199
3.70515 6101
3.72526 5645
3.74538 5430
3.76549 5282
3.7856 5065
3.80572 4900
3.82583 4752
3.84595 4341
3.86606 4205
3.88617 4057
3.90629 3929
3.9264 3652
3.94651 3597
3.96663 3521
3.98674 3285
4.00686 3274
4.02697 2937
4.04708 2979
4.0672 2772
4.08731 2671
4.10742 2508
4.12754 2395
4.14765 2310
4.16776 2258
4.18788 2244
4.20799 2075
4.22811 1942
4.24822 1799
4.26833 1906
4.28845 1783
4.30856 1656
4.32867 1628
4.34879 1602
4.3689 1648
4.38902 1587
4.40913 1495
4.42924 1412
4.44936 1342
4.46947 1400
4.48958 1362
4.5097 1272
4.52981 1257
4.54992 1257
4.57004 1225
4.59015 1227
4.61027 1143
4.63038 1041
4.65049 1064
4.67061 1153
4.69072 1039
4.71083 958
4.73095 962
4.75106 972
4.77118 930
4.79129 935
4.8114 876
4.83152 826
4.85163 818
4.87174 846
4.89186 842
4.91197 789
4.93209 793
4.9522 748
4.97231 751
4.99243 737
5.01254 681
5.03265 727
5.05277 674
5.07288 652
5.09299 681
5.11311 612
5.13322 631
5.15334 574
5.17345 615
5.19356 571
5.21368 569
5.23379 503
5.2539 531
5.27402 510
5.29413 529
5.31425 486
5.33436 453
5.35447 483
5.37459 486
5.3947 491
5.41481 456
5.43493 445
5.45504 440
5.47516 426
5.49527 435
5.51538 396
5.5355 380
5.55561 421
5.57572 399
5.59584 397
5.61595 359
5.63606 376
5.65618 365
5.67629 328
5.69641 330
5.71652 313
5.73663 354
5.75675 315
5.77686 326
5.79697 308
5.81709 283
5.8372 326
5.85732 329
5.87743 315
5.89754 279
5.91766 285
5.93777 287
5.95788 323
5.978 269
5.99811 278
6.01823 302
6.03834 251
6.05845 264
6.07857 297
6.09868 282
6.11879 303
6.13891 244
6.15902 258
6.17913 278
6.19925 273
6.21936 268
6.23948 255
6.25959 257
6.2797 279
6.29982 230
6.31993 268
6.34004 255
6.36016 248
6.38027 246
6.40039 259
6.4205 241
6.44061 219
6.46073 260
6.48084 240
6.50095 224
6.52107 217
6.54118 243
6.56129 249
6.58141 253
6.60152 255
6.62164 229
6.64175 244
6.66186 226
6.68198 253
6.70209 238
6.7222 232
6.74232 225
6.76243 246
6.78255 242
6.80266 239
6.82277 252
6.84289 253
6.863 249
6.88311 224
6.90323 211
6.92334 236
6.94346 253
6.96357 239
6.98368 214
7.0038 241
7.02391 238
7.04402 231
7.06414 213
7.08425 231
7.10436 229
7.12448 206
7.14459 249
7.16471 214
7.18482 235
7.20493 222
7.22505 241
7.24516 204
7.26527 225
7.28539 186
7.3055 241
7.32562 222
7.34573 232
7.36584 248
7.38596 234
7.40607 236
7.42618 250
7.4463 218
7.46641 246
7.48653 225
7.50664 207
7.52675 223
7.54687 231
7.56698 218
7.58709 243
7.60721 213
7.62732 232
7.64743 223
7.66755 266
7.68766 211
7.70778 237
7.72789 200
7.748 197
7.76812 249
7.78823 256
7.80834 255
7.82846 239
7.84857 230
7.86869 240
7.8888 240
7.90891 258
7.92903 237
7.94914 235
7.96925 238
7.98937 221
8.00948 244
8.0296 234
8.04971 252
8.06982 240
8.08994 240
8.11005 229
8.13016 245
8.15028 237
8.17039 272
8.1905 230
8.21062 237
8.23073 271
8.25085 256
8.27096 263
8.29107 270
8.31119 253
8.3313 233
8.35141 235
8.37153 244
8.39164 290
8.41176 265
8.43187 247
8.45198 240
8.4721 274
8.49221 280
8.51232 235
8.53244 243
8.55255 280
8.57266 252
8.59278 268
8.61289 265
8.63301 276
8.65312 307
8.67323 281
8.69335 293
8.71346 267
8.73357 328
8.75369 263
8.7738 307
8.79392 296
8.81403 320
8.83414 301
8.85426 309
8.87437 293
8.89448 307
8.9146 278
8.93471 291
8.95483 282
8.97494 265
8.99505 330
9.01517 278
9.03528 312
9.05539 260
9.07551 271
9.09562 244
9.11573 252
9.13585 284
9.15596 275
9.17608 251
9.19619 262
9.2163 253
9.23642 285
9.25653 259
9.27664 263
9.29676 267
9.31687 268
9.33699 274
9.3571 231
9.37721 225
9.39733 226
9.41744 290
9.43755 241
9.45767 231
9.47778 218
9.4979 249
9.51801 218
9.53812 226
9.55824 277
9.57835 250
9.59846 236
9.61858 294
9.63869 258
9.6588 246
9.67892 272
9.69903 227
9.71915 251
9.73926 260
9.75937 246
9.77949 256
9.7996 261
9.81971 285
9.83983 219
9.85994 266
9.88006 234
9.90017 236
9.92028 242
9.9404 210
9.96051 244
9.98062 280
10.00074 262
10.02085 276
10.04097 257
10.06108 239
10.08119 235
10.10131 282
10.12142 249
10.14153 231
10.16165 247
10.18176 258
10.20187 237
10.22199 227
10.2421 273
10.26222 266
10.28233 269
10.30244 252
10.32256 252
10.34267 246
10.36278 255
10.3829 244
10.40301 224
10.42313 242
10.44324 276
10.46335 241
10.48347 254
10.50358 247
10.52369 271
10.54381 278
10.56392 233
10.58403 269
10.60415 253
10.62426 235
10.64438 261
10.66449 231
10.6846 279
10.70472 235
10.72483 235
10.74494 221
10.76506 248
10.78517 265
10.80529 232
10.8254 251
10.84551 258
10.86563 254
10.88574 264
10.90585 254
10.92597 205
10.94608 266
10.9662 264
10.98631 268
11.00642 263
11.02654 234
11.04665 239
11.06676 253
11.08688 251
11.10699 244
11.1271 297
11.14722 266
11.16733 239
11.18745 268
11.20756 275
11.22767 267
11.24779 243
11.2679 264
11.28801 260
11.30813 235
11.32824 285
11.34836 246
11.36847 261
11.38858 279
11.4087 253
11.42881 250
11.44892 293
11.46904 262
11.48915 264
11.50927 302
11.52938 283
11.54949 334
11.56961 289
11.58972 292
11.60983 288
11.62995 287
11.65006 283
11.67017 277
11.69029 290
11.7104 282
11.73052 318
11.75063 293
11.77074 284
11.79086 349
11.81097 342
11.83108 299
11.8512 274
11.87131 345
11.89143 339
11.91154 381
11.93165 331
11.95177 325
11.97188 338
11.99199 313
12.01211 331
12.03222 372
12.05234 348
12.07245 378
12.09256 357
12.11268 388
12.13279 405
12.1529 383
12.17302 369
12.19313 403
12.21324 400
12.23336 375
12.25347 392
12.27359 418
12.2937 411
12.31381 384
12.33393 393
12.35404 404
12.37415 393
12.39427 391
12.41438 363
12.4345 361
12.45461 398
12.47472 368
12.49484 343
12.51495 338
12.53506 347
12.55518 324
12.57529 295
12.5954 295
12.61552 300
12.63563 321
12.65575 322
12.67586 298
12.69597 255
12.71609 270
12.7362 280
12.75631 281
12.77643 300
12.79654 244
12.81666 250
12.83677 236
12.85688 248
12.877 234
12.89711 285
12.91722 250
12.93734 246
12.95745 263
12.97757 270
12.99768 291
13.01779 293
13.03791 281
13.05802 317
13.07813 304
13.09825 265
13.11836 286
13.13847 282
13.15859 306
13.1787 251
13.19882 264
13.21893 246
13.23904 240
13.25916 243
13.27927 236
13.29938 237
13.3195 221
13.33961 216
13.35973 248
13.37984 225
13.39995 215
13.42007 220
13.44018 229
13.46029 249
13.48041 244
13.50052 242
13.52064 266
13.54075 239
13.56086 275
13.58098 285
13.60109 282
13.6212 322
13.64132 301
13.66143 274
13.68154 313
13.70166 272
13.72177 270
13.74189 282
13.762 257
13.78211 249
13.80223 245
13.82234 256
13.84245 217
13.86257 255
13.88268 213
13.9028 241
13.92291 225
13.94302 245
13.96314 216
13.98325 256
14.00336 249
14.02348 220
14.04359 228
14.06371 232
14.08382 233
14.10393 204
14.12405 201
14.14416 208
14.16427 219
14.18439 230
14.2045 192
14.22461 221
14.24473 216
14.26484 186
14.28496 231
14.30507 211
14.32518 218
14.3453 175
14.36541 199
14.38552 188
14.40564 211
14.42575 231
14.44587 215
14.46598 221
14.48609 189
14.50621 211
14.52632 215
14.54643 226
14.56655 190
14.58666 226
14.60677 213
14.62689 198
14.647 236
14.66712 186
14.68723 197
14.70734 228
14.72746 194
14.74757 224
14.76768 220
14.7878 237
14.80791 242
14.82803 230
14.84814 260
14.86825 243
14.88837 263
14.90848 238
14.92859 274
14.94871 241
14.96882 235
14.98894 243
15.00905 221
15.02916 180
15.04928 244
15.06939 206
15.0895 226
15.10962 203
15.12973 214
15.14984 223
15.16996 225
15.19007 238
15.21019 229
15.2303 205
15.25041 211
15.27053 223
15.29064 240
15.31075 194
15.33087 205
15.35098 201
15.3711 211
15.39121 179
15.41132 186
15.43144 191
15.45155 176
15.47166 210
15.49178 179
15.51189 191
15.53201 212
15.55212 189
15.57223 217
15.59235 216
15.61246 177
15.63257 184
15.65269 210
15.6728 207
15.69291 174
15.71303 195
15.73314 224
15.75326 203
15.77337 185
15.79348 192
15.8136 200
15.83371 199
15.85382 203
15.87394 185
15.89405 192
15.91417 197
15.93428 206
15.95439 187
15.97451 217
15.99462 207
16.01473 191
16.03485 183
16.05496 176
16.07508 163
16.09519 176
16.1153 206
16.13542 188
16.15553 178
16.17564 194
16.19576 215
16.21587 180
16.23598 190
16.2561 195
16.27621 170
16.29633 199
16.31644 195
16.33655 197
16.35667 219
16.37678 171
16.39689 195
16.41701 189
16.43712 212
16.45724 176
16.47735 204
16.49746 190
16.51758 183
16.53769 212
16.5578 175
16.57792 162
16.59803 184
16.61814 193
16.63826 199
16.65837 187
16.67849 195
16.6986 173
16.71871 176
16.73883 183
16.75894 231
16.77905 182
16.79917 187
16.81928 183
16.8394 191
16.85951 180
16.87962 188
16.89974 223
16.91985 193
16.93996 182
16.96008 202
16.98019 189
17.00031 171
17.02042 173
17.04053 182
17.06065 202
17.08076 163
17.10087 191
17.12099 183
17.1411 173
17.16121 197
17.18133 167
17.20144 203
17.22156 185
17.24167 179
17.26178 194
17.2819 181
17.30201 202
17.32212 188
17.34224 160
17.36235 188
17.38247 157
17.40258 181
17.42269 202
17.44281 181
17.46292 173
17.48303 187
17.50315 188
17.52326 190
17.54338 192
17.56349 214
17.5836 197
17.60372 229
17.62383 186
17.64394 204
17.66406 210
17.68417 204
17.70428 203
17.7244 189
17.74451 201
17.76463 167
17.78474 171
17.80485 200
17.82497 179
17.84508 212
17.86519 230
17.88531 188
17.90542 184
17.92554 196
17.94565 170
17.96576 214
17.98588 175
18.00599 222
18.0261 224
18.04622 197
18.06633 194
18.08645 224
18.10656 211
18.12667 191
18.14679 186
18.1669 175
18.18701 191
18.20713 203
18.22724 187
18.24735 184
18.26747 207
18.28758 198
18.3077 231
18.32781 215
18.34792 192
18.36804 207
18.38815 192
18.40826 212
18.42838 190
18.44849 227
18.46861 197
18.48872 191
18.50883 191
18.52895 234
18.54906 201
18.56917 179
18.58929 170
18.6094 170
18.62951 189
18.64963 195
18.66974 186
18.68986 201
18.70997 213
18.73008 199
18.7502 195
18.77031 172
18.79042 157
18.81054 217
18.83065 200
18.85077 193
18.87088 200
18.89099 181
18.91111 199
18.93122 221
18.95133 208
18.97145 198
18.99156 198
19.01168 210
19.03179 205
19.0519 219
19.07202 187
19.09213 182
19.11224 196
19.13236 211
19.15247 237
19.17258 223
19.1927 232
19.21281 220
19.23293 220
19.25304 252
19.27315 233
19.29327 242
19.31338 242
19.33349 223
19.35361 236
19.37372 218
19.39384 213
19.41395 248
19.43406 257
19.45418 243
19.47429 249
19.4944 242
19.51452 248
19.53463 231
19.55475 224
19.57486 275
19.59497 259
19.61509 241
19.6352 326
19.65531 312
19.67543 327
19.69554 349
19.71565 388
19.73577 383
19.75588 395
19.776 430
19.79611 405
19.81622 443
19.83634 456
19.85645 456
19.87656 464
19.89668 443
19.91679 490
19.93691 425
19.95702 476
19.97713 440
19.99725 421
20.01736 464
20.03747 470
20.05759 393
20.0777 443
20.09782 412
20.11793 440
20.13804 403
20.15816 438
20.17827 394
20.19838 422
20.2185 417
20.23861 370
20.25872 394
20.27884 399
20.29895 432
20.31907 403
20.33918 428
20.35929 407
20.37941 427
20.39952 448
20.41963 454
20.43975 447
20.45986 471
20.47998 410
20.50009 476
20.5202 477
20.54032 506
20.56043 488
20.58054 550
20.60066 603
20.62077 686
20.64088 830
20.661 987
20.68111 1136
20.70123 1412
20.72134 1848
20.74145 2177
20.76157 2675
20.78168 3129
20.80179 3661
20.82191 3933
20.84202 3996
20.86214 3831
20.88225 3509
20.90236 2907
20.92248 2469
20.94259 1927
20.9627 1519
20.98282 1298
21.00293 1110
21.02305 1064
21.04316 890
21.06327 825
21.08339 691
21.1035 634
21.12361 538
21.14373 506
21.16384 419
21.18395 398
21.20407 380
21.22418 404
21.2443 399
21.26441 371
21.28452 345
21.30464 383
21.32475 357
21.34486 341
21.36498 354
21.38509 314
21.40521 355
21.42532 325
21.44543 364
21.46555 331
21.48566 370
21.50577 326
21.52589 345
21.546 364
21.56612 331
21.58623 329
21.60634 309
21.62646 358
21.64657 323
21.66668 292
21.6868 287
21.70691 328
21.72702 311
21.74714 293
21.76725 327
21.78737 300
21.80748 292
21.82759 289
21.84771 316
21.86782 331
21.88793 368
21.90805 339
21.92816 382
21.94828 382
21.96839 362
21.9885 350
22.00862 406
22.02873 356
22.04884 343
22.06896 364
22.08907 336
22.10919 328
22.1293 347
22.14941 349
22.16953 351
22.18964 371
22.20975 380
22.22987 382
22.24998 401
22.27009 397
22.29021 431
22.31032 437
22.33044 378
22.35055 332
22.37066 343
22.39078 329
22.41089 294
22.431 337
22.45112 313
22.47123 337
22.49135 297
22.51146 336
22.53157 344
22.55169 355
22.5718 338
22.59191 337
22.61203 334
22.63214 310
22.65225 325
22.67237 297
22.69248 311
22.7126 308
22.73271 320
22.75282 289
22.77294 313
22.79305 312
22.81316 296
22.83328 306
22.85339 309
22.87351 330
22.89362 320
22.91373 352
22.93385 336
22.95396 340
22.97407 364
22.99419 379
23.0143 369
23.03442 441
23.05453 430
23.07464 469
23.09476 456
23.11487 519
23.13498 526
23.1551 543
23.17521 516
23.19532 561
23.21544 530
23.23555 497
23.25567 405
23.27578 399
23.29589 373
23.31601 352
23.33612 316
23.35623 327
23.37635 326
23.39646 286
23.41658 298
23.43669 267
23.4568 301
23.47692 292
23.49703 317
23.51714 329
23.53726 341
23.55737 321
23.57749 327
23.5976 348
23.61771 382
23.63783 294
23.65794 328
23.67805 315
23.69817 327
23.71828 355
23.73839 325
23.75851 344
23.77862 307
23.79874 361
23.81885 401
23.83896 391
23.85908 450
23.87919 483
23.8993 520
23.91942 539
23.93953 622
23.95965 584
23.97976 594
23.99987 567
24.01999 542
24.0401 488
24.06021 513
24.08033 468
24.10044 403
24.12056 383
24.14067 435
24.16078 394
24.1809 397
24.20101 443
24.22112 414
24.24124 445
24.26135 419
24.28146 420
24.30158 435
24.32169 418
24.34181 428
24.36192 409
24.38203 350
24.40215 399
24.42226 351
24.44237 329
24.46249 365
24.4826 345
24.50272 321
24.52283 366
24.54294 333
24.56306 364
24.58317 402
24.60328 401
24.6234 464
24.64351 454
24.66362 446
24.68374 468
24.70385 481
24.72397 430
24.74408 416
24.76419 447
24.78431 407
24.80442 478
24.82453 428
24.84465 445
24.86476 460
24.88488 428
24.90499 410
24.9251 432
24.94522 385
24.96533 436
24.98544 354
25.00556 416
25.02567 394
25.04579 379
25.0659 405
25.08601 377
25.10613 367
25.12624 378
25.14635 359
25.16647 350
25.18658 348
25.20669 398
25.22681 348
25.24692 365
25.26704 396
25.28715 384
25.30726 414
25.32738 419
25.34749 374
25.3676 438
25.38772 487
25.40783 492
25.42795 530
25.44806 598
25.46817 641
25.48829 616
25.5084 639
25.52851 664
25.54863 677
25.56874 625
25.58886 626
25.60897 610
25.62908 623
25.6492 588
25.66931 559
25.68942 564
25.70954 544
25.72965 563
25.74976 482
25.76988 485
25.78999 436
25.81011 473
25.83022 447
25.85033 414
25.87045 435
25.89056 411
25.91067 397
25.93079 410
25.9509 459
25.97102 459
25.99113 476
26.01124 451
26.03136 502
26.05147 479
26.07158 486
26.0917 537
26.11181 576
26.13193 625
26.15204 641
26.17215 700
26.19227 738
26.21238 817
26.23249 896
26.25261 966
26.27272 1135
26.29283 1236
26.31295 1403
26.33306 1670
26.35318 1945
26.37329 2166
26.3934 2810
26.41352 3348
26.43363 4071
26.45374 5100
26.47386 6340
26.49397 7988
26.51409 9797
26.5342 12103
26.55431 13980
26.57443 15866
26.59454 17124
26.61465 17384
26.63477 16826
26.65488 14969
26.67499 12406
26.69511 9583
26.71522 7225
26.73534 5184
26.75545 3563
26.77556 2508
26.79568 1827
26.81579 1530
26.8359 1212
26.85602 1115
26.87613 1056
26.89625 975
26.91636 958
26.93647 885
26.95659 910
26.9767 944
26.99681 953
27.01693 959
27.03704 924
27.05716 903
27.07727 899
27.09738 838
27.1175 794
27.13761 705
27.15772 670
27.17784 668
27.19795 703
27.21806 706
27.23818 704
27.25829 814
27.27841 925
27.29852 965
27.31863 1095
27.33875 1223
27.35886 1234
27.37897 1314
27.39909 1434
27.4192 1384
27.43932 1312
27.45943 1341
27.47954 1212
27.49966 1049
27.51977 1006
27.53988 885
27.56 728
27.58011 661
27.60023 592
27.62034 516
27.64045 488
27.66057 525
27.68068 453
27.70079 506
27.72091 465
27.74102 487
27.76113 488
27.78125 517
27.80136 478
27.82148 462
27.84159 512
27.8617 471
27.88182 479
27.90193 486
27.92204 456
27.94216 491
27.96227 396
27.98239 439
28.0025 368
28.02261 372
28.04273 375
28.06284 361
28.08295 356
28.10307 307
28.12318 318
28.1433 299
28.16341 313
28.18352 293
28.20364 291
28.22375 317
28.24386 340
28.26398 323
28.28409 298
28.3042 307
28.32432 299
28.34443 269
28.36455 325
28.38466 310
28.40477 299
28.42489 269
28.445 287
28.46511 284
28.48523 263
28.50534 272
28.52546 248
28.54557 291
28.56568 282
28.5858 280
28.60591 258
28.62602 258
28.64614 277
28.66625 289
28.68636 254
28.70648 255
28.72659 272
28.74671 252
28.76682 245
28.78693 254
28.80705 265
28.82716 238
28.84727 225
28.86739 268
28.8875 268
28.90762 253
28.92773 257
28.94784 268
28.96796 281
28.98807 264
29.00818 252
29.0283 265
29.04841 267
29.06853 264
29.08864 241
29.10875 272
29.12887 265
29.14898 286
29.16909 256
29.18921 268
29.20932 284
29.22943 291
29.24955 312
29.26966 311
29.28978 327
29.30989 339
29.33 346
29.35012 384
29.37023 414
29.39034 399
29.41046 462
29.43057 418
29.45069 406
29.4708 397
29.49091 346
29.51103 313
29.53114 330
29.55125 315
29.57137 284
29.59148 267
29.6116 284
29.63171 283
29.65182 256
29.67194 272
29.69205 255
29.71216 263
29.73228 245
29.75239 279
29.7725 285
29.79262 286
29.81273 271
29.83285 285
29.85296 309
29.87307 329
29.89319 313
29.9133 282
29.93341 304
29.95353 297
29.97364 328
29.99376 338
30.01387 346
30.03398 394
30.0541 380
30.07421 414
30.09432 431
30.11444 442
30.13455 511
30.15467 464
30.17478 443
30.19489 497
30.21501 459
30.23512 474
30.25523 448
30.27535 381
30.29546 357
30.31557 373
30.33569 345
30.3558 344
30.37592 304
30.39603 299
30.41614 294
30.43626 287
30.45637 307
30.47648 299
30.4966 315
30.51671 312
30.53683 307
30.55694 315
30.57705 319
30.59717 337
30.61728 413
30.63739 414
30.65751 422
30.67762 427
30.69773 441
30.71785 444
30.73796 444
30.75808 467
30.77819 412
30.7983 407
30.81842 361
30.83853 359
30.85864 345
30.87876 390
30.89887 360
30.91899 386
30.9391 328
30.95921 341
30.97933 294
30.99944 281
31.01955 268
31.03967 282
31.05978 258
31.0799 256
31.10001 264
31.12012 265
31.14024 268
31.16035 269
31.18046 226
31.20058 233
31.22069 247
31.2408 232
31.26092 261
31.28103 283
31.30115 236
31.32126 206
31.34137 238
31.36149 247
31.3816 202
31.40171 249
31.42183 237
31.44194 229
31.46206 226
31.48217 268
31.50228 226
31.5224 228
31.54251 230
31.56262 220
31.58274 213
31.60285 240
31.62297 233
31.64308 225
31.66319 219
31.68331 190
31.70342 223
31.72353 223
31.74365 236
31.76376 262
31.78387 200
31.80399 227
31.8241 207
31.84422 224
31.86433 215
31.88444 192
31.90456 244
31.92467 221
31.94478 250
31.9649 253
31.98501 230
32.00513 282
32.02524 268
32.04535 272
32.06547 289
32.08558 293
32.10569 280
32.12581 303
32.14592 266
32.16604 276
32.18615 293
32.20626 254
32.22638 258
32.24649 287
32.2666 246
32.28672 270
32.30683 283
32.32694 284
32.34706 284
32.36717 297
32.38729 287
32.4074 314
32.42751 331
32.44763 300
32.46774 336
32.48785 302
32.50797 306
32.52808 285
32.5482 246
32.56831 262
32.58842 258
32.60854 253
32.62865 229
32.64876 222
32.66888 257
32.68899 244
32.7091 203
32.72922 219
32.74933 222
32.76945 226
32.78956 224
32.80967 204
32.82979 234
32.8499 239
32.87001 247
32.89013 236
32.91024 215
32.93036 240
32.95047 253
32.97058 220
32.9907 249
33.01081 236
33.03092 201
33.05104 243
33.07115 259
33.09127 222
33.11138 235
33.13149 244
33.15161 242
33.17172 249
33.19183 270
33.21195 223
33.23206 233
33.25217 249
33.27229 243
33.2924 269
33.31252 249
33.33263 235
33.35274 242
33.37286 233
33.39297 199
33.41308 188
33.4332 202
33.45331 215
33.47343 204
33.49354 207
33.51365 228
33.53377 218
33.55388 210
33.57399 196
33.59411 213
33.61422 211
33.63434 212
33.65445 214
33.67456 226
33.69468 220
33.71479 209
33.7349 198
33.75502 239
33.77513 218
33.79524 243
33.81536 211
33.83547 257
33.85559 233
33.8757 253
33.89581 215
33.91593 282
33.93604 247
33.95615 220
33.97627 247
33.99638 265
34.0165 231
34.03661 289
34.05672 342
34.07684 302
34.09695 368
34.11706 380
34.13718 367
34.15729 324
34.17741 400
34.19752 365
34.21763 372
34.23775 375
34.25786 330
34.27797 336
34.29809 300
34.3182 288
34.33831 327
34.35843 268
34.37854 277
34.39866 271
34.41877 270
34.43888 301
34.459 314
34.47911 308
34.49922 328
34.51934 327
34.53945 306
34.55957 329
34.57968 340
34.59979 360
34.61991 348
34.64002 343
34.66013 365
34.68025 372
34.70036 368
34.72047 385
34.74059 395
34.7607 376
34.78082 392
34.80093 382
34.82104 389
34.84116 388
34.86127 431
34.88138 400
34.9015 423
34.92161 407
34.94173 382
34.96184 428
34.98195 383
35.00207 397
35.02218 363
35.04229 355
35.06241 392
35.08252 344
35.10264 343
35.12275 359
35.14286 370
35.16298 364
35.18309 367
35.2032 341
35.22332 400
35.24343 379
35.26354 396
35.28366 338
35.30377 384
35.32389 354
35.344 359
35.36411 379
35.38423 395
35.40434 402
35.42445 407
35.44457 397
35.46468 451
35.4848 459
35.50491 440
35.52502 456
35.54514 466
35.56525 453
35.58536 460
35.60548 457
35.62559 433
35.64571 401
35.66582 403
35.68593 362
35.70605 367
35.72616 390
35.74627 379
35.76639 375
35.7865 329
35.80661 344
35.82673 333
35.84684 318
35.86696 310
35.88707 301
35.90718 336
35.9273 328
35.94741 309
35.96752 321
35.98764 350
36.00775 342
36.02787 320
36.04798 325
36.06809 298
36.08821 310
36.10832 308
36.12843 356
36.14855 301
36.16866 331
36.18878 313
36.20889 355
36.229 354
36.24912 410
36.26923 431
36.28934 473
36.30946 511
36.32957 569
36.34968 636
36.3698 711
36.38991 821
36.41003 971
36.43014 1063
36.45025 1158
36.47037 1291
36.49048 1322
36.51059 1349
36.53071 1357
36.55082 1158
36.57094 984
36.59105 868
36.61116 841
36.63128 706
36.65139 618
36.6715 456
36.69162 430
36.71173 382
36.73184 336
36.75196 333
36.77207 357
36.79219 321
36.8123 353
36.83241 342
36.85253 367
36.87264 359
36.89275 343
36.91287 350
36.93298 381
36.9531 392
36.97321 379
36.99332 320
37.01344 337
37.03355 318
37.05366 320
37.07378 306
37.09389 293
37.11401 267
37.13412 280
37.15423 244
37.17435 252
37.19446 246
37.21457 244
37.23469 244
37.2548 279
37.27491 284
37.29503 252
37.31514 278
37.33526 275
37.35537 291
37.37548 297
37.3956 286
37.41571 301
37.43582 305
37.45594 300
37.47605 300
37.49617 305
37.51628 281
37.53639 309
37.55651 311
37.57662 294
37.59673 289
37.61685 290
37.63696 284
37.65708 294
37.67719 276
37.6973 289
37.71742 280
37.73753 296
37.75764 264
37.77776 267
37.79787 284
37.81798 241
37.8381 268
37.85821 265
37.87833 280
37.89844 256
37.91855 268
37.93867 258
37.95878 272
37.97889 251
37.99901 281
38.01912 277
38.03924 267
38.05935 263
38.07946 285
38.09958 297
38.11969 283
38.1398 271
38.15992 307
38.18003 293
38.20015 285
38.22026 306
38.24037 276
38.26049 285
38.2806 291
38.30071 298
38.32083 297
38.34094 296
38.36105 296
38.38117 315
38.40128 347
38.4214 287
38.44151 340
38.46162 346
38.48174 339
38.50185 354
38.52196 337
38.54208 318
38.56219 342
38.58231 334
38.60242 354
38.62253 272
38.64265 280
38.66276 283
38.68287 283
38.70299 292
38.7231 305
38.74321 269
38.76333 251
38.78344 263
38.80356 256
38.82367 250
38.84378 260
38.8639 267
38.88401 252
38.90412 302
38.92424 272
38.94435 250
38.96447 280
38.98458 266
39.00469 294
39.02481 280
39.04492 325
39.06503 298
39.08515 306
39.10526 338
39.12538 323
39.14549 329
39.1656 351
39.18572 393
39.20583 396
39.22594 421
39.24606 498
39.26617 597
39.28628 688
39.3064 810
39.32651 916
39.34663 927
39.36674 1082
39.38685 1143
39.40697 1195
39.42708 1282
39.44719 1230
39.46731 1180
39.48742 1075
39.50754 884
39.52765 797
39.54776 671
39.56788 592
39.58799 516
39.6081 418
39.62822 380
39.64833 319
39.66845 272
39.68856 255
39.70867 297
39.72879 269
39.7489 262
39.76901 235
39.78913 257
39.80924 265
39.82935 259
39.84947 252
39.86958 254
39.8897 237
39.90981 247
39.92992 246
39.95004 288
39.97015 303
39.99026 281
40.01038 255
40.03049 328
40.05061 340
40.07072 399
40.09083 418
40.11095 449
40.13106 522
40.15117 556
40.17129 607
40.1914 601
40.21152 702
40.23163 731
40.25174 688
40.27186 693
40.29197 694
40.31208 603
40.3322 517
40.35231 494
40.37242 462
40.39254 420
40.41265 324
40.43277 356
40.45288 315
40.47299 266
40.49311 264
40.51322 220
40.53333 256
40.55345 275
40.57356 260
40.59368 221
40.61379 230
40.6339 240
40.65402 240
40.67413 236
40.69424 243
40.71436 250
40.73447 222
40.75458 209
40.7747 232
40.79481 255
40.81493 246
40.83504 242
40.85515 242
40.87527 228
40.89538 230
40.91549 223
40.93561 241
40.95572 202
40.97584 212
40.99595 231
41.01606 216
41.03618 224
41.05629 217
41.0764 219
41.09652 218
41.11663 206
41.13675 233
41.15686 230
41.17697 236
41.19709 241
41.2172 211
41.23731 255
41.25743 246
41.27754 227
41.29765 221
41.31777 221
41.33788 207
41.358 248
41.37811 243
41.39822 237
41.41834 233
41.43845 245
41.45856 261
41.47868 269
41.49879 255
41.51891 264
41.53902 277
41.55913 318
41.57925 298
41.59936 311
41.61947 307
41.63959 357
41.6597 362
41.67982 366
41.69993 401
41.72004 399
41.74016 442
41.76027 401
41.78038 457
41.8005 423
41.82061 377
41.84072 373
41.86084 348
41.88095 321
41.90107 321
41.92118 308
41.94129 308
41.96141 272
41.98152 271
42.00163 241
42.02175 296
42.04186 290
42.06198 258
42.08209 275
42.1022 283
42.12232 315
42.14243 319
42.16254 335
42.18266 345
42.20277 428
42.22289 410
42.243 472
42.26311 536
42.28323 610
42.30334 679
42.32345 788
42.34357 794
42.36368 881
42.38379 940
42.40391 917
42.42402 901
42.44414 881
42.46425 799
42.48436 770
42.50448 652
42.52459 566
42.5447 512
42.56482 495
42.58493 427
42.60505 345
42.62516 337
42.64527 305
42.66539 286
42.6855 272
42.70561 270
42.72573 237
42.74584 256
42.76595 245
42.78607 239
42.80618 221
42.8263 217
42.84641 230
42.86652 246
42.88664 216
42.90675 220
42.92686 223
42.94698 218
42.96709 203
42.98721 217
43.00732 226
43.02743 220
43.04755 209
43.06766 225
43.08777 211
43.10789 227
43.128 208
43.14812 205
43.16823 245
43.18834 221
43.20846 222
43.22857 213
43.24868 210
43.2688 210
43.28891 218
43.30902 206
43.32914 222
43.34925 241
43.36937 197
43.38948 238
43.40959 209
43.42971 220
43.44982 231
43.46993 215
43.49005 193
43.51016 201
43.53028 218
43.55039 223
43.5705 206
43.59062 210
43.61073 219
43.63084 207
43.65096 184
43.67107 214
43.69119 205
43.7113 216
43.73141 191
43.75153 187
43.77164 202
43.79175 185
43.81187 197
43.83198 184
43.85209 184
43.87221 223
43.89232 218
43.91244 200
43.93255 216
43.95266 207
43.97278 191
43.99289 207
44.013 213
44.03312 210
44.05323 212
44.07335 211
44.09346 172
44.11357 203
44.13369 200
44.1538 224
44.17391 214
44.19403 232
44.21414 189
44.23426 188
44.25437 203
44.27448 192
44.2946 205
44.31471 190
44.33482 203
44.35494 221
44.37505 208
44.39516 196
44.41528 190
44.43539 217
44.45551 207
44.47562 206
44.49573 200
44.51585 195
44.53596 210
44.55607 223
44.57619 224
44.5963 207
44.61642 209
44.63653 198
44.65664 227
44.67676 181
44.69687 238
44.71698 201
44.7371 195
44.75721 210
44.77732 215
44.79744 190
44.81755 194
44.83767 197
44.85778 208
44.87789 222
44.89801 213
44.91812 193
44.93823 202
44.95835 205
44.97846 230
44.99858 216
45.01869 219
45.0388 195
45.05892 222
45.07903 217
45.09914 200
45.11926 235
45.13937 198
45.15949 221
45.1796 217
45.19971 213
45.21983 231
45.23994 244
45.26005 227
45.28017 238
45.30028 258
45.32039 230
45.34051 274
45.36062 270
45.38074 304
45.40085 293
45.42096 315
45.44108 320
45.46119 336
45.4813 345
45.50142 361
45.52153 406
45.54165 407
45.56176 409
45.58187 440
45.60199 480
45.6221 489
45.64221 568
45.66233 601
45.68244 637
45.70256 683
45.72267 661
45.74278 692
45.7629 725
45.78301 694
45.80312 575
45.82324 530
45.84335 528
45.86346 469
45.88358 414
45.90369 416
45.92381 380
45.94392 333
45.96403 290
45.98415 281
46.00426 255
46.02437 235
46.04449 236
46.0646 262
46.08472 234
46.10483 261
46.12494 215
46.14506 223
46.16517 246
46.18528 256
46.2054 219
46.22551 244
46.24563 239
46.26574 222
46.28585 240
46.30597 240
46.32608 223
46.34619 219
46.36631 210
46.38642 203
46.40653 214
46.42665 211
46.44676 220
46.46688 197
46.48699 206
46.5071 185
46.52722 191
46.54733 199
46.56744 210
46.58756 204
46.60767 197
46.62779 216
46.6479 204
46.66801 208
46.68813 198
46.70824 185
46.72835 215
46.74847 202
46.76858 201
46.78869 229
46.80881 206
46.82892 197
46.84904 237
46.86915 178
46.88926 216
46.90938 223
46.92949 253
46.9496 221
46.96972 221
46.98983 268
47.00995 270
47.03006 208
47.05017 262
47.07029 254
47.0904 276
47.11051 259
47.13063 244
47.15074 262
47.17086 250
47.19097 223
47.21108 215
47.2312 220
47.25131 258
47.27142 235
47.29154 218
47.31165 207
47.33176 250
47.35188 240
47.37199 244
47.39211 250
47.41222 253
47.43233 249
47.45245 232
47.47256 233
47.49267 238
47.51279 245
47.5329 227
47.55302 204
47.57313 231
47.59324 230
47.61336 208
47.63347 193
47.65358 179
47.6737 207
47.69381 196
47.71393 219
47.73404 190
47.75415 202
47.77427 201
47.79438 197
47.81449 195
47.83461 183
47.85472 191
47.87483 191
47.89495 194
47.91506 208
47.93518 208
47.95529 216
47.9754 193
47.99552 185
48.01563 192
48.03574 204
48.05586 189
48.07597 201
48.09609 195
48.1162 213
48.13631 191
48.15643 196
48.17654 231
48.19665 190
48.21677 202
48.23688 196
48.257 198
48.27711 199
48.29722 217
48.31734 225
48.33745 216
48.35756 183
48.37768 187
48.39779 198
48.4179 224
48.43802 196
48.45813 205
48.47825 212
48.49836 202
48.51847 228
48.53859 216
48.5587 217
48.57881 219
48.59893 238
48.61904 221
48.63916 235
48.65927 253
48.67938 239
48.6995 263
48.71961 233
48.73972 235
48.75984 244
48.77995 249
48.80006 265
48.82018 240
48.84029 292
48.86041 276
48.88052 222
48.90063 264
48.92075 254
48.94086 232
48.96097 230
48.98109 267
49.0012 265
49.02132 242
49.04143 244
49.06154 242
49.08166 250
49.10177 245
49.12188 220
49.142 241
49.16211 258
49.18223 219
49.20234 206
49.22245 242
49.24257 212
49.26268 182
49.28279 233
49.30291 245
49.32302 228
49.34313 249
49.36325 237
49.38336 206
49.40348 202
49.42359 244
49.4437 230
49.46382 218
49.48393 236
49.50404 205
49.52416 237
49.54427 234
49.56439 246
49.5845 296
49.60461 254
49.62473 269
49.64484 287
49.66495 290
49.68507 263
49.70518 320
49.7253 331
49.74541 377
49.76552 379
49.78564 371
49.80575 422
49.82586 469
49.84598 523
49.86609 561
49.8862 660
49.90632 775
49.92643 854
49.94655 1047
49.96666 1164
49.98677 1342
50.00689 1448
50.027 1556
50.04711 1732
50.06723 1813
50.08734 1946
50.10746 1850
50.12757 1772
50.14768 1619
50.1678 1409
50.18791 1258
50.20802 1118
50.22814 1038
50.24825 916
50.26837 826
50.28848 730
50.30859 578
50.32871 522
50.34882 491
50.36893 428
50.38905 416
50.40916 435
50.42927 432
50.44939 435
50.4695 436
50.48962 440
50.50973 430
50.52984 473
50.54996 403
50.57007 397
50.59018 416
50.6103 382
50.63041 361
50.65053 351
50.67064 361
50.69075 304
50.71087 290
50.73098 300
50.75109 296
50.77121 298
50.79132 288
50.81143 279
50.83155 270
50.85166 261
50.87178 278
50.89189 257
50.912 243
50.93212 285
50.95223 239
50.97234 243
50.99246 282
51.01257 214
51.03269 240
51.0528 233
51.07291 218
51.09303 238
51.11314 228
51.13325 210
51.15337 215
51.17348 206
51.1936 220
51.21371 206
51.23382 213
51.25394 195
51.27405 211
51.29416 199
51.31428 191
51.33439 191
51.3545 183
51.37462 169
51.39473 170
51.41485 206
51.43496 175
51.45507 197
51.47519 176
51.4953 221
51.51541 196
51.53553 196
51.55564 201
51.57576 184
51.59587 212
51.61598 202
51.6361 188
51.65621 159
51.67632 206
51.69644 194
51.71655 173
51.73667 188
51.75678 200
51.77689 186
51.79701 175
51.81712 184
51.83723 173
51.85735 144
51.87746 171
51.89757 200
51.91769 142
51.9378 155
51.95792 177
51.97803 186
51.99814 176
52.01826 198
52.03837 162
52.05848 161
52.0786 177
52.09871 189
52.11883 168
52.13894 188
52.15905 164
52.17917 181
52.19928 170
52.21939 180
52.23951 169
52.25962 179
52.27974 167
52.29985 167
52.31996 172
52.34008 158
52.36019 199
52.3803 201
52.40042 219
52.42053 200
52.44064 183
52.46076 212
52.48087 181
52.50099 203
52.5211 195
52.54121 217
52.56133 207
52.58144 223
52.60155 222
52.62167 210
52.64178 193
52.6619 199
52.68201 217
52.70212 200
52.72224 213
52.74235 194
52.76246 217
52.78258 211
52.80269 204
52.8228 193
52.84292 197
52.86303 214
52.88315 195
52.90326 211
52.92337 199
52.94349 203
52.9636 211
52.98371 180
53.00383 215
53.02394 201
53.04406 214
53.06417 204
53.08428 222
53.1044 186
53.12451 204
53.14462 196
53.16474 219
53.18485 192
53.20497 208
53.22508 180
53.24519 212
53.26531 214
53.28542 212
53.30553 209
53.32565 184
53.34576 208
53.36587 195
53.38599 198
53.4061 188
53.42622 197
53.44633 194
53.46644 201
53.48656 190
53.50667 189
53.52678 230
53.5469 204
53.56701 204
53.58713 188
53.60724 202
53.62735 213
53.64747 203
53.66758 180
53.68769 199
53.70781 173
53.72792 187
53.74804 210
53.76815 229
53.78826 215
53.80838 222
53.82849 220
53.8486 218
53.86872 217
53.88883 209
53.90894 243
53.92906 228
53.94917 212
53.96929 242
53.9894 230
54.00951 246
54.02963 246
54.04974 234
54.06985 248
54.08997 239
54.11008 217
54.1302 248
54.15031 220
54.17042 235
54.19054 269
54.21065 240
54.23076 233
54.25088 266
54.27099 241
54.29111 261
54.31122 225
54.33133 223
54.35145 249
54.37156 226
54.39167 249
54.41179 252
54.4319 256
54.45201 247
54.47213 270
54.49224 273
54.51236 271
54.53247 275
54.55258 293
54.5727 346
54.59281 370
54.61292 315
54.63304 391
54.65315 422
54.67327 463
54.69338 496
54.71349 544
54.73361 591
54.75372 616
54.77383 618
54.79395 711
54.81406 717
54.83417 721
54.85429 705
54.8744 660
54.89452 568
54.91463 549
54.93474 508
54.95486 533
54.97497 474
54.99508 477
55.0152 399
55.03531 399
55.05543 381
55.07554 337
55.09565 329
55.11577 355
55.13588 373
55.15599 374
55.17611 373
55.19622 431
55.21634 408
55.23645 428
55.25656 492
55.27668 466
55.29679 434
55.3169 469
55.33702 437
55.35713 411
55.37724 389
55.39736 339
55.41747 350
55.43759 367
55.4577 353
55.47781 344
55.49793 296
55.51804 286
55.53815 277
55.55827 235
55.57838 254
55.5985 246
55.61861 238
55.63872 227
55.65884 260
55.67895 231
55.69906 233
55.71918 232
55.73929 211
55.75941 235
55.77952 219
55.79963 226
55.81975 205
55.83986 213
55.85997 218
55.88009 203
55.9002 207
55.92031 228
55.94043 204
55.96054 218
55.98066 189
56.00077 212
56.02088 209
56.041 213
56.06111 195
56.08122 217
56.10134 226
56.12145 213
56.14157 201
56.16168 212
56.18179 190
56.20191 197
56.22202 210
56.24213 201
56.26225 204
56.28236 210
56.30248 182
56.32259 195
56.3427 181
56.36282 205
56.38293 191
56.40304 195
56.42316 194
56.44327 218
56.46338 233
56.4835 204
56.50361 187
56.52373 206
56.54384 218
56.56395 208
56.58407 206
56.60418 202
56.62429 202
56.64441 215
56.66452 224
56.68464 196
56.70475 214
56.72486 185
56.74498 216
56.76509 211
56.7852 242
56.80532 200
56.82543 218
56.84554 221
56.86566 224
56.88577 216
56.90589 225
56.926 197
56.94611 204
56.96623 217
56.98634 221
57.00645 212
57.02657 212
57.04668 218
57.0668 215
57.08691 219
57.10702 212
57.12714 230
57.14725 191
57.16736 242
57.18748 210
57.20759 237
57.22771 235
57.24782 239
57.26793 242
57.28805 224
57.30816 273
57.32827 232
57.34839 234
57.3685 223
57.38861 232
57.40873 237
57.42884 219
57.44896 214
57.46907 222
57.48918 216
57.5093 228
57.52941 190
57.54952 196
57.56964 208
57.58975 214
57.60987 209
57.62998 173
57.65009 170
57.67021 191
57.69032 194
57.71043 203
57.73055 172
57.75066 200
57.77078 184
57.79089 195
57.811 183
57.83112 182
57.85123 202
57.87134 191
57.89146 194
57.91157 176
57.93168 188
57.9518 167
57.97191 193
57.99203 161
58.01214 208
58.03225 179
58.05237 213
58.07248 208
58.09259 197
58.11271 201
58.13282 197
58.15294 197
58.17305 199
58.19316 184
58.21328 194
58.23339 184
58.2535 202
58.27362 196
58.29373 194
58.31385 186
58.33396 221
58.35407 212
58.37419 199
58.3943 202
58.41441 219
58.43453 215
58.45464 196
58.47475 221
58.49487 203
58.51498 202
58.5351 231
58.55521 206
58.57532 219
58.59544 222
58.61555 220
58.63566 204
58.65578 227
58.67589 211
58.69601 200
58.71612 196
58.73623 218
58.75635 201
58.77646 200
58.79657 230
58.81669 211
58.8368 206
58.85691 187
58.87703 184
58.89714 194
58.91726 199
58.93737 185
58.95748 201
58.9776 194
58.99771 188
59.01782 201
59.03794 187
59.05805 188
59.07817 208
59.09828 178
59.11839 192
59.13851 177
59.15862 189
59.17873 204
59.19885 212
59.21896 203
59.23908 193
59.25919 207
59.2793 216
59.29942 210
59.31953 204
59.33964 226
59.35976 254
59.37987 231
59.39998 238
59.4201 220
59.44021 268
59.46033 254
59.48044 270
59.50055 245
59.52067 288
59.54078 328
59.56089 329
59.58101 348
59.60112 362
59.62124 366
59.64135 396
59.66146 453
59.68158 492
59.70169 548
59.7218 637
59.74192 679
59.76203 723
59.78215 872
59.80226 953
59.82237 1058
59.84249 1101
59.8626 1219
59.88271 1213
59.90283 1228
59.92294 1216
59.94305 1155
59.96317 997
59.98328 977
60.0034 880
60.02351 768
60.04362 708
60.06374 701
60.08385 671
60.10396 613
60.12408 520
60.14419 458
60.16431 398
60.18442 354
60.20453 307
60.22465 271
60.24476 244
60.26487 237
60.28499 241
60.3051 219
60.32522 256
60.34533 214
60.36544 234
60.38556 215
60.40567 226
60.42578 224
60.4459 194
60.46601 215
60.48612 218
60.50624 197
60.52635 201
60.54647 194
60.56658 207
60.58669 223
60.60681 209
60.62692 204
60.64703 193
60.66715 198
60.68726 204
60.70738 219
60.72749 228
60.7476 211
60.76772 196
60.78783 219
60.80794 201
60.82806 200
60.84817 204
60.86828 204
60.8884 215
60.90851 205
60.92863 231
60.94874 234
60.96885 227
60.98897 241
61.00908 224
61.02919 258
61.04931 232
61.06942 249
61.08954 242
61.10965 241
61.12976 243
61.14988 225
61.16999 235
61.1901 249
61.21022 211
61.23033 252
61.25045 237
61.27056 233
61.29067 245
61.31079 236
61.3309 240
61.35101 227
61.37113 196
61.39124 234
61.41135 217
61.43147 191
61.45158 226
61.4717 219
61.49181 212
61.51192 219
61.53204 211
61.55215 212
61.57226 193
61.59238 189
61.61249 217
61.63261 217
61.65272 228
61.67283 216
61.69295 185
61.71306 240
61.73317 211
61.75329 220
61.7734 201
61.79352 204
61.81363 207
61.83374 228
61.85386 202
61.87397 216
61.89408 234
61.9142 232
61.93431 236
61.95442 253
61.97454 246
61.99465 217
62.01477 240
62.03488 237
62.05499 269
62.07511 259
62.09522 255
62.11533 275
62.13545 265
62.15556 272
62.17568 265
62.19579 268
62.2159 292
62.23602 286
62.25613 271
62.27624 251
62.29636 247
62.31647 272
62.33659 261
62.3567 250
62.37681 250
62.39693 286
62.41704 260
62.43715 228
62.45727 258
62.47738 258
62.49749 235
62.51761 255
62.53772 224
62.55784 253
62.57795 243
62.59806 256
62.61818 237
62.63829 218
62.6584 249
62.67852 220
62.69863 246
62.71875 224
62.73886 234
62.75897 221
62.77909 194
62.7992 202
62.81931 247
62.83943 236
62.85954 211
62.87965 216
62.89977 232
62.91988 213
62.94 243
62.96011 239
62.98022 262
63.00034 250
63.02045 226
63.04056 242
63.06068 251
63.08079 230
63.10091 265
63.12102 259
63.14113 214
63.16125 226
63.18136 233
63.20147 240
63.22159 231
63.2417 221
63.26182 226
63.28193 249
63.30204 233
63.32216 211
63.34227 194
63.36238 190
63.3825 209
63.40261 237
63.42272 230
63.44284 199
63.46295 236
63.48307 203
63.50318 226
63.52329 230
63.54341 212
63.56352 242
63.58363 260
63.60375 239
63.62386 261
63.64398 206
63.66409 276
63.6842 269
63.70432 264
63.72443 306
63.74454 328
63.76466 295
63.78477 306
63.80489 346
63.825 373
63.84511 385
63.86523 377
63.88534 427
63.90545 422
63.92557 449
63.94568 479
63.96579 428
63.98591 441
64.00602 423
64.02614 398
64.04625 379
64.06636 373
64.08648 299
64.10659 322
64.1267 284
64.14682 318
64.16693 294
64.18705 257
64.20716 279
64.22727 269
64.24739 234
64.2675 221
64.28761 211
64.30773 210
64.32784 209
64.34796 194
64.36807 211
64.38818 177
64.4083 193
64.42841 171
64.44852 164
64.46864 174
64.48875 199
64.50886 153
64.52898 175
64.54909 191
64.56921 156
64.58932 179
64.60943 187
64.62955 178
64.64966 190
64.66977 213
64.68989 176
64.71 219
64.73012 186
64.75023 170
64.77034 166
64.79046 184
64.81057 191
64.83068 189
64.8508 187
64.87091 183
64.89102 214
64.91114 195
64.93125 228
64.95137 182
64.97148 211
64.99159 194
65.01171 211
65.03182 212
65.05193 215
65.07205 216
65.09216 214
65.11228 233
65.13239 244
65.1525 200
65.17262 207
65.19273 214
65.21284 213
65.23296 218
65.25307 219
65.27319 228
65.2933 238
65.31341 204
65.33353 210
65.35364 217
65.37375 216
65.39387 243
65.41398 226
65.43409 183
65.45421 225
65.47432 199
65.49444 201
65.51455 215
65.53466 235
65.55478 187
65.57489 191
65.595 213
65.61512 205
65.63523 212
65.65535 217
65.67546 238
65.69557 233
65.71569 251
65.7358 223
65.75591 200
65.77603 236
65.79614 206
65.81626 212
65.83637 219
65.85648 210
65.8766 206
65.89671 196
65.91682 210
65.93694 186
65.95705 189
65.97716 193
65.99728 213
66.01739 195
66.03751 200
66.05762 207
66.07773 194
66.09785 211
66.11796 227
66.13807 241
66.15819 228
66.1783 235
66.19842 191
66.21853 239
66.23864 221
66.25876 222
66.27887 238
66.29898 222
66.3191 234
66.33921 211
66.35933 202
66.37944 205
66.39955 200
66.41967 227
66.43978 217
66.45989 212
66.48001 178
66.50012 193
66.52023 191
66.54035 221
66.56046 198
66.58058 182
66.60069 201
66.6208 199
66.64092 184
66.66103 235
66.68114 206
66.70126 192
66.72137 195
66.74149 172
66.7616 186
66.78171 179
66.80183 203
66.82194 172
66.84205 198
66.86217 201
66.88228 203
66.90239 218
66.92251 195
66.94262 190
66.96274 226
66.98285 201
67.00296 217
67.02308 217
67.04319 213
67.0633 235
67.08342 218
67.10353 216
67.12365 230
67.14376 207
67.16387 225
67.18399 255
67.2041 236
67.22421 235
67.24433 247
67.26444 234
67.28456 240
67.30467 266
67.32478 259
67.3449 270
67.36501 289
67.38512 280
67.40524 311
67.42535 313
67.44546 365
67.46558 390
67.48569 412
67.50581 490
67.52592 488
67.54603 541
67.56615 577
67.58626 671
67.60637 711
67.62649 791
67.6466 833
67.66672 863
67.68683 904
67.70694 907
67.72706 822
67.74717 782
67.76728 742
67.7874 703
67.80751 659
67.82763 675
67.84774 720
67.86785 766
67.88797 826
67.90808 831
67.92819 785
67.94831 831
67.96842 900
67.98853 933
68.00865 984
68.02876 1065
68.04888 1090
68.06899 1153
68.0891 1227
68.10922 1197
68.12933 1217
68.14944 1157
68.16956 1099
68.18967 1075
68.20979 1080
68.2299 1030
68.25001 1029
68.27013 1013
68.29024 1004
68.31035 877
68.33047 762
68.35058 636
68.3707 614
68.39081 565
68.41092 476
68.43104 445
68.45115 445
68.47126 416
68.49138 376
68.51149 349
68.5316 314
68.55172 298
68.57183 261
68.59195 222
68.61206 231
68.63217 207
68.65229 232
68.6724 247
68.69251 209
68.71263 209
68.73274 233
68.75286 207
68.77297 214
68.79308 190
68.8132 209
68.83331 217
68.85342 214
68.87354 200
68.89365 191
68.91376 196
68.93388 221
68.95399 194
68.97411 179
68.99422 204
69.01433 169
69.03445 188
69.05456 211
69.07467 202
69.09479 174
69.1149 204
69.13502 194
69.15513 189
69.17524 180
69.19536 189
69.21547 172
69.23558 192
69.2557 201
69.27581 175
69.29593 195
69.31604 195
69.33615 176
69.35627 161
69.37638 197
69.39649 188
69.41661 186
69.43672 154
69.45683 179
69.47695 172
69.49706 191
69.51718 186
69.53729 190
69.5574 160
69.57752 191
69.59763 183
69.61774 185
69.63786 186
69.65797 179
69.67809 177
69.6982 181
69.71831 173
69.73843 185
69.75854 170
69.77865 192
69.79877 173
69.81888 181
69.839 162
69.85911 199
69.87922 205
69.89934 199
69.91945 202
69.93956 171
69.95968 201
69.97979 168
69.9999 194
70.02002 198
70.04013 203
70.06025 179
70.08036 169
70.10047 186
70.12059 202
70.1407 176
70.16081 201
70.18093 185
70.20104 190
70.22116 198
70.24127 174
70.26138 175
70.2815 185
70.30161 174
70.32172 171
70.34184 175
70.36195 195
70.38207 173
70.40218 195
70.42229 154
70.44241 176
70.46252 182
70.48263 166
70.50275 187
70.52286 183
70.54297 152
70.56309 177
70.5832 204
70.60332 187
70.62343 161
70.64354 182
70.66366 185
70.68377 224
70.70388 181
70.724 179
70.74411 174
70.76423 186
70.78434 187
70.80445 207
70.82457 188
70.84468 181
70.86479 174
70.88491 159
70.90502 193
70.92513 184
70.94525 168
70.96536 187
70.98548 183
71.00559 181
71.0257 175
71.04582 191
71.06593 182
71.08604 153
71.10616 180
71.12627 211
71.14639 207
71.1665 193
71.18661 194
71.20673 173
71.22684 180
71.24695 187
71.26707 192
71.28718 188
71.3073 183
71.32741 205
71.34752 213
71.36764 191
71.38775 199
71.40786 216
71.42798 217
71.44809 188
71.4682 208
71.48832 170
71.50843 213
71.52855 195
71.54866 192
71.56877 188
71.58889 189
71.609 180
71.62911 160
71.64923 188
71.66934 158
71.68946 189
71.70957 226
71.72968 210
71.7498 178
71.76991 189
71.79002 174
71.81014 190
71.83025 176
71.85037 176
71.87048 187
71.89059 194
71.91071 213
71.93082 205
71.95093 216
71.97105 196
71.99116 189
72.01127 213
72.03139 204
72.0515 207
72.07162 215
72.09173 189
72.11184 232
72.13196 193
72.15207 205
72.17218 221
72.1923 198
72.21241 193
72.23253 206
72.25264 180
72.27275 210
72.29287 185
72.31298 199
72.33309 204
72.35321 193
72.37332 198
72.39344 196
72.41355 206
72.43366 187
72.45378 181
72.47389 171
72.494 171
72.51412 174
72.53423 180
72.55434 190
72.57446 205
72.59457 189
72.61469 187
72.6348 192
72.65491 216
72.67503 198
72.69514 199
72.71525 172
72.73537 169
72.75548 209
72.7756 211
72.79571 188
72.81582 198
72.83594 216
72.85605 226
72.87616 208
72.89628 217
72.91639 203
72.9365 236
72.95662 218
72.97673 239
72.99685 230
73.01696 237
73.03707 227
73.05719 269
73.0773 246
73.09741 267
73.11753 270
73.13764 270
73.15776 306
73.17787 282
73.19798 301
73.2181 282
73.23821 329
73.25832 307
73.27844 336
73.29855 363
73.31867 405
73.33878 399
73.35889 430
73.37901 441
73.39912 454
73.41923 440
73.43935 422
73.45946 370
73.47957 366
73.49969 341
73.5198 329
73.53992 338
73.56003 318
73.58014 339
73.60026 311
73.62037 306
73.64048 302
73.6606 285
73.68071 286
73.70083 264
73.72094 224
73.74105 232
73.76117 212
73.78128 209
73.80139 217
73.82151 209
73.84162 187
73.86174 173
73.88185 192
73.90196 179
73.92208 197
73.94219 174
73.9623 202
73.98242 195
74.00253 196
74.02264 180
74.04276 198
74.06287 208
74.08299 182
74.1031 193
74.12321 167
74.14333 175
74.16344 195
74.18355 216
74.20367 201
74.22378 190
74.2439 176
74.26401 178
74.28412 176
74.30424 195
74.32435 199
74.34446 175
74.36458 204
74.38469 200
74.40481 180
74.42492 191
74.44503 221
74.46515 198
74.48526 176
74.50537 179
74.52549 216
74.5456 190
74.56571 201
74.58583 196
74.60594 215
74.62606 195
74.64617 193
74.66628 206
74.6864 199
74.70651 207
74.72662 199
74.74674 195
74.76685 194
74.78697 206
74.80708 198
74.82719 219
74.84731 182
74.86742 202
74.88753 202
74.90765 202
74.92776 209
74.94787 199
74.96799 211
74.9881 198
75.00822 205
