3.00117 21303
3.02128 21130
3.0414 20045
3.06151 20138
3.08162 19081
3.10174 18620
3.12185 18123
3.14197 17336
3.16208 17231
3.18219 16675
3.20231 16399
3.22242 16007
3.24253 15176
3.26265 14731
3.28276 14275
3.30288 13848
3.32299 13537
3.3431 12874
3.36322 12782
3.38333 12310
3.40344 11894
3.42356 11539
3.44367 10778
3.46379 10968
3.4839 10216
3.50401 10126
3.52413 9704
3.54424 9105
3.56435 9109
3.58447 8717
3.60458 8511
3.62469 8096
3.64481 7722
3.66492 7458
3.68504 7062
3.70515 6873
3.72526 6663
3.74538 6277
3.76549 6376
3.7856 5765
3.80572 5719
3.82583 5355
3.84595 5090
3.86606 4985
3.88617 4781
3.90629 4507
3.9264 4332
3.94651 4064
3.96663 4278
3.98674 3755
4.00686 3675
4.02697 3425
4.04708 3261
4.0672 3356
4.08731 3099
4.10742 2932
4.12754 2741
4.14765 2691
4.16776 2577
4.18788 2509
4.20799 2436
4.22811 2260
4.24822 2203
4.26833 2199
4.28845 2039
4.30856 2005
4.32867 1904
4.34879 1809
4.3689 1884
4.38902 1811
4.40913 1597
4.42924 1693
4.44936 1547
4.46947 1708
4.48958 1541
4.5097 1533
4.52981 1413
4.54992 1404
4.57004 1438
4.59015 1414
4.61027 1358
4.63038 1300
4.65049 1282
4.67061 1230
4.69072 1281
4.71083 1172
4.73095 1187
4.75106 1218
4.77118 1037
4.79129 1088
4.8114 1034
4.83152 1073
4.85163 1063
4.87174 1030
4.89186 1018
4.91197 990
4.93209 948
4.9522 927
4.97231 934
4.99243 910
5.01254 817
5.03265 877
5.05277 823
5.07288 784
5.09299 886
5.11311 793
5.13322 692
5.15334 801
5.17345 755
5.19356 743
5.21368 697
5.23379 706
5.2539 729
5.27402 695
5.29413 699
5.31425 609
5.33436 666
5.35447 666
5.37459 598
5.3947 616
5.41481 565
5.43493 556
5.45504 553
5.47516 542
5.49527 584
5.51538 552
5.5355 560
5.55561 510
5.57572 545
5.59584 553
5.61595 502
5.63606 533
5.65618 528
5.67629 478
5.69641 467
5.71652 520
5.73663 457
5.75675 413
5.77686 436
5.79697 449
5.81709 436
5.8372 452
5.85732 462
5.87743 412
5.89754 438
5.91766 478
5.93777 402
5.95788 467
5.978 441
5.99811 432
6.01823 433
6.03834 487
6.05845 461
6.07857 413
6.09868 422
6.11879 405
6.13891 415
6.15902 403
6.17913 466
6.19925 443
6.21936 394
6.23948 444
6.25959 412
6.2797 431
6.29982 429
6.31993 444
6.34004 426
6.36016 403
6.38027 425
6.40039 385
6.4205 399
6.44061 408
6.46073 379
6.48084 360
6.50095 376
6.52107 368
6.54118 390
6.56129 371
6.58141 393
6.60152 335
6.62164 401
6.64175 349
6.66186 386
6.68198 341
6.70209 366
6.7222 369
6.74232 378
6.76243 324
6.78255 331
6.80266 365
6.82277 372
6.84289 332
6.863 393
6.88311 346
6.90323 383
6.92334 377
6.94346 352
6.96357 362
6.98368 369
7.0038 365
7.02391 341
7.04402 365
7.06414 368
7.08425 372
7.10436 379
7.12448 347
7.14459 377
7.16471 363
7.18482 390
7.20493 363
7.22505 354
7.24516 386
7.26527 351
7.28539 362
7.3055 370
7.32562 348
7.34573 331
7.36584 336
7.38596 358
7.40607 348
7.42618 343
7.4463 337
7.46641 384
7.48653 349
7.50664 377
7.52675 375
7.54687 400
7.56698 366
7.58709 358
7.60721 399
7.62732 363
7.64743 361
7.66755 358
7.68766 351
7.70778 379
7.72789 347
7.748 383
7.76812 354
7.78823 395
7.80834 347
7.82846 360
7.84857 361
7.86869 366
7.8888 377
7.90891 405
7.92903 363
7.94914 421
7.96925 386
7.98937 408
8.00948 370
8.0296 381
8.04971 381
8.06982 397
8.08994 410
8.11005 390
8.13016 424
8.15028 526
8.17039 448
8.1905 452
8.21062 512
8.23073 513
8.25085 492
8.27096 535
8.29107 514
8.31119 469
8.3313 548
8.35141 543
8.37153 503
8.39164 536
8.41176 560
8.43187 564
8.45198 526
8.4721 501
8.49221 517
8.51232 580
8.53244 545
8.55255 465
8.57266 508
8.59278 512
8.61289 516
8.63301 506
8.65312 463
8.67323 497
8.69335 509
8.71346 495
8.73357 502
8.75369 443
8.7738 436
8.79392 475
8.81403 426
8.83414 492
8.85426 425
8.87437 460
8.89448 446
8.9146 430
8.93471 409
8.95483 408
8.97494 364
8.99505 399
9.01517 387
9.03528 383
9.05539 338
9.07551 363
9.09562 321
9.11573 354
9.13585 324
9.15596 354
9.17608 336
9.19619 290
9.2163 341
9.23642 371
9.25653 345
9.27664 332
9.29676 374
9.31687 332
9.33699 330
9.3571 343
9.37721 319
9.39733 323
9.41744 329
9.43755 335
9.45767 308
9.47778 360
9.4979 330
9.51801 282
9.53812 326
9.55824 318
9.57835 312
9.59846 298
9.61858 333
9.63869 326
9.6588 323
9.67892 332
9.69903 375
9.71915 340
9.73926 318
9.75937 362
9.77949 291
9.7996 324
9.81971 321
9.83983 357
9.85994 310
9.88006 336
9.90017 312
9.92028 268
9.9404 286
9.96051 329
9.98062 279
10.00074 310
10.02085 313
10.04097 302
10.06108 304
10.08119 280
10.10131 308
10.12142 313
10.14153 344
10.16165 330
10.18176 296
10.20187 314
10.22199 327
10.2421 247
10.26222 274
10.28233 301
10.30244 355
10.32256 311
10.34267 330
10.36278 333
10.3829 349
10.40301 345
10.42313 329
10.44324 387
10.46335 375
10.48347 377
10.50358 348
10.52369 353
10.54381 315
10.56392 340
10.58403 287
10.60415 321
10.62426 291
10.64438 335
10.66449 305
10.6846 333
10.70472 304
10.72483 297
10.74494 315
10.76506 314
10.78517 300
10.80529 305
10.8254 309
10.84551 326
10.86563 328
10.88574 295
10.90585 308
10.92597 262
10.94608 310
10.9662 308
10.98631 295
11.00642 288
11.02654 316
11.04665 278
11.06676 309
11.08688 321
11.10699 297
11.1271 281
11.14722 342
11.16733 292
11.18745 294
11.20756 326
11.22767 291
11.24779 285
11.2679 279
11.28801 309
11.30813 319
11.32824 316
11.34836 321
11.36847 306
11.38858 310
11.4087 322
11.42881 306
11.44892 321
11.46904 284
11.48915 326
11.50927 303
11.52938 365
11.54949 286
11.56961 310
11.58972 299
11.60983 266
11.62995 300
11.65006 282
11.67017 290
11.69029 318
11.7104 269
11.73052 298
11.75063 272
11.77074 299
11.79086 308
11.81097 318
11.83108 325
11.8512 299
11.87131 296
11.89143 292
11.91154 318
11.93165 303
11.95177 326
11.97188 351
11.99199 295
12.01211 323
12.03222 312
12.05234 301
12.07245 296
12.09256 302
12.11268 289
12.13279 295
12.1529 300
12.17302 333
12.19313 323
12.21324 323
12.23336 327
12.25347 318
12.27359 349
12.2937 340
12.31381 330
12.33393 340
12.35404 324
12.37415 355
12.39427 361
12.41438 349
12.4345 367
12.45461 318
12.47472 361
12.49484 322
12.51495 311
12.53506 319
12.55518 355
12.57529 308
12.5954 314
12.61552 307
12.63563 308
12.65575 329
12.67586 304
12.69597 307
12.71609 262
12.7362 290
12.75631 259
12.77643 294
12.79654 246
12.81666 294
12.83677 308
12.85688 301
12.877 279
12.89711 299
12.91722 290
12.93734 330
12.95745 292
12.97757 282
12.99768 334
13.01779 280
13.03791 285
13.05802 332
13.07813 288
13.09825 289
13.11836 281
13.13847 290
13.15859 332
13.1787 302
13.19882 304
13.21893 284
13.23904 282
13.25916 280
13.27927 308
13.29938 268
13.3195 287
13.33961 286
13.35973 315
13.37984 305
13.39995 297
13.42007 305
13.44018 336
13.46029 336
13.48041 295
13.50052 300
13.52064 303
13.54075 307
13.56086 321
13.58098 336
13.60109 343
13.6212 337
13.64132 336
13.66143 296
13.68154 326
13.70166 359
13.72177 299
13.74189 305
13.762 332
13.78211 387
13.80223 348
13.82234 358
13.84245 357
13.86257 334
13.88268 337
13.9028 318
13.92291 326
13.94302 322
13.96314 335
13.98325 329
14.00336 334
14.02348 283
14.04359 278
14.06371 312
14.08382 323
14.10393 316
14.12405 294
14.14416 283
14.16427 304
14.18439 267
14.2045 249
14.22461 275
14.24473 275
14.26484 283
14.28496 293
14.30507 273
14.32518 299
14.3453 274
14.36541 302
14.38552 273
14.40564 278
14.42575 296
14.44587 313
14.46598 277
14.48609 281
14.50621 307
14.52632 279
14.54643 287
14.56655 263
14.58666 311
14.60677 248
14.62689 328
14.647 279
14.66712 323
14.68723 274
14.70734 297
14.72746 260
14.74757 302
14.76768 296
14.7878 296
14.80791 304
14.82803 295
14.84814 291
14.86825 307
14.88837 325
14.90848 305
14.92859 305
14.94871 293
14.96882 325
14.98894 286
15.00905 281
15.02916 295
15.04928 302
15.06939 273
15.0895 300
15.10962 293
15.12973 264
15.14984 309
15.16996 301
15.19007 298
15.21019 268
15.2303 295
15.25041 287
15.27053 279
15.29064 274
15.31075 299
15.33087 314
15.35098 277
15.3711 283
15.39121 269
15.41132 258
15.43144 265
15.45155 254
15.47166 289
15.49178 284
15.51189 309
15.53201 277
15.55212 305
15.57223 274
15.59235 311
15.61246 280
15.63257 275
15.65269 285
15.6728 235
15.69291 299
15.71303 303
15.73314 283
15.75326 280
15.77337 285
15.79348 296
15.8136 284
15.83371 308
15.85382 310
15.87394 284
15.89405 276
15.91417 290
15.93428 316
15.95439 287
15.97451 293
15.99462 259
16.01473 296
16.03485 267
16.05496 309
16.07508 242
16.09519 283
16.1153 305
16.13542 313
16.15553 283
16.17564 241
16.19576 262
16.21587 285
16.23598 308
16.2561 262
16.27621 280
16.29633 284
16.31644 262
16.33655 306
16.35667 324
16.37678 298
16.39689 271
16.41701 336
16.43712 301
16.45724 295
16.47735 285
16.49746 293
16.51758 275
16.53769 288
16.5578 282
16.57792 295
16.59803 285
16.61814 283
16.63826 296
16.65837 311
16.67849 279
16.6986 272
16.71871 264
16.73883 279
16.75894 289
16.77905 269
16.79917 256
16.81928 268
16.8394 311
16.85951 296
16.87962 259
16.89974 292
16.91985 267
16.93996 290
16.96008 311
16.98019 239
17.00031 322
17.02042 273
17.04053 266
17.06065 291
17.08076 292
17.10087 306
17.12099 292
17.1411 270
17.16121 254
17.18133 260
17.20144 287
17.22156 277
17.24167 287
17.26178 251
17.2819 304
17.30201 274
17.32212 295
17.34224 273
17.36235 275
17.38247 306
17.40258 288
17.42269 278
17.44281 322
17.46292 272
17.48303 285
17.50315 296
17.52326 305
17.54338 273
17.56349 327
17.5836 307
17.60372 304
17.62383 290
17.64394 298
17.66406 285
17.68417 315
17.70428 305
17.7244 296
17.74451 284
17.76463 322
17.78474 319
17.80485 291
17.82497 291
17.84508 337
17.86519 316
17.88531 309
17.90542 279
17.92554 287
17.94565 306
17.96576 323
17.98588 281
18.00599 288
18.0261 297
18.04622 304
18.06633 296
18.08645 278
18.10656 293
18.12667 288
18.14679 299
18.1669 270
18.18701 293
18.20713 313
18.22724 278
18.24735 267
18.26747 299
18.28758 332
18.3077 313
18.32781 294
18.34792 306
18.36804 292
18.38815 311
18.40826 292
18.42838 236
18.44849 284
18.46861 252
18.48872 281
18.50883 307
18.52895 295
18.54906 287
18.56917 284
18.58929 290
18.6094 327
18.62951 318
18.64963 301
18.66974 278
18.68986 299
18.70997 317
18.73008 339
18.7502 333
18.77031 319
18.79042 314
18.81054 313
18.83065 302
18.85077 312
18.87088 311
18.89099 284
18.91111 293
18.93122 304
18.95133 285
18.97145 331
18.99156 323
19.01168 282
19.03179 304
19.0519 311
19.07202 311
19.09213 319
19.11224 303
19.13236 314
19.15247 294
19.17258 342
19.1927 346
19.21281 317
19.23293 336
19.25304 338
19.27315 340
19.29327 331
19.31338 351
19.33349 381
19.35361 337
19.37372 328
19.39384 347
19.41395 371
19.43406 349
19.45418 358
19.47429 400
19.4944 408
19.51452 411
19.53463 406
19.55475 432
19.57486 426
19.59497 452
19.61509 444
19.6352 476
19.65531 504
19.67543 534
19.69554 523
19.71565 529
19.73577 533
19.75588 583
19.776 550
19.79611 554
19.81622 528
19.83634 559
19.85645 468
19.87656 553
19.89668 498
19.91679 462
19.93691 480
19.95702 481
19.97713 483
19.99725 455
20.01736 467
20.03747 426
20.05759 432
20.0777 417
20.09782 413
20.11793 429
20.13804 426
20.15816 405
20.17827 435
20.19838 450
20.2185 434
20.23861 395
20.25872 412
20.27884 453
20.29895 420
20.31907 468
20.33918 412
20.35929 446
20.37941 437
20.39952 424
20.41963 449
20.43975 436
20.45986 448
20.47998 427
20.50009 461
20.5202 469
20.54032 489
20.56043 498
20.58054 573
20.60066 582
20.62077 687
20.64088 818
20.661 898
20.68111 1067
20.70123 1347
20.72134 1663
20.74145 2085
20.76157 2447
20.78168 2801
20.80179 3068
20.82191 3157
20.84202 2977
20.86214 2771
20.88225 2275
20.90236 1848
20.92248 1396
20.94259 1207
20.9627 867
20.98282 811
21.00293 669
21.02305 643
21.04316 580
21.06327 560
21.08339 502
21.1035 454
21.12361 468
21.14373 389
21.16384 425
21.18395 404
21.20407 415
21.22418 418
21.2443 411
21.26441 417
21.28452 427
21.30464 413
21.32475 430
21.34486 397
21.36498 398
21.38509 408
21.40521 420
21.42532 385
21.44543 402
21.46555 396
21.48566 365
21.50577 400
21.52589 412
21.546 370
21.56612 363
21.58623 369
21.60634 366
21.62646 380
21.64657 347
21.66668 378
21.6868 414
21.70691 394
21.72702 404
21.74714 383
21.76725 410
21.78737 396
21.80748 386
21.82759 414
21.84771 466
21.86782 485
21.88793 523
21.90805 588
21.92816 608
21.94828 636
21.96839 604
21.9885 666
22.00862 600
22.02873 555
22.04884 577
22.06896 491
22.08907 450
22.10919 445
22.1293 439
22.14941 416
22.16953 383
22.18964 369
22.20975 443
22.22987 380
22.24998 348
22.27009 400
22.29021 366
22.31032 395
22.33044 395
22.35055 362
22.37066 338
22.39078 375
22.41089 352
22.431 342
22.45112 380
22.47123 364
22.49135 377
22.51146 397
22.53157 371
22.55169 351
22.5718 382
22.59191 346
22.61203 344
22.63214 346
22.65225 359
22.67237 400
22.69248 383
22.7126 352
22.73271 371
22.75282 373
22.77294 383
22.79305 374
22.81316 414
22.83328 393
22.85339 403
22.87351 367
22.89362 426
22.91373 399
22.93385 392
22.95396 393
22.97407 466
22.99419 427
23.0143 430
23.03442 435
23.05453 415
23.07464 431
23.09476 430
23.11487 430
23.13498 395
23.1551 426
23.17521 392
23.19532 409
23.21544 409
23.23555 397
23.25567 396
23.27578 351
23.29589 383
23.31601 368
23.33612 380
23.35623 390
23.37635 435
23.39646 459
23.41658 433
23.43669 522
23.4568 493
23.47692 524
23.49703 517
23.51714 535
23.53726 535
23.55737 549
23.57749 563
23.5976 511
23.61771 503
23.63783 534
23.65794 455
23.67805 509
23.69817 462
23.71828 449
23.73839 426
23.75851 494
23.77862 440
23.79874 425
23.81885 414
23.83896 438
23.85908 452
23.87919 454
23.8993 491
23.91942 419
23.93953 480
23.95965 483
23.97976 507
23.99987 436
24.01999 501
24.0401 495
24.06021 508
24.08033 515
24.10044 530
24.12056 478
24.14067 536
24.16078 536
24.1809 536
24.20101 572
24.22112 532
24.24124 558
24.26135 609
24.28146 559
24.30158 509
24.32169 500
24.34181 489
24.36192 435
24.38203 451
24.40215 427
24.42226 416
24.44237 400
24.46249 427
24.4826 393
24.50272 418
24.52283 377
24.54294 379
24.56306 343
24.58317 376
24.60328 406
24.6234 355
24.64351 375
24.66362 412
24.68374 373
24.70385 355
24.72397 371
24.74408 368
24.76419 386
24.78431 371
24.80442 350
24.82453 359
24.84465 365
24.86476 371
24.88488 371
24.90499 373
24.9251 389
24.94522 403
24.96533 436
24.98544 415
25.00556 399
25.02567 392
25.04579 378
25.0659 404
25.08601 355
25.10613 403
25.12624 408
25.14635 383
25.16647 379
25.18658 419
25.20669 406
25.22681 393
25.24692 417
25.26704 446
25.28715 410
25.30726 439
25.32738 452
25.34749 459
25.3676 456
25.38772 474
25.40783 439
25.42795 502
25.44806 483
25.46817 515
25.48829 505
25.5084 475
25.52851 541
25.54863 536
25.56874 536
25.58886 588
25.60897 573
25.62908 523
25.6492 535
25.66931 481
25.68942 524
25.70954 513
25.72965 521
25.74976 498
25.76988 519
25.78999 482
25.81011 449
25.83022 522
25.85033 429
25.87045 486
25.89056 503
25.91067 477
25.93079 471
25.9509 494
25.97102 542
25.99113 531
26.01124 528
26.03136 530
26.05147 593
26.07158 608
26.0917 582
26.11181 638
26.13193 665
26.15204 631
26.17215 740
26.19227 734
26.21238 864
26.23249 844
26.25261 898
26.27272 1003
26.29283 1098
26.31295 1225
26.33306 1331
26.35318 1511
26.37329 1721
26.3934 2254
26.41352 2734
26.43363 3430
26.45374 4485
26.47386 5713
26.49397 7117
26.51409 8873
26.5342 10731
26.55431 12028
26.57443 13355
26.59454 13168
26.61465 12374
26.63477 11427
26.65488 9442
26.67499 7462
26.69511 5469
26.71522 4129
26.73534 2964
26.75545 2107
26.77556 1541
26.79568 1249
26.81579 1138
26.8359 1054
26.85602 1013
26.87613 913
26.89625 859
26.91636 803
26.93647 801
26.95659 873
26.9767 798
26.99681 762
27.01693 731
27.03704 727
27.05716 707
27.07727 670
27.09738 701
27.1175 652
27.13761 623
27.15772 622
27.17784 583
27.19795 596
27.21806 603
27.23818 611
27.25829 620
27.27841 673
27.29852 643
27.31863 686
27.33875 755
27.35886 758
27.37897 789
27.39909 820
27.4192 796
27.43932 814
27.45943 795
27.47954 842
27.49966 774
27.51977 682
27.53988 708
27.56 712
27.58011 711
27.60023 767
27.62034 730
27.64045 827
27.66057 859
27.68068 876
27.70079 836
27.72091 881
27.74102 889
27.76113 949
27.78125 951
27.80136 923
27.82148 986
27.84159 1006
27.8617 949
27.88182 973
27.90193 1013
27.92204 926
27.94216 941
27.96227 880
27.98239 791
28.0025 736
28.02261 687
28.04273 648
28.06284 650
28.08295 635
28.10307 571
28.12318 562
28.1433 549
28.16341 535
28.18352 568
28.20364 500
28.22375 501
28.24386 523
28.26398 502
28.28409 494
28.3042 467
28.32432 478
28.34443 477
28.36455 455
28.38466 489
28.40477 453
28.42489 432
28.445 447
28.46511 381
28.48523 416
28.50534 382
28.52546 439
28.54557 403
28.56568 422
28.5858 400
28.60591 424
28.62602 414
28.64614 427
28.66625 426
28.68636 381
28.70648 378
28.72659 383
28.74671 388
28.76682 399
28.78693 381
28.80705 410
28.82716 398
28.84727 377
28.86739 365
28.8875 365
28.90762 351
28.92773 366
28.94784 396
28.96796 408
28.98807 342
29.00818 367
29.0283 384
29.04841 402
29.06853 361
29.08864 382
29.10875 369
29.12887 417
29.14898 418
29.16909 384
29.18921 388
29.20932 424
29.22943 418
29.24955 442
29.26966 447
29.28978 499
29.30989 480
29.33 540
29.35012 536
29.37023 587
29.39034 624
29.41046 589
29.43057 584
29.45069 571
29.4708 546
29.49091 501
29.51103 536
29.53114 501
29.55125 434
29.57137 432
29.59148 490
29.6116 421
29.63171 470
29.65182 472
29.67194 465
29.69205 445
29.71216 471
29.73228 463
29.75239 474
29.7725 480
29.79262 491
29.81273 525
29.83285 500
29.85296 431
29.87307 444
29.89319 452
29.9133 463
29.93341 462
29.95353 437
29.97364 466
29.99376 415
30.01387 439
30.03398 443
30.0541 459
30.07421 516
30.09432 503
30.11444 492
30.13455 474
30.15467 456
30.17478 417
30.19489 463
30.21501 441
30.23512 489
30.25523 409
30.27535 442
30.29546 496
30.31557 458
30.33569 462
30.3558 495
30.37592 467
30.39603 481
30.41614 478
30.43626 458
30.45637 454
30.47648 432
30.4966 440
30.51671 456
30.53683 399
30.55694 417
30.57705 445
30.59717 411
30.61728 408
30.63739 454
30.65751 428
30.67762 450
30.69773 424
30.71785 481
30.73796 469
30.75808 492
30.77819 498
30.7983 472
30.81842 477
30.83853 467
30.85864 468
30.87876 505
30.89887 468
30.91899 449
30.9391 470
30.95921 409
30.97933 386
30.99944 389
31.01955 382
31.03967 374
31.05978 367
31.0799 356
31.10001 351
31.12012 360
31.14024 377
31.16035 378
31.18046 370
31.20058 355
31.22069 362
31.2408 381
31.26092 389
31.28103 389
31.30115 375
31.32126 378
31.34137 356
31.36149 357
31.3816 350
31.40171 388
31.42183 369
31.44194 330
31.46206 340
31.48217 310
31.50228 385
31.5224 349
31.54251 356
31.56262 331
31.58274 334
31.60285 326
31.62297 326
31.64308 349
31.66319 356
31.68331 337
31.70342 344
31.72353 324
31.74365 357
31.76376 363
31.78387 337
31.80399 383
31.8241 308
31.84422 321
31.86433 346
31.88444 329
31.90456 316
31.92467 326
31.94478 343
31.9649 343
31.98501 351
32.00513 368
32.02524 376
32.04535 339
32.06547 338
32.08558 378
32.10569 359
32.12581 342
32.14592 342
32.16604 379
32.18615 334
32.20626 360
32.22638 372
32.24649 345
32.2666 351
32.28672 335
32.30683 351
32.32694 349
32.34706 376
32.36717 358
32.38729 377
32.4074 412
32.42751 360
32.44763 384
32.46774 397
32.48785 386
32.50797 386
32.52808 350
32.5482 399
32.56831 355
32.58842 357
32.60854 346
32.62865 358
32.64876 308
32.66888 349
32.68899 320
32.7091 303
32.72922 358
32.74933 346
32.76945 351
32.78956 345
32.80967 330
32.82979 376
32.8499 367
32.87001 378
32.89013 370
32.91024 425
32.93036 358
32.95047 424
32.97058 367
32.9907 408
33.01081 388
33.03092 411
33.05104 381
33.07115 393
33.09127 383
33.11138 349
33.13149 390
33.15161 410
33.17172 383
33.19183 374
33.21195 359
33.23206 369
33.25217 362
33.27229 341
33.2924 359
33.31252 340
33.33263 327
33.35274 329
33.37286 370
33.39297 331
33.41308 346
33.4332 353
33.45331 346
33.47343 285
33.49354 366
33.51365 332
33.53377 339
33.55388 369
33.57399 317
33.59411 338
33.61422 363
33.63434 339
33.65445 385
33.67456 350
33.69468 334
33.71479 346
33.7349 350
33.75502 349
33.77513 338
33.79524 373
33.81536 382
33.83547 363
33.85559 335
33.8757 354
33.89581 403
33.91593 374
33.93604 334
33.95615 356
33.97627 354
33.99638 357
34.0165 342
34.03661 392
34.05672 396
34.07684 424
34.09695 384
34.11706 399
34.13718 406
34.15729 422
34.17741 390
34.19752 422
34.21763 452
34.23775 452
34.25786 466
34.27797 465
34.29809 474
34.3182 458
34.33831 529
34.35843 487
34.37854 517
34.39866 524
34.41877 523
34.43888 556
34.459 626
34.47911 550
34.49922 635
34.51934 601
34.53945 626
34.55957 655
34.57968 645
34.59979 728
34.61991 700
34.64002 743
34.66013 701
34.68025 663
34.70036 672
34.72047 710
34.74059 642
34.7607 623
34.78082 588
34.80093 626
34.82104 593
34.84116 564
34.86127 568
34.88138 547
34.9015 591
34.92161 563
34.94173 603
34.96184 574
34.98195 567
35.00207 553
35.02218 548
35.04229 523
35.06241 541
35.08252 499
35.10264 541
35.12275 504
35.14286 561
35.16298 514
35.18309 457
35.2032 559
35.22332 505
35.24343 536
35.26354 494
35.28366 506
35.30377 493
35.32389 469
35.344 535
35.36411 511
35.38423 547
35.40434 489
35.42445 496
35.44457 490
35.46468 536
35.4848 481
35.50491 513
35.52502 492
35.54514 499
35.56525 512
35.58536 521
35.60548 470
35.62559 486
35.64571 483
35.66582 447
35.68593 457
35.70605 457
35.72616 443
35.74627 456
35.76639 397
35.7865 401
35.80661 393
35.82673 415
35.84684 374
35.86696 428
35.88707 412
35.90718 397
35.9273 393
35.94741 396
35.96752 409
35.98764 413
36.00775 417
36.02787 454
36.04798 390
36.06809 412
36.08821 366
36.10832 451
36.12843 407
36.14855 406
36.16866 405
36.18878 394
36.20889 431
36.229 432
36.24912 470
36.26923 503
36.28934 521
36.30946 577
36.32957 644
36.34968 758
36.3698 736
36.38991 974
36.41003 1007
36.43014 1148
36.45025 1161
36.47037 1210
36.49048 1212
36.51059 1196
36.53071 1073
36.55082 1029
36.57094 893
36.59105 793
36.61116 687
36.63128 660
36.65139 586
36.6715 533
36.69162 442
36.71173 415
36.73184 427
36.75196 430
36.77207 394
36.79219 420
36.8123 455
36.83241 415
36.85253 411
36.87264 429
36.89275 437
36.91287 405
36.93298 392
36.9531 400
36.97321 395
36.99332 382
37.01344 373
37.03355 382
37.05366 386
37.07378 389
37.09389 329
37.11401 403
37.13412 378
37.15423 384
37.17435 356
37.19446 364
37.21457 334
37.23469 381
37.2548 378
37.27491 362
37.29503 366
37.31514 375
37.33526 383
37.35537 396
37.37548 369
37.3956 354
37.41571 386
37.43582 385
37.45594 399
37.47605 413
37.49617 414
37.51628 370
37.53639 408
37.55651 386
37.57662 375
37.59673 378
37.61685 407
37.63696 361
37.65708 401
37.67719 373
37.6973 400
37.71742 396
37.73753 378
37.75764 351
37.77776 366
37.79787 371
37.81798 351
37.8381 379
37.85821 357
37.87833 337
37.89844 329
37.91855 352
37.93867 394
37.95878 367
37.97889 382
37.99901 389
38.01912 361
38.03924 357
38.05935 398
38.07946 386
38.09958 372
38.11969 371
38.1398 382
38.15992 360
38.18003 364
38.20015 368
38.22026 340
38.24037 335
38.26049 364
38.2806 338
38.30071 333
38.32083 351
38.34094 379
38.36105 344
38.38117 313
38.40128 330
38.4214 328
38.44151 366
38.46162 367
38.48174 357
38.50185 338
38.52196 351
38.54208 343
38.56219 328
38.58231 354
38.60242 314
38.62253 342
38.64265 310
38.66276 315
38.68287 334
38.70299 353
38.7231 301
38.74321 358
38.76333 342
38.78344 312
38.80356 333
38.82367 336
38.84378 347
38.8639 316
38.88401 328
38.90412 346
38.92424 350
38.94435 324
38.96447 355
38.98458 344
39.00469 338
39.02481 371
39.04492 338
39.06503 343
39.08515 401
39.10526 348
39.12538 384
39.14549 430
39.1656 420
39.18572 439
39.20583 455
39.22594 525
39.24606 577
39.26617 612
39.28628 679
39.3064 828
39.32651 977
39.34663 966
39.36674 1040
39.38685 1105
39.40697 1175
39.42708 1155
39.44719 1075
39.46731 1006
39.48742 884
39.50754 762
39.52765 681
39.54776 608
39.56788 566
39.58799 492
39.6081 449
39.62822 413
39.64833 456
39.66845 423
39.68856 399
39.70867 428
39.72879 383
39.7489 389
39.76901 358
39.78913 396
39.80924 370
39.82935 352
39.84947 376
39.86958 346
39.8897 359
39.90981 344
39.92992 371
39.95004 381
39.97015 358
39.99026 348
40.01038 386
40.03049 433
40.05061 418
40.07072 474
40.09083 487
40.11095 489
40.13106 544
40.15117 606
40.17129 584
40.1914 673
40.21152 721
40.23163 709
40.25174 696
40.27186 625
40.29197 613
40.31208 545
40.3322 555
40.35231 479
40.37242 429
40.39254 398
40.41265 399
40.43277 408
40.45288 323
40.47299 357
40.49311 332
40.51322 335
40.53333 305
40.55345 344
40.57356 329
40.59368 316
40.61379 354
40.6339 353
40.65402 354
40.67413 319
40.69424 324
40.71436 328
40.73447 331
40.75458 316
40.7747 335
40.79481 312
40.81493 373
40.83504 320
40.85515 340
40.87527 336
40.89538 325
40.91549 345
40.93561 351
40.95572 315
40.97584 336
40.99595 311
41.01606 326
41.03618 319
41.05629 342
41.0764 365
41.09652 323
41.11663 340
41.13675 330
41.15686 362
41.17697 338
41.19709 324
41.2172 335
41.23731 335
41.25743 329
41.27754 354
41.29765 335
41.31777 305
41.33788 324
41.358 333
41.37811 332
41.39822 339
41.41834 338
41.43845 333
41.45856 343
41.47868 360
41.49879 346
41.51891 363
41.53902 352
41.55913 374
41.57925 373
41.59936 346
41.61947 371
41.63959 397
41.6597 365
41.67982 404
41.69993 389
41.72004 350
41.74016 379
41.76027 385
41.78038 364
41.8005 357
41.82061 416
41.84072 335
41.86084 352
41.88095 357
41.90107 369
41.92118 348
41.94129 320
41.96141 329
41.98152 335
42.00163 357
42.02175 335
42.04186 398
42.06198 366
42.08209 363
42.1022 381
42.12232 388
42.14243 398
42.16254 409
42.18266 405
42.20277 478
42.22289 486
42.243 556
42.26311 593
42.28323 630
42.30334 793
42.32345 773
42.34357 861
42.36368 932
42.38379 933
42.40391 850
42.42402 843
42.44414 759
42.46425 803
42.48436 695
42.50448 654
42.52459 545
42.5447 527
42.56482 488
42.58493 445
42.60505 446
42.62516 371
42.64527 368
42.66539 371
42.6855 387
42.70561 342
42.72573 366
42.74584 335
42.76595 363
42.78607 341
42.80618 394
42.8263 341
42.84641 355
42.86652 342
42.88664 333
42.90675 337
42.92686 326
42.94698 314
42.96709 319
42.98721 314
43.00732 320
43.02743 310
43.04755 314
43.06766 325
43.08777 332
43.10789 348
43.128 328
43.14812 318
43.16823 335
43.18834 337
43.20846 322
43.22857 327
43.24868 306
43.2688 310
43.28891 323
43.30902 316
43.32914 317
43.34925 324
43.36937 350
43.38948 311
43.40959 332
43.42971 311
43.44982 298
43.46993 315
43.49005 275
43.51016 307
43.53028 296
43.55039 314
43.5705 297
43.59062 301
43.61073 276
43.63084 309
43.65096 268
43.67107 291
43.69119 305
43.7113 301
43.73141 268
43.75153 284
43.77164 286
43.79175 290
43.81187 296
43.83198 285
43.85209 277
43.87221 283
43.89232 285
43.91244 277
43.93255 282
43.95266 306
43.97278 300
43.99289 306
44.013 334
44.03312 326
44.05323 293
44.07335 266
44.09346 287
44.11357 305
44.13369 308
44.1538 286
44.17391 310
44.19403 319
44.21414 278
44.23426 280
44.25437 301
44.27448 318
44.2946 306
44.31471 294
44.33482 316
44.35494 321
44.37505 295
44.39516 304
44.41528 284
44.43539 299
44.45551 321
44.47562 318
44.49573 277
44.51585 285
44.53596 317
44.55607 267
44.57619 296
44.5963 288
44.61642 264
44.63653 323
44.65664 295
44.67676 322
44.69687 291
44.71698 298
44.7371 327
44.75721 325
44.77732 301
44.79744 307
44.81755 317
44.83767 299
44.85778 312
44.87789 314
44.89801 313
44.91812 321
44.93823 300
44.95835 316
44.97846 303
44.99858 286
45.01869 313
45.0388 318
45.05892 333
45.07903 323
45.09914 312
45.11926 355
45.13937 339
45.15949 296
45.1796 310
45.19971 346
45.21983 313
45.23994 322
45.26005 329
45.28017 341
45.30028 321
45.32039 331
45.34051 325
45.36062 338
45.38074 345
45.40085 341
45.42096 347
45.44108 397
45.46119 338
45.4813 353
45.50142 370
45.52153 371
45.54165 460
45.56176 458
45.58187 464
45.60199 498
45.6221 486
45.64221 582
45.66233 590
45.68244 634
45.70256 646
45.72267 633
45.74278 679
45.7629 625
45.78301 624
45.80312 553
45.82324 522
45.84335 505
45.86346 463
45.88358 404
45.90369 388
45.92381 372
45.94392 344
45.96403 363
45.98415 316
46.00426 355
46.02437 308
46.04449 320
46.0646 324
46.08472 308
46.10483 290
46.12494 291
46.14506 314
46.16517 333
46.18528 301
46.2054 281
46.22551 264
46.24563 266
46.26574 294
46.28585 292
46.30597 298
46.32608 290
46.34619 268
46.36631 273
46.38642 263
46.40653 282
46.42665 286
46.44676 292
46.46688 261
46.48699 301
46.5071 280
46.52722 287
46.54733 282
46.56744 266
46.58756 298
46.60767 272
46.62779 305
46.6479 300
46.66801 255
46.68813 263
46.70824 278
46.72835 280
46.74847 261
46.76858 268
46.78869 309
46.80881 275
46.82892 252
46.84904 249
46.86915 258
46.88926 298
46.90938 306
46.92949 305
46.9496 263
46.96972 297
46.98983 327
47.00995 303
47.03006 299
47.05017 341
47.07029 322
47.0904 296
47.11051 303
47.13063 342
47.15074 322
47.17086 318
47.19097 299
47.21108 306
47.2312 310
47.25131 322
47.27142 306
47.29154 261
47.31165 296
47.33176 281
47.35188 294
47.37199 336
47.39211 281
47.41222 304
47.43233 301
47.45245 344
47.47256 326
47.49267 284
47.51279 343
47.5329 297
47.55302 339
47.57313 330
47.59324 274
47.61336 311
47.63347 317
47.65358 304
47.6737 304
47.69381 284
47.71393 300
47.73404 301
47.75415 264
47.77427 277
47.79438 283
47.81449 278
47.83461 297
47.85472 324
47.87483 304
47.89495 319
47.91506 275
47.93518 333
47.95529 298
47.9754 292
47.99552 309
48.01563 287
48.03574 296
48.05586 313
48.07597 316
48.09609 321
48.1162 326
48.13631 298
48.15643 319
48.17654 305
48.19665 282
48.21677 342
48.23688 334
48.257 323
48.27711 336
48.29722 309
48.31734 335
48.33745 339
48.35756 320
48.37768 344
48.39779 335
48.4179 347
48.43802 360
48.45813 345
48.47825 370
48.49836 358
48.51847 374
48.53859 372
48.5587 350
48.57881 374
48.59893 346
48.61904 339
48.63916 373
48.65927 339
48.67938 304
48.6995 337
48.71961 339
48.73972 323
48.75984 299
48.77995 327
48.80006 324
48.82018 328
48.84029 308
48.86041 336
48.88052 298
48.90063 332
48.92075 323
48.94086 320
48.96097 320
48.98109 281
49.0012 315
49.02132 304
49.04143 303
49.06154 307
49.08166 298
49.10177 297
49.12188 326
49.142 337
49.16211 360
49.18223 350
49.20234 316
49.22245 331
49.24257 348
49.26268 333
49.28279 377
49.30291 317
49.32302 353
49.34313 308
49.36325 322
49.38336 310
49.40348 356
49.42359 333
49.4437 340
49.46382 322
49.48393 332
49.50404 360
49.52416 336
49.54427 312
49.56439 343
49.5845 362
49.60461 376
49.62473 335
49.64484 365
49.66495 363
49.68507 372
49.70518 403
49.7253 471
49.74541 454
49.76552 446
49.78564 480
49.80575 462
49.82586 497
49.84598 548
49.86609 618
49.8862 663
49.90632 753
49.92643 886
49.94655 981
49.96666 1099
49.98677 1312
50.00689 1413
50.027 1498
50.04711 1628
50.06723 1559
50.08734 1575
50.10746 1487
50.12757 1333
50.14768 1215
50.1678 1119
50.18791 1045
50.20802 953
50.22814 840
50.24825 697
50.26837 627
50.28848 531
50.30859 461
50.32871 467
50.34882 395
50.36893 401
50.38905 400
50.40916 397
50.42927 404
50.44939 366
50.4695 399
50.48962 385
50.50973 387
50.52984 437
50.54996 418
50.57007 430
50.59018 387
50.6103 400
50.63041 360
50.65053 346
50.67064 383
50.69075 358
50.71087 345
50.73098 327
50.75109 340
50.77121 323
50.79132 343
50.81143 320
50.83155 317
50.85166 286
50.87178 290
50.89189 268
50.912 304
50.93212 272
50.95223 303
50.97234 307
50.99246 284
51.01257 332
51.03269 312
51.0528 363
51.07291 321
51.09303 328
51.11314 309
51.13325 318
51.15337 326
51.17348 344
51.1936 305
51.21371 307
51.23382 302
51.25394 316
51.27405 316
51.29416 292
51.31428 261
51.33439 311
51.3545 275
51.37462 279
51.39473 294
51.41485 282
51.43496 276
51.45507 256
51.47519 268
51.4953 272
51.51541 290
51.53553 261
51.55564 288
51.57576 299
51.59587 301
51.61598 287
51.6361 284
51.65621 250
51.67632 279
51.69644 300
51.71655 300
51.73667 303
51.75678 274
51.77689 257
51.79701 259
51.81712 277
51.83723 279
51.85735 296
51.87746 255
51.89757 248
51.91769 251
51.9378 280
51.95792 263
51.97803 256
51.99814 274
52.01826 271
52.03837 294
52.05848 278
52.0786 292
52.09871 336
52.11883 270
52.13894 260
52.15905 299
52.17917 277
52.19928 293
52.21939 269
52.23951 264
52.25962 290
52.27974 279
52.29985 275
52.31996 265
52.34008 304
52.36019 264
52.3803 303
52.40042 310
52.42053 277
52.44064 325
52.46076 302
52.48087 271
52.50099 298
52.5211 335
52.54121 286
52.56133 306
52.58144 319
52.60155 301
52.62167 276
52.64178 309
52.6619 261
52.68201 286
52.70212 283
52.72224 282
52.74235 312
52.76246 287
52.78258 281
52.80269 284
52.8228 323
52.84292 313
52.86303 315
52.88315 270
52.90326 299
52.92337 345
52.94349 289
52.9636 330
52.98371 329
53.00383 321
53.02394 332
53.04406 322
53.06417 333
53.08428 323
53.1044 319
53.12451 344
53.14462 338
53.16474 308
53.18485 301
53.20497 313
53.22508 298
53.24519 330
53.26531 304
53.28542 325
53.30553 328
53.32565 353
53.34576 289
53.36587 317
53.38599 305
53.4061 273
53.42622 297
53.44633 321
53.46644 313
53.48656 307
53.50667 297
53.52678 306
53.5469 315
53.56701 292
53.58713 303
53.60724 298
53.62735 332
53.64747 287
53.66758 321
53.68769 335
53.70781 344
53.72792 291
53.74804 318
53.76815 323
53.78826 317
53.80838 322
53.82849 300
53.8486 320
53.86872 297
53.88883 325
53.90894 330
53.92906 332
53.94917 338
53.96929 297
53.9894 306
54.00951 330
54.02963 324
54.04974 336
54.06985 324
54.08997 334
54.11008 329
54.1302 341
54.15031 342
54.17042 321
54.19054 327
54.21065 305
54.23076 321
54.25088 326
54.27099 354
54.29111 299
54.31122 322
54.33133 351
54.35145 317
54.37156 327
54.39167 289
54.41179 331
54.4319 350
54.45201 304
54.47213 360
54.49224 372
54.51236 320
54.53247 357
54.55258 408
54.5727 352
54.59281 401
54.61292 414
54.63304 427
54.65315 485
54.67327 505
54.69338 544
54.71349 577
54.73361 637
54.75372 659
54.77383 694
54.79395 664
54.81406 706
54.83417 626
54.85429 594
54.8744 559
54.89452 548
54.91463 585
54.93474 512
54.95486 473
54.97497 451
54.99508 497
55.0152 425
55.03531 453
55.05543 406
55.07554 411
55.09565 383
55.11577 403
55.13588 423
55.15599 443
55.17611 489
55.19622 451
55.21634 439
55.23645 491
55.25656 445
55.27668 458
55.29679 445
55.3169 458
55.33702 412
55.35713 423
55.37724 411
55.39736 411
55.41747 359
55.43759 336
55.4577 351
55.47781 370
55.49793 320
55.51804 355
55.53815 328
55.55827 330
55.57838 312
55.5985 314
55.61861 341
55.63872 325
55.65884 314
55.67895 314
55.69906 309
55.71918 334
55.73929 308
55.75941 284
55.77952 301
55.79963 337
55.81975 317
55.83986 285
55.85997 292
55.88009 307
55.9002 295
55.92031 299
55.94043 310
55.96054 277
55.98066 305
56.00077 282
56.02088 291
56.041 305
56.06111 295
56.08122 306
56.10134 296
56.12145 288
56.14157 339
56.16168 295
56.18179 326
56.20191 312
56.22202 330
56.24213 273
56.26225 281
56.28236 289
56.30248 299
56.32259 323
56.3427 284
56.36282 303
56.38293 294
56.40304 274
56.42316 278
56.44327 305
56.46338 283
56.4835 289
56.50361 329
56.52373 276
56.54384 321
56.56395 307
56.58407 309
56.60418 288
56.62429 297
56.64441 307
56.66452 273
56.68464 302
56.70475 305
56.72486 282
56.74498 314
56.76509 280
56.7852 278
56.80532 308
56.82543 267
56.84554 310
56.86566 301
56.88577 286
56.90589 313
56.926 291
56.94611 324
56.96623 332
56.98634 292
57.00645 271
57.02657 339
57.04668 313
57.0668 316
57.08691 325
57.10702 327
57.12714 315
57.14725 328
57.16736 343
57.18748 297
57.20759 343
57.22771 352
57.24782 333
57.26793 315
57.28805 345
57.30816 323
57.32827 327
57.34839 309
57.3685 344
57.38861 315
57.40873 352
57.42884 330
57.44896 350
57.46907 362
57.48918 307
57.5093 327
57.52941 349
57.54952 348
57.56964 319
57.58975 308
57.60987 325
57.62998 300
57.65009 307
57.67021 280
57.69032 279
57.71043 265
57.73055 330
57.75066 315
57.77078 282
57.79089 285
57.811 281
57.83112 293
57.85123 271
57.87134 269
57.89146 295
57.91157 285
57.93168 281
57.9518 281
57.97191 280
57.99203 271
58.01214 289
58.03225 282
58.05237 310
58.07248 290
58.09259 294
58.11271 285
58.13282 298
58.15294 301
58.17305 307
58.19316 286
58.21328 290
58.23339 281
58.2535 309
58.27362 274
58.29373 289
58.31385 319
58.33396 292
58.35407 271
58.37419 310
58.3943 285
58.41441 256
58.43453 310
58.45464 286
58.47475 294
58.49487 300
58.51498 310
58.5351 277
58.55521 291
58.57532 328
58.59544 294
58.61555 288
58.63566 265
58.65578 305
58.67589 288
58.69601 280
58.71612 319
58.73623 291
58.75635 276
58.77646 273
58.79657 301
58.81669 300
58.8368 282
58.85691 304
58.87703 294
58.89714 317
58.91726 288
58.93737 282
58.95748 299
58.9776 264
58.99771 291
59.01782 299
59.03794 262
59.05805 315
59.07817 299
59.09828 278
59.11839 300
59.13851 293
59.15862 280
59.17873 298
59.19885 307
59.21896 311
59.23908 284
59.25919 279
59.2793 315
59.29942 294
59.31953 294
59.33964 303
59.35976 306
59.37987 293
59.39998 365
59.4201 331
59.44021 304
59.46033 353
59.48044 333
59.50055 384
59.52067 393
59.54078 380
59.56089 401
59.58101 373
59.60112 414
59.62124 435
59.64135 498
59.66146 523
59.68158 567
59.70169 586
59.7218 650
59.74192 747
59.76203 848
59.78215 849
59.80226 986
59.82237 1072
59.84249 1119
59.8626 1097
59.88271 1169
59.90283 1075
59.92294 1065
59.94305 929
59.96317 907
59.98328 826
60.0034 741
60.02351 736
60.04362 699
60.06374 654
60.08385 608
60.10396 566
60.12408 502
60.14419 423
60.16431 373
60.18442 388
60.20453 373
60.22465 317
60.24476 350
60.26487 325
60.28499 336
60.3051 355
60.32522 314
60.34533 329
60.36544 355
60.38556 352
60.40567 320
60.42578 342
60.4459 282
60.46601 316
60.48612 313
60.50624 334
60.52635 331
60.54647 318
60.56658 321
60.58669 328
60.60681 315
60.62692 315
60.64703 300
60.66715 337
60.68726 286
60.70738 287
60.72749 328
60.7476 305
60.76772 305
60.78783 288
60.80794 328
60.82806 288
60.84817 276
60.86828 296
60.8884 320
60.90851 306
60.92863 285
60.94874 350
60.96885 262
60.98897 302
61.00908 311
61.02919 306
61.04931 306
61.06942 284
61.08954 304
61.10965 308
61.12976 327
61.14988 312
61.16999 304
61.1901 315
61.21022 339
61.23033 304
61.25045 349
61.27056 363
61.29067 341
61.31079 357
61.3309 352
61.35101 361
61.37113 340
61.39124 344
61.41135 360
61.43147 314
61.45158 363
61.4717 335
61.49181 331
61.51192 320
61.53204 360
61.55215 345
61.57226 339
61.59238 335
61.61249 326
61.63261 353
61.65272 371
61.67283 345
61.69295 365
61.71306 370
61.73317 366
61.75329 328
61.7734 376
61.79352 351
61.81363 368
61.83374 331
61.85386 307
61.87397 353
61.89408 316
61.9142 305
61.93431 301
61.95442 329
61.97454 326
61.99465 297
62.01477 316
62.03488 314
62.05499 305
62.07511 335
62.09522 327
62.11533 293
62.13545 342
62.15556 318
62.17568 313
62.19579 320
62.2159 313
62.23602 300
62.25613 288
62.27624 295
62.29636 328
62.31647 317
62.33659 310
62.3567 308
62.37681 294
62.39693 322
62.41704 275
62.43715 330
62.45727 286
62.47738 314
62.49749 306
62.51761 291
62.53772 299
62.55784 288
62.57795 293
62.59806 302
62.61818 311
62.63829 282
62.6584 310
62.67852 307
62.69863 282
62.71875 306
62.73886 323
62.75897 267
62.77909 259
62.7992 259
62.81931 285
62.83943 296
62.85954 258
62.87965 297
62.89977 293
62.91988 264
62.94 290
62.96011 280
62.98022 269
63.00034 299
63.02045 284
63.04056 294
63.06068 296
63.08079 270
63.10091 317
63.12102 296
63.14113 304
63.16125 315
63.18136 292
63.20147 284
63.22159 260
63.2417 287
63.26182 287
63.28193 316
63.30204 258
63.32216 334
63.34227 314
63.36238 273
63.3825 283
63.40261 294
63.42272 326
63.44284 304
63.46295 297
63.48307 292
63.50318 294
63.52329 291
63.54341 282
63.56352 300
63.58363 299
63.60375 277
63.62386 306
63.64398 289
63.66409 312
63.6842 328
63.70432 340
63.72443 350
63.74454 338
63.76466 377
63.78477 340
63.80489 363
63.825 364
63.84511 364
63.86523 393
63.88534 421
63.90545 461
63.92557 427
63.94568 434
63.96579 423
63.98591 435
64.00602 426
64.02614 375
64.04625 400
64.06636 391
64.08648 357
64.10659 375
64.1267 359
64.14682 356
64.16693 351
64.18705 314
64.20716 330
64.22727 304
64.24739 296
64.2675 314
64.28761 291
64.30773 297
64.32784 296
64.34796 309
64.36807 328
64.38818 316
64.4083 306
64.42841 253
64.44852 321
64.46864 294
64.48875 298
64.50886 304
64.52898 303
64.54909 288
64.56921 299
64.58932 288
64.60943 298
64.62955 297
64.64966 278
64.66977 317
64.68989 301
64.71 255
64.73012 274
64.75023 275
64.77034 299
64.79046 314
64.81057 295
64.83068 292
64.8508 261
64.87091 286
64.89102 300
64.91114 272
64.93125 306
64.95137 264
64.97148 267
64.99159 278
65.01171 300
65.03182 281
65.05193 294
65.07205 280
65.09216 271
65.11228 287
65.13239 310
65.1525 293
65.17262 301
65.19273 310
65.21284 271
65.23296 293
65.25307 299
65.27319 268
65.2933 279
65.31341 271
65.33353 301
65.35364 302
65.37375 283
65.39387 279
65.41398 276
65.43409 287
65.45421 277
65.47432 291
65.49444 303
65.51455 258
65.53466 284
65.55478 279
65.57489 291
65.595 302
65.61512 323
65.63523 325
65.65535 318
65.67546 286
65.69557 304
65.71569 287
65.7358 304
65.75591 297
65.77603 301
65.79614 277
65.81626 276
65.83637 275
65.85648 291
65.8766 272
65.89671 288
65.91682 279
65.93694 287
65.95705 273
65.97716 280
65.99728 281
66.01739 270
66.03751 273
66.05762 253
66.07773 275
66.09785 289
66.11796 253
66.13807 267
66.15819 278
66.1783 250
66.19842 303
66.21853 266
66.23864 283
66.25876 278
66.27887 283
66.29898 267
66.3191 253
66.33921 267
66.35933 263
66.37944 242
66.39955 278
66.41967 281
66.43978 257
66.45989 286
66.48001 238
66.50012 260
66.52023 263
66.54035 244
66.56046 289
66.58058 250
66.60069 271
66.6208 257
66.64092 273
66.66103 256
66.68114 261
66.70126 280
66.72137 276
66.74149 251
66.7616 301
66.78171 248
66.80183 284
66.82194 286
66.84205 269
66.86217 257
66.88228 251
66.90239 275
66.92251 258
66.94262 280
66.96274 262
66.98285 271
67.00296 308
67.02308 262
67.04319 285
67.0633 290
67.08342 285
67.10353 306
67.12365 301
67.14376 305
67.16387 274
67.18399 263
67.2041 291
67.22421 277
67.24433 312
67.26444 314
67.28456 318
67.30467 310
67.32478 339
67.3449 300
67.36501 314
67.38512 338
67.40524 350
67.42535 358
67.44546 375
67.46558 408
67.48569 470
67.50581 471
67.52592 491
67.54603 572
67.56615 641
67.58626 638
67.60637 673
67.62649 742
67.6466 775
67.66672 733
67.68683 760
67.70694 737
67.72706 727
67.74717 648
67.76728 622
67.7874 623
67.80751 624
67.82763 626
67.84774 627
67.86785 629
67.88797 678
67.90808 672
67.92819 729
67.94831 714
67.96842 789
67.98853 823
68.00865 860
68.02876 921
68.04888 934
68.06899 973
68.0891 945
68.10922 971
68.12933 915
68.14944 896
68.16956 930
68.18967 908
68.20979 843
68.2299 914
68.25001 914
68.27013 831
68.29024 776
68.31035 644
68.33047 577
68.35058 581
68.3707 524
68.39081 532
68.41092 464
68.43104 465
68.45115 425
68.47126 419
68.49138 378
68.51149 365
68.5316 335
68.55172 321
68.57183 319
68.59195 289
68.61206 292
68.63217 306
68.65229 311
68.6724 292
68.69251 298
68.71263 288
68.73274 302
68.75286 281
68.77297 263
68.79308 294
68.8132 307
68.83331 289
68.85342 268
68.87354 277
68.89365 297
68.91376 259
68.93388 273
68.95399 262
68.97411 288
68.99422 283
69.01433 267
69.03445 284
69.05456 259
69.07467 249
69.09479 294
69.1149 287
69.13502 248
69.15513 263
69.17524 287
69.19536 287
69.21547 274
69.23558 242
69.2557 276
69.27581 269
69.29593 257
69.31604 321
69.33615 296
69.35627 285
69.37638 314
69.39649 277
69.41661 334
69.43672 271
69.45683 254
69.47695 271
69.49706 272
69.51718 266
69.53729 270
69.5574 292
69.57752 263
69.59763 263
69.61774 272
69.63786 279
69.65797 278
69.67809 251
69.6982 267
69.71831 278
69.73843 248
69.75854 274
69.77865 288
69.79877 277
69.81888 238
69.839 242
69.85911 280
69.87922 263
69.89934 325
69.91945 258
69.93956 274
69.95968 296
69.97979 268
69.9999 294
70.02002 285
70.04013 297
70.06025 261
70.08036 269
70.10047 277
70.12059 275
70.1407 263
70.16081 260
70.18093 253
70.20104 265
70.22116 260
70.24127 268
70.26138 274
70.2815 259
70.30161 262
70.32172 246
70.34184 274
70.36195 245
70.38207 250
70.40218 267
70.42229 247
70.44241 244
70.46252 244
70.48263 254
70.50275 278
70.52286 273
70.54297 239
70.56309 234
70.5832 283
70.60332 266
70.62343 248
70.64354 267
70.66366 272
70.68377 258
70.70388 261
70.724 250
70.74411 256
70.76423 253
70.78434 253
70.80445 252
70.82457 248
70.84468 279
70.86479 246
70.88491 244
70.90502 264
70.92513 253
70.94525 239
70.96536 237
70.98548 268
71.00559 274
71.0257 273
71.04582 263
71.06593 244
71.08604 239
71.10616 276
71.12627 271
71.14639 252
71.1665 255
71.18661 250
71.20673 289
71.22684 268
71.24695 224
71.26707 261
71.28718 267
71.3073 269
71.32741 290
71.34752 253
71.36764 262
71.38775 244
71.40786 253
71.42798 309
71.44809 286
71.4682 273
71.48832 277
71.50843 263
71.52855 261
71.54866 275
71.56877 248
71.58889 265
71.609 290
71.62911 250
71.64923 258
71.66934 260
71.68946 289
71.70957 239
71.72968 263
71.7498 241
71.76991 286
71.79002 254
71.81014 271
71.83025 267
71.85037 268
71.87048 271
71.89059 241
71.91071 245
71.93082 269
71.95093 248
71.97105 245
71.99116 278
72.01127 265
72.03139 279
72.0515 247
72.07162 278
72.09173 243
72.11184 262
72.13196 252
72.15207 260
72.17218 267
72.1923 251
72.21241 286
72.23253 255
72.25264 264
72.27275 268
72.29287 266
72.31298 261
72.33309 249
72.35321 269
72.37332 286
72.39344 273
72.41355 261
72.43366 286
72.45378 264
72.47389 254
72.494 298
72.51412 278
72.53423 278
72.55434 267
72.57446 302
72.59457 307
72.61469 266
72.6348 263
72.65491 261
72.67503 289
72.69514 266
72.71525 265
72.73537 279
72.75548 274
72.7756 280
72.79571 277
72.81582 279
72.83594 278
72.85605 316
72.87616 278
72.89628 279
72.91639 259
72.9365 291
72.95662 292
72.97673 288
72.99685 297
73.01696 294
73.03707 267
73.05719 289
73.0773 297
73.09741 314
73.11753 318
73.13764 328
73.15776 336
73.17787 359
73.19798 309
73.2181 316
73.23821 345
73.25832 348
73.27844 374
73.29855 403
73.31867 433
73.33878 417
73.35889 446
73.37901 420
73.39912 400
73.41923 413
73.43935 399
73.45946 385
73.47957 347
73.49969 362
73.5198 356
73.53992 374
73.56003 381
73.58014 340
73.60026 391
73.62037 341
73.64048 322
73.6606 317
73.68071 316
73.70083 299
73.72094 279
73.74105 283
73.76117 277
73.78128 284
73.80139 265
73.82151 265
73.84162 286
73.86174 263
73.88185 288
73.90196 252
73.92208 283
73.94219 296
73.9623 265
73.98242 299
74.00253 285
74.02264 246
74.04276 271
74.06287 274
74.08299 289
74.1031 245
74.12321 283
74.14333 247
74.16344 271
74.18355 260
74.20367 256
74.22378 271
74.2439 272
74.26401 258
74.28412 279
74.30424 255
74.32435 236
74.34446 235
74.36458 277
74.38469 289
74.40481 290
74.42492 272
74.44503 256
74.46515 277
74.48526 272
74.50537 252
74.52549 241
74.5456 256
74.56571 253
74.58583 260
74.60594 252
74.62606 253
74.64617 283
74.66628 239
74.6864 254
74.70651 265
74.72662 283
74.74674 262
74.76685 271
74.78697 279
74.80708 267
74.82719 270
74.84731 282
74.86742 280
74.88753 253
74.90765 254
74.92776 279
74.94787 295
74.96799 264
74.9881 248
75.00822 265
