3.00117 19703
3.02128 18740
3.0414 18366
3.06151 18004
3.08162 17152
3.10174 17062
3.12185 16513
3.14197 16213
3.16208 15625
3.18219 15069
3.20231 15062
3.22242 14355
3.24253 14089
3.26265 13542
3.28276 12632
3.30288 12867
3.32299 12385
3.3431 11918
3.36322 11567
3.38333 11290
3.40344 10913
3.42356 10358
3.44367 10278
3.46379 9943
3.4839 9555
3.50401 9215
3.52413 8726
3.54424 8540
3.56435 8315
3.58447 7944
3.60458 7961
3.62469 7272
3.64481 7124
3.66492 6991
3.68504 6731
3.70515 6538
3.72526 6165
3.74538 5860
3.76549 5868
3.7856 5523
3.80572 5572
3.82583 5069
3.84595 4824
3.86606 4536
3.88617 4610
3.90629 4510
3.9264 4153
3.94651 4131
3.96663 4028
3.98674 3816
4.00686 3768
4.02697 3404
4.04708 3292
4.0672 3225
4.08731 3037
4.10742 3073
4.12754 2728
4.14765 2757
4.16776 2709
4.18788 2605
4.20799 2610
4.22811 2341
4.24822 2413
4.26833 2285
4.28845 2225
4.30856 2304
4.32867 1947
4.34879 2024
4.3689 2034
4.38902 1953
4.40913 2043
4.42924 1822
4.44936 1791
4.46947 1795
4.48958 1860
4.5097 1746
4.52981 1690
4.54992 1675
4.57004 1690
4.59015 1590
4.61027 1620
4.63038 1532
4.65049 1551
4.67061 1566
4.69072 1561
4.71083 1454
4.73095 1374
4.75106 1395
4.77118 1474
4.79129 1404
4.8114 1362
4.83152 1284
4.85163 1363
4.87174 1377
4.89186 1241
4.91197 1294
4.93209 1260
4.9522 1116
4.97231 1174
4.99243 1227
5.01254 1156
5.03265 1160
5.05277 1161
5.07288 1121
5.09299 1133
5.11311 1120
5.13322 1048
5.15334 1044
5.17345 1086
5.19356 1065
5.21368 1047
5.23379 945
5.2539 968
5.27402 971
5.29413 1010
5.31425 911
5.33436 930
5.35447 917
5.37459 911
5.3947 940
5.41481 842
5.43493 918
5.45504 843
5.47516 857
5.49527 914
5.51538 829
5.5355 798
5.55561 784
5.57572 783
5.59584 811
5.61595 796
5.63606 756
5.65618 744
5.67629 790
5.69641 767
5.71652 761
5.73663 705
5.75675 725
5.77686 773
5.79697 746
5.81709 752
5.8372 762
5.85732 699
5.87743 720
5.89754 722
5.91766 714
5.93777 635
5.95788 668
5.978 674
5.99811 755
6.01823 700
6.03834 734
6.05845 695
6.07857 745
6.09868 676
6.11879 721
6.13891 698
6.15902 664
6.17913 659
6.19925 676
6.21936 674
6.23948 714
6.25959 682
6.2797 633
6.29982 682
6.31993 672
6.34004 661
6.36016 694
6.38027 634
6.40039 679
6.4205 631
6.44061 658
6.46073 644
6.48084 644
6.50095 672
6.52107 602
6.54118 609
6.56129 622
6.58141 654
6.60152 637
6.62164 578
6.64175 600
6.66186 641
6.68198 572
6.70209 614
6.7222 592
6.74232 630
6.76243 613
6.78255 624
6.80266 624
6.82277 604
6.84289 589
6.863 617
6.88311 593
6.90323 589
6.92334 555
6.94346 667
6.96357 635
6.98368 563
7.0038 600
7.02391 617
7.04402 587
7.06414 595
7.08425 587
7.10436 529
7.12448 567
7.14459 598
7.16471 589
7.18482 604
7.20493 572
7.22505 596
7.24516 575
7.26527 568
7.28539 587
7.3055 567
7.32562 540
7.34573 560
7.36584 565
7.38596 568
7.40607 562
7.42618 577
7.4463 600
7.46641 589
7.48653 594
7.50664 564
7.52675 538
7.54687 546
7.56698 530
7.58709 579
7.60721 589
7.62732 526
7.64743 541
7.66755 571
7.68766 566
7.70778 579
7.72789 592
7.748 571
7.76812 566
7.78823 538
7.80834 540
7.82846 572
7.84857 522
7.86869 522
7.8888 531
7.90891 540
7.92903 512
7.94914 621
7.96925 515
7.98937 516
8.00948 491
8.0296 543
8.04971 525
8.06982 543
8.08994 575
8.11005 523
8.13016 523
8.15028 535
8.17039 548
8.1905 491
8.21062 517
8.23073 558
8.25085 559
8.27096 505
8.29107 493
8.31119 550
8.3313 586
8.35141 538
8.37153 558
8.39164 553
8.41176 552
8.43187 537
8.45198 537
8.4721 526
8.49221 538
8.51232 533
8.53244 549
8.55255 521
8.57266 547
8.59278 566
8.61289 528
8.63301 532
8.65312 565
8.67323 558
8.69335 586
8.71346 532
8.73357 565
8.75369 524
8.7738 538
8.79392 535
8.81403 548
8.83414 572
8.85426 558
8.87437 538
8.89448 542
8.9146 540
8.93471 557
8.95483 496
8.97494 529
8.99505 538
9.01517 470
9.03528 559
9.05539 561
9.07551 505
9.09562 476
9.11573 533
9.13585 508
9.15596 543
9.17608 521
9.19619 512
9.2163 487
9.23642 556
9.25653 498
9.27664 495
9.29676 501
9.31687 510
9.33699 504
9.3571 544
9.37721 516
9.39733 509
9.41744 504
9.43755 510
9.45767 501
9.47778 470
9.4979 541
9.51801 511
9.53812 569
9.55824 453
9.57835 514
9.59846 545
9.61858 514
9.63869 500
9.6588 531
9.67892 525
9.69903 533
9.71915 484
9.73926 533
9.75937 559
9.77949 486
9.7996 514
9.81971 556
9.83983 512
9.85994 480
9.88006 504
9.90017 493
9.92028 536
9.9404 491
9.96051 499
9.98062 495
10.00074 538
10.02085 543
10.04097 551
10.06108 525
10.08119 572
10.10131 536
10.12142 515
10.14153 494
10.16165 515
10.18176 487
10.20187 501
10.22199 479
10.2421 490
10.26222 507
10.28233 488
10.30244 533
10.32256 509
10.34267 520
10.36278 545
10.3829 477
10.40301 527
10.42313 559
10.44324 556
10.46335 565
10.48347 541
10.50358 509
10.52369 533
10.54381 522
10.56392 493
10.58403 516
10.60415 516
10.62426 530
10.64438 546
10.66449 517
10.6846 491
10.70472 507
10.72483 450
10.74494 525
10.76506 523
10.78517 536
10.80529 529
10.8254 514
10.84551 537
10.86563 483
10.88574 504
10.90585 548
10.92597 491
10.94608 472
10.9662 458
10.98631 523
11.00642 511
11.02654 475
11.04665 521
11.06676 513
11.08688 513
11.10699 548
11.1271 493
11.14722 496
11.16733 502
11.18745 542
11.20756 502
11.22767 524
11.24779 494
11.2679 493
11.28801 510
11.30813 528
11.32824 495
11.34836 521
11.36847 522
11.38858 539
11.4087 529
11.42881 515
11.44892 539
11.46904 514
11.48915 524
11.50927 456
11.52938 514
11.54949 532
11.56961 514
11.58972 482
11.60983 477
11.62995 514
11.65006 504
11.67017 528
11.69029 526
11.7104 584
11.73052 512
11.75063 522
11.77074 527
11.79086 507
11.81097 504
11.83108 498
11.8512 550
11.87131 505
11.89143 518
11.91154 539
11.93165 513
11.95177 492
11.97188 511
11.99199 497
12.01211 522
12.03222 540
12.05234 542
12.07245 563
12.09256 560
12.11268 522
12.13279 501
12.1529 542
12.17302 551
12.19313 567
12.21324 524
12.23336 570
12.25347 584
12.27359 553
12.2937 523
12.31381 552
12.33393 566
12.35404 545
12.37415 526
12.39427 594
12.41438 556
12.4345 528
12.45461 510
12.47472 548
12.49484 538
12.51495 522
12.53506 539
12.55518 498
12.57529 544
12.5954 505
12.61552 512
12.63563 519
12.65575 537
12.67586 566
12.69597 483
12.71609 502
12.7362 490
12.75631 501
12.77643 509
12.79654 482
12.81666 477
12.83677 485
12.85688 473
12.877 488
12.89711 499
12.91722 522
12.93734 484
12.95745 501
12.97757 498
12.99768 471
13.01779 461
13.03791 444
13.05802 450
13.07813 449
13.09825 481
13.11836 527
13.13847 504
13.15859 499
13.1787 484
13.19882 471
13.21893 501
13.23904 452
13.25916 497
13.27927 427
13.29938 499
13.3195 484
13.33961 488
13.35973 467
13.37984 485
13.39995 454
13.42007 476
13.44018 518
13.46029 475
13.48041 509
13.50052 548
13.52064 558
13.54075 576
13.56086 543
13.58098 643
13.60109 607
13.6212 653
13.64132 619
13.66143 567
13.68154 562
13.70166 557
13.72177 579
13.74189 549
13.762 521
13.78211 522
13.80223 558
13.82234 472
13.84245 491
13.86257 532
13.88268 498
13.9028 504
13.92291 448
13.94302 505
13.96314 500
13.98325 505
14.00336 475
14.02348 477
14.04359 454
14.06371 518
14.08382 497
14.10393 447
14.12405 449
14.14416 484
14.16427 483
14.18439 478
14.2045 468
14.22461 454
14.24473 459
14.26484 468
14.28496 462
14.30507 462
14.32518 480
14.3453 469
14.36541 481
14.38552 469
14.40564 452
14.42575 452
14.44587 486
14.46598 466
14.48609 449
14.50621 461
14.52632 484
14.54643 447
14.56655 438
14.58666 467
14.60677 487
14.62689 461
14.647 487
14.66712 462
14.68723 494
14.70734 449
14.72746 454
14.74757 466
14.76768 465
14.7878 429
14.80791 462
14.82803 445
14.84814 455
14.86825 415
14.88837 453
14.90848 501
14.92859 442
14.94871 496
14.96882 473
14.98894 467
15.00905 441
15.02916 471
15.04928 494
15.06939 491
15.0895 528
15.10962 490
15.12973 510
15.14984 492
15.16996 514
15.19007 531
15.21019 585
15.2303 512
15.25041 513
15.27053 484
15.29064 460
15.31075 504
15.33087 498
15.35098 508
15.3711 430
15.39121 454
15.41132 502
15.43144 472
15.45155 480
15.47166 467
15.49178 489
15.51189 442
15.53201 488
15.55212 465
15.57223 438
15.59235 469
15.61246 452
15.63257 496
15.65269 470
15.6728 489
15.69291 445
15.71303 427
15.73314 490
15.75326 492
15.77337 478
15.79348 448
15.8136 531
15.83371 502
15.85382 478
15.87394 482
15.89405 486
15.91417 480
15.93428 489
15.95439 426
15.97451 433
15.99462 436
16.01473 436
16.03485 427
16.05496 499
16.07508 407
16.09519 477
16.1153 465
16.13542 453
16.15553 467
16.17564 450
16.19576 491
16.21587 484
16.23598 460
16.2561 474
16.27621 481
16.29633 513
16.31644 431
16.33655 465
16.35667 399
16.37678 506
16.39689 456
16.41701 444
16.43712 491
16.45724 448
16.47735 480
16.49746 505
16.51758 482
16.53769 500
16.5578 462
16.57792 465
16.59803 431
16.61814 482
16.63826 452
16.65837 477
16.67849 471
16.6986 490
16.71871 463
16.73883 503
16.75894 437
16.77905 476
16.79917 489
16.81928 466
16.8394 500
16.85951 447
16.87962 447
16.89974 493
16.91985 488
16.93996 478
16.96008 455
16.98019 487
17.00031 494
17.02042 457
17.04053 488
17.06065 472
17.08076 430
17.10087 517
17.12099 479
17.1411 490
17.16121 498
17.18133 495
17.20144 453
17.22156 507
17.24167 531
17.26178 526
17.2819 506
17.30201 489
17.32212 465
17.34224 473
17.36235 483
17.38247 479
17.40258 484
17.42269 441
17.44281 482
17.46292 461
17.48303 521
17.50315 487
17.52326 487
17.54338 469
17.56349 478
17.5836 527
17.60372 521
17.62383 482
17.64394 451
17.66406 522
17.68417 523
17.70428 468
17.7244 488
17.74451 474
17.76463 515
17.78474 491
17.80485 485
17.82497 469
17.84508 511
17.86519 504
17.88531 505
17.90542 529
17.92554 505
17.94565 522
17.96576 547
17.98588 489
18.00599 532
18.0261 545
18.04622 521
18.06633 563
18.08645 560
18.10656 575
18.12667 679
18.14679 675
18.1669 724
18.18701 763
18.20713 795
18.22724 913
18.24735 956
18.26747 945
18.28758 953
18.3077 956
18.32781 877
18.34792 781
18.36804 744
18.38815 691
18.40826 630
18.42838 582
18.44849 546
18.46861 564
18.48872 604
18.50883 558
18.52895 510
18.54906 543
18.56917 592
18.58929 520
18.6094 571
18.62951 586
18.64963 497
18.66974 502
18.68986 491
18.70997 485
18.73008 531
18.7502 533
18.77031 518
18.79042 513
18.81054 538
18.83065 532
18.85077 526
18.87088 495
18.89099 454
18.91111 522
18.93122 507
18.95133 531
18.97145 500
18.99156 517
19.01168 543
19.03179 547
19.0519 508
19.07202 534
19.09213 494
19.11224 526
19.13236 502
19.15247 522
19.17258 556
19.1927 526
19.21281 555
19.23293 502
19.25304 595
19.27315 515
19.29327 542
19.31338 550
19.33349 545
19.35361 592
19.37372 559
19.39384 595
19.41395 557
19.43406 537
19.45418 557
19.47429 540
19.4944 568
19.51452 579
19.53463 541
19.55475 553
19.57486 582
19.59497 586
19.61509 600
19.6352 606
19.65531 635
19.67543 621
19.69554 589
19.71565 648
19.73577 624
19.75588 631
19.776 601
19.79611 629
19.81622 650
19.83634 621
19.85645 629
19.87656 709
19.89668 651
19.91679 675
19.93691 692
19.95702 655
19.97713 671
19.99725 676
20.01736 659
20.03747 660
20.05759 669
20.0777 664
20.09782 692
20.11793 707
20.13804 700
20.15816 745
20.17827 732
20.19838 735
20.2185 794
20.23861 807
20.25872 814
20.27884 842
20.29895 823
20.31907 744
20.33918 820
20.35929 679
20.37941 736
20.39952 780
20.41963 725
20.43975 711
20.45986 749
20.47998 731
20.50009 736
20.5202 698
20.54032 727
20.56043 744
20.58054 764
20.60066 685
20.62077 685
20.64088 740
20.661 654
20.68111 702
20.70123 670
20.72134 704
20.74145 772
20.76157 841
20.78168 906
20.80179 874
20.82191 992
20.84202 962
20.86214 876
20.88225 901
20.90236 807
20.92248 849
20.94259 767
20.9627 737
20.98282 646
21.00293 756
21.02305 724
21.04316 757
21.06327 670
21.08339 655
21.1035 673
21.12361 674
21.14373 636
21.16384 663
21.18395 698
21.20407 643
21.22418 635
21.2443 665
21.26441 631
21.28452 711
21.30464 707
21.32475 677
21.34486 731
21.36498 769
21.38509 817
21.40521 939
21.42532 927
21.44543 898
21.46555 909
21.48566 976
21.50577 981
21.52589 873
21.546 914
21.56612 880
21.58623 852
21.60634 790
21.62646 785
21.64657 765
21.66668 757
21.6868 735
21.70691 730
21.72702 703
21.74714 752
21.76725 678
21.78737 657
21.80748 702
21.82759 667
21.84771 693
21.86782 694
21.88793 734
21.90805 721
21.92816 715
21.94828 778
21.96839 753
21.9885 716
22.00862 722
22.02873 769
22.04884 649
22.06896 562
22.08907 627
22.10919 623
22.1293 625
22.14941 557
22.16953 624
22.18964 597
22.20975 620
22.22987 576
22.24998 609
22.27009 591
22.29021 596
22.31032 621
22.33044 592
22.35055 575
22.37066 655
22.39078 595
22.41089 581
22.431 582
22.45112 630
22.47123 620
22.49135 621
22.51146 632
22.53157 604
22.55169 600
22.5718 599
22.59191 570
22.61203 611
22.63214 600
22.65225 597
22.67237 676
22.69248 699
22.7126 669
22.73271 718
22.75282 738
22.77294 797
22.79305 758
22.81316 812
22.83328 800
22.85339 780
22.87351 716
22.89362 732
22.91373 711
22.93385 685
22.95396 658
22.97407 614
22.99419 644
23.0143 605
23.03442 647
23.05453 619
23.07464 628
23.09476 595
23.11487 606
23.13498 580
23.1551 610
23.17521 640
23.19532 571
23.21544 638
23.23555 649
23.25567 622
23.27578 621
23.29589 605
23.31601 636
23.33612 628
23.35623 647
23.37635 614
23.39646 658
23.41658 645
23.43669 684
23.4568 669
23.47692 732
23.49703 768
23.51714 812
23.53726 854
23.55737 901
23.57749 1031
23.5976 1018
23.61771 1127
23.63783 1233
23.65794 1126
23.67805 1150
23.69817 1141
23.71828 1060
23.73839 916
23.75851 884
23.77862 835
23.79874 730
23.81885 753
23.83896 754
23.85908 703
23.87919 699
23.8993 692
23.91942 682
23.93953 649
23.95965 688
23.97976 634
23.99987 676
24.01999 621
24.0401 694
24.06021 654
24.08033 636
24.10044 657
24.12056 625
24.14067 644
24.16078 624
24.1809 686
24.20101 668
24.22112 657
24.24124 697
24.26135 711
24.28146 683
24.30158 696
24.32169 662
24.34181 641
24.36192 646
24.38203 664
24.40215 627
24.42226 652
24.44237 601
24.46249 676
24.4826 623
24.50272 619
24.52283 641
24.54294 623
24.56306 721
24.58317 661
24.60328 695
24.6234 673
24.64351 726
24.66362 738
24.68374 736
24.70385 661
24.72397 668
24.74408 638
24.76419 623
24.78431 638
24.80442 644
24.82453 653
24.84465 670
24.86476 641
24.88488 634
24.90499 617
24.9251 591
24.94522 615
24.96533 632
24.98544 566
25.00556 615
25.02567 626
25.04579 578
25.0659 634
25.08601 609
25.10613 578
25.12624 653
25.14635 575
25.16647 611
25.18658 614
25.20669 596
25.22681 589
25.24692 606
25.26704 664
25.28715 622
25.30726 614
25.32738 607
25.34749 596
25.3676 611
25.38772 602
25.40783 654
25.42795 655
25.44806 687
25.46817 651
25.48829 665
25.5084 696
25.52851 696
25.54863 696
25.56874 703
25.58886 755
25.60897 810
25.62908 743
25.6492 759
25.66931 757
25.68942 780
25.70954 839
25.72965 766
25.74976 805
25.76988 816
25.78999 782
25.81011 764
25.83022 681
25.85033 642
25.87045 661
25.89056 640
25.91067 643
25.93079 601
25.9509 594
25.97102 609
25.99113 589
26.01124 591
26.03136 634
26.05147 610
26.07158 611
26.0917 578
26.11181 619
26.13193 588
26.15204 646
26.17215 601
26.19227 607
26.21238 587
26.23249 682
26.25261 650
26.27272 658
26.29283 639
26.31295 652
26.33306 698
26.35318 676
26.37329 718
26.3934 702
26.41352 751
26.43363 869
26.45374 935
26.47386 981
26.49397 1124
26.51409 1258
26.5342 1506
26.55431 1603
26.57443 1736
26.59454 1896
26.61465 2000
26.63477 1722
26.65488 1546
26.67499 1384
26.69511 1226
26.71522 991
26.73534 819
26.75545 777
26.77556 716
26.79568 750
26.81579 745
26.8359 751
26.85602 683
26.87613 744
26.89625 713
26.91636 702
26.93647 710
26.95659 699
26.9767 696
26.99681 697
27.01693 723
27.03704 698
27.05716 732
27.07727 661
27.09738 782
27.1175 708
27.13761 718
27.15772 770
27.17784 846
27.19795 856
27.21806 847
27.23818 971
27.25829 1077
27.27841 1209
27.29852 1274
27.31863 1404
27.33875 1581
27.35886 1550
27.37897 1849
27.39909 1735
27.4192 1800
27.43932 1806
27.45943 1634
27.47954 1547
27.49966 1453
27.51977 1306
27.53988 1298
27.56 1221
27.58011 1258
27.60023 1167
27.62034 1282
27.64045 1292
27.66057 1357
27.68068 1476
27.70079 1520
27.72091 1414
27.74102 1459
27.76113 1340
27.78125 1195
27.80136 1191
27.82148 1039
27.84159 1021
27.8617 953
27.88182 992
27.90193 906
27.92204 843
27.94216 871
27.96227 863
27.98239 812
28.0025 758
28.02261 704
28.04273 693
28.06284 671
28.08295 647
28.10307 606
28.12318 616
28.1433 580
28.16341 633
28.18352 635
28.20364 643
28.22375 635
28.24386 639
28.26398 598
28.28409 587
28.3042 577
28.32432 610
28.34443 573
28.36455 551
28.38466 605
28.40477 618
28.42489 614
28.445 616
28.46511 548
28.48523 555
28.50534 545
28.52546 549
28.54557 572
28.56568 561
28.5858 552
28.60591 604
28.62602 554
28.64614 551
28.66625 496
28.68636 554
28.70648 515
28.72659 554
28.74671 533
28.76682 576
28.78693 532
28.80705 510
28.82716 540
28.84727 534
28.86739 518
28.8875 532
28.90762 507
28.92773 519
28.94784 515
28.96796 538
28.98807 498
29.00818 526
29.0283 524
29.04841 499
29.06853 525
29.08864 538
29.10875 516
29.12887 531
29.14898 491
29.16909 493
29.18921 557
29.20932 512
29.22943 540
29.24955 513
29.26966 526
29.28978 502
29.30989 540
29.33 531
29.35012 540
29.37023 550
29.39034 557
29.41046 558
29.43057 539
29.45069 566
29.4708 549
29.49091 546
29.51103 526
29.53114 588
29.55125 559
29.57137 557
29.59148 605
29.6116 606
29.63171 587
29.65182 617
29.67194 672
29.69205 650
29.71216 685
29.73228 675
29.75239 624
29.7725 709
29.79262 778
29.81273 722
29.83285 814
29.85296 744
29.87307 781
29.89319 792
29.9133 850
29.93341 888
29.95353 860
29.97364 891
29.99376 901
30.01387 886
30.03398 894
30.0541 864
30.07421 844
30.09432 820
30.11444 761
30.13455 739
30.15467 703
30.17478 706
30.19489 652
30.21501 612
30.23512 622
30.25523 651
30.27535 686
30.29546 641
30.31557 641
30.33569 659
30.3558 647
30.37592 612
30.39603 623
30.41614 630
30.43626 623
30.45637 640
30.47648 614
30.4966 615
30.51671 642
30.53683 561
30.55694 555
30.57705 615
30.59717 598
30.61728 615
30.63739 597
30.65751 711
30.67762 658
30.69773 689
30.71785 670
30.73796 723
30.75808 692
30.77819 718
30.7983 759
30.81842 710
30.83853 625
30.85864 639
30.87876 682
30.89887 600
30.91899 617
30.9391 587
30.95921 610
30.97933 581
30.99944 530
31.01955 563
31.03967 580
31.05978 555
31.0799 525
31.10001 573
31.12012 542
31.14024 531
31.16035 538
31.18046 494
31.20058 535
31.22069 518
31.2408 546
31.26092 540
31.28103 529
31.30115 547
31.32126 602
31.34137 562
31.36149 529
31.3816 507
31.40171 561
31.42183 492
31.44194 521
31.46206 563
31.48217 525
31.50228 504
31.5224 538
31.54251 518
31.56262 543
31.58274 519
31.60285 504
31.62297 492
31.64308 548
31.66319 536
31.68331 511
31.70342 523
31.72353 555
31.74365 529
31.76376 530
31.78387 499
31.80399 520
31.8241 503
31.84422 475
31.86433 487
31.88444 488
31.90456 522
31.92467 503
31.94478 493
31.9649 533
31.98501 525
32.00513 509
32.02524 497
32.04535 507
32.06547 546
32.08558 560
32.10569 558
32.12581 516
32.14592 539
32.16604 583
32.18615 556
32.20626 564
32.22638 571
32.24649 583
32.2666 601
32.28672 574
32.30683 626
32.32694 605
32.34706 609
32.36717 650
32.38729 583
32.4074 533
32.42751 604
32.44763 567
32.46774 570
32.48785 572
32.50797 552
32.52808 572
32.5482 516
32.56831 497
32.58842 562
32.60854 512
32.62865 533
32.64876 502
32.66888 517
32.68899 529
32.7091 498
32.72922 542
32.74933 521
32.76945 513
32.78956 540
32.80967 519
32.82979 539
32.8499 565
32.87001 486
32.89013 542
32.91024 547
32.93036 576
32.95047 500
32.97058 558
32.9907 522
33.01081 529
33.03092 536
33.05104 508
33.07115 543
33.09127 516
33.11138 515
33.13149 485
33.15161 574
33.17172 595
33.19183 528
33.21195 538
33.23206 519
33.25217 491
33.27229 494
33.2924 513
33.31252 490
33.33263 504
33.35274 464
33.37286 515
33.39297 501
33.41308 490
33.4332 526
33.45331 499
33.47343 518
33.49354 480
33.51365 494
33.53377 514
33.55388 511
33.57399 525
33.59411 500
33.61422 488
33.63434 531
33.65445 466
33.67456 507
33.69468 515
33.71479 535
33.7349 485
33.75502 535
33.77513 537
33.79524 495
33.81536 552
33.83547 529
33.85559 523
33.8757 556
33.89581 552
33.91593 542
33.93604 518
33.95615 540
33.97627 592
33.99638 506
34.0165 538
34.03661 518
34.05672 529
34.07684 556
34.09695 530
34.11706 520
34.13718 548
34.15729 526
34.17741 569
34.19752 562
34.21763 557
34.23775 569
34.25786 562
34.27797 521
34.29809 581
34.3182 580
34.33831 570
34.35843 572
34.37854 545
34.39866 533
34.41877 560
34.43888 583
34.459 559
34.47911 556
34.49922 572
34.51934 536
34.53945 550
34.55957 559
34.57968 547
34.59979 507
34.61991 590
34.64002 544
34.66013 520
34.68025 588
34.70036 641
34.72047 583
34.74059 677
34.7607 615
34.78082 612
34.80093 617
34.82104 635
34.84116 670
34.86127 667
34.88138 673
34.9015 688
34.92161 727
34.94173 690
34.96184 794
34.98195 732
35.00207 868
35.02218 853
35.04229 855
35.06241 860
35.08252 975
35.10264 947
35.12275 1023
35.14286 1008
35.16298 951
35.18309 1055
35.2032 1053
35.22332 1159
35.24343 1086
35.26354 1082
35.28366 1090
35.30377 1016
35.32389 984
35.344 1037
35.36411 958
35.38423 902
35.40434 915
35.42445 911
35.44457 876
35.46468 794
35.4848 860
35.50491 827
35.52502 787
35.54514 781
35.56525 764
35.58536 721
35.60548 745
35.62559 736
35.64571 704
35.66582 721
35.68593 663
35.70605 617
35.72616 620
35.74627 628
35.76639 603
35.7865 615
35.80661 576
35.82673 609
35.84684 560
35.86696 580
35.88707 607
35.90718 602
35.9273 581
35.94741 559
35.96752 636
35.98764 591
36.00775 628
36.02787 604
36.04798 614
36.06809 570
36.08821 599
36.10832 568
36.12843 574
36.14855 609
36.16866 591
36.18878 628
36.20889 596
36.229 639
36.24912 609
36.26923 612
36.28934 623
36.30946 616
36.32957 619
36.34968 695
36.3698 698
36.38991 703
36.41003 679
36.43014 686
36.45025 675
36.47037 739
36.49048 749
36.51059 749
36.53071 742
36.55082 733
36.57094 735
36.59105 671
36.61116 685
36.63128 716
36.65139 620
36.6715 633
36.69162 586
36.71173 595
36.73184 613
36.75196 646
36.77207 621
36.79219 591
36.8123 600
36.83241 564
36.85253 607
36.87264 551
36.89275 593
36.91287 611
36.93298 557
36.9531 579
36.97321 560
36.99332 602
37.01344 604
37.03355 551
37.05366 636
37.07378 627
37.09389 581
37.11401 594
37.13412 568
37.15423 657
37.17435 634
37.19446 594
37.21457 631
37.23469 609
37.2548 567
37.27491 594
37.29503 571
37.31514 593
37.33526 571
37.35537 601
37.37548 620
37.3956 599
37.41571 583
37.43582 552
37.45594 524
37.47605 579
37.49617 623
37.51628 582
37.53639 591
37.55651 602
37.57662 620
37.59673 606
37.61685 617
37.63696 608
37.65708 609
37.67719 584
37.6973 597
37.71742 532
37.73753 550
37.75764 555
37.77776 560
37.79787 565
37.81798 589
37.8381 527
37.85821 511
37.87833 566
37.89844 521
37.91855 557
37.93867 566
37.95878 526
37.97889 539
37.99901 547
38.01912 538
38.03924 515
38.05935 530
38.07946 508
38.09958 540
38.11969 532
38.1398 538
38.15992 556
38.18003 525
38.20015 583
38.22026 528
38.24037 517
38.26049 568
38.2806 557
38.30071 588
38.32083 593
38.34094 629
38.36105 554
38.38117 548
38.40128 599
38.4214 548
38.44151 575
38.46162 544
38.48174 570
38.50185 573
38.52196 537
38.54208 542
38.56219 552
38.58231 568
38.60242 570
38.62253 568
38.64265 573
38.66276 489
38.68287 552
38.70299 516
38.7231 541
38.74321 567
38.76333 523
38.78344 611
38.80356 497
38.82367 571
38.84378 543
38.8639 561
38.88401 586
38.90412 527
38.92424 567
38.94435 524
38.96447 515
38.98458 528
39.00469 549
39.02481 537
39.04492 525
39.06503 508
39.08515 506
39.10526 513
39.12538 535
39.14549 541
39.1656 510
39.18572 525
39.20583 531
39.22594 511
39.24606 553
39.26617 551
39.28628 568
39.3064 581
39.32651 542
39.34663 556
39.36674 558
39.38685 583
39.40697 585
39.42708 578
39.44719 590
39.46731 604
39.48742 549
39.50754 579
39.52765 544
39.54776 547
39.56788 525
39.58799 521
39.6081 512
39.62822 501
39.64833 506
39.66845 527
39.68856 485
39.70867 512
39.72879 531
39.7489 518
39.76901 513
39.78913 516
39.80924 532
39.82935 489
39.84947 532
39.86958 549
39.8897 520
39.90981 563
39.92992 490
39.95004 534
39.97015 541
39.99026 505
40.01038 503
40.03049 528
40.05061 510
40.07072 520
40.09083 540
40.11095 541
40.13106 552
40.15117 565
40.17129 562
40.1914 530
40.21152 564
40.23163 572
40.25174 538
40.27186 571
40.29197 570
40.31208 568
40.3322 545
40.35231 534
40.37242 538
40.39254 561
40.41265 531
40.43277 535
40.45288 537
40.47299 569
40.49311 548
40.51322 540
40.53333 508
40.55345 539
40.57356 519
40.59368 521
40.61379 534
40.6339 502
40.65402 530
40.67413 510
40.69424 505
40.71436 559
40.73447 542
40.75458 534
40.7747 517
40.79481 508
40.81493 553
40.83504 497
40.85515 510
40.87527 499
40.89538 526
40.91549 495
40.93561 525
40.95572 512
40.97584 520
40.99595 550
41.01606 517
41.03618 535
41.05629 517
41.0764 553
41.09652 573
41.11663 514
41.13675 535
41.15686 539
41.17697 536
41.19709 527
41.2172 501
41.23731 511
41.25743 535
41.27754 516
41.29765 507
41.31777 510
41.33788 529
41.358 505
41.37811 505
41.39822 567
41.41834 530
41.43845 540
41.45856 530
41.47868 572
41.49879 558
41.51891 519
41.53902 636
41.55913 621
41.57925 641
41.59936 617
41.61947 651
41.63959 555
41.6597 675
41.67982 630
41.69993 625
41.72004 607
41.74016 614
41.76027 575
41.78038 508
41.8005 587
41.82061 538
41.84072 533
41.86084 519
41.88095 565
41.90107 526
41.92118 499
41.94129 502
41.96141 494
41.98152 520
42.00163 495
42.02175 546
42.04186 510
42.06198 500
42.08209 529
42.1022 492
42.12232 517
42.14243 558
42.16254 503
42.18266 528
42.20277 504
42.22289 487
42.243 544
42.26311 551
42.28323 567
42.30334 532
42.32345 520
42.34357 563
42.36368 568
42.38379 569
42.40391 578
42.42402 529
42.44414 547
42.46425 527
42.48436 525
42.50448 527
42.52459 552
42.5447 531
42.56482 520
42.58493 500
42.60505 551
42.62516 500
42.64527 526
42.66539 543
42.6855 519
42.70561 519
42.72573 568
42.74584 570
42.76595 597
42.78607 592
42.80618 587
42.8263 610
42.84641 558
42.86652 579
42.88664 584
42.90675 601
42.92686 590
42.94698 606
42.96709 560
42.98721 558
43.00732 492
43.02743 533
43.04755 567
43.06766 525
43.08777 529
43.10789 522
43.128 520
43.14812 576
43.16823 462
43.18834 526
43.20846 550
43.22857 514
43.24868 491
43.2688 484
43.28891 447
43.30902 499
43.32914 480
43.34925 517
43.36937 512
43.38948 458
43.40959 490
43.42971 488
43.44982 497
43.46993 488
43.49005 472
43.51016 498
43.53028 510
43.55039 477
43.5705 464
43.59062 467
43.61073 501
43.63084 538
43.65096 488
43.67107 517
43.69119 458
43.7113 475
43.73141 509
43.75153 504
43.77164 502
43.79175 492
43.81187 502
43.83198 511
43.85209 499
43.87221 498
43.89232 508
43.91244 519
43.93255 492
43.95266 507
43.97278 551
43.99289 492
44.013 513
44.03312 520
44.05323 553
44.07335 516
44.09346 523
44.11357 557
44.13369 522
44.1538 536
44.17391 501
44.19403 512
44.21414 554
44.23426 517
44.25437 533
44.27448 492
44.2946 491
44.31471 493
44.33482 486
44.35494 491
44.37505 520
44.39516 493
44.41528 513
44.43539 465
44.45551 482
44.47562 454
44.49573 497
44.51585 484
44.53596 493
44.55607 478
44.57619 465
44.5963 488
44.61642 484
44.63653 462
44.65664 494
44.67676 477
44.69687 446
44.71698 473
44.7371 500
44.75721 515
44.77732 496
44.79744 460
44.81755 469
44.83767 438
44.85778 501
44.87789 486
44.89801 485
44.91812 491
44.93823 494
44.95835 466
44.97846 453
44.99858 490
45.01869 469
45.0388 495
45.05892 498
45.07903 512
45.09914 477
45.11926 428
45.13937 443
45.15949 503
45.1796 503
45.19971 499
45.21983 521
45.23994 478
45.26005 486
45.28017 503
45.30028 503
45.32039 514
45.34051 505
45.36062 475
45.38074 517
45.40085 498
45.42096 488
45.44108 492
45.46119 517
45.4813 459
45.50142 505
45.52153 511
45.54165 491
45.56176 483
45.58187 533
45.60199 523
45.6221 497
45.64221 518
45.66233 490
45.68244 516
45.70256 521
45.72267 489
45.74278 519
45.7629 536
45.78301 480
45.80312 500
45.82324 489
45.84335 521
45.86346 509
45.88358 484
45.90369 472
45.92381 547
45.94392 507
45.96403 508
45.98415 493
46.00426 461
46.02437 523
46.04449 492
46.0646 489
46.08472 480
46.10483 438
46.12494 451
46.14506 483
46.16517 478
46.18528 492
46.2054 499
46.22551 507
46.24563 454
46.26574 437
46.28585 466
46.30597 491
46.32608 509
46.34619 449
46.36631 473
46.38642 506
46.40653 435
46.42665 448
46.44676 504
46.46688 517
46.48699 507
46.5071 501
46.52722 469
46.54733 520
46.56744 505
46.58756 508
46.60767 513
46.62779 505
46.6479 499
46.66801 483
46.68813 502
46.70824 463
46.72835 506
46.74847 501
46.76858 490
46.78869 506
46.80881 471
46.82892 527
46.84904 490
46.86915 499
46.88926 462
46.90938 481
46.92949 481
46.9496 483
46.96972 482
46.98983 471
47.00995 480
47.03006 485
47.05017 427
47.07029 522
47.0904 479
47.11051 505
47.13063 485
47.15074 507
47.17086 489
47.19097 485
47.21108 463
47.2312 505
47.25131 515
47.27142 479
47.29154 510
47.31165 520
47.33176 457
47.35188 500
47.37199 493
47.39211 499
47.41222 502
47.43233 489
47.45245 485
47.47256 493
47.49267 455
47.51279 459
47.5329 521
47.55302 504
47.57313 496
47.59324 473
47.61336 453
47.63347 446
47.65358 472
47.6737 461
47.69381 485
47.71393 492
47.73404 463
47.75415 457
47.77427 445
47.79438 451
47.81449 476
47.83461 488
47.85472 479
47.87483 443
47.89495 468
47.91506 431
47.93518 443
47.95529 495
47.9754 430
47.99552 472
48.01563 435
48.03574 464
48.05586 504
48.07597 460
48.09609 446
48.1162 500
48.13631 460
48.15643 504
48.17654 501
48.19665 467
48.21677 521
48.23688 467
48.257 488
48.27711 494
48.29722 492
48.31734 526
48.33745 502
48.35756 519
48.37768 500
48.39779 544
48.4179 491
48.43802 502
48.45813 495
48.47825 479
48.49836 486
48.51847 504
48.53859 479
48.5587 455
48.57881 501
48.59893 551
48.61904 487
48.63916 507
48.65927 466
48.67938 459
48.6995 516
48.71961 502
48.73972 503
48.75984 452
48.77995 478
48.80006 465
48.82018 483
48.84029 445
48.86041 451
48.88052 461
48.90063 476
48.92075 474
48.94086 470
48.96097 475
48.98109 472
49.0012 495
49.02132 525
49.04143 438
49.06154 476
49.08166 463
49.10177 476
49.12188 489
49.142 483
49.16211 470
49.18223 497
49.20234 517
49.22245 485
49.24257 471
49.26268 473
49.28279 487
49.30291 486
49.32302 504
49.34313 500
49.36325 476
49.38336 526
49.40348 497
49.42359 482
49.4437 521
49.46382 520
49.48393 485
49.50404 499
49.52416 530
49.54427 495
49.56439 491
49.5845 472
49.60461 460
49.62473 533
49.64484 474
49.66495 477
49.68507 516
49.70518 458
49.7253 489
49.74541 509
49.76552 521
49.78564 471
49.80575 489
49.82586 512
49.84598 499
49.86609 478
49.8862 500
49.90632 509
49.92643 503
49.94655 522
49.96666 520
49.98677 542
50.00689 557
50.027 585
50.04711 530
50.06723 587
50.08734 598
50.10746 582
50.12757 555
50.14768 563
50.1678 593
50.18791 528
50.20802 497
50.22814 484
50.24825 518
50.26837 522
50.28848 486
50.30859 490
50.32871 504
50.34882 489
50.36893 500
50.38905 532
50.40916 518
50.42927 534
50.44939 509
50.4695 589
50.48962 568
50.50973 539
50.52984 568
50.54996 574
50.57007 554
50.59018 575
50.6103 593
50.63041 605
50.65053 573
50.67064 517
50.69075 579
50.71087 585
50.73098 560
50.75109 586
50.77121 570
50.79132 595
50.81143 610
50.83155 611
50.85166 590
50.87178 613
50.89189 605
50.912 583
50.93212 559
50.95223 571
50.97234 633
50.99246 559
51.01257 563
51.03269 547
51.0528 529
51.07291 530
51.09303 543
51.11314 522
51.13325 542
51.15337 509
51.17348 477
51.1936 480
51.21371 498
51.23382 459
51.25394 502
51.27405 484
51.29416 490
51.31428 488
51.33439 475
51.3545 455
51.37462 421
51.39473 487
51.41485 467
51.43496 457
51.45507 456
51.47519 493
51.4953 468
51.51541 443
51.53553 468
51.55564 436
51.57576 400
51.59587 452
51.61598 464
51.6361 449
51.65621 462
51.67632 443
51.69644 437
51.71655 465
51.73667 409
51.75678 489
51.77689 434
51.79701 437
51.81712 444
51.83723 466
51.85735 496
51.87746 428
51.89757 431
51.91769 445
51.9378 496
51.95792 465
51.97803 439
51.99814 480
52.01826 479
52.03837 477
52.05848 498
52.0786 514
52.09871 476
52.11883 527
52.13894 528
52.15905 473
52.17917 494
52.19928 521
52.21939 513
52.23951 482
52.25962 465
52.27974 498
52.29985 504
52.31996 503
52.34008 450
52.36019 484
52.3803 490
52.40042 499
52.42053 515
52.44064 489
52.46076 501
52.48087 493
52.50099 526
52.5211 500
52.54121 467
52.56133 491
52.58144 487
52.60155 483
52.62167 484
52.64178 508
52.6619 465
52.68201 488
52.70212 472
52.72224 499
52.74235 443
52.76246 519
52.78258 493
52.80269 475
52.8228 487
52.84292 499
52.86303 494
52.88315 503
52.90326 519
52.92337 494
52.94349 499
52.9636 496
52.98371 504
53.00383 552
53.02394 510
53.04406 488
53.06417 522
53.08428 546
53.1044 507
53.12451 512
53.14462 520
53.16474 517
53.18485 489
53.20497 540
53.22508 508
53.24519 502
53.26531 496
53.28542 511
53.30553 509
53.32565 484
53.34576 484
53.36587 502
53.38599 484
53.4061 525
53.42622 471
53.44633 486
53.46644 487
53.48656 493
53.50667 499
53.52678 489
53.5469 523
53.56701 493
53.58713 513
53.60724 512
53.62735 475
53.64747 529
53.66758 503
53.68769 510
53.70781 484
53.72792 499
53.74804 479
53.76815 458
53.78826 493
53.80838 506
53.82849 483
53.8486 489
53.86872 509
53.88883 520
53.90894 490
53.92906 494
53.94917 524
53.96929 471
53.9894 513
54.00951 554
54.02963 477
54.04974 520
54.06985 504
54.08997 528
54.11008 490
54.1302 535
54.15031 535
54.17042 495
54.19054 500
54.21065 505
54.23076 525
54.25088 519
54.27099 525
54.29111 503
54.31122 517
54.33133 528
54.35145 525
54.37156 543
54.39167 497
54.41179 497
54.4319 526
54.45201 527
54.47213 509
54.49224 502
54.51236 498
54.53247 495
54.55258 525
54.5727 520
54.59281 504
54.61292 506
54.63304 491
54.65315 500
54.67327 480
54.69338 527
54.71349 514
54.73361 529
54.75372 492
54.77383 522
54.79395 517
54.81406 495
54.83417 487
54.85429 519
54.8744 501
54.89452 509
54.91463 484
54.93474 513
54.95486 512
54.97497 534
54.99508 493
55.0152 498
55.03531 504
55.05543 513
55.07554 512
55.09565 475
55.11577 518
55.13588 473
55.15599 492
55.17611 509
55.19622 462
55.21634 442
55.23645 559
55.25656 511
55.27668 488
55.29679 492
55.3169 486
55.33702 477
55.35713 486
55.37724 483
55.39736 496
55.41747 493
55.43759 473
55.4577 477
55.47781 481
55.49793 492
55.51804 470
55.53815 448
55.55827 507
55.57838 456
55.5985 452
55.61861 479
55.63872 455
55.65884 473
55.67895 459
55.69906 472
55.71918 444
55.73929 482
55.75941 485
55.77952 459
55.79963 474
55.81975 472
55.83986 471
55.85997 454
55.88009 496
55.9002 508
55.92031 483
55.94043 451
55.96054 451
55.98066 430
56.00077 496
56.02088 470
56.041 467
56.06111 463
56.08122 480
56.10134 454
56.12145 433
56.14157 498
56.16168 495
56.18179 459
56.20191 481
56.22202 454
56.24213 453
56.26225 497
56.28236 459
56.30248 487
56.32259 485
56.3427 516
56.36282 535
56.38293 489
56.40304 492
56.42316 514
56.44327 503
56.46338 487
56.4835 503
56.50361 505
56.52373 531
56.54384 532
56.56395 551
56.58407 555
56.60418 535
56.62429 577
56.64441 545
56.66452 519
56.68464 503
56.70475 537
56.72486 580
56.74498 539
56.76509 499
56.7852 528
56.80532 555
56.82543 544
56.84554 529
56.86566 530
56.88577 541
56.90589 508
56.926 521
56.94611 503
56.96623 473
56.98634 528
57.00645 507
57.02657 518
57.04668 518
57.0668 515
57.08691 513
57.10702 448
57.12714 526
57.14725 499
57.16736 517
57.18748 502
57.20759 458
57.22771 490
57.24782 466
57.26793 464
57.28805 443
57.30816 493
57.32827 495
57.34839 467
57.3685 447
57.38861 464
57.40873 419
57.42884 467
57.44896 477
57.46907 447
57.48918 452
57.5093 442
57.52941 460
57.54952 462
57.56964 507
57.58975 488
57.60987 469
57.62998 449
57.65009 434
57.67021 417
57.69032 427
57.71043 459
57.73055 422
57.75066 448
57.77078 450
57.79089 482
57.811 457
57.83112 456
57.85123 470
57.87134 461
57.89146 458
57.91157 447
57.93168 420
57.9518 480
57.97191 451
57.99203 448
58.01214 440
58.03225 456
58.05237 482
58.07248 473
58.09259 467
58.11271 408
58.13282 445
58.15294 462
58.17305 446
58.19316 448
58.21328 452
58.23339 462
58.2535 457
58.27362 460
58.29373 465
58.31385 421
58.33396 486
58.35407 462
58.37419 478
58.3943 446
58.41441 446
58.43453 497
58.45464 490
58.47475 494
58.49487 471
58.51498 463
58.5351 494
58.55521 457
58.57532 466
58.59544 462
58.61555 457
58.63566 457
58.65578 454
58.67589 457
58.69601 457
58.71612 451
58.73623 429
58.75635 430
58.77646 450
58.79657 433
58.81669 400
58.8368 469
58.85691 443
58.87703 414
58.89714 442
58.91726 487
58.93737 490
58.95748 459
58.9776 477
58.99771 461
59.01782 439
59.03794 457
59.05805 455
59.07817 445
59.09828 460
59.11839 465
59.13851 433
59.15862 478
59.17873 458
59.19885 451
59.21896 430
59.23908 465
59.25919 439
59.2793 452
59.29942 453
59.31953 437
59.33964 432
59.35976 453
59.37987 454
59.39998 426
59.4201 428
59.44021 452
59.46033 438
59.48044 444
59.50055 422
59.52067 456
59.54078 436
59.56089 457
59.58101 501
59.60112 491
59.62124 483
59.64135 474
59.66146 438
59.68158 446
59.70169 434
59.7218 480
59.74192 473
59.76203 444
59.78215 502
59.80226 495
59.82237 515
59.84249 542
59.8626 531
59.88271 571
59.90283 514
59.92294 536
59.94305 500
59.96317 513
59.98328 511
60.0034 516
60.02351 525
60.04362 526
60.06374 476
60.08385 485
60.10396 504
60.12408 475
60.14419 474
60.16431 469
60.18442 490
60.20453 470
60.22465 447
60.24476 452
60.26487 459
60.28499 440
60.3051 412
60.32522 438
60.34533 469
60.36544 454
60.38556 482
60.40567 446
60.42578 511
60.4459 433
60.46601 456
60.48612 431
60.50624 446
60.52635 476
60.54647 473
60.56658 490
60.58669 450
60.60681 470
60.62692 462
60.64703 445
60.66715 443
60.68726 427
60.70738 477
60.72749 462
60.7476 434
60.76772 454
60.78783 459
60.80794 474
60.82806 453
60.84817 468
60.86828 440
60.8884 451
60.90851 455
60.92863 418
60.94874 462
60.96885 479
60.98897 448
61.00908 495
61.02919 482
61.04931 474
61.06942 473
61.08954 476
61.10965 483
61.12976 460
61.14988 498
61.16999 477
61.1901 465
61.21022 486
61.23033 473
61.25045 507
61.27056 440
61.29067 472
61.31079 487
61.3309 455
61.35101 489
61.37113 478
61.39124 460
61.41135 503
61.43147 495
61.45158 461
61.4717 503
61.49181 527
61.51192 492
61.53204 508
61.55215 493
61.57226 503
61.59238 474
61.61249 511
61.63261 526
61.65272 478
61.67283 525
61.69295 520
61.71306 523
61.73317 481
61.75329 485
61.7734 515
61.79352 483
61.81363 492
61.83374 533
61.85386 526
61.87397 531
61.89408 535
61.9142 523
61.93431 557
61.95442 553
61.97454 530
61.99465 604
62.01477 586
62.03488 584
62.05499 617
62.07511 619
62.09522 647
62.11533 611
62.13545 653
62.15556 685
62.17568 625
62.19579 667
62.2159 654
62.23602 686
62.25613 669
62.27624 628
62.29636 640
62.31647 659
62.33659 623
62.3567 641
62.37681 594
62.39693 635
62.41704 600
62.43715 614
62.45727 568
62.47738 582
62.49749 569
62.51761 563
62.53772 507
62.55784 569
62.57795 549
62.59806 556
62.61818 529
62.63829 541
62.6584 547
62.67852 508
62.69863 508
62.71875 533
62.73886 498
62.75897 553
62.77909 513
62.7992 491
62.81931 464
62.83943 537
62.85954 479
62.87965 483
62.89977 521
62.91988 451
62.94 511
62.96011 481
62.98022 473
63.00034 485
63.02045 489
63.04056 478
63.06068 469
63.08079 497
63.10091 487
63.12102 472
63.14113 501
63.16125 474
63.18136 483
63.20147 469
63.22159 495
63.2417 514
63.26182 437
63.28193 496
63.30204 498
63.32216 451
63.34227 458
63.36238 486
63.3825 433
63.40261 464
63.42272 502
63.44284 485
63.46295 515
63.48307 465
63.50318 473
63.52329 483
63.54341 494
63.56352 483
63.58363 503
63.60375 510
63.62386 506
63.64398 518
63.66409 524
63.6842 517
63.70432 591
63.72443 490
63.74454 544
63.76466 475
63.78477 506
63.80489 526
63.825 512
63.84511 542
63.86523 487
63.88534 443
63.90545 518
63.92557 515
63.94568 516
63.96579 499
63.98591 474
64.00602 474
64.02614 466
64.04625 480
64.06636 495
64.08648 499
64.10659 473
64.1267 504
64.14682 479
64.16693 466
64.18705 514
64.20716 497
64.22727 503
64.24739 478
64.2675 466
64.28761 451
64.30773 494
64.32784 500
64.34796 506
64.36807 490
64.38818 504
64.4083 436
64.42841 503
64.44852 471
64.46864 513
64.48875 530
64.50886 498
64.52898 438
64.54909 507
64.56921 480
64.58932 505
64.60943 472
64.62955 524
64.64966 464
64.66977 452
64.68989 489
64.71 469
64.73012 500
64.75023 475
64.77034 463
64.79046 485
64.81057 469
64.83068 493
64.8508 460
64.87091 490
64.89102 454
64.91114 495
64.93125 449
64.95137 476
64.97148 458
64.99159 463
65.01171 456
65.03182 488
65.05193 457
65.07205 467
65.09216 487
65.11228 467
65.13239 487
65.1525 459
65.17262 476
65.19273 449
65.21284 440
65.23296 455
65.25307 462
65.27319 445
65.2933 477
65.31341 445
65.33353 482
65.35364 458
65.37375 467
65.39387 484
65.41398 464
65.43409 467
65.45421 450
65.47432 470
65.49444 466
65.51455 487
65.53466 485
65.55478 429
65.57489 470
65.595 454
65.61512 475
65.63523 443
65.65535 459
65.67546 471
65.69557 472
65.71569 457
65.7358 450
65.75591 489
65.77603 468
65.79614 446
65.81626 427
65.83637 466
65.85648 490
65.8766 445
65.89671 489
65.91682 491
65.93694 486
65.95705 433
65.97716 469
65.99728 470
66.01739 484
66.03751 490
66.05762 426
66.07773 420
66.09785 450
66.11796 444
66.13807 474
66.15819 477
66.1783 439
66.19842 449
66.21853 462
66.23864 458
66.25876 460
66.27887 484
66.29898 474
66.3191 457
66.33921 469
66.35933 444
66.37944 428
66.39955 473
66.41967 430
66.43978 459
66.45989 425
66.48001 440
66.50012 454
66.52023 447
66.54035 399
66.56046 451
66.58058 406
66.60069 441
66.6208 434
66.64092 447
66.66103 437
66.68114 442
66.70126 418
66.72137 481
66.74149 440
66.7616 423
66.78171 481
66.80183 428
66.82194 459
66.84205 464
66.86217 424
66.88228 462
66.90239 424
66.92251 413
66.94262 446
66.96274 467
66.98285 381
67.00296 405
67.02308 407
67.04319 428
67.0633 405
67.08342 434
67.10353 416
67.12365 437
67.14376 445
67.16387 458
67.18399 436
67.2041 441
67.22421 451
67.24433 442
67.26444 456
67.28456 437
67.30467 454
67.32478 437
67.3449 462
67.36501 435
67.38512 447
67.40524 469
67.42535 436
67.44546 441
67.46558 436
67.48569 483
67.50581 481
67.52592 455
67.54603 464
67.56615 488
67.58626 544
67.60637 485
67.62649 481
67.6466 509
67.66672 495
67.68683 507
67.70694 486
67.72706 515
67.74717 474
67.76728 519
67.7874 472
67.80751 511
67.82763 462
67.84774 492
67.86785 518
67.88797 518
67.90808 499
67.92819 504
67.94831 487
67.96842 508
67.98853 489
68.00865 540
68.02876 532
68.04888 520
68.06899 487
68.0891 507
68.10922 497
68.12933 498
68.14944 516
68.16956 509
68.18967 517
68.20979 492
68.2299 506
68.25001 493
68.27013 510
68.29024 482
68.31035 534
68.33047 475
68.35058 477
68.3707 462
68.39081 479
68.41092 448
68.43104 466
68.45115 446
68.47126 482
68.49138 435
68.51149 425
68.5316 438
68.55172 408
68.57183 408
68.59195 400
68.61206 447
68.63217 421
68.65229 446
68.6724 414
68.69251 432
68.71263 456
68.73274 431
68.75286 455
68.77297 422
68.79308 483
68.8132 387
68.83331 432
68.85342 435
68.87354 436
68.89365 445
68.91376 439
68.93388 424
68.95399 451
68.97411 446
68.99422 467
69.01433 422
69.03445 399
69.05456 420
69.07467 437
69.09479 423
69.1149 439
69.13502 401
69.15513 424
69.17524 436
69.19536 423
69.21547 441
69.23558 438
69.2557 415
69.27581 408
69.29593 444
69.31604 413
69.33615 433
69.35627 416
69.37638 389
69.39649 390
69.41661 419
69.43672 437
69.45683 425
69.47695 423
69.49706 466
69.51718 440
69.53729 419
69.5574 410
69.57752 447
69.59763 439
69.61774 416
69.63786 406
69.65797 446
69.67809 458
69.6982 423
69.71831 453
69.73843 406
69.75854 446
69.77865 399
69.79877 396
69.81888 382
69.839 427
69.85911 455
69.87922 430
69.89934 429
69.91945 424
69.93956 417
69.95968 447
69.97979 406
69.9999 447
70.02002 426
70.04013 391
70.06025 421
70.08036 416
70.10047 439
70.12059 428
70.1407 430
70.16081 459
70.18093 409
70.20104 457
70.22116 470
70.24127 431
70.26138 405
70.2815 411
70.30161 394
70.32172 390
70.34184 415
70.36195 401
70.38207 406
70.40218 444
70.42229 418
70.44241 423
70.46252 450
70.48263 453
70.50275 409
70.52286 425
70.54297 397
70.56309 396
70.5832 450
70.60332 428
70.62343 409
70.64354 419
70.66366 425
70.68377 402
70.70388 410
70.724 408
70.74411 434
70.76423 457
70.78434 446
70.80445 407
70.82457 401
70.84468 430
70.86479 456
70.88491 426
70.90502 441
70.92513 403
70.94525 444
70.96536 399
70.98548 441
71.00559 431
71.0257 445
71.04582 383
71.06593 421
71.08604 428
71.10616 429
71.12627 418
71.14639 406
71.1665 423
71.18661 429
71.20673 419
71.22684 412
71.24695 423
71.26707 473
71.28718 444
71.3073 439
71.32741 408
71.34752 445
71.36764 406
71.38775 419
71.40786 393
71.42798 420
71.44809 409
71.4682 416
71.48832 409
71.50843 421
71.52855 391
71.54866 439
71.56877 422
71.58889 391
71.609 406
71.62911 404
71.64923 424
71.66934 434
71.68946 440
71.70957 432
71.72968 407
71.7498 393
71.76991 445
71.79002 454
71.81014 425
71.83025 428
71.85037 423
71.87048 428
71.89059 407
71.91071 448
71.93082 415
71.95093 415
71.97105 409
71.99116 441
72.01127 420
72.03139 438
72.0515 436
72.07162 419
72.09173 456
72.11184 405
72.13196 409
72.15207 374
72.17218 420
72.1923 412
72.21241 421
72.23253 424
72.25264 444
72.27275 427
72.29287 448
72.31298 389
72.33309 415
72.35321 436
72.37332 446
72.39344 421
72.41355 424
72.43366 426
72.45378 402
72.47389 437
72.494 411
72.51412 416
72.53423 422
72.55434 436
72.57446 407
72.59457 438
72.61469 416
72.6348 425
72.65491 485
72.67503 447
72.69514 441
72.71525 427
72.73537 443
72.75548 441
72.7756 394
72.79571 404
72.81582 431
72.83594 419
72.85605 431
72.87616 425
72.89628 441
72.91639 434
72.9365 399
72.95662 399
72.97673 417
72.99685 409
73.01696 402
73.03707 449
73.05719 439
73.0773 427
73.09741 440
73.11753 455
73.13764 400
73.15776 453
73.17787 393
73.19798 414
73.2181 417
73.23821 415
73.25832 441
73.27844 450
73.29855 465
73.31867 473
73.33878 401
73.35889 426
73.37901 467
73.39912 426
73.41923 427
73.43935 465
73.45946 465
73.47957 403
73.49969 474
73.5198 465
73.53992 439
73.56003 441
73.58014 433
73.60026 441
73.62037 446
73.64048 438
73.6606 427
73.68071 483
73.70083 462
73.72094 446
73.74105 452
73.76117 426
73.78128 443
73.80139 477
73.82151 470
73.84162 438
73.86174 425
73.88185 431
73.90196 432
73.92208 452
73.94219 476
73.9623 444
73.98242 447
74.00253 463
74.02264 449
74.04276 443
74.06287 445
74.08299 429
74.1031 460
74.12321 423
74.14333 437
74.16344 470
74.18355 449
74.20367 461
74.22378 438
74.2439 428
74.26401 477
74.28412 437
74.30424 469
74.32435 443
74.34446 452
74.36458 424
74.38469 455
74.40481 471
74.42492 437
74.44503 433
74.46515 434
74.48526 448
74.50537 430
74.52549 481
74.5456 480
74.56571 475
74.58583 455
74.60594 446
74.62606 487
74.64617 478
74.66628 443
74.6864 459
74.70651 434
74.72662 413
74.74674 416
74.76685 460
74.78697 458
74.80708 446
74.82719 381
74.84731 407
74.86742 427
74.88753 419
74.90765 432
74.92776 428
74.94787 407
74.96799 438
74.9881 451
75.00822 417
