3.00117 20595
3.02128 20010
3.0414 19339
3.06151 18808
3.08162 18197
3.10174 17893
3.12185 17260
3.14197 16709
3.16208 16623
3.18219 15944
3.20231 15443
3.22242 14966
3.24253 14278
3.26265 14082
3.28276 13409
3.30288 13271
3.32299 12933
3.3431 12302
3.36322 12081
3.38333 11350
3.40344 11307
3.42356 10783
3.44367 10345
3.46379 10224
3.4839 9591
3.50401 9384
3.52413 9269
3.54424 8626
3.56435 8381
3.58447 7942
3.60458 7939
3.62469 7473
3.64481 7157
3.66492 6957
3.68504 6506
3.70515 6421
3.72526 6159
3.74538 5833
3.76549 5859
3.7856 5368
3.80572 5133
3.82583 5048
3.84595 4716
3.86606 4563
3.88617 4352
3.90629 4171
3.9264 4073
3.94651 3892
3.96663 3581
3.98674 3389
4.00686 3488
4.02697 3307
4.04708 3132
4.0672 2884
4.08731 2807
4.10742 2657
4.12754 2601
4.14765 2359
4.16776 2292
4.18788 2313
4.20799 2237
4.22811 2146
4.24822 1769
4.26833 1980
4.28845 1826
4.30856 1775
4.32867 1772
4.34879 1594
4.3689 1552
4.38902 1458
4.40913 1462
4.42924 1617
4.44936 1413
4.46947 1381
4.48958 1376
4.5097 1350
4.52981 1309
4.54992 1156
4.57004 1292
4.59015 1304
4.61027 1182
4.63038 1244
4.65049 1110
4.67061 1063
4.69072 1030
4.71083 1028
4.73095 1097
4.75106 935
4.77118 911
4.79129 910
4.8114 893
4.83152 995
4.85163 854
4.87174 918
4.89186 813
4.91197 780
4.93209 821
4.9522 707
4.97231 797
4.99243 788
5.01254 727
5.03265 755
5.05277 624
5.07288 649
5.09299 666
5.11311 673
5.13322 670
5.15334 596
5.17345 616
5.19356 601
5.21368 552
5.23379 563
5.2539 520
5.27402 512
5.29413 585
5.31425 562
5.33436 514
5.35447 498
5.37459 472
5.3947 479
5.41481 470
5.43493 452
5.45504 461
5.47516 428
5.49527 445
5.51538 467
5.5355 391
5.55561 385
5.57572 376
5.59584 352
5.61595 393
5.63606 369
5.65618 398
5.67629 362
5.69641 361
5.71652 354
5.73663 344
5.75675 391
5.77686 307
5.79697 360
5.81709 324
5.8372 347
5.85732 331
5.87743 307
5.89754 366
5.91766 334
5.93777 318
5.95788 282
5.978 309
5.99811 289
6.01823 290
6.03834 310
6.05845 339
6.07857 302
6.09868 287
6.11879 290
6.13891 325
6.15902 344
6.17913 302
6.19925 304
6.21936 305
6.23948 297
6.25959 315
6.2797 347
6.29982 294
6.31993 314
6.34004 272
6.36016 304
6.38027 309
6.40039 250
6.4205 312
6.44061 294
6.46073 266
6.48084 271
6.50095 304
6.52107 258
6.54118 293
6.56129 293
6.58141 289
6.60152 278
6.62164 241
6.64175 288
6.66186 276
6.68198 278
6.70209 288
6.7222 252
6.74232 266
6.76243 292
6.78255 280
6.80266 252
6.82277 275
6.84289 238
6.863 232
6.88311 273
6.90323 257
6.92334 235
6.94346 257
6.96357 250
6.98368 260
7.0038 271
7.02391 247
7.04402 240
7.06414 259
7.08425 277
7.10436 252
7.12448 276
7.14459 242
7.16471 282
7.18482 271
7.20493 247
7.22505 271
7.24516 247
7.26527 248
7.28539 264
7.3055 241
7.32562 234
7.34573 248
7.36584 309
7.38596 269
7.40607 263
7.42618 229
7.4463 207
7.46641 294
7.48653 268
7.50664 249
7.52675 262
7.54687 245
7.56698 274
7.58709 311
7.60721 286
7.62732 239
7.64743 282
7.66755 254
7.68766 230
7.70778 266
7.72789 259
7.748 263
7.76812 257
7.78823 272
7.80834 258
7.82846 277
7.84857 302
7.86869 269
7.8888 270
7.90891 266
7.92903 261
7.94914 268
7.96925 268
7.98937 282
8.00948 256
8.0296 279
8.04971 227
8.06982 292
8.08994 251
8.11005 258
8.13016 298
8.15028 258
8.17039 285
8.1905 261
8.21062 257
8.23073 310
8.25085 301
8.27096 261
8.29107 291
8.31119 241
8.3313 296
8.35141 287
8.37153 272
8.39164 266
8.41176 280
8.43187 282
8.45198 301
8.4721 292
8.49221 280
8.51232 300
8.53244 296
8.55255 315
8.57266 296
8.59278 310
8.61289 300
8.63301 307
8.65312 318
8.67323 333
8.69335 277
8.71346 273
8.73357 320
8.75369 312
8.7738 277
8.79392 310
8.81403 315
8.83414 308
8.85426 327
8.87437 305
8.89448 289
8.9146 262
8.93471 286
8.95483 282
8.97494 290
8.99505 338
9.01517 270
9.03528 308
9.05539 298
9.07551 278
9.09562 251
9.11573 268
9.13585 303
9.15596 263
9.17608 268
9.19619 288
9.2163 275
9.23642 283
9.25653 305
9.27664 279
9.29676 274
9.31687 299
9.33699 278
9.3571 312
9.37721 241
9.39733 274
9.41744 281
9.43755 297
9.45767 292
9.47778 265
9.4979 310
9.51801 295
9.53812 259
9.55824 269
9.57835 258
9.59846 273
9.61858 259
9.63869 267
9.6588 249
9.67892 257
9.69903 288
9.71915 276
9.73926 322
9.75937 269
9.77949 254
9.7996 299
9.81971 283
9.83983 272
9.85994 275
9.88006 255
9.90017 247
9.92028 265
9.9404 293
9.96051 267
9.98062 286
10.00074 299
10.02085 267
10.04097 259
10.06108 258
10.08119 290
10.10131 264
10.12142 285
10.14153 279
10.16165 251
10.18176 272
10.20187 255
10.22199 280
10.2421 246
10.26222 280
10.28233 281
10.30244 272
10.32256 285
10.34267 305
10.36278 263
10.3829 289
10.40301 274
10.42313 264
10.44324 289
10.46335 291
10.48347 265
10.50358 266
10.52369 258
10.54381 295
10.56392 286
10.58403 277
10.60415 260
10.62426 317
10.64438 276
10.66449 274
10.6846 256
10.70472 243
10.72483 266
10.74494 233
10.76506 268
10.78517 268
10.80529 269
10.8254 294
10.84551 295
10.86563 264
10.88574 251
10.90585 285
10.92597 252
10.94608 326
10.9662 238
10.98631 272
11.00642 290
11.02654 227
11.04665 278
11.06676 266
11.08688 316
11.10699 304
11.1271 276
11.14722 255
11.16733 304
11.18745 290
11.20756 297
11.22767 261
11.24779 294
11.2679 284
11.28801 285
11.30813 309
11.32824 254
11.34836 297
11.36847 283
11.38858 308
11.4087 294
11.42881 314
11.44892 272
11.46904 272
11.48915 304
11.50927 308
11.52938 294
11.54949 294
11.56961 297
11.58972 310
11.60983 324
11.62995 312
11.65006 327
11.67017 290
11.69029 324
11.7104 307
11.73052 267
11.75063 323
11.77074 301
11.79086 291
11.81097 313
11.83108 276
11.8512 309
11.87131 294
11.89143 352
11.91154 287
11.93165 342
11.95177 355
11.97188 318
11.99199 332
12.01211 339
12.03222 318
12.05234 341
12.07245 366
12.09256 334
12.11268 333
12.13279 334
12.1529 359
12.17302 340
12.19313 340
12.21324 387
12.23336 368
12.25347 364
12.27359 356
12.2937 382
12.31381 406
12.33393 399
12.35404 376
12.37415 355
12.39427 351
12.41438 398
12.4345 372
12.45461 320
12.47472 382
12.49484 316
12.51495 380
12.53506 295
12.55518 322
12.57529 256
12.5954 342
12.61552 307
12.63563 299
12.65575 335
12.67586 289
12.69597 327
12.71609 298
12.7362 290
12.75631 263
12.77643 277
12.79654 320
12.81666 267
12.83677 264
12.85688 242
12.877 260
12.89711 254
12.91722 237
12.93734 260
12.95745 279
12.97757 292
12.99768 260
13.01779 239
13.03791 277
13.05802 238
13.07813 245
13.09825 287
13.11836 297
13.13847 312
13.15859 304
13.1787 296
13.19882 312
13.21893 281
13.23904 277
13.25916 288
13.27927 280
13.29938 270
13.3195 270
13.33961 247
13.35973 304
13.37984 271
13.39995 281
13.42007 289
13.44018 285
13.46029 245
13.48041 268
13.50052 280
13.52064 268
13.54075 269
13.56086 267
13.58098 303
13.60109 320
13.6212 346
13.64132 333
13.66143 346
13.68154 310
13.70166 308
13.72177 238
13.74189 280
13.762 256
13.78211 293
13.80223 264
13.82234 256
13.84245 256
13.86257 240
13.88268 265
13.9028 260
13.92291 235
13.94302 244
13.96314 275
13.98325 259
14.00336 264
14.02348 229
14.04359 251
14.06371 264
14.08382 279
14.10393 231
14.12405 280
14.14416 228
14.16427 259
14.18439 255
14.2045 260
14.22461 237
14.24473 264
14.26484 250
14.28496 249
14.30507 197
14.32518 238
14.3453 223
14.36541 235
14.38552 232
14.40564 241
14.42575 243
14.44587 224
14.46598 232
14.48609 261
14.50621 232
14.52632 242
14.54643 235
14.56655 212
14.58666 269
14.60677 203
14.62689 211
14.647 241
14.66712 237
14.68723 245
14.70734 236
14.72746 249
14.74757 265
14.76768 215
14.7878 238
14.80791 225
14.82803 225
14.84814 249
14.86825 272
14.88837 277
14.90848 273
14.92859 295
14.94871 258
14.96882 292
14.98894 277
15.00905 234
15.02916 282
15.04928 277
15.06939 268
15.0895 267
15.10962 274
15.12973 251
15.14984 245
15.16996 267
15.19007 281
15.21019 251
15.2303 264
15.25041 229
15.27053 243
15.29064 245
15.31075 223
15.33087 236
15.35098 235
15.3711 237
15.39121 238
15.41132 207
15.43144 261
15.45155 228
15.47166 198
15.49178 219
15.51189 271
15.53201 223
15.55212 233
15.57223 249
15.59235 236
15.61246 254
15.63257 214
15.65269 200
15.6728 238
15.69291 239
15.71303 254
15.73314 264
15.75326 226
15.77337 226
15.79348 224
15.8136 236
15.83371 209
15.85382 212
15.87394 222
15.89405 234
15.91417 232
15.93428 252
15.95439 251
15.97451 253
15.99462 252
16.01473 237
16.03485 249
16.05496 193
16.07508 224
16.09519 227
16.1153 233
16.13542 247
16.15553 224
16.17564 234
16.19576 209
16.21587 232
16.23598 222
16.2561 240
16.27621 233
16.29633 207
16.31644 237
16.33655 241
16.35667 235
16.37678 218
16.39689 253
16.41701 220
16.43712 251
16.45724 217
16.47735 230
16.49746 234
16.51758 215
16.53769 249
16.5578 200
16.57792 231
16.59803 228
16.61814 274
16.63826 224
16.65837 236
16.67849 227
16.6986 226
16.71871 227
16.73883 244
16.75894 251
16.77905 233
16.79917 235
16.81928 230
16.8394 214
16.85951 259
16.87962 243
16.89974 242
16.91985 232
16.93996 261
16.96008 224
16.98019 243
17.00031 245
17.02042 237
17.04053 228
17.06065 213
17.08076 221
17.10087 212
17.12099 211
17.1411 262
17.16121 220
17.18133 220
17.20144 227
17.22156 236
17.24167 239
17.26178 246
17.2819 243
17.30201 229
17.32212 251
17.34224 243
17.36235 233
17.38247 261
17.40258 259
17.42269 236
17.44281 236
17.46292 231
17.48303 210
17.50315 245
17.52326 218
17.54338 237
17.56349 207
17.5836 225
17.60372 231
17.62383 218
17.64394 257
17.66406 237
17.68417 260
17.70428 255
17.7244 237
17.74451 216
17.76463 232
17.78474 268
17.80485 245
17.82497 266
17.84508 227
17.86519 213
17.88531 260
17.90542 216
17.92554 221
17.94565 214
17.96576 227
17.98588 237
18.00599 264
18.0261 235
18.04622 225
18.06633 238
18.08645 219
18.10656 235
18.12667 238
18.14679 268
18.1669 254
18.18701 272
18.20713 266
18.22724 322
18.24735 328
18.26747 312
18.28758 316
18.3077 334
18.32781 289
18.34792 262
18.36804 251
18.38815 221
18.40826 227
18.42838 246
18.44849 258
18.46861 251
18.48872 241
18.50883 241
18.52895 249
18.54906 204
18.56917 232
18.58929 259
18.6094 225
18.62951 286
18.64963 229
18.66974 220
18.68986 237
18.70997 234
18.73008 243
18.7502 230
18.77031 229
18.79042 231
18.81054 267
18.83065 240
18.85077 236
18.87088 246
18.89099 243
18.91111 236
18.93122 252
18.95133 236
18.97145 237
18.99156 214
19.01168 219
19.03179 267
19.0519 228
19.07202 221
19.09213 264
19.11224 251
19.13236 269
19.15247 224
19.17258 261
19.1927 268
19.21281 261
19.23293 289
19.25304 241
19.27315 259
19.29327 298
19.31338 248
19.33349 280
19.35361 253
19.37372 272
19.39384 285
19.41395 273
19.43406 277
19.45418 245
19.47429 252
19.4944 272
19.51452 249
19.53463 261
19.55475 263
19.57486 278
19.59497 287
19.61509 279
19.6352 258
19.65531 325
19.67543 283
19.69554 268
19.71565 327
19.73577 308
19.75588 363
19.776 357
19.79611 341
19.81622 375
19.83634 338
19.85645 419
19.87656 375
19.89668 405
19.91679 405
19.93691 396
19.95702 402
19.97713 397
19.99725 408
20.01736 373
20.03747 371
20.05759 401
20.0777 383
20.09782 394
20.11793 412
20.13804 420
20.15816 395
20.17827 417
20.19838 427
20.2185 410
20.23861 431
20.25872 463
20.27884 429
20.29895 466
20.31907 417
20.33918 428
20.35929 423
20.37941 433
20.39952 413
20.41963 425
20.43975 442
20.45986 454
20.47998 444
20.50009 475
20.5202 473
20.54032 464
20.56043 510
20.58054 505
20.60066 536
20.62077 587
20.64088 615
20.661 749
20.68111 808
20.70123 1046
20.72134 1409
20.74145 1898
20.76157 2415
20.78168 3236
20.80179 4156
20.82191 4975
20.84202 5687
20.86214 5559
20.88225 4973
20.90236 3946
20.92248 2825
20.94259 1999
20.9627 1479
20.98282 1152
21.00293 1111
21.02305 1039
21.04316 951
21.06327 826
21.08339 783
21.1035 643
21.12361 563
21.14373 483
21.16384 457
21.18395 435
21.20407 394
21.22418 435
21.2443 388
21.26441 426
21.28452 393
21.30464 407
21.32475 420
21.34486 466
21.36498 384
21.38509 410
21.40521 398
21.42532 396
21.44543 393
21.46555 430
21.48566 348
21.50577 363
21.52589 362
21.546 353
21.56612 369
21.58623 381
21.60634 353
21.62646 373
21.64657 379
21.66668 380
21.6868 341
21.70691 325
21.72702 322
21.74714 341
21.76725 345
21.78737 380
21.80748 352
21.82759 343
21.84771 349
21.86782 345
21.88793 339
21.90805 355
21.92816 348
21.94828 359
21.96839 343
21.9885 388
22.00862 381
22.02873 361
22.04884 359
22.06896 322
22.08907 353
22.10919 314
22.1293 302
22.14941 293
22.16953 308
22.18964 355
22.20975 329
22.22987 372
22.24998 371
22.27009 412
22.29021 380
22.31032 387
22.33044 379
22.35055 433
22.37066 413
22.39078 364
22.41089 400
22.431 423
22.45112 390
22.47123 345
22.49135 360
22.51146 353
22.53157 371
22.55169 373
22.5718 365
22.59191 366
22.61203 360
22.63214 359
22.65225 352
22.67237 323
22.69248 338
22.7126 313
22.73271 310
22.75282 298
22.77294 304
22.79305 309
22.81316 319
22.83328 297
22.85339 275
22.87351 314
22.89362 327
22.91373 316
22.93385 314
22.95396 339
22.97407 324
22.99419 372
23.0143 373
23.03442 362
23.05453 357
23.07464 407
23.09476 378
23.11487 384
23.13498 392
23.1551 440
23.17521 460
23.19532 476
23.21544 484
23.23555 474
23.25567 436
23.27578 450
23.29589 467
23.31601 429
23.33612 424
23.35623 387
23.37635 387
23.39646 414
23.41658 377
23.43669 381
23.4568 348
23.47692 380
23.49703 350
23.51714 359
23.53726 359
23.55737 394
23.57749 403
23.5976 326
23.61771 332
23.63783 356
23.65794 379
23.67805 379
23.69817 340
23.71828 371
23.73839 393
23.75851 411
23.77862 440
23.79874 385
23.81885 401
23.83896 446
23.85908 438
23.87919 430
23.8993 462
23.91942 473
23.93953 506
23.95965 497
23.97976 481
23.99987 470
24.01999 405
24.0401 445
24.06021 379
24.08033 375
24.10044 324
24.12056 335
24.14067 302
24.16078 320
24.1809 341
24.20101 389
24.22112 371
24.24124 358
24.26135 351
24.28146 386
24.30158 371
24.32169 381
24.34181 364
24.36192 370
24.38203 339
24.40215 408
24.42226 364
24.44237 413
24.46249 361
24.4826 367
24.50272 348
24.52283 348
24.54294 326
24.56306 349
24.58317 389
24.60328 367
24.6234 392
24.64351 370
24.66362 376
24.68374 431
24.70385 399
24.72397 392
24.74408 420
24.76419 419
24.78431 416
24.80442 398
24.82453 421
24.84465 449
24.86476 421
24.88488 457
24.90499 379
24.9251 388
24.94522 374
24.96533 407
24.98544 381
25.00556 337
25.02567 370
25.04579 379
25.0659 380
25.08601 330
25.10613 343
25.12624 372
25.14635 347
25.16647 360
25.18658 354
25.20669 326
25.22681 354
25.24692 377
25.26704 355
25.28715 385
25.30726 370
25.32738 342
25.34749 324
25.3676 388
25.38772 353
25.40783 353
25.42795 414
25.44806 486
25.46817 516
25.48829 577
25.5084 580
25.52851 606
25.54863 642
25.56874 651
25.58886 694
25.60897 682
25.62908 672
25.6492 665
25.66931 648
25.68942 657
25.70954 559
25.72965 551
25.74976 515
25.76988 519
25.78999 486
25.81011 459
25.83022 462
25.85033 434
25.87045 489
25.89056 490
25.91067 436
25.93079 500
25.9509 458
25.97102 505
25.99113 479
26.01124 535
26.03136 474
26.05147 518
26.07158 581
26.0917 571
26.11181 609
26.13193 593
26.15204 638
26.17215 661
26.19227 669
26.21238 686
26.23249 740
26.25261 848
26.27272 935
26.29283 942
26.31295 1039
26.33306 1161
26.35318 1301
26.37329 1567
26.3934 1848
26.41352 2268
26.43363 2756
26.45374 3533
26.47386 4840
26.49397 6290
26.51409 8304
26.5342 11161
26.55431 14837
26.57443 18492
26.59454 21998
26.61465 24360
26.63477 24809
26.65488 22173
26.67499 17152
26.69511 13029
26.71522 9691
26.73534 6538
26.75545 3728
26.77556 2267
26.79568 1587
26.81579 1426
26.8359 1231
26.85602 1213
26.87613 1129
26.89625 1074
26.91636 1067
26.93647 1009
26.95659 1013
26.9767 1010
26.99681 1071
27.01693 1098
27.03704 1067
27.05716 1108
27.07727 1024
27.09738 1030
27.1175 935
27.13761 866
27.15772 720
27.17784 704
27.19795 702
27.21806 665
27.23818 693
27.25829 730
27.27841 719
27.29852 790
27.31863 823
27.33875 859
27.35886 967
27.37897 1057
27.39909 1222
27.4192 1276
27.43932 1392
27.45943 1409
27.47954 1334
27.49966 1247
27.51977 1109
27.53988 955
27.56 823
27.58011 667
27.60023 566
27.62034 478
27.64045 474
27.66057 420
27.68068 404
27.70079 432
27.72091 434
27.74102 395
27.76113 411
27.78125 394
27.80136 409
27.82148 412
27.84159 412
27.8617 387
27.88182 385
27.90193 455
27.92204 440
27.94216 422
27.96227 417
27.98239 366
28.0025 388
28.02261 381
28.04273 359
28.06284 386
28.08295 364
28.10307 347
28.12318 356
28.1433 328
28.16341 327
28.18352 362
28.20364 325
28.22375 344
28.24386 322
28.26398 314
28.28409 303
28.3042 308
28.32432 330
28.34443 334
28.36455 292
28.38466 333
28.40477 283
28.42489 302
28.445 290
28.46511 291
28.48523 313
28.50534 325
28.52546 285
28.54557 312
28.56568 311
28.5858 288
28.60591 325
28.62602 282
28.64614 278
28.66625 295
28.68636 284
28.70648 277
28.72659 297
28.74671 296
28.76682 293
28.78693 306
28.80705 282
28.82716 269
28.84727 270
28.86739 277
28.8875 285
28.90762 271
28.92773 294
28.94784 297
28.96796 292
28.98807 266
29.00818 286
29.0283 294
29.04841 296
29.06853 290
29.08864 245
29.10875 279
29.12887 316
29.14898 273
29.16909 297
29.18921 296
29.20932 291
29.22943 283
29.24955 276
29.26966 315
29.28978 285
29.30989 287
29.33 324
29.35012 330
29.37023 336
29.39034 337
29.41046 431
29.43057 363
29.45069 393
29.4708 405
29.49091 372
29.51103 430
29.53114 397
29.55125 386
29.57137 376
29.59148 381
29.6116 349
29.63171 344
29.65182 346
29.67194 353
29.69205 306
29.71216 373
29.73228 312
29.75239 330
29.7725 321
29.79262 324
29.81273 334
29.83285 312
29.85296 334
29.87307 320
29.89319 352
29.9133 370
29.93341 355
29.95353 375
29.97364 363
29.99376 365
30.01387 387
30.03398 392
30.0541 384
30.07421 436
30.09432 467
30.11444 496
30.13455 449
30.15467 461
30.17478 435
30.19489 420
30.21501 384
30.23512 388
30.25523 350
30.27535 393
30.29546 346
30.31557 309
30.33569 312
30.3558 286
30.37592 312
30.39603 283
30.41614 299
30.43626 295
30.45637 282
30.47648 280
30.4966 312
30.51671 278
30.53683 280
30.55694 303
30.57705 343
30.59717 333
30.61728 333
30.63739 396
30.65751 403
30.67762 390
30.69773 418
30.71785 431
30.73796 425
30.75808 450
30.77819 484
30.7983 454
30.81842 426
30.83853 412
30.85864 452
30.87876 374
30.89887 379
30.91899 376
30.9391 311
30.95921 312
30.97933 304
30.99944 277
31.01955 294
31.03967 276
31.05978 256
31.0799 256
31.10001 270
31.12012 287
31.14024 242
31.16035 269
31.18046 269
31.20058 255
31.22069 285
31.2408 252
31.26092 255
31.28103 254
31.30115 259
31.32126 266
31.34137 247
31.36149 240
31.3816 246
31.40171 228
31.42183 234
31.44194 245
31.46206 254
31.48217 228
31.50228 246
31.5224 258
31.54251 260
31.56262 239
31.58274 235
31.60285 266
31.62297 242
31.64308 271
31.66319 253
31.68331 244
31.70342 228
31.72353 259
31.74365 266
31.76376 224
31.78387 229
31.80399 232
31.8241 217
31.84422 260
31.86433 236
31.88444 239
31.90456 264
31.92467 239
31.94478 255
31.9649 254
31.98501 296
32.00513 266
32.02524 258
32.04535 297
32.06547 291
32.08558 302
32.10569 289
32.12581 263
32.14592 316
32.16604 325
32.18615 324
32.20626 312
32.22638 285
32.24649 291
32.2666 298
32.28672 286
32.30683 342
32.32694 319
32.34706 298
32.36717 297
32.38729 301
32.4074 317
32.42751 279
32.44763 307
32.46774 288
32.48785 284
32.50797 291
32.52808 279
32.5482 280
32.56831 271
32.58842 251
32.60854 264
32.62865 261
32.64876 252
32.66888 239
32.68899 246
32.7091 250
32.72922 226
32.74933 241
32.76945 236
32.78956 261
32.80967 252
32.82979 247
32.8499 248
32.87001 238
32.89013 244
32.91024 240
32.93036 245
32.95047 231
32.97058 250
32.9907 223
33.01081 246
33.03092 243
33.05104 238
33.07115 205
33.09127 250
33.11138 251
33.13149 280
33.15161 253
33.17172 247
33.19183 221
33.21195 244
33.23206 240
33.25217 270
33.27229 287
33.2924 277
33.31252 239
33.33263 270
33.35274 281
33.37286 245
33.39297 269
33.41308 206
33.4332 273
33.45331 220
33.47343 251
33.49354 244
33.51365 244
33.53377 252
33.55388 260
33.57399 261
33.59411 227
33.61422 294
33.63434 263
33.65445 232
33.67456 245
33.69468 243
33.71479 247
33.7349 246
33.75502 269
33.77513 243
33.79524 224
33.81536 270
33.83547 284
33.85559 246
33.8757 242
33.89581 298
33.91593 275
33.93604 280
33.95615 268
33.97627 257
33.99638 268
34.0165 280
34.03661 274
34.05672 304
34.07684 312
34.09695 312
34.11706 283
34.13718 334
34.15729 337
34.17741 370
34.19752 329
34.21763 365
34.23775 409
34.25786 398
34.27797 352
34.29809 362
34.3182 344
34.33831 326
34.35843 345
34.37854 341
34.39866 323
34.41877 344
34.43888 320
34.459 297
34.47911 322
34.49922 347
34.51934 321
34.53945 356
34.55957 333
34.57968 330
34.59979 367
34.61991 340
34.64002 350
34.66013 348
34.68025 350
34.70036 319
34.72047 292
34.74059 307
34.7607 342
34.78082 331
34.80093 280
34.82104 331
34.84116 341
34.86127 351
34.88138 334
34.9015 340
34.92161 362
34.94173 334
34.96184 365
34.98195 371
35.00207 398
35.02218 348
35.04229 411
35.06241 374
35.08252 352
35.10264 366
35.12275 339
35.14286 354
35.16298 344
35.18309 375
35.2032 339
35.22332 357
35.24343 338
35.26354 299
35.28366 350
35.30377 368
35.32389 351
35.344 393
35.36411 366
35.38423 348
35.40434 376
35.42445 390
35.44457 409
35.46468 372
35.4848 413
35.50491 394
35.52502 356
35.54514 400
35.56525 413
35.58536 405
35.60548 366
35.62559 366
35.64571 338
35.66582 372
35.68593 307
35.70605 319
35.72616 322
35.74627 313
35.76639 336
35.7865 316
35.80661 334
35.82673 307
35.84684 321
35.86696 335
35.88707 315
35.90718 331
35.9273 290
35.94741 265
35.96752 286
35.98764 295
36.00775 306
36.02787 314
36.04798 315
36.06809 314
36.08821 306
36.10832 286
36.12843 300
36.14855 327
36.16866 335
36.18878 317
36.20889 350
36.229 342
36.24912 389
36.26923 383
36.28934 441
36.30946 437
36.32957 461
36.34968 545
36.3698 633
36.38991 766
36.41003 866
36.43014 1052
36.45025 1256
36.47037 1458
36.49048 1687
36.51059 1791
36.53071 1828
36.55082 1753
36.57094 1428
36.59105 1207
36.61116 1060
36.63128 953
36.65139 757
36.6715 608
36.69162 440
36.71173 375
36.73184 353
36.75196 364
36.77207 352
36.79219 350
36.8123 354
36.83241 374
36.85253 337
36.87264 339
36.89275 345
36.91287 324
36.93298 330
36.9531 323
36.97321 349
36.99332 364
37.01344 362
37.03355 332
37.05366 363
37.07378 352
37.09389 331
37.11401 337
37.13412 334
37.15423 297
37.17435 334
37.19446 298
37.21457 310
37.23469 306
37.2548 313
37.27491 296
37.29503 329
37.31514 276
37.33526 339
37.35537 308
37.37548 300
37.3956 292
37.41571 284
37.43582 331
37.45594 309
37.47605 290
37.49617 279
37.51628 318
37.53639 299
37.55651 331
37.57662 288
37.59673 315
37.61685 249
37.63696 293
37.65708 312
37.67719 261
37.6973 317
37.71742 292
37.73753 258
37.75764 282
37.77776 257
37.79787 260
37.81798 280
37.8381 292
37.85821 309
37.87833 286
37.89844 293
37.91855 241
37.93867 238
37.95878 264
37.97889 279
37.99901 282
38.01912 271
38.03924 286
38.05935 264
38.07946 282
38.09958 290
38.11969 253
38.1398 274
38.15992 308
38.18003 287
38.20015 283
38.22026 311
38.24037 280
38.26049 281
38.2806 269
38.30071 284
38.32083 273
38.34094 306
38.36105 281
38.38117 292
38.40128 304
38.4214 303
38.44151 267
38.46162 324
38.48174 316
38.50185 365
38.52196 321
38.54208 300
38.56219 355
38.58231 313
38.60242 294
38.62253 320
38.64265 318
38.66276 280
38.68287 278
38.70299 268
38.7231 303
38.74321 309
38.76333 263
38.78344 250
38.80356 235
38.82367 257
38.84378 262
38.8639 246
38.88401 239
38.90412 278
38.92424 300
38.94435 267
38.96447 259
38.98458 270
39.00469 276
39.02481 301
39.04492 259
39.06503 309
39.08515 305
39.10526 314
39.12538 345
39.14549 335
39.1656 315
39.18572 346
39.20583 365
39.22594 413
39.24606 466
39.26617 467
39.28628 559
39.3064 671
39.32651 760
39.34663 947
39.36674 1117
39.38685 1302
39.40697 1476
39.42708 1631
39.44719 1660
39.46731 1648
39.48742 1384
39.50754 1087
39.52765 1026
39.54776 896
39.56788 824
39.58799 638
39.6081 477
39.62822 370
39.64833 314
39.66845 334
39.68856 311
39.70867 310
39.72879 266
39.7489 249
39.76901 269
39.78913 288
39.80924 241
39.82935 288
39.84947 257
39.86958 271
39.8897 284
39.90981 267
39.92992 282
39.95004 292
39.97015 286
39.99026 311
40.01038 286
40.03049 374
40.05061 317
40.07072 382
40.09083 400
40.11095 428
40.13106 468
40.15117 523
40.17129 604
40.1914 696
40.21152 770
40.23163 775
40.25174 953
40.27186 954
40.29197 835
40.31208 793
40.3322 641
40.35231 620
40.37242 588
40.39254 580
40.41265 446
40.43277 351
40.45288 332
40.47299 280
40.49311 316
40.51322 291
40.53333 287
40.55345 307
40.57356 267
40.59368 285
40.61379 243
40.6339 248
40.65402 265
40.67413 254
40.69424 242
40.71436 255
40.73447 248
40.75458 262
40.7747 257
40.79481 263
40.81493 234
40.83504 281
40.85515 254
40.87527 262
40.89538 290
40.91549 230
40.93561 253
40.95572 258
40.97584 267
40.99595 281
41.01606 246
41.03618 234
41.05629 262
41.0764 249
41.09652 271
41.11663 229
41.13675 265
41.15686 237
41.17697 261
41.19709 286
41.2172 251
41.23731 243
41.25743 251
41.27754 243
41.29765 250
41.31777 273
41.33788 258
41.358 265
41.37811 258
41.39822 276
41.41834 273
41.43845 271
41.45856 266
41.47868 278
41.49879 256
41.51891 288
41.53902 257
41.55913 288
41.57925 261
41.59936 320
41.61947 332
41.63959 322
41.6597 345
41.67982 385
41.69993 373
41.72004 423
41.74016 426
41.76027 418
41.78038 456
41.8005 447
41.82061 371
41.84072 377
41.86084 348
41.88095 325
41.90107 326
41.92118 298
41.94129 278
41.96141 273
41.98152 297
42.00163 282
42.02175 266
42.04186 296
42.06198 291
42.08209 300
42.1022 307
42.12232 287
42.14243 291
42.16254 328
42.18266 350
42.20277 328
42.22289 366
42.243 443
42.26311 464
42.28323 544
42.30334 610
42.32345 733
42.34357 811
42.36368 929
42.38379 1141
42.40391 1232
42.42402 1304
42.44414 1211
42.46425 1044
42.48436 864
42.50448 751
42.52459 728
42.5447 644
42.56482 607
42.58493 456
42.60505 388
42.62516 336
42.64527 316
42.66539 319
42.6855 281
42.70561 293
42.72573 275
42.74584 291
42.76595 291
42.78607 272
42.80618 257
42.8263 258
42.84641 285
42.86652 254
42.88664 226
42.90675 237
42.92686 239
42.94698 252
42.96709 255
42.98721 226
43.00732 191
43.02743 214
43.04755 239
43.06766 240
43.08777 218
43.10789 223
43.128 216
43.14812 226
43.16823 222
43.18834 217
43.20846 238
43.22857 223
43.24868 212
43.2688 207
43.28891 239
43.30902 215
43.32914 192
43.34925 215
43.36937 217
43.38948 225
43.40959 248
43.42971 225
43.44982 261
43.46993 234
43.49005 226
43.51016 246
43.53028 234
43.55039 229
43.5705 223
43.59062 272
43.61073 253
43.63084 235
43.65096 231
43.67107 250
43.69119 220
43.7113 215
43.73141 219
43.75153 220
43.77164 242
43.79175 258
43.81187 228
43.83198 229
43.85209 239
43.87221 222
43.89232 210
43.91244 220
43.93255 225
43.95266 188
43.97278 213
43.99289 231
44.013 225
44.03312 243
44.05323 220
44.07335 250
44.09346 232
44.11357 246
44.13369 223
44.1538 224
44.17391 257
44.19403 238
44.21414 259
44.23426 244
44.25437 244
44.27448 224
44.2946 212
44.31471 217
44.33482 236
44.35494 204
44.37505 209
44.39516 207
44.41528 220
44.43539 200
44.45551 195
44.47562 212
44.49573 249
44.51585 232
44.53596 243
44.55607 225
44.57619 226
44.5963 234
44.61642 220
44.63653 242
44.65664 202
44.67676 241
44.69687 254
44.71698 243
44.7371 242
44.75721 238
44.77732 226
44.79744 237
44.81755 219
44.83767 202
44.85778 203
44.87789 200
44.89801 219
44.91812 237
44.93823 226
44.95835 234
44.97846 236
44.99858 206
45.01869 244
45.0388 221
45.05892 246
45.07903 209
45.09914 218
45.11926 221
45.13937 254
45.15949 244
45.1796 229
45.19971 225
45.21983 242
45.23994 247
45.26005 226
45.28017 234
45.30028 244
45.32039 263
45.34051 235
45.36062 251
45.38074 289
45.40085 268
45.42096 257
45.44108 289
45.46119 306
45.4813 299
45.50142 287
45.52153 377
45.54165 336
45.56176 407
45.58187 425
45.60199 444
45.6221 467
45.64221 559
45.66233 588
45.68244 674
45.70256 770
45.72267 808
45.74278 851
45.7629 930
45.78301 867
45.80312 774
45.82324 676
45.84335 568
45.86346 594
45.88358 555
45.90369 575
45.92381 454
45.94392 368
45.96403 278
45.98415 315
46.00426 245
46.02437 259
46.04449 270
46.0646 248
46.08472 236
46.10483 287
46.12494 235
46.14506 257
46.16517 272
46.18528 245
46.2054 218
46.22551 244
46.24563 254
46.26574 244
46.28585 222
46.30597 222
46.32608 224
46.34619 192
46.36631 226
46.38642 215
46.40653 202
46.42665 214
46.44676 210
46.46688 194
46.48699 201
46.5071 191
46.52722 217
46.54733 219
46.56744 225
46.58756 234
46.60767 205
46.62779 204
46.6479 214
46.66801 229
46.68813 198
46.70824 213
46.72835 229
46.74847 221
46.76858 219
46.78869 203
46.80881 226
46.82892 251
46.84904 216
46.86915 223
46.88926 213
46.90938 233
46.92949 226
46.9496 252
46.96972 246
46.98983 225
47.00995 281
47.03006 216
47.05017 264
47.07029 286
47.0904 278
47.11051 251
47.13063 275
47.15074 243
47.17086 279
47.19097 265
47.21108 236
47.2312 256
47.25131 234
47.27142 265
47.29154 248
47.31165 215
47.33176 235
47.35188 265
47.37199 239
47.39211 259
47.41222 240
47.43233 234
47.45245 212
47.47256 243
47.49267 273
47.51279 269
47.5329 264
47.55302 245
47.57313 221
47.59324 239
47.61336 235
47.63347 212
47.65358 217
47.6737 207
47.69381 247
47.71393 226
47.73404 209
47.75415 223
47.77427 202
47.79438 209
47.81449 195
47.83461 240
47.85472 216
47.87483 224
47.89495 225
47.91506 214
47.93518 235
47.95529 212
47.9754 216
47.99552 248
48.01563 213
48.03574 201
48.05586 195
48.07597 209
48.09609 248
48.1162 174
48.13631 207
48.15643 226
48.17654 224
48.19665 212
48.21677 233
48.23688 196
48.257 222
48.27711 219
48.29722 240
48.31734 198
48.33745 233
48.35756 219
48.37768 221
48.39779 224
48.4179 190
48.43802 223
48.45813 224
48.47825 217
48.49836 226
48.51847 204
48.53859 229
48.5587 210
48.57881 204
48.59893 217
48.61904 189
48.63916 221
48.65927 248
48.67938 212
48.6995 234
48.71961 211
48.73972 236
48.75984 208
48.77995 218
48.80006 255
48.82018 245
48.84029 247
48.86041 271
48.88052 271
48.90063 278
48.92075 294
48.94086 266
48.96097 276
48.98109 247
49.0012 265
49.02132 227
49.04143 244
49.06154 254
49.08166 244
49.10177 253
49.12188 262
49.142 246
49.16211 237
49.18223 264
49.20234 238
49.22245 206
49.24257 259
49.26268 237
49.28279 237
49.30291 209
49.32302 216
49.34313 203
49.36325 221
49.38336 215
49.40348 247
49.42359 209
49.4437 270
49.46382 249
49.48393 246
49.50404 211
49.52416 260
49.54427 217
49.56439 238
49.5845 262
49.60461 273
49.62473 261
49.64484 281
49.66495 281
49.68507 298
49.70518 297
49.7253 311
49.74541 327
49.76552 312
49.78564 407
49.80575 434
49.82586 440
49.84598 495
49.86609 494
49.8862 555
49.90632 620
49.92643 708
49.94655 912
49.96666 986
49.98677 1192
50.00689 1398
50.027 1706
50.04711 1909
50.06723 2275
50.08734 2501
50.10746 2510
50.12757 2465
50.14768 2119
50.1678 1629
50.18791 1483
50.20802 1410
50.22814 1289
50.24825 1266
50.26837 1145
50.28848 881
50.30859 632
50.32871 489
50.34882 427
50.36893 390
50.38905 407
50.40916 401
50.42927 384
50.44939 416
50.4695 430
50.48962 415
50.50973 466
50.52984 456
50.54996 460
50.57007 505
50.59018 458
50.6103 423
50.63041 420
50.65053 394
50.67064 413
50.69075 368
50.71087 381
50.73098 369
50.75109 308
50.77121 320
50.79132 297
50.81143 306
50.83155 299
50.85166 307
50.87178 290
50.89189 266
50.912 263
50.93212 245
50.95223 249
50.97234 267
50.99246 245
51.01257 252
51.03269 247
51.0528 228
51.07291 240
51.09303 204
51.11314 249
51.13325 233
51.15337 205
51.17348 206
51.1936 250
51.21371 234
51.23382 224
51.25394 209
51.27405 216
51.29416 218
51.31428 218
51.33439 194
51.3545 220
51.37462 208
51.39473 242
51.41485 214
51.43496 209
51.45507 204
51.47519 168
51.4953 196
51.51541 195
51.53553 185
51.55564 205
51.57576 185
51.59587 215
51.61598 204
51.6361 218
51.65621 193
51.67632 192
51.69644 204
51.71655 174
51.73667 193
51.75678 213
51.77689 197
51.79701 195
51.81712 196
51.83723 227
51.85735 240
51.87746 222
51.89757 214
51.91769 215
51.9378 177
51.95792 209
51.97803 196
51.99814 190
52.01826 195
52.03837 231
52.05848 215
52.0786 206
52.09871 205
52.11883 199
52.13894 214
52.15905 227
52.17917 200
52.19928 187
52.21939 192
52.23951 201
52.25962 203
52.27974 219
52.29985 196
52.31996 201
52.34008 201
52.36019 217
52.3803 212
52.40042 195
52.42053 176
52.44064 176
52.46076 201
52.48087 191
52.50099 179
52.5211 217
52.54121 205
52.56133 209
52.58144 210
52.60155 211
52.62167 222
52.64178 232
52.6619 184
52.68201 220
52.70212 186
52.72224 200
52.74235 224
52.76246 198
52.78258 191
52.80269 196
52.8228 221
52.84292 237
52.86303 232
52.88315 220
52.90326 197
52.92337 182
52.94349 204
52.9636 210
52.98371 202
53.00383 200
53.02394 227
53.04406 203
53.06417 204
53.08428 194
53.1044 219
53.12451 204
53.14462 205
53.16474 217
53.18485 208
53.20497 215
53.22508 203
53.24519 216
53.26531 241
53.28542 235
53.30553 212
53.32565 238
53.34576 228
53.36587 235
53.38599 237
53.4061 231
53.42622 244
53.44633 256
53.46644 202
53.48656 236
53.50667 238
53.52678 228
53.5469 262
53.56701 212
53.58713 241
53.60724 230
53.62735 231
53.64747 226
53.66758 219
53.68769 234
53.70781 258
53.72792 233
53.74804 231
53.76815 217
53.78826 229
53.80838 229
53.82849 235
53.8486 237
53.86872 249
53.88883 256
53.90894 227
53.92906 244
53.94917 257
53.96929 240
53.9894 245
54.00951 216
54.02963 242
54.04974 242
54.06985 222
54.08997 259
54.11008 262
54.1302 221
54.15031 253
54.17042 237
54.19054 264
54.21065 260
54.23076 257
54.25088 236
54.27099 254
54.29111 251
54.31122 234
54.33133 271
54.35145 253
54.37156 254
54.39167 239
54.41179 296
54.4319 272
54.45201 266
54.47213 276
54.49224 291
54.51236 240
54.53247 271
54.55258 304
54.5727 320
54.59281 311
54.61292 333
54.63304 386
54.65315 362
54.67327 417
54.69338 450
54.71349 487
54.73361 556
54.75372 645
54.77383 729
54.79395 784
54.81406 808
54.83417 870
54.85429 845
54.8744 767
54.89452 661
54.91463 594
54.93474 574
54.95486 570
54.97497 563
54.99508 538
55.0152 479
55.03531 418
55.05543 380
55.07554 319
55.09565 321
55.11577 327
55.13588 335
55.15599 379
55.17611 351
55.19622 416
55.21634 440
55.23645 509
55.25656 481
55.27668 488
55.29679 525
55.3169 461
55.33702 429
55.35713 409
55.37724 353
55.39736 387
55.41747 339
55.43759 357
55.4577 329
55.47781 338
55.49793 298
55.51804 275
55.53815 270
55.55827 251
55.57838 268
55.5985 239
55.61861 245
55.63872 245
55.65884 261
55.67895 244
55.69906 220
55.71918 225
55.73929 221
55.75941 229
55.77952 214
55.79963 246
55.81975 222
55.83986 223
55.85997 211
55.88009 222
55.9002 221
55.92031 243
55.94043 209
55.96054 201
55.98066 214
56.00077 228
56.02088 193
56.041 195
56.06111 188
56.08122 197
56.10134 225
56.12145 185
56.14157 206
56.16168 201
56.18179 185
56.20191 199
56.22202 214
56.24213 200
56.26225 187
56.28236 204
56.30248 205
56.32259 202
56.3427 206
56.36282 203
56.38293 177
56.40304 200
56.42316 215
56.44327 214
56.46338 201
56.4835 190
56.50361 202
56.52373 219
56.54384 216
56.56395 210
56.58407 191
56.60418 207
56.62429 197
56.64441 224
56.66452 220
56.68464 241
56.70475 230
56.72486 227
56.74498 218
56.76509 220
56.7852 204
56.80532 211
56.82543 219
56.84554 204
56.86566 212
56.88577 208
56.90589 220
56.926 194
56.94611 213
56.96623 198
56.98634 233
57.00645 193
57.02657 217
57.04668 197
57.0668 212
57.08691 229
57.10702 182
57.12714 236
57.14725 217
57.16736 227
57.18748 260
57.20759 224
57.22771 254
57.24782 244
57.26793 223
57.28805 250
57.30816 199
57.32827 206
57.34839 218
57.3685 240
57.38861 216
57.40873 202
57.42884 207
57.44896 225
57.46907 231
57.48918 196
57.5093 214
57.52941 188
57.54952 196
57.56964 202
57.58975 203
57.60987 174
57.62998 200
57.65009 197
57.67021 224
57.69032 219
57.71043 217
57.73055 176
57.75066 206
57.77078 186
57.79089 209
57.811 199
57.83112 199
57.85123 198
57.87134 194
57.89146 197
57.91157 215
57.93168 214
57.9518 223
57.97191 198
57.99203 219
58.01214 216
58.03225 199
58.05237 211
58.07248 207
58.09259 233
58.11271 209
58.13282 191
58.15294 205
58.17305 207
58.19316 204
58.21328 233
58.23339 191
58.2535 208
58.27362 207
58.29373 221
58.31385 209
58.33396 202
58.35407 211
58.37419 202
58.3943 213
58.41441 188
58.43453 222
58.45464 203
58.47475 240
58.49487 220
58.51498 175
58.5351 234
58.55521 219
58.57532 215
58.59544 216
58.61555 221
58.63566 221
58.65578 255
58.67589 236
58.69601 220
58.71612 198
58.73623 227
58.75635 221
58.77646 192
58.79657 182
58.81669 211
58.8368 212
58.85691 224
58.87703 206
58.89714 198
58.91726 183
58.93737 202
58.95748 190
58.9776 221
58.99771 181
59.01782 222
59.03794 201
59.05805 189
59.07817 177
59.09828 186
59.11839 221
59.13851 186
59.15862 195
59.17873 177
59.19885 210
59.21896 208
59.23908 219
59.25919 233
59.2793 214
59.29942 226
59.31953 221
59.33964 217
59.35976 204
59.37987 231
59.39998 236
59.4201 244
59.44021 257
59.46033 265
59.48044 271
59.50055 272
59.52067 270
59.54078 269
59.56089 288
59.58101 323
59.60112 331
59.62124 353
59.64135 348
59.66146 377
59.68158 421
59.70169 429
59.7218 486
59.74192 573
59.76203 682
59.78215 789
59.80226 972
59.82237 1108
59.84249 1209
59.8626 1359
59.88271 1455
59.90283 1583
59.92294 1580
59.94305 1379
59.96317 1222
59.98328 1056
60.0034 922
60.02351 859
60.04362 905
60.06374 889
60.08385 829
60.10396 773
60.12408 712
60.14419 539
60.16431 437
60.18442 359
60.20453 321
60.22465 299
60.24476 307
60.26487 245
60.28499 265
60.3051 247
60.32522 240
60.34533 244
60.36544 218
60.38556 258
60.40567 229
60.42578 237
60.4459 213
60.46601 219
60.48612 246
60.50624 217
60.52635 237
60.54647 209
60.56658 195
60.58669 215
60.60681 215
60.62692 200
60.64703 195
60.66715 230
60.68726 214
60.70738 237
60.72749 225
60.7476 212
60.76772 239
60.78783 208
60.80794 198
60.82806 196
60.84817 213
60.86828 196
60.8884 202
60.90851 217
60.92863 215
60.94874 216
60.96885 201
60.98897 196
61.00908 211
61.02919 219
61.04931 214
61.06942 238
61.08954 220
61.10965 204
61.12976 201
61.14988 254
61.16999 215
61.1901 205
61.21022 230
61.23033 235
61.25045 252
61.27056 233
61.29067 236
61.31079 227
61.3309 217
61.35101 217
61.37113 207
61.39124 205
61.41135 211
61.43147 223
61.45158 216
61.4717 211
61.49181 218
61.51192 232
61.53204 219
61.55215 239
61.57226 202
61.59238 205
61.61249 202
61.63261 221
61.65272 194
61.67283 197
61.69295 197
61.71306 229
61.73317 205
61.75329 196
61.7734 224
61.79352 223
61.81363 183
61.83374 217
61.85386 202
61.87397 240
61.89408 215
61.9142 216
61.93431 212
61.95442 223
61.97454 235
61.99465 189
62.01477 242
62.03488 251
62.05499 232
62.07511 217
62.09522 235
62.11533 257
62.13545 232
62.15556 230
62.17568 228
62.19579 245
62.2159 262
62.23602 235
62.25613 241
62.27624 250
62.29636 250
62.31647 262
62.33659 247
62.3567 245
62.37681 267
62.39693 233
62.41704 236
62.43715 213
62.45727 245
62.47738 233
62.49749 216
62.51761 232
62.53772 208
62.55784 241
62.57795 232
62.59806 228
62.61818 219
62.63829 256
62.6584 213
62.67852 227
62.69863 231
62.71875 224
62.73886 224
62.75897 211
62.77909 207
62.7992 221
62.81931 258
62.83943 225
62.85954 232
62.87965 227
62.89977 208
62.91988 232
62.94 252
62.96011 229
62.98022 252
63.00034 242
63.02045 206
63.04056 208
63.06068 234
63.08079 220
63.10091 218
63.12102 207
63.14113 215
63.16125 204
63.18136 197
63.20147 191
63.22159 200
63.2417 189
63.26182 202
63.28193 213
63.30204 194
63.32216 220
63.34227 207
63.36238 195
63.3825 211
63.40261 208
63.42272 219
63.44284 220
63.46295 213
63.48307 216
63.50318 218
63.52329 191
63.54341 212
63.56352 238
63.58363 217
63.60375 232
63.62386 226
63.64398 237
63.66409 229
63.6842 232
63.70432 252
63.72443 269
63.74454 280
63.76466 272
63.78477 292
63.80489 286
63.825 299
63.84511 305
63.86523 361
63.88534 354
63.90545 386
63.92557 412
63.94568 451
63.96579 508
63.98591 463
64.00602 487
64.02614 419
64.04625 430
64.06636 366
64.08648 347
64.10659 342
64.1267 363
64.14682 334
64.16693 352
64.18705 311
64.20716 313
64.22727 281
64.24739 262
64.2675 233
64.28761 200
64.30773 194
64.32784 207
64.34796 204
64.36807 224
64.38818 202
64.4083 203
64.42841 203
64.44852 190
64.46864 197
64.48875 204
64.50886 194
64.52898 194
64.54909 194
64.56921 214
64.58932 211
64.60943 198
64.62955 215
64.64966 200
64.66977 192
64.68989 188
64.71 197
64.73012 195
64.75023 193
64.77034 201
64.79046 199
64.81057 172
64.83068 184
64.8508 193
64.87091 212
64.89102 201
64.91114 187
64.93125 207
64.95137 187
64.97148 208
64.99159 197
65.01171 221
65.03182 203
65.05193 231
65.07205 221
65.09216 217
65.11228 202
65.13239 216
65.1525 194
65.17262 185
65.19273 204
65.21284 226
65.23296 224
65.25307 203
65.27319 238
65.2933 221
65.31341 212
65.33353 238
65.35364 237
65.37375 208
65.39387 191
65.41398 216
65.43409 223
65.45421 204
65.47432 210
65.49444 203
65.51455 219
65.53466 194
65.55478 226
65.57489 225
65.595 210
65.61512 231
65.63523 252
65.65535 247
65.67546 229
65.69557 257
65.71569 227
65.7358 272
65.75591 274
65.77603 232
65.79614 208
65.81626 202
65.83637 201
65.85648 225
65.8766 231
65.89671 227
65.91682 250
65.93694 230
65.95705 220
65.97716 206
65.99728 204
66.01739 196
66.03751 188
66.05762 191
66.07773 202
66.09785 204
66.11796 208
66.13807 246
66.15819 163
66.1783 204
66.19842 208
66.21853 218
66.23864 232
66.25876 214
66.27887 198
66.29898 210
66.3191 223
66.33921 207
66.35933 215
66.37944 194
66.39955 199
66.41967 193
66.43978 204
66.45989 209
66.48001 186
66.50012 212
66.52023 187
66.54035 211
66.56046 210
66.58058 202
66.60069 210
66.6208 195
66.64092 218
66.66103 179
66.68114 199
66.70126 186
66.72137 179
66.74149 172
66.7616 198
66.78171 199
66.80183 202
66.82194 192
66.84205 198
66.86217 195
66.88228 222
66.90239 216
66.92251 198
66.94262 204
66.96274 222
66.98285 171
67.00296 218
67.02308 217
67.04319 188
67.0633 182
67.08342 220
67.10353 209
67.12365 200
67.14376 209
67.16387 215
67.18399 213
67.2041 203
67.22421 226
67.24433 214
67.26444 228
67.28456 251
67.30467 229
67.32478 237
67.3449 241
67.36501 271
67.38512 255
67.40524 285
67.42535 330
67.44546 344
67.46558 330
67.48569 379
67.50581 412
67.52592 442
67.54603 546
67.56615 550
67.58626 612
67.60637 630
67.62649 736
67.6466 887
67.66672 937
67.68683 1040
67.70694 960
67.72706 969
67.74717 828
67.76728 780
67.7874 649
67.80751 652
67.82763 648
67.84774 701
67.86785 750
67.88797 820
67.90808 806
67.92819 791
67.94831 794
67.96842 783
67.98853 853
68.00865 868
68.02876 990
68.04888 1083
68.06899 1213
68.0891 1180
68.10922 1327
68.12933 1184
68.14944 1164
68.16956 1108
68.18967 1065
68.20979 1104
68.2299 1094
68.25001 1154
68.27013 1124
68.29024 1223
68.31035 1094
68.33047 901
68.35058 773
68.3707 662
68.39081 525
68.41092 507
68.43104 515
68.45115 516
68.47126 471
68.49138 417
68.51149 409
68.5316 340
68.55172 291
68.57183 264
68.59195 266
68.61206 228
68.63217 242
68.65229 234
68.6724 222
68.69251 211
68.71263 233
68.73274 233
68.75286 191
68.77297 203
68.79308 208
68.8132 176
68.83331 191
68.85342 198
68.87354 204
68.89365 204
68.91376 183
68.93388 204
68.95399 209
68.97411 214
68.99422 209
69.01433 194
69.03445 213
69.05456 195
69.07467 159
69.09479 205
69.1149 195
69.13502 192
69.15513 180
69.17524 183
69.19536 174
69.21547 184
69.23558 179
69.2557 181
69.27581 146
69.29593 177
69.31604 183
69.33615 182
69.35627 185
69.37638 168
69.39649 187
69.41661 173
69.43672 163
69.45683 187
69.47695 180
69.49706 190
69.51718 159
69.53729 185
69.5574 187
69.57752 181
69.59763 169
69.61774 171
69.63786 176
69.65797 157
69.67809 195
69.6982 183
69.71831 182
69.73843 147
69.75854 172
69.77865 181
69.79877 179
69.81888 168
69.839 175
69.85911 168
69.87922 178
69.89934 158
69.91945 172
69.93956 180
69.95968 173
69.97979 165
69.9999 176
70.02002 179
70.04013 176
70.06025 164
70.08036 162
70.10047 199
70.12059 178
70.1407 188
70.16081 172
70.18093 190
70.20104 177
70.22116 153
70.24127 206
70.26138 184
70.2815 195
70.30161 154
70.32172 179
70.34184 202
70.36195 169
70.38207 182
70.40218 185
70.42229 183
70.44241 172
70.46252 181
70.48263 159
70.50275 160
70.52286 188
70.54297 190
70.56309 176
70.5832 188
70.60332 178
70.62343 174
70.64354 162
70.66366 180
70.68377 180
70.70388 204
70.724 190
70.74411 165
70.76423 180
70.78434 196
70.80445 171
70.82457 167
70.84468 176
70.86479 165
70.88491 158
70.90502 193
70.92513 173
70.94525 166
70.96536 163
70.98548 177
71.00559 162
71.0257 184
71.04582 179
71.06593 192
71.08604 175
71.10616 154
71.12627 166
71.14639 168
71.1665 168
71.18661 174
71.20673 164
71.22684 183
71.24695 156
71.26707 215
71.28718 188
71.3073 185
71.32741 184
71.34752 190
71.36764 167
71.38775 178
71.40786 149
71.42798 196
71.44809 166
71.4682 196
71.48832 191
71.50843 181
71.52855 171
71.54866 213
71.56877 219
71.58889 221
71.609 185
71.62911 192
71.64923 192
71.66934 162
71.68946 199
71.70957 179
71.72968 185
71.7498 203
71.76991 217
71.79002 180
71.81014 177
71.83025 205
71.85037 175
71.87048 187
71.89059 194
71.91071 196
71.93082 170
71.95093 180
71.97105 203
71.99116 191
72.01127 206
72.03139 201
72.0515 203
72.07162 171
72.09173 182
72.11184 171
72.13196 181
72.15207 194
72.17218 199
72.1923 184
72.21241 170
72.23253 170
72.25264 183
72.27275 189
72.29287 191
72.31298 186
72.33309 210
72.35321 210
72.37332 174
72.39344 183
72.41355 171
72.43366 195
72.45378 204
72.47389 198
72.494 187
72.51412 176
72.53423 201
72.55434 183
72.57446 212
72.59457 165
72.61469 182
72.6348 182
72.65491 176
72.67503 167
72.69514 193
72.71525 175
72.73537 208
72.75548 182
72.7756 206
72.79571 203
72.81582 195
72.83594 177
72.85605 187
72.87616 169
72.89628 182
72.91639 189
72.9365 193
72.95662 190
72.97673 203
72.99685 200
73.01696 191
73.03707 238
73.05719 229
73.0773 227
73.09741 212
73.11753 203
73.13764 252
73.15776 227
73.17787 251
73.19798 237
73.2181 245
73.23821 263
73.25832 275
73.27844 310
73.29855 330
73.31867 331
73.33878 386
73.35889 401
73.37901 417
73.39912 439
73.41923 433
73.43935 453
73.45946 405
73.47957 374
73.49969 342
73.5198 333
73.53992 295
73.56003 328
73.58014 347
73.60026 324
73.62037 290
73.64048 334
73.6606 297
73.68071 296
73.70083 286
73.72094 234
73.74105 239
73.76117 210
73.78128 224
73.80139 207
73.82151 206
73.84162 219
73.86174 170
73.88185 185
73.90196 189
73.92208 180
73.94219 171
73.9623 189
73.98242 204
74.00253 203
74.02264 162
74.04276 185
74.06287 215
74.08299 180
74.1031 201
74.12321 199
74.14333 183
74.16344 185
74.18355 185
74.20367 168
74.22378 189
74.2439 184
74.26401 173
74.28412 177
74.30424 178
74.32435 186
74.34446 187
74.36458 178
74.38469 164
74.40481 188
74.42492 192
74.44503 194
74.46515 173
74.48526 185
74.50537 196
74.52549 189
74.5456 179
74.56571 170
74.58583 187
74.60594 195
74.62606 183
74.64617 188
74.66628 191
74.6864 179
74.70651 188
74.72662 188
74.74674 176
74.76685 190
74.78697 204
74.80708 180
74.82719 183
74.84731 188
74.86742 225
74.88753 185
74.90765 172
74.92776 163
74.94787 217
74.96799 164
74.9881 179
75.00822 199
