3.00117 23114
3.02128 22300
3.0414 21665
3.06151 21173
3.08162 20734
3.10174 20073
3.12185 19176
3.14197 19091
3.16208 18267
3.18219 17899
3.20231 17379
3.22242 16459
3.24253 16592
3.26265 15576
3.28276 15375
3.30288 14719
3.32299 14198
3.3431 13950
3.36322 13220
3.38333 13014
3.40344 12379
3.42356 11927
3.44367 11748
3.46379 11440
3.4839 11097
3.50401 10387
3.52413 10048
3.54424 9848
3.56435 9403
3.58447 9331
3.60458 8771
3.62469 8328
3.64481 8433
3.66492 7588
3.68504 7473
3.70515 7077
3.72526 6815
3.74538 6613
3.76549 6324
3.7856 6264
3.80572 5868
3.82583 5393
3.84595 5584
3.86606 5045
3.88617 4923
3.90629 4700
3.9264 4414
3.94651 4345
3.96663 4057
3.98674 4046
4.00686 3619
4.02697 3477
4.04708 3528
4.0672 3274
4.08731 3162
4.10742 2899
4.12754 2725
4.14765 2894
4.16776 2568
4.18788 2570
4.20799 2411
4.22811 2197
4.24822 2287
4.26833 2200
4.28845 1993
4.30856 1960
4.32867 1900
4.34879 1925
4.3689 1828
4.38902 1688
4.40913 1661
4.42924 1612
4.44936 1689
4.46947 1661
4.48958 1475
4.5097 1427
4.52981 1365
4.54992 1591
4.57004 1435
4.59015 1278
4.61027 1261
4.63038 1314
4.65049 1214
4.67061 1148
4.69072 1153
4.71083 1149
4.73095 1115
4.75106 1130
4.77118 1107
4.79129 1026
4.8114 1073
4.83152 979
4.85163 936
4.87174 1037
4.89186 956
4.91197 873
4.93209 891
4.9522 846
4.97231 779
4.99243 820
5.01254 825
5.03265 738
5.05277 723
5.07288 772
5.09299 712
5.11311 663
5.13322 660
5.15334 671
5.17345 694
5.19356 618
5.21368 617
5.23379 578
5.2539 586
5.27402 576
5.29413 531
5.31425 536
5.33436 571
5.35447 533
5.37459 567
5.3947 479
5.41481 494
5.43493 477
5.45504 470
5.47516 454
5.49527 424
5.51538 457
5.5355 404
5.55561 437
5.57572 415
5.59584 463
5.61595 381
5.63606 422
5.65618 343
5.67629 385
5.69641 363
5.71652 362
5.73663 331
5.75675 328
5.77686 351
5.79697 339
5.81709 337
5.8372 364
5.85732 344
5.87743 335
5.89754 344
5.91766 305
5.93777 328
5.95788 320
5.978 315
5.99811 302
6.01823 284
6.03834 309
6.05845 294
6.07857 311
6.09868 329
6.11879 280
6.13891 278
6.15902 315
6.17913 309
6.19925 285
6.21936 306
6.23948 274
6.25959 331
6.2797 277
6.29982 289
6.31993 270
6.34004 277
6.36016 289
6.38027 243
6.40039 288
6.4205 268
6.44061 271
6.46073 284
6.48084 279
6.50095 240
6.52107 252
6.54118 262
6.56129 252
6.58141 275
6.60152 255
6.62164 230
6.64175 243
6.66186 301
6.68198 256
6.70209 245
6.7222 251
6.74232 249
6.76243 242
6.78255 250
6.80266 257
6.82277 256
6.84289 264
6.863 247
6.88311 254
6.90323 214
6.92334 239
6.94346 273
6.96357 247
6.98368 240
7.0038 245
7.02391 241
7.04402 271
7.06414 240
7.08425 236
7.10436 246
7.12448 258
7.14459 234
7.16471 214
7.18482 258
7.20493 262
7.22505 238
7.24516 219
7.26527 249
7.28539 257
7.3055 254
7.32562 212
7.34573 244
7.36584 251
7.38596 241
7.40607 206
7.42618 266
7.4463 251
7.46641 242
7.48653 220
7.50664 227
7.52675 226
7.54687 270
7.56698 254
7.58709 255
7.60721 263
7.62732 228
7.64743 248
7.66755 268
7.68766 227
7.70778 286
7.72789 248
7.748 259
7.76812 236
7.78823 236
7.80834 239
7.82846 246
7.84857 244
7.86869 260
7.8888 240
7.90891 258
7.92903 260
7.94914 211
7.96925 230
7.98937 256
8.00948 206
8.0296 249
8.04971 251
8.06982 237
8.08994 237
8.11005 223
8.13016 221
8.15028 241
8.17039 247
8.1905 235
8.21062 260
8.23073 237
8.25085 239
8.27096 219
8.29107 240
8.31119 261
8.3313 230
8.35141 247
8.37153 237
8.39164 241
8.41176 247
8.43187 246
8.45198 253
8.4721 267
8.49221 275
8.51232 245
8.53244 262
8.55255 245
8.57266 266
8.59278 238
8.61289 284
8.63301 248
8.65312 242
8.67323 245
8.69335 250
8.71346 250
8.73357 231
8.75369 246
8.7738 264
8.79392 213
8.81403 269
8.83414 215
8.85426 239
8.87437 262
8.89448 249
8.9146 226
8.93471 257
8.95483 259
8.97494 280
8.99505 250
9.01517 271
9.03528 266
9.05539 207
9.07551 218
9.09562 238
9.11573 232
9.13585 236
9.15596 259
9.17608 238
9.19619 235
9.2163 258
9.23642 222
9.25653 263
9.27664 243
9.29676 259
9.31687 241
9.33699 240
9.3571 232
9.37721 249
9.39733 246
9.41744 238
9.43755 232
9.45767 243
9.47778 230
9.4979 242
9.51801 239
9.53812 235
9.55824 253
9.57835 231
9.59846 246
9.61858 256
9.63869 290
9.6588 270
9.67892 227
9.69903 222
9.71915 255
9.73926 284
9.75937 236
9.77949 244
9.7996 264
9.81971 264
9.83983 234
9.85994 239
9.88006 247
9.90017 255
9.92028 299
9.9404 239
9.96051 229
9.98062 241
10.00074 242
10.02085 252
10.04097 250
10.06108 217
10.08119 234
10.10131 264
10.12142 250
10.14153 264
10.16165 262
10.18176 261
10.20187 277
10.22199 234
10.2421 250
10.26222 253
10.28233 228
10.30244 252
10.32256 245
10.34267 211
10.36278 245
10.3829 227
10.40301 243
10.42313 240
10.44324 215
10.46335 219
10.48347 283
10.50358 254
10.52369 255
10.54381 217
10.56392 234
10.58403 220
10.60415 227
10.62426 247
10.64438 251
10.66449 240
10.6846 247
10.70472 250
10.72483 275
10.74494 242
10.76506 231
10.78517 210
10.80529 260
10.8254 198
10.84551 252
10.86563 217
10.88574 227
10.90585 252
10.92597 235
10.94608 236
10.9662 243
10.98631 256
11.00642 245
11.02654 251
11.04665 255
11.06676 239
11.08688 268
11.10699 253
11.1271 253
11.14722 292
11.16733 263
11.18745 251
11.20756 231
11.22767 247
11.24779 254
11.2679 212
11.28801 256
11.30813 244
11.32824 245
11.34836 241
11.36847 253
11.38858 251
11.4087 282
11.42881 248
11.44892 236
11.46904 277
11.48915 220
11.50927 281
11.52938 256
11.54949 265
11.56961 244
11.58972 256
11.60983 249
11.62995 267
11.65006 270
11.67017 251
11.69029 294
11.7104 301
11.73052 306
11.75063 302
11.77074 268
11.79086 290
11.81097 287
11.83108 286
11.8512 289
11.87131 305
11.89143 300
11.91154 307
11.93165 320
11.95177 298
11.97188 317
11.99199 352
12.01211 335
12.03222 374
12.05234 361
12.07245 377
12.09256 399
12.11268 415
12.13279 388
12.1529 414
12.17302 378
12.19313 445
12.21324 440
12.23336 437
12.25347 475
12.27359 498
12.2937 483
12.31381 478
12.33393 475
12.35404 434
12.37415 456
12.39427 453
12.41438 405
12.4345 397
12.45461 413
12.47472 361
12.49484 353
12.51495 334
12.53506 345
12.55518 338
12.57529 330
12.5954 277
12.61552 310
12.63563 276
12.65575 302
12.67586 271
12.69597 337
12.71609 301
12.7362 253
12.75631 262
12.77643 257
12.79654 263
12.81666 234
12.83677 261
12.85688 231
12.877 251
12.89711 215
12.91722 253
12.93734 284
12.95745 259
12.97757 242
12.99768 235
13.01779 231
13.03791 236
13.05802 232
13.07813 212
13.09825 250
13.11836 245
13.13847 218
13.15859 217
13.1787 252
13.19882 246
13.21893 208
13.23904 234
13.25916 230
13.27927 226
13.29938 239
13.3195 254
13.33961 231
13.35973 242
13.37984 199
13.39995 224
13.42007 231
13.44018 216
13.46029 201
13.48041 253
13.50052 213
13.52064 230
13.54075 238
13.56086 249
13.58098 221
13.60109 213
13.6212 194
13.64132 238
13.66143 214
13.68154 224
13.70166 218
13.72177 241
13.74189 179
13.762 231
13.78211 236
13.80223 226
13.82234 202
13.84245 188
13.86257 240
13.88268 203
13.9028 225
13.92291 218
13.94302 206
13.96314 191
13.98325 238
14.00336 203
14.02348 215
14.04359 225
14.06371 217
14.08382 214
14.10393 216
14.12405 197
14.14416 197
14.16427 218
14.18439 214
14.2045 206
14.22461 215
14.24473 187
14.26484 209
14.28496 200
14.30507 205
14.32518 197
14.3453 191
14.36541 202
14.38552 201
14.40564 228
14.42575 229
14.44587 208
14.46598 216
14.48609 192
14.50621 204
14.52632 225
14.54643 185
14.56655 194
14.58666 229
14.60677 227
14.62689 199
14.647 220
14.66712 205
14.68723 213
14.70734 201
14.72746 207
14.74757 194
14.76768 179
14.7878 200
14.80791 231
14.82803 213
14.84814 191
14.86825 204
14.88837 191
14.90848 211
14.92859 204
14.94871 192
14.96882 211
14.98894 228
15.00905 205
15.02916 191
15.04928 179
15.06939 210
15.0895 216
15.10962 165
15.12973 210
15.14984 202
15.16996 206
15.19007 189
15.21019 197
15.2303 196
15.25041 193
15.27053 172
15.29064 186
15.31075 184
15.33087 201
15.35098 181
15.3711 206
15.39121 189
15.41132 202
15.43144 164
15.45155 196
15.47166 200
15.49178 212
15.51189 230
15.53201 183
15.55212 190
15.57223 203
15.59235 193
15.61246 198
15.63257 215
15.65269 182
15.6728 162
15.69291 235
15.71303 205
15.73314 186
15.75326 214
15.77337 213
15.79348 218
15.8136 207
15.83371 208
15.85382 175
15.87394 172
15.89405 202
15.91417 191
15.93428 221
15.95439 215
15.97451 210
15.99462 177
16.01473 213
16.03485 215
16.05496 195
16.07508 184
16.09519 215
16.1153 177
16.13542 190
16.15553 203
16.17564 187
16.19576 226
16.21587 213
16.23598 186
16.2561 219
16.27621 205
16.29633 187
16.31644 203
16.33655 202
16.35667 200
16.37678 204
16.39689 187
16.41701 181
16.43712 188
16.45724 215
16.47735 181
16.49746 193
16.51758 198
16.53769 175
16.5578 163
16.57792 204
16.59803 204
16.61814 186
16.63826 200
16.65837 229
16.67849 187
16.6986 210
16.71871 216
16.73883 189
16.75894 186
16.77905 199
16.79917 181
16.81928 181
16.8394 170
16.85951 195
16.87962 179
16.89974 192
16.91985 200
16.93996 195
16.96008 194
16.98019 211
17.00031 196
17.02042 179
17.04053 179
17.06065 185
17.08076 181
17.10087 168
17.12099 208
17.1411 192
17.16121 200
17.18133 208
17.20144 192
17.22156 204
17.24167 167
17.26178 191
17.2819 199
17.30201 188
17.32212 186
17.34224 211
17.36235 200
17.38247 189
17.40258 201
17.42269 209
17.44281 191
17.46292 204
17.48303 185
17.50315 202
17.52326 233
17.54338 190
17.56349 207
17.5836 190
17.60372 187
17.62383 216
17.64394 177
17.66406 166
17.68417 216
17.70428 210
17.7244 206
17.74451 224
17.76463 210
17.78474 213
17.80485 227
17.82497 204
17.84508 205
17.86519 199
17.88531 186
17.90542 204
17.92554 198
17.94565 233
17.96576 210
17.98588 216
18.00599 217
18.0261 213
18.04622 188
18.06633 221
18.08645 191
18.10656 184
18.12667 211
18.14679 193
18.1669 217
18.18701 220
18.20713 203
18.22724 207
18.24735 204
18.26747 199
18.28758 221
18.3077 209
18.32781 202
18.34792 209
18.36804 208
18.38815 236
18.40826 194
18.42838 198
18.44849 200
18.46861 199
18.48872 180
18.50883 211
18.52895 233
18.54906 210
18.56917 188
18.58929 208
18.6094 199
18.62951 190
18.64963 199
18.66974 210
18.68986 221
18.70997 251
18.73008 231
18.7502 259
18.77031 225
18.79042 228
18.81054 208
18.83065 211
18.85077 221
18.87088 218
18.89099 200
18.91111 203
18.93122 212
18.95133 201
18.97145 186
18.99156 206
19.01168 207
19.03179 222
19.0519 213
19.07202 224
19.09213 191
19.11224 179
19.13236 202
19.15247 184
19.17258 214
19.1927 199
19.21281 201
19.23293 203
19.25304 220
19.27315 201
19.29327 197
19.31338 202
19.33349 202
19.35361 202
19.37372 208
19.39384 197
19.41395 197
19.43406 226
19.45418 255
19.47429 201
19.4944 240
19.51452 218
19.53463 239
19.55475 223
19.57486 221
19.59497 281
19.61509 257
19.6352 281
19.65531 283
19.67543 278
19.69554 327
19.71565 368
19.73577 381
19.75588 396
19.776 390
19.79611 441
19.81622 443
19.83634 443
19.85645 458
19.87656 535
19.89668 474
19.91679 470
19.93691 468
19.95702 442
19.97713 485
19.99725 443
20.01736 466
20.03747 465
20.05759 392
20.0777 441
20.09782 427
20.11793 496
20.13804 396
20.15816 462
20.17827 448
20.19838 449
20.2185 443
20.23861 476
20.25872 431
20.27884 483
20.29895 453
20.31907 488
20.33918 516
20.35929 457
20.37941 473
20.39952 526
20.41963 510
20.43975 531
20.45986 538
20.47998 535
20.50009 542
20.5202 538
20.54032 580
20.56043 571
20.58054 623
20.60066 692
20.62077 830
20.64088 999
20.661 1155
20.68111 1574
20.70123 2051
20.72134 2743
20.74145 3625
20.76157 4772
20.78168 5987
20.80179 6898
20.82191 7331
20.84202 7456
20.86214 6572
20.88225 5386
20.90236 3890
20.92248 2728
20.94259 1733
20.9627 1217
20.98282 829
21.00293 741
21.02305 616
21.04316 583
21.06327 578
21.08339 532
21.1035 514
21.12361 457
21.14373 489
21.16384 412
21.18395 417
21.20407 430
21.22418 401
21.2443 406
21.26441 431
21.28452 393
21.30464 384
21.32475 394
21.34486 435
21.36498 429
21.38509 377
21.40521 365
21.42532 391
21.44543 357
21.46555 388
21.48566 398
21.50577 401
21.52589 356
21.546 369
21.56612 363
21.58623 367
21.60634 347
21.62646 379
21.64657 367
21.66668 387
21.6868 315
21.70691 352
21.72702 384
21.74714 354
21.76725 323
21.78737 342
21.80748 355
21.82759 311
21.84771 349
21.86782 338
21.88793 311
21.90805 328
21.92816 343
21.94828 329
21.96839 297
21.9885 337
22.00862 344
22.02873 301
22.04884 289
22.06896 347
22.08907 313
22.10919 321
22.1293 309
22.14941 309
22.16953 320
22.18964 304
22.20975 307
22.22987 278
22.24998 271
22.27009 304
22.29021 294
22.31032 324
22.33044 327
22.35055 324
22.37066 279
22.39078 317
22.41089 287
22.431 311
22.45112 258
22.47123 285
22.49135 287
22.51146 298
22.53157 279
22.55169 263
22.5718 294
22.59191 296
22.61203 282
22.63214 271
22.65225 287
22.67237 334
22.69248 300
22.7126 277
22.73271 281
22.75282 318
22.77294 262
22.79305 299
22.81316 266
22.83328 254
22.85339 289
22.87351 298
22.89362 313
22.91373 286
22.93385 270
22.95396 301
22.97407 284
22.99419 263
23.0143 298
23.03442 271
23.05453 238
23.07464 289
23.09476 242
23.11487 259
23.13498 269
23.1551 286
23.17521 244
23.19532 250
23.21544 288
23.23555 273
23.25567 282
23.27578 326
23.29589 242
23.31601 268
23.33612 253
23.35623 268
23.37635 277
23.39646 269
23.41658 265
23.43669 270
23.4568 259
23.47692 248
23.49703 275
23.51714 250
23.53726 255
23.55737 249
23.57749 256
23.5976 254
23.61771 283
23.63783 283
23.65794 282
23.67805 280
23.69817 291
23.71828 245
23.73839 306
23.75851 285
23.77862 302
23.79874 270
23.81885 284
23.83896 303
23.85908 315
23.87919 293
23.8993 295
23.91942 348
23.93953 323
23.95965 340
23.97976 332
23.99987 381
24.01999 367
24.0401 359
24.06021 314
24.08033 301
24.10044 252
24.12056 268
24.14067 289
24.16078 282
24.1809 292
24.20101 266
24.22112 284
24.24124 286
24.26135 288
24.28146 261
24.30158 300
24.32169 269
24.34181 295
24.36192 298
24.38203 279
24.40215 314
24.42226 282
24.44237 310
24.46249 298
24.4826 283
24.50272 315
24.52283 317
24.54294 321
24.56306 321
24.58317 298
24.60328 360
24.6234 361
24.64351 332
24.66362 379
24.68374 371
24.70385 381
24.72397 395
24.74408 394
24.76419 439
24.78431 353
24.80442 422
24.82453 430
24.84465 409
24.86476 423
24.88488 428
24.90499 439
24.9251 397
24.94522 419
24.96533 404
24.98544 368
25.00556 400
25.02567 389
25.04579 395
25.0659 369
25.08601 355
25.10613 410
25.12624 368
25.14635 396
25.16647 401
25.18658 350
25.20669 404
25.22681 367
25.24692 391
25.26704 378
25.28715 366
25.30726 391
25.32738 381
25.34749 341
25.3676 350
25.38772 339
25.40783 336
25.42795 328
25.44806 332
25.46817 303
25.48829 300
25.5084 337
25.52851 323
25.54863 305
25.56874 305
25.58886 364
25.60897 362
25.62908 386
25.6492 395
25.66931 396
25.68942 418
25.70954 480
25.72965 470
25.74976 469
25.76988 472
25.78999 525
25.81011 524
25.83022 479
25.85033 479
25.87045 505
25.89056 540
25.91067 523
25.93079 502
25.9509 515
25.97102 529
25.99113 514
26.01124 570
26.03136 599
26.05147 626
26.07158 701
26.0917 676
26.11181 699
26.13193 709
26.15204 752
26.17215 807
26.19227 923
26.21238 954
26.23249 1022
26.25261 1108
26.27272 1214
26.29283 1366
26.31295 1469
26.33306 1802
26.35318 2029
26.37329 2351
26.3934 3107
26.41352 3990
26.43363 5181
26.45374 6992
26.47386 9578
26.49397 13128
26.51409 17092
26.5342 21952
26.55431 26517
26.57443 30892
26.59454 33228
26.61465 33496
26.63477 30348
26.65488 25298
26.67499 19619
26.69511 13849
26.71522 9565
26.73534 6122
26.75545 3610
26.77556 2423
26.79568 1919
26.81579 1543
26.8359 1434
26.85602 1263
26.87613 1197
26.89625 996
26.91636 960
26.93647 880
26.95659 746
26.9767 739
26.99681 711
27.01693 664
27.03704 612
27.05716 536
27.07727 526
27.09738 542
27.1175 551
27.13761 497
27.15772 497
27.17784 468
27.19795 443
27.21806 446
27.23818 442
27.25829 436
27.27841 454
27.29852 436
27.31863 442
27.33875 441
27.35886 426
27.37897 396
27.39909 417
27.4192 462
27.43932 397
27.45943 429
27.47954 446
27.49966 413
27.51977 379
27.53988 427
27.56 359
27.58011 364
27.60023 369
27.62034 361
27.64045 362
27.66057 341
27.68068 357
27.70079 325
27.72091 377
27.74102 349
27.76113 342
27.78125 358
27.80136 313
27.82148 331
27.84159 318
27.8617 335
27.88182 327
27.90193 341
27.92204 334
27.94216 332
27.96227 337
27.98239 290
28.0025 335
28.02261 315
28.04273 309
28.06284 314
28.08295 324
28.10307 304
28.12318 302
28.1433 302
28.16341 302
28.18352 350
28.20364 316
28.22375 329
28.24386 271
28.26398 299
28.28409 310
28.3042 323
28.32432 292
28.34443 308
28.36455 304
28.38466 302
28.40477 314
28.42489 314
28.445 286
28.46511 331
28.48523 307
28.50534 317
28.52546 285
28.54557 297
28.56568 289
28.5858 270
28.60591 294
28.62602 297
28.64614 293
28.66625 269
28.68636 282
28.70648 316
28.72659 248
28.74671 277
28.76682 291
28.78693 258
28.80705 324
28.82716 281
28.84727 290
28.86739 266
28.8875 233
28.90762 246
28.92773 289
28.94784 266
28.96796 292
28.98807 269
29.00818 243
29.0283 261
29.04841 260
29.06853 285
29.08864 288
29.10875 278
29.12887 252
29.14898 289
29.16909 259
29.18921 268
29.20932 273
29.22943 252
29.24955 267
29.26966 257
29.28978 262
29.30989 263
29.33 248
29.35012 273
29.37023 252
29.39034 271
29.41046 225
29.43057 254
29.45069 237
29.4708 265
29.49091 272
29.51103 274
29.53114 251
29.55125 228
29.57137 236
29.59148 262
29.6116 242
29.63171 252
29.65182 255
29.67194 219
29.69205 227
29.71216 237
29.73228 235
29.75239 251
29.7725 227
29.79262 276
29.81273 289
29.83285 231
29.85296 273
29.87307 258
29.89319 252
29.9133 266
29.93341 264
29.95353 241
29.97364 243
29.99376 222
30.01387 269
30.03398 243
30.0541 242
30.07421 222
30.09432 243
30.11444 244
30.13455 270
30.15467 263
30.17478 252
30.19489 252
30.21501 245
30.23512 238
30.25523 274
30.27535 256
30.29546 271
30.31557 248
30.33569 246
30.3558 217
30.37592 204
30.39603 272
30.41614 252
30.43626 241
30.45637 255
30.47648 224
30.4966 234
30.51671 269
30.53683 234
30.55694 239
30.57705 231
30.59717 231
30.61728 269
30.63739 266
30.65751 233
30.67762 227
30.69773 254
30.71785 240
30.73796 225
30.75808 256
30.77819 242
30.7983 235
30.81842 238
30.83853 250
30.85864 240
30.87876 220
30.89887 213
30.91899 222
30.9391 213
30.95921 227
30.97933 221
30.99944 239
31.01955 227
31.03967 242
31.05978 243
31.0799 216
31.10001 205
31.12012 215
31.14024 200
31.16035 210
31.18046 250
31.20058 200
31.22069 242
31.2408 244
31.26092 209
31.28103 235
31.30115 205
31.32126 245
31.34137 211
31.36149 206
31.3816 235
31.40171 254
31.42183 208
31.44194 241
31.46206 220
31.48217 216
31.50228 210
31.5224 220
31.54251 225
31.56262 212
31.58274 198
31.60285 211
31.62297 213
31.64308 203
31.66319 216
31.68331 231
31.70342 242
31.72353 221
31.74365 212
31.76376 216
31.78387 215
31.80399 233
31.8241 232
31.84422 226
31.86433 210
31.88444 215
31.90456 203
31.92467 229
31.94478 226
31.9649 208
31.98501 246
32.00513 231
32.02524 231
32.04535 227
32.06547 220
32.08558 209
32.10569 201
32.12581 227
32.14592 224
32.16604 228
32.18615 221
32.20626 239
32.22638 178
32.24649 203
32.2666 208
32.28672 199
32.30683 216
32.32694 219
32.34706 214
32.36717 201
32.38729 229
32.4074 216
32.42751 179
32.44763 228
32.46774 195
32.48785 240
32.50797 228
32.52808 218
32.5482 227
32.56831 229
32.58842 177
32.60854 254
32.62865 205
32.64876 223
32.66888 201
32.68899 266
32.7091 232
32.72922 236
32.74933 220
32.76945 227
32.78956 207
32.80967 227
32.82979 230
32.8499 239
32.87001 233
32.89013 223
32.91024 240
32.93036 197
32.95047 239
32.97058 213
32.9907 253
33.01081 213
33.03092 202
33.05104 229
33.07115 217
33.09127 258
33.11138 273
33.13149 242
33.15161 223
33.17172 210
33.19183 235
33.21195 249
33.23206 236
33.25217 226
33.27229 235
33.2924 224
33.31252 236
33.33263 239
33.35274 204
33.37286 221
33.39297 258
33.41308 203
33.4332 223
33.45331 200
33.47343 206
33.49354 209
33.51365 210
33.53377 194
33.55388 223
33.57399 202
33.59411 232
33.61422 203
33.63434 205
33.65445 210
33.67456 195
33.69468 219
33.71479 229
33.7349 192
33.75502 207
33.77513 217
33.79524 207
33.81536 225
33.83547 183
33.85559 198
33.8757 186
33.89581 213
33.91593 191
33.93604 210
33.95615 198
33.97627 183
33.99638 181
34.0165 219
34.03661 226
34.05672 203
34.07684 188
34.09695 204
34.11706 194
34.13718 206
34.15729 212
34.17741 205
34.19752 234
34.21763 219
34.23775 216
34.25786 197
34.27797 180
34.29809 206
34.3182 187
34.33831 221
34.35843 220
34.37854 206
34.39866 212
34.41877 204
34.43888 208
34.459 242
34.47911 218
34.49922 211
34.51934 234
34.53945 257
34.55957 258
34.57968 217
34.59979 237
34.61991 251
34.64002 303
34.66013 258
34.68025 264
34.70036 269
34.72047 279
34.74059 243
34.7607 300
34.78082 300
34.80093 298
34.82104 333
34.84116 298
34.86127 334
34.88138 298
34.9015 292
34.92161 323
34.94173 308
34.96184 289
34.98195 304
35.00207 316
35.02218 301
35.04229 284
35.06241 300
35.08252 294
35.10264 269
35.12275 317
35.14286 286
35.16298 273
35.18309 286
35.2032 267
35.22332 288
35.24343 267
35.26354 304
35.28366 263
35.30377 283
35.32389 271
35.344 276
35.36411 307
35.38423 283
35.40434 312
35.42445 277
35.44457 282
35.46468 319
35.4848 311
35.50491 311
35.52502 274
35.54514 327
35.56525 310
35.58536 305
35.60548 337
35.62559 353
35.64571 341
35.66582 345
35.68593 324
35.70605 354
35.72616 318
35.74627 336
35.76639 302
35.7865 324
35.80661 335
35.82673 300
35.84684 319
35.86696 301
35.88707 312
35.90718 313
35.9273 322
35.94741 307
35.96752 313
35.98764 299
36.00775 335
36.02787 370
36.04798 330
36.06809 316
36.08821 325
36.10832 321
36.12843 325
36.14855 312
36.16866 331
36.18878 358
36.20889 412
36.229 371
36.24912 466
36.26923 467
36.28934 552
36.30946 598
36.32957 707
36.34968 807
36.3698 1055
36.38991 1245
36.41003 1545
36.43014 1810
36.45025 1986
36.47037 2429
36.49048 2487
36.51059 2382
36.53071 2178
36.55082 2026
36.57094 1700
36.59105 1367
36.61116 1154
36.63128 971
36.65139 759
36.6715 508
36.69162 419
36.71173 359
36.73184 337
36.75196 287
36.77207 296
36.79219 303
36.8123 309
36.83241 299
36.85253 285
36.87264 297
36.89275 303
36.91287 305
36.93298 273
36.9531 265
36.97321 259
36.99332 280
37.01344 266
37.03355 271
37.05366 295
37.07378 263
37.09389 236
37.11401 241
37.13412 257
37.15423 260
37.17435 249
37.19446 263
37.21457 232
37.23469 264
37.2548 237
37.27491 281
37.29503 246
37.31514 253
37.33526 266
37.35537 273
37.37548 285
37.3956 268
37.41571 265
37.43582 262
37.45594 257
37.47605 299
37.49617 261
37.51628 297
37.53639 279
37.55651 257
37.57662 268
37.59673 270
37.61685 260
37.63696 255
37.65708 264
37.67719 281
37.6973 248
37.71742 257
37.73753 270
37.75764 279
37.77776 262
37.79787 282
37.81798 288
37.8381 282
37.85821 251
37.87833 246
37.89844 275
37.91855 287
37.93867 245
37.95878 249
37.97889 269
37.99901 294
38.01912 283
38.03924 279
38.05935 319
38.07946 251
38.09958 301
38.11969 299
38.1398 317
38.15992 274
38.18003 304
38.20015 317
38.22026 323
38.24037 296
38.26049 337
38.2806 320
38.30071 316
38.32083 304
38.34094 312
38.36105 318
38.38117 311
38.40128 331
38.4214 293
38.44151 307
38.46162 333
38.48174 318
38.50185 268
38.52196 284
38.54208 322
38.56219 302
38.58231 294
38.60242 292
38.62253 300
38.64265 307
38.66276 267
38.68287 271
38.70299 261
38.7231 294
38.74321 267
38.76333 309
38.78344 285
38.80356 268
38.82367 252
38.84378 275
38.8639 258
38.88401 265
38.90412 268
38.92424 270
38.94435 303
38.96447 324
38.98458 295
39.00469 289
39.02481 302
39.04492 308
39.06503 305
39.08515 298
39.10526 351
39.12538 365
39.14549 398
39.1656 448
39.18572 470
39.20583 489
39.22594 596
39.24606 670
39.26617 788
39.28628 979
39.3064 1166
39.32651 1367
39.34663 1595
39.36674 1875
39.38685 2016
39.40697 2308
39.42708 2210
39.44719 2079
39.46731 1784
39.48742 1616
39.50754 1367
39.52765 1224
39.54776 996
39.56788 787
39.58799 646
39.6081 458
39.62822 394
39.64833 323
39.66845 293
39.68856 306
39.70867 312
39.72879 303
39.7489 260
39.76901 308
39.78913 273
39.80924 264
39.82935 266
39.84947 275
39.86958 283
39.8897 273
39.90981 260
39.92992 279
39.95004 311
39.97015 288
39.99026 286
40.01038 329
40.03049 378
40.05061 370
40.07072 462
40.09083 517
40.11095 591
40.13106 691
40.15117 755
40.17129 888
40.1914 1068
40.21152 1134
40.23163 1181
40.25174 1055
40.27186 1070
40.29197 1050
40.31208 872
40.3322 718
40.35231 695
40.37242 613
40.39254 466
40.41265 424
40.43277 337
40.45288 318
40.47299 278
40.49311 259
40.51322 270
40.53333 272
40.55345 260
40.57356 253
40.59368 241
40.61379 250
40.6339 248
40.65402 217
40.67413 234
40.69424 225
40.71436 250
40.73447 243
40.75458 257
40.7747 244
40.79481 214
40.81493 234
40.83504 256
40.85515 268
40.87527 227
40.89538 257
40.91549 253
40.93561 245
40.95572 195
40.97584 242
40.99595 241
41.01606 262
41.03618 241
41.05629 227
41.0764 250
41.09652 252
41.11663 241
41.13675 237
41.15686 242
41.17697 209
41.19709 226
41.2172 226
41.23731 260
41.25743 231
41.27754 234
41.29765 230
41.31777 236
41.33788 264
41.358 216
41.37811 192
41.39822 245
41.41834 221
41.43845 208
41.45856 241
41.47868 214
41.49879 219
41.51891 223
41.53902 255
41.55913 225
41.57925 224
41.59936 215
41.61947 226
41.63959 236
41.6597 225
41.67982 224
41.69993 246
41.72004 202
41.74016 211
41.76027 225
41.78038 229
41.8005 216
41.82061 243
41.84072 219
41.86084 214
41.88095 242
41.90107 210
41.92118 229
41.94129 256
41.96141 243
41.98152 223
42.00163 247
42.02175 248
42.04186 253
42.06198 280
42.08209 281
42.1022 283
42.12232 299
42.14243 307
42.16254 364
42.18266 439
42.20277 469
42.22289 531
42.243 575
42.26311 688
42.28323 882
42.30334 989
42.32345 1149
42.34357 1371
42.36368 1443
42.38379 1641
42.40391 1613
42.42402 1554
42.44414 1361
42.46425 1189
42.48436 1107
42.50448 916
42.52459 770
42.5447 656
42.56482 563
42.58493 427
42.60505 352
42.62516 277
42.64527 286
42.66539 239
42.6855 284
42.70561 244
42.72573 236
42.74584 214
42.76595 235
42.78607 206
42.80618 230
42.8263 218
42.84641 195
42.86652 216
42.88664 207
42.90675 227
42.92686 189
42.94698 213
42.96709 212
42.98721 203
43.00732 195
43.02743 187
43.04755 191
43.06766 220
43.08777 203
43.10789 225
43.128 211
43.14812 208
43.16823 219
43.18834 201
43.20846 202
43.22857 232
43.24868 201
43.2688 221
43.28891 221
43.30902 193
43.32914 189
43.34925 216
43.36937 178
43.38948 190
43.40959 180
43.42971 205
43.44982 179
43.46993 206
43.49005 186
43.51016 195
43.53028 194
43.55039 222
43.5705 183
43.59062 201
43.61073 190
43.63084 200
43.65096 201
43.67107 195
43.69119 200
43.7113 213
43.73141 205
43.75153 200
43.77164 203
43.79175 216
43.81187 180
43.83198 194
43.85209 195
43.87221 186
43.89232 200
43.91244 181
43.93255 198
43.95266 177
43.97278 187
43.99289 176
44.013 206
44.03312 182
44.05323 193
44.07335 190
44.09346 205
44.11357 198
44.13369 221
44.1538 192
44.17391 224
44.19403 193
44.21414 193
44.23426 206
44.25437 202
44.27448 179
44.2946 209
44.31471 197
44.33482 185
44.35494 223
44.37505 200
44.39516 206
44.41528 199
44.43539 184
44.45551 198
44.47562 179
44.49573 206
44.51585 190
44.53596 219
44.55607 188
44.57619 193
44.5963 193
44.61642 198
44.63653 191
44.65664 209
44.67676 207
44.69687 175
44.71698 207
44.7371 207
44.75721 203
44.77732 207
44.79744 212
44.81755 194
44.83767 211
44.85778 198
44.87789 197
44.89801 197
44.91812 225
44.93823 226
44.95835 219
44.97846 200
44.99858 207
45.01869 208
45.0388 206
45.05892 198
45.07903 205
45.09914 210
45.11926 223
45.13937 224
45.15949 218
45.1796 217
45.19971 199
45.21983 178
45.23994 224
45.26005 239
45.28017 256
45.30028 240
45.32039 221
45.34051 256
45.36062 242
45.38074 262
45.40085 257
45.42096 260
45.44108 244
45.46119 277
45.4813 287
45.50142 292
45.52153 347
45.54165 358
45.56176 418
45.58187 463
45.60199 544
45.6221 583
45.64221 741
45.66233 856
45.68244 889
45.70256 1062
45.72267 1087
45.74278 1102
45.7629 1048
45.78301 1026
45.80312 901
45.82324 816
45.84335 691
45.86346 590
45.88358 571
45.90369 446
45.92381 440
45.94392 328
45.96403 278
45.98415 253
46.00426 238
46.02437 258
46.04449 225
46.0646 217
46.08472 247
46.10483 221
46.12494 210
46.14506 194
46.16517 210
46.18528 238
46.2054 206
46.22551 206
46.24563 200
46.26574 229
46.28585 185
46.30597 203
46.32608 228
46.34619 219
46.36631 199
46.38642 194
46.40653 198
46.42665 205
46.44676 192
46.46688 217
46.48699 187
46.5071 198
46.52722 176
46.54733 185
46.56744 197
46.58756 211
46.60767 210
46.62779 192
46.6479 187
46.66801 200
46.68813 208
46.70824 194
46.72835 227
46.74847 200
46.76858 196
46.78869 218
46.80881 183
46.82892 211
46.84904 223
46.86915 194
46.88926 174
46.90938 204
46.92949 192
46.9496 198
46.96972 192
46.98983 206
47.00995 165
47.03006 223
47.05017 198
47.07029 191
47.0904 212
47.11051 174
47.13063 192
47.15074 197
47.17086 236
47.19097 188
47.21108 186
47.2312 195
47.25131 206
47.27142 204
47.29154 172
47.31165 186
47.33176 206
47.35188 206
47.37199 213
47.39211 180
47.41222 202
47.43233 171
47.45245 188
47.47256 210
47.49267 196
47.51279 203
47.5329 189
47.55302 209
47.57313 190
47.59324 196
47.61336 195
47.63347 204
47.65358 202
47.6737 165
47.69381 168
47.71393 196
47.73404 189
47.75415 211
47.77427 199
47.79438 186
47.81449 210
47.83461 184
47.85472 205
47.87483 200
47.89495 201
47.91506 208
47.93518 213
47.95529 201
47.9754 224
47.99552 221
48.01563 173
48.03574 195
48.05586 189
48.07597 195
48.09609 204
48.1162 185
48.13631 189
48.15643 206
48.17654 229
48.19665 217
48.21677 201
48.23688 200
48.257 197
48.27711 212
48.29722 179
48.31734 189
48.33745 195
48.35756 193
48.37768 183
48.39779 204
48.4179 206
48.43802 216
48.45813 186
48.47825 212
48.49836 196
48.51847 220
48.53859 210
48.5587 186
48.57881 216
48.59893 196
48.61904 220
48.63916 212
48.65927 199
48.67938 192
48.6995 196
48.71961 199
48.73972 220
48.75984 234
48.77995 197
48.80006 201
48.82018 198
48.84029 215
48.86041 193
48.88052 203
48.90063 173
48.92075 219
48.94086 224
48.96097 232
48.98109 199
49.0012 216
49.02132 255
49.04143 191
49.06154 222
49.08166 224
49.10177 183
49.12188 232
49.142 213
49.16211 210
49.18223 201
49.20234 210
49.22245 242
49.24257 248
49.26268 211
49.28279 219
49.30291 209
49.32302 216
49.34313 209
49.36325 216
49.38336 233
49.40348 233
49.42359 230
49.4437 237
49.46382 235
49.48393 216
49.50404 257
49.52416 281
49.54427 247
49.56439 255
49.5845 240
49.60461 280
49.62473 303
49.64484 289
49.66495 298
49.68507 317
49.70518 315
49.7253 367
49.74541 414
49.76552 426
49.78564 458
49.80575 515
49.82586 562
49.84598 656
49.86609 729
49.8862 872
49.90632 1061
49.92643 1250
49.94655 1447
49.96666 1780
49.98677 2086
50.00689 2421
50.027 2743
50.04711 3221
50.06723 3332
50.08734 3437
50.10746 3166
50.12757 2796
50.14768 2395
50.1678 2012
50.18791 1862
50.20802 1787
50.22814 1605
50.24825 1420
50.26837 1115
50.28848 871
50.30859 539
50.32871 451
50.34882 387
50.36893 373
50.38905 322
50.40916 295
50.42927 319
50.44939 308
50.4695 300
50.48962 287
50.50973 299
50.52984 320
50.54996 290
50.57007 305
50.59018 310
50.6103 279
50.63041 259
50.65053 267
50.67064 246
50.69075 265
50.71087 276
50.73098 223
50.75109 248
50.77121 223
50.79132 225
50.81143 223
50.83155 223
50.85166 215
50.87178 220
50.89189 211
50.912 198
50.93212 209
50.95223 190
50.97234 193
50.99246 196
51.01257 193
51.03269 227
51.0528 187
51.07291 217
51.09303 210
51.11314 181
51.13325 181
51.15337 195
51.17348 194
51.1936 168
51.21371 187
51.23382 197
51.25394 204
51.27405 218
51.29416 182
51.31428 191
51.33439 175
51.3545 214
51.37462 180
51.39473 174
51.41485 188
51.43496 173
51.45507 193
51.47519 205
51.4953 156
51.51541 151
51.53553 192
51.55564 194
51.57576 165
51.59587 181
51.61598 172
51.6361 174
51.65621 177
51.67632 192
51.69644 170
51.71655 194
51.73667 182
51.75678 173
51.77689 188
51.79701 187
51.81712 166
51.83723 190
51.85735 187
51.87746 165
51.89757 181
51.91769 187
51.9378 187
51.95792 194
51.97803 207
51.99814 197
52.01826 190
52.03837 186
52.05848 182
52.0786 185
52.09871 180
52.11883 196
52.13894 168
52.15905 197
52.17917 182
52.19928 190
52.21939 169
52.23951 192
52.25962 188
52.27974 182
52.29985 180
52.31996 177
52.34008 178
52.36019 197
52.3803 154
52.40042 165
52.42053 170
52.44064 161
52.46076 183
52.48087 178
52.50099 158
52.5211 206
52.54121 170
52.56133 162
52.58144 165
52.60155 177
52.62167 184
52.64178 186
52.6619 158
52.68201 163
52.70212 190
52.72224 175
52.74235 180
52.76246 182
52.78258 169
52.80269 167
52.8228 195
52.84292 186
52.86303 202
52.88315 193
52.90326 184
52.92337 158
52.94349 182
52.9636 187
52.98371 209
53.00383 212
53.02394 195
53.04406 194
53.06417 196
53.08428 202
53.1044 161
53.12451 201
53.14462 186
53.16474 192
53.18485 193
53.20497 194
53.22508 186
53.24519 205
53.26531 207
53.28542 213
53.30553 216
53.32565 224
53.34576 210
53.36587 196
53.38599 182
53.4061 218
53.42622 201
53.44633 223
53.46644 206
53.48656 218
53.50667 245
53.52678 223
53.5469 209
53.56701 216
53.58713 231
53.60724 229
53.62735 230
53.64747 213
53.66758 193
53.68769 203
53.70781 212
53.72792 224
53.74804 230
53.76815 231
53.78826 235
53.80838 214
53.82849 220
53.8486 218
53.86872 204
53.88883 212
53.90894 234
53.92906 245
53.94917 234
53.96929 232
53.9894 241
54.00951 237
54.02963 223
54.04974 251
54.06985 213
54.08997 260
54.11008 251
54.1302 274
54.15031 248
54.17042 245
54.19054 245
54.21065 253
54.23076 275
54.25088 265
54.27099 259
54.29111 274
54.31122 238
54.33133 291
54.35145 235
54.37156 266
54.39167 258
54.41179 260
54.4319 274
54.45201 266
54.47213 284
54.49224 299
54.51236 294
54.53247 315
54.55258 347
54.5727 367
54.59281 399
54.61292 421
54.63304 482
54.65315 501
54.67327 545
54.69338 674
54.71349 760
54.73361 894
54.75372 1011
54.77383 1144
54.79395 1210
54.81406 1124
54.83417 1139
54.85429 994
54.8744 943
54.89452 829
54.91463 762
54.93474 754
54.95486 735
54.97497 655
54.99508 605
55.0152 563
55.03531 445
55.05543 394
55.07554 431
55.09565 380
55.11577 410
55.13588 431
55.15599 480
55.17611 499
55.19622 587
55.21634 588
55.23645 648
55.25656 590
55.27668 647
55.29679 581
55.3169 568
55.33702 508
55.35713 480
55.37724 425
55.39736 407
55.41747 403
55.43759 416
55.4577 395
55.47781 319
55.49793 280
55.51804 259
55.53815 243
55.55827 248
55.57838 239
55.5985 226
55.61861 237
55.63872 238
55.65884 238
55.67895 219
55.69906 224
55.71918 222
55.73929 212
55.75941 216
55.77952 237
55.79963 232
55.81975 222
55.83986 231
55.85997 208
55.88009 220
55.9002 228
55.92031 200
55.94043 178
55.96054 215
55.98066 183
56.00077 191
56.02088 174
56.041 222
56.06111 205
56.08122 220
56.10134 221
56.12145 216
56.14157 197
56.16168 197
56.18179 209
56.20191 214
56.22202 213
56.24213 198
56.26225 207
56.28236 227
56.30248 227
56.32259 179
56.3427 224
56.36282 190
56.38293 168
56.40304 201
56.42316 219
56.44327 190
56.46338 180
56.4835 177
56.50361 172
56.52373 209
56.54384 192
56.56395 211
56.58407 202
56.60418 189
56.62429 218
56.64441 191
56.66452 208
56.68464 191
56.70475 195
56.72486 220
56.74498 201
56.76509 201
56.7852 205
56.80532 189
56.82543 190
56.84554 195
56.86566 189
56.88577 219
56.90589 180
56.926 207
56.94611 195
56.96623 200
56.98634 207
57.00645 214
57.02657 199
57.04668 213
57.0668 232
57.08691 219
57.10702 216
57.12714 222
57.14725 230
57.16736 260
57.18748 247
57.20759 223
57.22771 227
57.24782 233
57.26793 185
57.28805 203
57.30816 202
57.32827 182
57.34839 211
57.3685 204
57.38861 198
57.40873 211
57.42884 171
57.44896 172
57.46907 185
57.48918 187
57.5093 192
57.52941 199
57.54952 169
57.56964 196
57.58975 214
57.60987 182
57.62998 185
57.65009 177
57.67021 189
57.69032 176
57.71043 177
57.73055 191
57.75066 171
57.77078 186
57.79089 198
57.811 176
57.83112 171
57.85123 192
57.87134 201
57.89146 207
57.91157 214
57.93168 196
57.9518 188
57.97191 178
57.99203 199
58.01214 192
58.03225 185
58.05237 189
58.07248 180
58.09259 186
58.11271 212
58.13282 182
58.15294 205
58.17305 181
58.19316 211
58.21328 221
58.23339 180
58.2535 183
58.27362 193
58.29373 194
58.31385 191
58.33396 171
58.35407 186
58.37419 188
58.3943 175
58.41441 189
58.43453 181
58.45464 185
58.47475 196
58.49487 209
58.51498 190
58.5351 193
58.55521 207
58.57532 201
58.59544 197
58.61555 186
58.63566 207
58.65578 183
58.67589 206
58.69601 165
58.71612 197
58.73623 183
58.75635 194
58.77646 200
58.79657 177
58.81669 182
58.8368 200
58.85691 192
58.87703 203
58.89714 196
58.91726 180
58.93737 202
58.95748 217
58.9776 193
58.99771 199
59.01782 190
59.03794 192
59.05805 182
59.07817 192
59.09828 189
59.11839 209
59.13851 211
59.15862 206
59.17873 217
59.19885 216
59.21896 190
59.23908 203
59.25919 210
59.2793 220
59.29942 235
59.31953 237
59.33964 244
59.35976 227
59.37987 251
59.39998 234
59.4201 246
59.44021 262
59.46033 267
59.48044 271
59.50055 300
59.52067 324
59.54078 306
59.56089 351
59.58101 343
59.60112 398
59.62124 471
59.64135 449
59.66146 561
59.68158 609
59.70169 750
59.7218 834
59.74192 935
59.76203 1150
59.78215 1303
59.80226 1543
59.82237 1735
59.84249 1985
59.8626 2152
59.88271 2277
59.90283 2229
59.92294 2037
59.94305 1818
59.96317 1623
59.98328 1373
60.0034 1223
60.02351 1255
60.04362 1228
60.06374 1215
60.08385 1012
60.10396 863
60.12408 675
60.14419 539
60.16431 406
60.18442 349
60.20453 331
60.22465 299
60.24476 245
60.26487 248
60.28499 267
60.3051 244
60.32522 230
60.34533 243
60.36544 217
60.38556 243
60.40567 227
60.42578 220
60.4459 214
60.46601 183
60.48612 179
60.50624 188
60.52635 175
60.54647 225
60.56658 213
60.58669 215
60.60681 192
60.62692 209
60.64703 214
60.66715 225
60.68726 181
60.70738 173
60.72749 198
60.7476 163
60.76772 198
60.78783 231
60.80794 217
60.82806 178
60.84817 191
60.86828 206
60.8884 193
60.90851 214
60.92863 188
60.94874 188
60.96885 182
60.98897 197
61.00908 204
61.02919 189
61.04931 176
61.06942 175
61.08954 191
61.10965 209
61.12976 177
61.14988 172
61.16999 195
61.1901 196
61.21022 187
61.23033 209
61.25045 166
61.27056 202
61.29067 192
61.31079 184
61.3309 161
61.35101 216
61.37113 193
61.39124 184
61.41135 184
61.43147 203
61.45158 175
61.4717 209
61.49181 192
61.51192 204
61.53204 214
61.55215 180
61.57226 211
61.59238 199
61.61249 208
61.63261 205
61.65272 225
61.67283 194
61.69295 200
61.71306 215
61.73317 219
61.75329 214
61.7734 214
61.79352 224
61.81363 189
61.83374 225
61.85386 219
61.87397 221
61.89408 214
61.9142 248
61.93431 233
61.95442 230
61.97454 233
61.99465 241
62.01477 261
62.03488 256
62.05499 247
62.07511 275
62.09522 251
62.11533 256
62.13545 280
62.15556 256
62.17568 285
62.19579 264
62.2159 263
62.23602 248
62.25613 264
62.27624 282
62.29636 219
62.31647 238
62.33659 260
62.3567 251
62.37681 232
62.39693 248
62.41704 233
62.43715 214
62.45727 213
62.47738 237
62.49749 208
62.51761 228
62.53772 209
62.55784 244
62.57795 201
62.59806 207
62.61818 229
62.63829 198
62.6584 194
62.67852 198
62.69863 212
62.71875 213
62.73886 206
62.75897 191
62.77909 213
62.7992 197
62.81931 197
62.83943 169
62.85954 180
62.87965 191
62.89977 190
62.91988 201
62.94 203
62.96011 178
62.98022 199
63.00034 198
63.02045 174
63.04056 175
63.06068 179
63.08079 176
63.10091 181
63.12102 166
63.14113 212
63.16125 198
63.18136 204
63.20147 179
63.22159 190
63.2417 197
63.26182 199
63.28193 181
63.30204 200
63.32216 197
63.34227 215
63.36238 200
63.3825 190
63.40261 207
63.42272 230
63.44284 207
63.46295 215
63.48307 207
63.50318 199
63.52329 194
63.54341 195
63.56352 186
63.58363 232
63.60375 221
63.62386 185
63.64398 205
63.66409 207
63.6842 234
63.70432 229
63.72443 269
63.74454 265
63.76466 257
63.78477 316
63.80489 311
63.825 329
63.84511 355
63.86523 406
63.88534 422
63.90545 484
63.92557 519
63.94568 563
63.96579 566
63.98591 570
64.00602 480
64.02614 462
64.04625 428
64.06636 399
64.08648 385
64.10659 342
64.1267 389
64.14682 357
64.16693 350
64.18705 350
64.20716 273
64.22727 265
64.24739 232
64.2675 231
64.28761 191
64.30773 202
64.32784 199
64.34796 179
64.36807 184
64.38818 185
64.4083 179
64.42841 199
64.44852 185
64.46864 188
64.48875 182
64.50886 196
64.52898 177
64.54909 148
64.56921 173
64.58932 181
64.60943 155
64.62955 149
64.64966 194
64.66977 180
64.68989 185
64.71 191
64.73012 177
64.75023 198
64.77034 166
64.79046 171
64.81057 190
64.83068 167
64.8508 189
64.87091 188
64.89102 188
64.91114 175
64.93125 163
64.95137 181
64.97148 164
64.99159 152
65.01171 165
65.03182 164
65.05193 165
65.07205 190
65.09216 171
65.11228 189
65.13239 190
65.1525 168
65.17262 205
65.19273 187
65.21284 189
65.23296 198
65.25307 200
65.27319 189
65.2933 192
65.31341 168
65.33353 178
65.35364 183
65.37375 207
65.39387 165
65.41398 202
65.43409 193
65.45421 176
65.47432 181
65.49444 203
65.51455 214
65.53466 208
65.55478 210
65.57489 205
65.595 229
65.61512 252
65.63523 250
65.65535 235
65.67546 256
65.69557 271
65.71569 282
65.7358 308
65.75591 272
65.77603 245
65.79614 272
65.81626 235
65.83637 223
65.85648 239
65.8766 221
65.89671 243
65.91682 206
65.93694 221
65.95705 212
65.97716 199
65.99728 180
66.01739 175
66.03751 165
66.05762 171
66.07773 164
66.09785 196
66.11796 179
66.13807 166
66.15819 172
66.1783 198
66.19842 159
66.21853 175
66.23864 166
66.25876 200
66.27887 205
66.29898 177
66.3191 188
66.33921 194
66.35933 185
66.37944 184
66.39955 172
66.41967 179
66.43978 187
66.45989 182
66.48001 180
66.50012 176
66.52023 209
66.54035 198
66.56046 184
66.58058 194
66.60069 173
66.6208 200
66.64092 184
66.66103 188
66.68114 182
66.70126 181
66.72137 187
66.74149 186
66.7616 196
66.78171 193
66.80183 173
66.82194 176
66.84205 184
66.86217 189
66.88228 187
66.90239 183
66.92251 196
66.94262 191
66.96274 206
66.98285 204
67.00296 188
67.02308 196
67.04319 211
67.0633 187
67.08342 192
67.10353 212
67.12365 233
67.14376 217
67.16387 245
67.18399 219
67.2041 202
67.22421 264
67.24433 262
67.26444 243
67.28456 258
67.30467 292
67.32478 319
67.3449 303
67.36501 308
67.38512 338
67.40524 369
67.42535 402
67.44546 467
67.46558 496
67.48569 538
67.50581 639
67.52592 648
67.54603 759
67.56615 894
67.58626 1033
67.60637 1153
67.62649 1223
67.6466 1363
67.66672 1332
67.68683 1370
67.70694 1210
67.72706 1182
67.74717 993
67.76728 1030
67.7874 954
67.80751 958
67.82763 1000
67.84774 1064
67.86785 1086
67.88797 1096
67.90808 1122
67.92819 1152
67.94831 1146
67.96842 1226
67.98853 1384
68.00865 1564
68.02876 1615
68.04888 1713
68.06899 1807
68.0891 1853
68.10922 1861
68.12933 1737
68.14944 1619
68.16956 1644
68.18967 1578
68.20979 1626
68.2299 1836
68.25001 1694
68.27013 1653
68.29024 1403
68.31035 1332
68.33047 1078
68.35058 905
68.3707 784
68.39081 683
68.41092 703
68.43104 638
68.45115 639
68.47126 556
68.49138 490
68.51149 465
68.5316 385
68.55172 304
68.57183 286
68.59195 249
68.61206 238
68.63217 275
68.65229 259
68.6724 238
68.69251 218
68.71263 230
68.73274 235
68.75286 216
68.77297 215
68.79308 201
68.8132 200
68.83331 203
68.85342 195
68.87354 214
68.89365 202
68.91376 215
68.93388 215
68.95399 212
68.97411 202
68.99422 203
69.01433 194
69.03445 194
69.05456 174
69.07467 180
69.09479 193
69.1149 196
69.13502 187
69.15513 166
69.17524 206
69.19536 183
69.21547 184
69.23558 202
69.2557 176
69.27581 176
69.29593 179
69.31604 172
69.33615 182
69.35627 161
69.37638 217
69.39649 184
69.41661 185
69.43672 188
69.45683 174
69.47695 198
69.49706 171
69.51718 186
69.53729 178
69.5574 164
69.57752 173
69.59763 192
69.61774 181
69.63786 171
69.65797 195
69.67809 173
69.6982 161
69.71831 167
69.73843 185
69.75854 161
69.77865 167
69.79877 186
69.81888 168
69.839 186
69.85911 196
69.87922 165
69.89934 167
69.91945 178
69.93956 176
69.95968 184
69.97979 182
69.9999 165
70.02002 168
70.04013 176
70.06025 143
70.08036 166
70.10047 164
70.12059 158
70.1407 189
70.16081 186
70.18093 184
70.20104 177
70.22116 188
70.24127 156
70.26138 183
70.2815 173
70.30161 180
70.32172 185
70.34184 180
70.36195 183
70.38207 159
70.40218 169
70.42229 167
70.44241 158
70.46252 200
70.48263 187
70.50275 163
70.52286 164
70.54297 165
70.56309 167
70.5832 162
70.60332 176
70.62343 167
70.64354 197
70.66366 161
70.68377 177
70.70388 185
70.724 159
70.74411 165
70.76423 183
70.78434 172
70.80445 161
70.82457 180
70.84468 169
70.86479 147
70.88491 173
70.90502 170
70.92513 188
70.94525 168
70.96536 156
70.98548 176
71.00559 165
71.0257 175
71.04582 155
71.06593 163
71.08604 172
71.10616 170
71.12627 173
71.14639 163
71.1665 162
71.18661 168
71.20673 177
71.22684 149
71.24695 187
71.26707 180
71.28718 165
71.3073 152
71.32741 177
71.34752 162
71.36764 159
71.38775 184
71.40786 151
71.42798 157
71.44809 188
71.4682 153
71.48832 181
71.50843 173
71.52855 173
71.54866 151
71.56877 164
71.58889 169
71.609 156
71.62911 192
71.64923 169
71.66934 172
71.68946 176
71.70957 168
71.72968 187
71.7498 158
71.76991 175
71.79002 196
71.81014 162
71.83025 180
71.85037 184
71.87048 178
71.89059 178
71.91071 144
71.93082 169
71.95093 163
71.97105 185
71.99116 171
72.01127 177
72.03139 175
72.0515 174
72.07162 180
72.09173 174
72.11184 203
72.13196 179
72.15207 178
72.17218 169
72.1923 174
72.21241 175
72.23253 170
72.25264 163
72.27275 168
72.29287 177
72.31298 169
72.33309 170
72.35321 158
72.37332 181
72.39344 172
72.41355 159
72.43366 167
72.45378 165
72.47389 167
72.494 173
72.51412 170
72.53423 190
72.55434 167
72.57446 161
72.59457 175
72.61469 185
72.6348 180
72.65491 180
72.67503 196
72.69514 174
72.71525 169
72.73537 175
72.75548 156
72.7756 164
72.79571 176
72.81582 188
72.83594 192
72.85605 189
72.87616 195
72.89628 201
72.91639 174
72.9365 186
72.95662 180
72.97673 196
72.99685 188
73.01696 181
73.03707 195
73.05719 219
73.0773 196
73.09741 203
73.11753 243
73.13764 233
73.15776 256
73.17787 282
73.19798 286
73.2181 309
73.23821 315
73.25832 387
73.27844 383
73.29855 438
73.31867 439
73.33878 500
73.35889 557
73.37901 589
73.39912 614
73.41923 614
73.43935 491
73.45946 490
73.47957 392
73.49969 407
73.5198 365
73.53992 404
73.56003 358
73.58014 383
73.60026 398
73.62037 369
73.64048 348
73.6606 309
73.68071 302
73.70083 224
73.72094 243
73.74105 233
73.76117 191
73.78128 225
73.80139 216
73.82151 180
73.84162 193
73.86174 187
73.88185 199
73.90196 178
73.92208 187
73.94219 177
73.9623 182
73.98242 194
74.00253 150
74.02264 178
74.04276 180
74.06287 197
74.08299 177
74.1031 169
74.12321 155
74.14333 167
74.16344 163
74.18355 173
74.20367 160
74.22378 176
74.2439 166
74.26401 186
74.28412 160
74.30424 160
74.32435 172
74.34446 161
74.36458 163
74.38469 170
74.40481 173
74.42492 170
74.44503 172
74.46515 178
74.48526 150
74.50537 174
74.52549 180
74.5456 177
74.56571 171
74.58583 187
74.60594 166
74.62606 162
74.64617 171
74.66628 173
74.6864 186
74.70651 152
74.72662 172
74.74674 161
74.76685 158
74.78697 171
74.80708 181
74.82719 176
74.84731 165
74.86742 171
74.88753 179
74.90765 164
74.92776 185
74.94787 165
74.96799 177
74.9881 171
75.00822 186
