3.00117 18340
3.02128 18010
3.0414 17685
3.06151 17315
3.08162 16894
3.10174 15992
3.12185 15851
3.14197 15557
3.16208 14794
3.18219 14651
3.20231 13637
3.22242 13600
3.24253 13326
3.26265 12574
3.28276 12637
3.30288 11874
3.32299 11643
3.3431 11450
3.36322 10741
3.38333 10761
3.40344 10216
3.42356 9859
3.44367 9601
3.46379 8994
3.4839 9051
3.50401 8396
3.52413 8146
3.54424 8113
3.56435 7566
3.58447 7426
3.60458 6929
3.62469 6780
3.64481 6610
3.66492 6256
3.68504 6293
3.70515 5801
3.72526 5412
3.74538 5383
3.76549 5002
3.7856 4977
3.80572 4583
3.82583 4374
3.84595 4485
3.86606 4114
3.88617 4008
3.90629 3865
3.9264 3494
3.94651 3516
3.96663 3273
3.98674 3191
4.00686 2912
4.02697 2849
4.04708 2876
4.0672 2630
4.08731 2542
4.10742 2317
4.12754 2261
4.14765 2183
4.16776 2112
4.18788 2075
4.20799 1873
4.22811 1833
4.24822 1848
4.26833 1751
4.28845 1711
4.30856 1492
4.32867 1556
4.34879 1506
4.3689 1541
4.38902 1547
4.40913 1446
4.42924 1362
4.44936 1353
4.46947 1360
4.48958 1260
4.5097 1180
4.52981 1152
4.54992 1163
4.57004 1105
4.59015 1133
4.61027 1034
4.63038 1040
4.65049 1005
4.67061 1008
4.69072 967
4.71083 897
4.73095 973
4.75106 886
4.77118 927
4.79129 863
4.8114 847
4.83152 823
4.85163 841
4.87174 796
4.89186 724
4.91197 756
4.93209 698
4.9522 754
4.97231 676
4.99243 650
5.01254 653
5.03265 650
5.05277 672
5.07288 638
5.09299 539
5.11311 553
5.13322 550
5.15334 565
5.17345 568
5.19356 504
5.21368 533
5.23379 499
5.2539 528
5.27402 565
5.29413 465
5.31425 468
5.33436 435
5.35447 420
5.37459 469
5.3947 408
5.41481 379
5.43493 384
5.45504 405
5.47516 406
5.49527 349
5.51538 358
5.5355 351
5.55561 343
5.57572 387
5.59584 308
5.61595 320
5.63606 341
5.65618 329
5.67629 318
5.69641 295
5.71652 270
5.73663 264
5.75675 316
5.77686 292
5.79697 286
5.81709 253
5.8372 273
5.85732 277
5.87743 244
5.89754 267
5.91766 248
5.93777 260
5.95788 272
5.978 276
5.99811 274
6.01823 265
6.03834 253
6.05845 217
6.07857 243
6.09868 220
6.11879 233
6.13891 241
6.15902 229
6.17913 207
6.19925 226
6.21936 193
6.23948 205
6.25959 228
6.2797 223
6.29982 208
6.31993 243
6.34004 192
6.36016 215
6.38027 211
6.40039 185
6.4205 222
6.44061 203
6.46073 177
6.48084 173
6.50095 199
6.52107 188
6.54118 185
6.56129 164
6.58141 171
6.60152 164
6.62164 197
6.64175 189
6.66186 198
6.68198 147
6.70209 162
6.7222 184
6.74232 172
6.76243 161
6.78255 151
6.80266 181
6.82277 171
6.84289 155
6.863 164
6.88311 182
6.90323 169
6.92334 173
6.94346 170
6.96357 159
6.98368 175
7.0038 168
7.02391 174
7.04402 171
7.06414 144
7.08425 178
7.10436 154
7.12448 157
7.14459 180
7.16471 162
7.18482 160
7.20493 162
7.22505 169
7.24516 158
7.26527 140
7.28539 166
7.3055 185
7.32562 145
7.34573 129
7.36584 120
7.38596 159
7.40607 155
7.42618 160
7.4463 156
7.46641 150
7.48653 159
7.50664 141
7.52675 150
7.54687 149
7.56698 122
7.58709 140
7.60721 146
7.62732 134
7.64743 129
7.66755 138
7.68766 145
7.70778 171
7.72789 126
7.748 159
7.76812 145
7.78823 123
7.80834 135
7.82846 147
7.84857 145
7.86869 149
7.8888 146
7.90891 150
7.92903 131
7.94914 125
7.96925 145
7.98937 151
8.00948 119
8.0296 133
8.04971 167
8.06982 136
8.08994 129
8.11005 127
8.13016 139
8.15028 131
8.17039 125
8.1905 133
8.21062 141
8.23073 134
8.25085 181
8.27096 145
8.29107 159
8.31119 126
8.3313 168
8.35141 123
8.37153 155
8.39164 138
8.41176 114
8.43187 157
8.45198 151
8.4721 152
8.49221 145
8.51232 144
8.53244 121
8.55255 152
8.57266 130
8.59278 131
8.61289 148
8.63301 140
8.65312 129
8.67323 140
8.69335 135
8.71346 141
8.73357 166
8.75369 133
8.7738 161
8.79392 136
8.81403 155
8.83414 132
8.85426 155
8.87437 147
8.89448 125
8.9146 118
8.93471 139
8.95483 138
8.97494 136
8.99505 126
9.01517 116
9.03528 136
9.05539 135
9.07551 147
9.09562 143
9.11573 134
9.13585 135
9.15596 138
9.17608 133
9.19619 140
9.2163 121
9.23642 100
9.25653 120
9.27664 143
9.29676 151
9.31687 118
9.33699 150
9.3571 135
9.37721 137
9.39733 131
9.41744 124
9.43755 124
9.45767 146
9.47778 134
9.4979 120
9.51801 135
9.53812 137
9.55824 136
9.57835 142
9.59846 135
9.61858 141
9.63869 125
9.6588 124
9.67892 136
9.69903 122
9.71915 107
9.73926 128
9.75937 133
9.77949 108
9.7996 140
9.81971 117
9.83983 131
9.85994 120
9.88006 138
9.90017 116
9.92028 135
9.9404 98
9.96051 132
9.98062 137
10.00074 105
10.02085 127
10.04097 112
10.06108 137
10.08119 121
10.10131 123
10.12142 123
10.14153 118
10.16165 142
10.18176 132
10.20187 152
10.22199 126
10.2421 134
10.26222 130
10.28233 133
10.30244 122
10.32256 124
10.34267 116
10.36278 125
10.3829 135
10.40301 136
10.42313 128
10.44324 133
10.46335 157
10.48347 132
10.50358 119
10.52369 120
10.54381 124
10.56392 117
10.58403 119
10.60415 133
10.62426 147
10.64438 107
10.66449 117
10.6846 122
10.70472 132
10.72483 126
10.74494 138
10.76506 130
10.78517 127
10.80529 120
10.8254 140
10.84551 123
10.86563 131
10.88574 151
10.90585 106
10.92597 123
10.94608 139
10.9662 160
10.98631 132
11.00642 114
11.02654 140
11.04665 142
11.06676 111
11.08688 132
11.10699 124
11.1271 132
11.14722 125
11.16733 132
11.18745 145
11.20756 148
11.22767 133
11.24779 115
11.2679 110
11.28801 148
11.30813 160
11.32824 111
11.34836 130
11.36847 131
11.38858 125
11.4087 126
11.42881 125
11.44892 146
11.46904 118
11.48915 134
11.50927 126
11.52938 108
11.54949 127
11.56961 120
11.58972 136
11.60983 133
11.62995 129
11.65006 144
11.67017 134
11.69029 145
11.7104 128
11.73052 119
11.75063 122
11.77074 102
11.79086 131
11.81097 116
11.83108 144
11.8512 139
11.87131 147
11.89143 122
11.91154 135
11.93165 120
11.95177 126
11.97188 131
11.99199 153
12.01211 116
12.03222 139
12.05234 127
12.07245 120
12.09256 138
12.11268 139
12.13279 150
12.1529 149
12.17302 109
12.19313 136
12.21324 124
12.23336 125
12.25347 168
12.27359 167
12.2937 139
12.31381 137
12.33393 166
12.35404 162
12.37415 166
12.39427 125
12.41438 155
12.4345 121
12.45461 132
12.47472 128
12.49484 130
12.51495 137
12.53506 139
12.55518 118
12.57529 150
12.5954 133
12.61552 125
12.63563 121
12.65575 120
12.67586 126
12.69597 115
12.71609 125
12.7362 143
12.75631 132
12.77643 118
12.79654 148
12.81666 126
12.83677 131
12.85688 154
12.877 167
12.89711 154
12.91722 138
12.93734 127
12.95745 121
12.97757 129
12.99768 109
13.01779 125
13.03791 124
13.05802 129
13.07813 138
13.09825 110
13.11836 124
13.13847 124
13.15859 144
13.1787 136
13.19882 131
13.21893 111
13.23904 130
13.25916 125
13.27927 125
13.29938 136
13.3195 118
13.33961 113
13.35973 131
13.37984 130
13.39995 136
13.42007 126
13.44018 139
13.46029 136
13.48041 141
13.50052 124
13.52064 110
13.54075 106
13.56086 122
13.58098 139
13.60109 135
13.6212 128
13.64132 121
13.66143 140
13.68154 123
13.70166 147
13.72177 120
13.74189 150
13.762 123
13.78211 138
13.80223 126
13.82234 124
13.84245 125
13.86257 116
13.88268 118
13.9028 130
13.92291 124
13.94302 116
13.96314 134
13.98325 126
14.00336 126
14.02348 129
14.04359 113
14.06371 130
14.08382 122
14.10393 123
14.12405 125
14.14416 137
14.16427 131
14.18439 126
14.2045 127
14.22461 142
14.24473 139
14.26484 125
14.28496 118
14.30507 117
14.32518 122
14.3453 153
14.36541 106
14.38552 142
14.40564 152
14.42575 106
14.44587 110
14.46598 141
14.48609 142
14.50621 124
14.52632 137
14.54643 126
14.56655 120
14.58666 128
14.60677 123
14.62689 124
14.647 142
14.66712 131
14.68723 125
14.70734 125
14.72746 105
14.74757 132
14.76768 107
14.7878 112
14.80791 124
14.82803 125
14.84814 137
14.86825 146
14.88837 108
14.90848 110
14.92859 132
14.94871 144
14.96882 122
14.98894 148
15.00905 142
15.02916 127
15.04928 115
15.06939 130
15.0895 128
15.10962 114
15.12973 118
15.14984 109
15.16996 114
15.19007 109
15.21019 120
15.2303 119
15.25041 121
15.27053 123
15.29064 115
15.31075 127
15.33087 122
15.35098 98
15.3711 135
15.39121 124
15.41132 134
15.43144 117
15.45155 142
15.47166 143
15.49178 112
15.51189 134
15.53201 138
15.55212 135
15.57223 122
15.59235 109
15.61246 104
15.63257 116
15.65269 123
15.6728 114
15.69291 122
15.71303 128
15.73314 121
15.75326 143
15.77337 131
15.79348 159
15.8136 126
15.83371 104
15.85382 128
15.87394 109
15.89405 97
15.91417 113
15.93428 131
15.95439 129
15.97451 129
15.99462 124
16.01473 129
16.03485 104
16.05496 119
16.07508 125
16.09519 111
16.1153 126
16.13542 106
16.15553 135
16.17564 123
16.19576 120
16.21587 100
16.23598 138
16.2561 113
16.27621 129
16.29633 113
16.31644 138
16.33655 113
16.35667 116
16.37678 124
16.39689 133
16.41701 138
16.43712 122
16.45724 117
16.47735 95
16.49746 116
16.51758 109
16.53769 137
16.5578 114
16.57792 124
16.59803 121
16.61814 120
16.63826 133
16.65837 111
16.67849 111
16.6986 121
16.71871 121
16.73883 105
16.75894 125
16.77905 123
16.79917 92
16.81928 133
16.8394 122
16.85951 125
16.87962 105
16.89974 124
16.91985 135
16.93996 112
16.96008 133
16.98019 121
17.00031 125
17.02042 125
17.04053 141
17.06065 118
17.08076 145
17.10087 104
17.12099 136
17.1411 131
17.16121 111
17.18133 114
17.20144 131
17.22156 102
17.24167 104
17.26178 133
17.2819 109
17.30201 114
17.32212 114
17.34224 124
17.36235 104
17.38247 119
17.40258 121
17.42269 134
17.44281 123
17.46292 133
17.48303 127
17.50315 101
17.52326 136
17.54338 114
17.56349 118
17.5836 123
17.60372 142
17.62383 125
17.64394 122
17.66406 113
17.68417 116
17.70428 144
17.7244 113
17.74451 141
17.76463 125
17.78474 134
17.80485 132
17.82497 123
17.84508 108
17.86519 112
17.88531 122
17.90542 114
17.92554 130
17.94565 117
17.96576 121
17.98588 134
18.00599 124
18.0261 135
18.04622 128
18.06633 139
18.08645 117
18.10656 128
18.12667 132
18.14679 111
18.1669 113
18.18701 134
18.20713 106
18.22724 118
18.24735 119
18.26747 123
18.28758 109
18.3077 113
18.32781 131
18.34792 109
18.36804 119
18.38815 107
18.40826 114
18.42838 136
18.44849 111
18.46861 106
18.48872 108
18.50883 104
18.52895 118
18.54906 135
18.56917 128
18.58929 128
18.6094 116
18.62951 109
18.64963 128
18.66974 113
18.68986 140
18.70997 121
18.73008 154
18.7502 118
18.77031 114
18.79042 106
18.81054 117
18.83065 120
18.85077 116
18.87088 112
18.89099 120
18.91111 112
18.93122 143
18.95133 131
18.97145 115
18.99156 141
19.01168 110
19.03179 113
19.0519 118
19.07202 133
19.09213 109
19.11224 129
19.13236 121
19.15247 142
19.17258 125
19.1927 140
19.21281 136
19.23293 117
19.25304 134
19.27315 117
19.29327 124
19.31338 104
19.33349 135
19.35361 132
19.37372 132
19.39384 129
19.41395 127
19.43406 137
19.45418 152
19.47429 130
19.4944 125
19.51452 137
19.53463 158
19.55475 154
19.57486 162
19.59497 145
19.61509 147
19.6352 179
19.65531 168
19.67543 168
19.69554 176
19.71565 152
19.73577 172
19.75588 178
19.776 171
19.79611 174
19.81622 179
19.83634 189
19.85645 182
19.87656 201
19.89668 163
19.91679 145
19.93691 164
19.95702 132
19.97713 146
19.99725 187
20.01736 135
20.03747 149
20.05759 148
20.0777 155
20.09782 154
20.11793 163
20.13804 130
20.15816 151
20.17827 142
20.19838 142
20.2185 153
20.23861 154
20.25872 126
20.27884 154
20.29895 139
20.31907 134
20.33918 138
20.35929 161
20.37941 157
20.39952 121
20.41963 156
20.43975 134
20.45986 139
20.47998 141
20.50009 133
20.5202 148
20.54032 150
20.56043 135
20.58054 164
20.60066 152
20.62077 134
20.64088 168
20.661 166
20.68111 149
20.70123 197
20.72134 205
20.74145 232
20.76157 227
20.78168 248
20.80179 266
20.82191 290
20.84202 278
20.86214 242
20.88225 215
20.90236 192
20.92248 184
20.94259 152
20.9627 176
20.98282 140
21.00293 180
21.02305 168
21.04316 128
21.06327 170
21.08339 138
21.1035 161
21.12361 149
21.14373 156
21.16384 147
21.18395 129
21.20407 139
21.22418 135
21.2443 143
21.26441 145
21.28452 145
21.30464 159
21.32475 145
21.34486 145
21.36498 151
21.38509 157
21.40521 134
21.42532 124
21.44543 153
21.46555 142
21.48566 116
21.50577 120
21.52589 137
21.546 126
21.56612 129
21.58623 129
21.60634 147
21.62646 118
21.64657 149
21.66668 116
21.6868 136
21.70691 102
21.72702 125
21.74714 122
21.76725 143
21.78737 142
21.80748 127
21.82759 131
21.84771 130
21.86782 163
21.88793 142
21.90805 149
21.92816 135
21.94828 135
21.96839 162
21.9885 151
22.00862 141
22.02873 156
22.04884 135
22.06896 123
22.08907 129
22.10919 142
22.1293 124
22.14941 126
22.16953 146
22.18964 127
22.20975 131
22.22987 124
22.24998 153
22.27009 112
22.29021 121
22.31032 133
22.33044 144
22.35055 126
22.37066 134
22.39078 136
22.41089 141
22.431 143
22.45112 135
22.47123 135
22.49135 152
22.51146 135
22.53157 151
22.55169 152
22.5718 147
22.59191 181
22.61203 140
22.63214 159
22.65225 151
22.67237 155
22.69248 170
22.7126 173
22.73271 178
22.75282 185
22.77294 195
22.79305 242
22.81316 206
22.83328 287
22.85339 277
22.87351 300
22.89362 346
22.91373 483
22.93385 538
22.95396 713
22.97407 842
22.99419 956
23.0143 979
23.03442 963
23.05453 945
23.07464 847
23.09476 733
23.11487 534
23.13498 432
23.1551 397
23.17521 318
23.19532 251
23.21544 212
23.23555 222
23.25567 214
23.27578 184
23.29589 198
23.31601 152
23.33612 164
23.35623 162
23.37635 159
23.39646 155
23.41658 144
23.43669 151
23.4568 144
23.47692 163
23.49703 148
23.51714 137
23.53726 144
23.55737 157
23.57749 136
23.5976 159
23.61771 142
23.63783 143
23.65794 135
23.67805 144
23.69817 149
23.71828 152
23.73839 155
23.75851 141
23.77862 138
23.79874 144
23.81885 140
23.83896 132
23.85908 143
23.87919 153
23.8993 127
23.91942 127
23.93953 125
23.95965 121
23.97976 140
23.99987 136
24.01999 150
24.0401 141
24.06021 136
24.08033 116
24.10044 109
24.12056 140
24.14067 132
24.16078 117
24.1809 155
24.20101 144
24.22112 113
24.24124 145
24.26135 140
24.28146 124
24.30158 127
24.32169 127
24.34181 128
24.36192 120
24.38203 133
24.40215 122
24.42226 143
24.44237 130
24.46249 140
24.4826 135
24.50272 115
24.52283 141
24.54294 140
24.56306 121
24.58317 130
24.60328 128
24.6234 134
24.64351 127
24.66362 144
24.68374 128
24.70385 127
24.72397 129
24.74408 125
24.76419 129
24.78431 119
24.80442 133
24.82453 141
24.84465 116
24.86476 117
24.88488 126
24.90499 127
24.9251 137
24.94522 138
24.96533 105
24.98544 146
25.00556 137
25.02567 134
25.04579 133
25.0659 141
25.08601 126
25.10613 119
25.12624 120
25.14635 144
25.16647 129
25.18658 121
25.20669 133
25.22681 137
25.24692 138
25.26704 137
25.28715 139
25.30726 134
25.32738 144
25.34749 135
25.3676 133
25.38772 157
25.40783 132
25.42795 151
25.44806 142
25.46817 125
25.48829 128
25.5084 151
25.52851 117
25.54863 135
25.56874 144
25.58886 152
25.60897 152
25.62908 152
25.6492 144
25.66931 146
25.68942 164
25.70954 119
25.72965 142
25.74976 120
25.76988 155
25.78999 125
25.81011 107
25.83022 104
25.85033 131
25.87045 113
25.89056 136
25.91067 127
25.93079 130
25.9509 131
25.97102 134
25.99113 102
26.01124 128
26.03136 140
26.05147 136
26.07158 138
26.0917 143
26.11181 130
26.13193 146
26.15204 146
26.17215 159
26.19227 156
26.21238 144
26.23249 189
26.25261 149
26.27272 134
26.29283 176
26.31295 162
26.33306 180
26.35318 176
26.37329 194
26.3934 207
26.41352 197
26.43363 249
26.45374 285
26.47386 318
26.49397 413
26.51409 471
26.5342 575
26.55431 713
26.57443 730
26.59454 738
26.61465 723
26.63477 618
26.65488 534
26.67499 426
26.69511 323
26.71522 272
26.73534 242
26.75545 186
26.77556 177
26.79568 179
26.81579 172
26.8359 140
26.85602 160
26.87613 138
26.89625 157
26.91636 162
26.93647 156
26.95659 153
26.9767 141
26.99681 178
27.01693 159
27.03704 146
27.05716 162
27.07727 158
27.09738 145
27.1175 142
27.13761 145
27.15772 128
27.17784 129
27.19795 140
27.21806 158
27.23818 147
27.25829 139
27.27841 132
27.29852 135
27.31863 163
27.33875 152
27.35886 180
27.37897 129
27.39909 143
27.4192 133
27.43932 161
27.45943 168
27.47954 152
27.49966 164
27.51977 170
27.53988 152
27.56 141
27.58011 138
27.60023 144
27.62034 155
27.64045 137
27.66057 147
27.68068 147
27.70079 148
27.72091 155
27.74102 172
27.76113 178
27.78125 188
27.80136 188
27.82148 177
27.84159 163
27.8617 178
27.88182 160
27.90193 178
27.92204 152
27.94216 154
27.96227 164
27.98239 166
28.0025 169
28.02261 175
28.04273 170
28.06284 136
28.08295 136
28.10307 138
28.12318 139
28.1433 142
28.16341 129
28.18352 137
28.20364 129
28.22375 146
28.24386 166
28.26398 158
28.28409 169
28.3042 163
28.32432 199
28.34443 158
28.36455 196
28.38466 185
28.40477 184
28.42489 196
28.445 200
28.46511 198
28.48523 212
28.50534 189
28.52546 212
28.54557 189
28.56568 188
28.5858 205
28.60591 211
28.62602 206
28.64614 210
28.66625 243
28.68636 223
28.70648 224
28.72659 211
28.74671 219
28.76682 241
28.78693 262
28.80705 245
28.82716 245
28.84727 285
28.86739 278
28.8875 329
28.90762 334
28.92773 360
28.94784 366
28.96796 446
28.98807 465
29.00818 493
29.0283 517
29.04841 564
29.06853 664
29.08864 685
29.10875 857
29.12887 981
29.14898 1174
29.16909 1429
29.18921 1654
29.20932 2233
29.22943 2987
29.24955 3800
29.26966 4916
29.28978 6046
29.30989 7337
29.33 8338
29.35012 9098
29.37023 9108
29.39034 8703
29.41046 8012
29.43057 6856
29.45069 5621
29.4708 4419
29.49091 3541
29.51103 2627
29.53114 2108
29.55125 1503
29.57137 1198
29.59148 970
29.6116 851
29.63171 770
29.65182 631
29.67194 608
29.69205 589
29.71216 486
29.73228 447
29.75239 392
29.7725 404
29.79262 405
29.81273 319
29.83285 299
29.85296 304
29.87307 261
29.89319 290
29.9133 257
29.93341 264
29.95353 244
29.97364 227
29.99376 233
30.01387 223
30.03398 222
30.0541 221
30.07421 226
30.09432 195
30.11444 204
30.13455 204
30.15467 182
30.17478 208
30.19489 191
30.21501 204
30.23512 209
30.25523 217
30.27535 177
30.29546 190
30.31557 159
30.33569 192
30.3558 214
30.37592 191
30.39603 178
30.41614 182
30.43626 167
30.45637 181
30.47648 179
30.4966 179
30.51671 178
30.53683 155
30.55694 173
30.57705 155
30.59717 182
30.61728 176
30.63739 175
30.65751 137
30.67762 161
30.69773 137
30.71785 161
30.73796 149
30.75808 178
30.77819 152
30.7983 168
30.81842 183
30.83853 169
30.85864 136
30.87876 145
30.89887 179
30.91899 161
30.9391 143
30.95921 154
30.97933 169
30.99944 173
31.01955 181
31.03967 172
31.05978 170
31.0799 155
31.10001 172
31.12012 164
31.14024 189
31.16035 168
31.18046 175
31.20058 191
31.22069 193
31.2408 176
31.26092 236
31.28103 236
31.30115 247
31.32126 265
31.34137 335
31.36149 340
31.3816 338
31.40171 368
31.42183 322
31.44194 299
31.46206 281
31.48217 253
31.50228 225
31.5224 212
31.54251 181
31.56262 176
31.58274 164
31.60285 174
31.62297 147
31.64308 144
31.66319 154
31.68331 156
31.70342 170
31.72353 139
31.74365 139
31.76376 138
31.78387 136
31.80399 161
31.8241 140
31.84422 126
31.86433 146
31.88444 149
31.90456 138
31.92467 135
31.94478 120
31.9649 130
31.98501 162
32.00513 119
32.02524 131
32.04535 134
32.06547 132
32.08558 140
32.10569 120
32.12581 117
32.14592 115
32.16604 130
32.18615 123
32.20626 132
32.22638 135
32.24649 138
32.2666 117
32.28672 142
32.30683 145
32.32694 134
32.34706 130
32.36717 121
32.38729 118
32.4074 127
32.42751 117
32.44763 118
32.46774 136
32.48785 119
32.50797 129
32.52808 113
32.5482 129
32.56831 133
32.58842 113
32.60854 131
32.62865 140
32.64876 111
32.66888 112
32.68899 144
32.7091 130
32.72922 134
32.74933 124
32.76945 130
32.78956 124
32.80967 124
32.82979 134
32.8499 112
32.87001 131
32.89013 126
32.91024 113
32.93036 139
32.95047 113
32.97058 136
32.9907 137
33.01081 131
33.03092 136
33.05104 122
33.07115 107
33.09127 138
33.11138 132
33.13149 138
33.15161 130
33.17172 117
33.19183 133
33.21195 106
33.23206 126
33.25217 118
33.27229 129
33.2924 144
33.31252 111
33.33263 113
33.35274 142
33.37286 120
33.39297 135
33.41308 105
33.4332 134
33.45331 111
33.47343 121
33.49354 120
33.51365 110
33.53377 134
33.55388 126
33.57399 118
33.59411 133
33.61422 114
33.63434 102
33.65445 137
33.67456 122
33.69468 128
33.71479 112
33.7349 120
33.75502 107
33.77513 120
33.79524 132
33.81536 136
33.83547 113
33.85559 117
33.8757 115
33.89581 117
33.91593 116
33.93604 108
33.95615 123
33.97627 102
33.99638 114
34.0165 94
34.03661 111
34.05672 130
34.07684 114
34.09695 114
34.11706 130
34.13718 125
34.15729 102
34.17741 104
34.19752 115
34.21763 123
34.23775 134
34.25786 145
34.27797 142
34.29809 112
34.3182 135
34.33831 121
34.35843 128
34.37854 132
34.39866 157
34.41877 158
34.43888 133
34.459 144
34.47911 140
34.49922 149
34.51934 133
34.53945 166
34.55957 146
34.57968 154
34.59979 174
34.61991 134
34.64002 152
34.66013 168
34.68025 158
34.70036 148
34.72047 167
34.74059 133
34.7607 163
34.78082 157
34.80093 148
34.82104 159
34.84116 157
34.86127 143
34.88138 156
34.9015 137
34.92161 151
34.94173 162
34.96184 133
34.98195 156
35.00207 154
35.02218 177
35.04229 142
35.06241 154
35.08252 155
35.10264 169
35.12275 165
35.14286 149
35.16298 154
35.18309 144
35.2032 176
35.22332 161
35.24343 147
35.26354 141
35.28366 162
35.30377 165
35.32389 161
35.344 168
35.36411 164
35.38423 173
35.40434 166
35.42445 149
35.44457 154
35.46468 186
35.4848 160
35.50491 175
35.52502 186
35.54514 177
35.56525 175
35.58536 223
35.60548 199
35.62559 214
35.64571 230
35.66582 225
35.68593 257
35.70605 280
35.72616 297
35.74627 321
35.76639 371
35.7865 449
35.80661 549
35.82673 604
35.84684 806
35.86696 881
35.88707 1051
35.90718 1164
35.9273 1192
35.94741 1225
35.96752 1168
35.98764 1056
36.00775 1005
36.02787 886
36.04798 765
36.06809 627
36.08821 503
36.10832 455
36.12843 398
36.14855 312
36.16866 253
36.18878 243
36.20889 228
36.229 220
36.24912 201
36.26923 215
36.28934 185
36.30946 218
36.32957 194
36.34968 194
36.3698 168
36.38991 181
36.41003 177
36.43014 189
36.45025 213
36.47037 189
36.49048 193
36.51059 179
36.53071 176
36.55082 183
36.57094 177
36.59105 143
36.61116 149
36.63128 159
36.65139 170
36.6715 133
36.69162 160
36.71173 159
36.73184 131
36.75196 158
36.77207 151
36.79219 134
36.8123 137
36.83241 152
36.85253 130
36.87264 126
36.89275 119
36.91287 140
36.93298 134
36.9531 149
36.97321 121
36.99332 129
37.01344 126
37.03355 160
37.05366 120
37.07378 156
37.09389 130
37.11401 144
37.13412 134
37.15423 121
37.17435 138
37.19446 132
37.21457 114
37.23469 119
37.2548 116
37.27491 130
37.29503 131
37.31514 126
37.33526 122
37.35537 117
37.37548 116
37.3956 126
37.41571 114
37.43582 112
37.45594 111
37.47605 119
37.49617 129
37.51628 101
37.53639 130
37.55651 140
37.57662 115
37.59673 160
37.61685 144
37.63696 131
37.65708 130
37.67719 134
37.6973 129
37.71742 113
37.73753 127
37.75764 106
37.77776 131
37.79787 120
37.81798 119
37.8381 121
37.85821 132
37.87833 128
37.89844 138
37.91855 115
37.93867 134
37.95878 147
37.97889 119
37.99901 134
38.01912 135
38.03924 131
38.05935 119
38.07946 130
38.09958 129
38.11969 123
38.1398 134
38.15992 117
38.18003 146
38.20015 132
38.22026 149
38.24037 139
38.26049 137
38.2806 148
38.30071 138
38.32083 133
38.34094 131
38.36105 107
38.38117 145
38.40128 135
38.4214 131
38.44151 128
38.46162 148
38.48174 130
38.50185 149
38.52196 132
38.54208 122
38.56219 135
38.58231 135
38.60242 156
38.62253 121
38.64265 152
38.66276 134
38.68287 130
38.70299 156
38.7231 153
38.74321 150
38.76333 136
38.78344 161
38.80356 190
38.82367 146
38.84378 152
38.8639 154
38.88401 176
38.90412 146
38.92424 154
38.94435 164
38.96447 177
38.98458 208
39.00469 236
39.02481 219
39.04492 207
39.06503 215
39.08515 254
39.10526 282
39.12538 310
39.14549 350
39.1656 402
39.18572 434
39.20583 535
39.22594 623
39.24606 760
39.26617 869
39.28628 1056
39.3064 1298
39.32651 1385
39.34663 1560
39.36674 1590
39.38685 1632
39.40697 1685
39.42708 1514
39.44719 1379
39.46731 1149
39.48742 1053
39.50754 903
39.52765 782
39.54776 588
39.56788 516
39.58799 457
39.6081 356
39.62822 335
39.64833 284
39.66845 250
39.68856 238
39.70867 216
39.72879 223
39.7489 210
39.76901 160
39.78913 175
39.80924 188
39.82935 202
39.84947 180
39.86958 162
39.8897 168
39.90981 166
39.92992 155
39.95004 155
39.97015 168
39.99026 152
40.01038 147
40.03049 158
40.05061 153
40.07072 173
40.09083 155
40.11095 148
40.13106 146
40.15117 152
40.17129 137
40.1914 143
40.21152 142
40.23163 154
40.25174 138
40.27186 122
40.29197 150
40.31208 143
40.3322 131
40.35231 153
40.37242 143
40.39254 128
40.41265 114
40.43277 125
40.45288 131
40.47299 116
40.49311 121
40.51322 122
40.53333 142
40.55345 114
40.57356 118
40.59368 116
40.61379 108
40.6339 136
40.65402 105
40.67413 122
40.69424 117
40.71436 139
40.73447 149
40.75458 116
40.7747 106
40.79481 127
40.81493 114
40.83504 116
40.85515 132
40.87527 119
40.89538 117
40.91549 107
40.93561 143
40.95572 130
40.97584 139
40.99595 114
41.01606 137
41.03618 121
41.05629 121
41.0764 126
41.09652 155
41.11663 141
41.13675 124
41.15686 118
41.17697 140
41.19709 98
41.2172 122
41.23731 122
41.25743 121
41.27754 119
41.29765 127
41.31777 121
41.33788 107
41.358 123
41.37811 123
41.39822 121
41.41834 131
41.43845 111
41.45856 115
41.47868 119
41.49879 125
41.51891 124
41.53902 103
41.55913 116
41.57925 105
41.59936 144
41.61947 147
41.63959 119
41.6597 133
41.67982 133
41.69993 125
41.72004 126
41.74016 127
41.76027 128
41.78038 136
41.8005 122
41.82061 123
41.84072 116
41.86084 131
41.88095 131
41.90107 107
41.92118 131
41.94129 129
41.96141 144
41.98152 132
42.00163 120
42.02175 106
42.04186 127
42.06198 130
42.08209 138
42.1022 140
42.12232 140
42.14243 141
42.16254 135
42.18266 138
42.20277 144
42.22289 123
42.243 110
42.26311 135
42.28323 147
42.30334 147
42.32345 173
42.34357 153
42.36368 158
42.38379 154
42.40391 171
42.42402 144
42.44414 182
42.46425 143
42.48436 143
42.50448 134
42.52459 164
42.5447 150
42.56482 136
42.58493 168
42.60505 152
42.62516 160
42.64527 164
42.66539 146
42.6855 149
42.70561 170
42.72573 165
42.74584 202
42.76595 161
42.78607 192
42.80618 191
42.8263 220
42.84641 251
42.86652 242
42.88664 310
42.90675 306
42.92686 308
42.94698 397
42.96709 473
42.98721 580
43.00732 668
43.02743 890
43.04755 999
43.06766 1116
43.08777 1289
43.10789 1365
43.128 1433
43.14812 1342
43.16823 1263
43.18834 1181
43.20846 1107
43.22857 988
43.24868 903
43.2688 789
43.28891 650
43.30902 542
43.32914 447
43.34925 393
43.36937 325
43.38948 301
43.40959 244
43.42971 266
43.44982 218
43.46993 206
43.49005 200
43.51016 203
43.53028 172
43.55039 191
43.5705 165
43.59062 161
43.61073 162
43.63084 128
43.65096 149
43.67107 156
43.69119 159
43.7113 146
43.73141 129
43.75153 131
43.77164 135
43.79175 144
43.81187 121
43.83198 118
43.85209 141
43.87221 153
43.89232 136
43.91244 156
43.93255 126
43.95266 141
43.97278 140
43.99289 127
44.013 153
44.03312 133
44.05323 135
44.07335 124
44.09346 134
44.11357 142
44.13369 132
44.1538 134
44.17391 158
44.19403 115
44.21414 125
44.23426 112
44.25437 121
44.27448 139
44.2946 117
44.31471 115
44.33482 132
44.35494 111
44.37505 127
44.39516 123
44.41528 130
44.43539 123
44.45551 117
44.47562 123
44.49573 111
44.51585 107
44.53596 114
44.55607 143
44.57619 121
44.5963 129
44.61642 108
44.63653 142
44.65664 125
44.67676 117
44.69687 130
44.71698 156
44.7371 126
44.75721 125
44.77732 126
44.79744 142
44.81755 131
44.83767 126
44.85778 123
44.87789 137
44.89801 130
44.91812 104
44.93823 106
44.95835 129
44.97846 138
44.99858 124
45.01869 126
45.0388 130
45.05892 120
45.07903 145
45.09914 121
45.11926 120
45.13937 118
45.15949 126
45.1796 129
45.19971 122
45.21983 138
45.23994 145
45.26005 129
45.28017 125
45.30028 119
45.32039 129
45.34051 115
45.36062 104
45.38074 129
45.40085 132
45.42096 122
45.44108 133
45.46119 133
45.4813 136
45.50142 133
45.52153 135
45.54165 131
45.56176 135
45.58187 123
45.60199 128
45.6221 125
45.64221 124
45.66233 129
45.68244 155
45.70256 128
45.72267 121
45.74278 139
45.7629 142
45.78301 151
45.80312 156
45.82324 156
45.84335 132
45.86346 138
45.88358 129
45.90369 151
45.92381 128
45.94392 147
45.96403 118
45.98415 121
46.00426 144
46.02437 124
46.04449 131
46.0646 136
46.08472 160
46.10483 134
46.12494 122
46.14506 142
46.16517 142
46.18528 136
46.2054 139
46.22551 155
46.24563 139
46.26574 124
46.28585 137
46.30597 139
46.32608 164
46.34619 132
46.36631 136
46.38642 147
46.40653 141
46.42665 144
46.44676 133
46.46688 142
46.48699 153
46.5071 142
46.52722 134
46.54733 112
46.56744 172
46.58756 160
46.60767 161
46.62779 154
46.6479 167
46.66801 157
46.68813 174
46.70824 171
46.72835 170
46.74847 214
46.76858 195
46.78869 202
46.80881 207
46.82892 248
46.84904 256
46.86915 272
46.88926 289
46.90938 290
46.92949 339
46.9496 366
46.96972 410
46.98983 445
47.00995 522
47.03006 545
47.05017 599
47.07029 670
47.0904 642
47.11051 619
47.13063 579
47.15074 617
47.17086 597
47.19097 649
47.21108 643
47.2312 598
47.25131 594
47.27142 659
47.29154 696
47.31165 695
47.33176 818
47.35188 941
47.37199 1070
47.39211 1231
47.41222 1352
47.43233 1423
47.45245 1450
47.47256 1453
47.49267 1328
47.51279 1352
47.5329 1267
47.55302 1089
47.57313 1097
47.59324 931
47.61336 852
47.63347 705
47.65358 653
47.6737 571
47.69381 544
47.71393 419
47.73404 420
47.75415 348
47.77427 342
47.79438 339
47.81449 293
47.83461 268
47.85472 252
47.87483 250
47.89495 257
47.91506 259
47.93518 235
47.95529 257
47.9754 244
47.99552 260
48.01563 249
48.03574 254
48.05586 278
48.07597 271
48.09609 272
48.1162 267
48.13631 283
48.15643 312
48.17654 339
48.19665 335
48.21677 351
48.23688 424
48.257 480
48.27711 498
48.29722 550
48.31734 694
48.33745 796
48.35756 880
48.37768 1093
48.39779 1256
48.4179 1347
48.43802 1466
48.45813 1523
48.47825 1483
48.49836 1455
48.51847 1350
48.53859 1278
48.5587 1182
48.57881 1131
48.59893 959
48.61904 872
48.63916 788
48.65927 678
48.67938 570
48.6995 497
48.71961 437
48.73972 391
48.75984 347
48.77995 322
48.80006 275
48.82018 270
48.84029 244
48.86041 228
48.88052 200
48.90063 201
48.92075 216
48.94086 168
48.96097 179
48.98109 195
49.0012 165
49.02132 181
49.04143 154
49.06154 162
49.08166 156
49.10177 152
49.12188 135
49.142 152
49.16211 152
49.18223 143
49.20234 154
49.22245 133
49.24257 150
49.26268 143
49.28279 131
49.30291 141
49.32302 126
49.34313 120
49.36325 125
49.38336 126
49.40348 130
49.42359 120
49.4437 134
49.46382 131
49.48393 123
49.50404 115
49.52416 124
49.54427 137
49.56439 144
49.5845 119
49.60461 133
49.62473 134
49.64484 115
49.66495 108
49.68507 113
49.70518 137
49.7253 114
49.74541 124
49.76552 143
49.78564 142
49.80575 104
49.82586 120
49.84598 124
49.86609 126
49.8862 111
49.90632 122
49.92643 138
49.94655 130
49.96666 128
49.98677 159
50.00689 154
50.027 187
50.04711 187
50.06723 155
50.08734 168
50.10746 156
50.12757 163
50.14768 160
50.1678 164
50.18791 136
50.20802 146
50.22814 148
50.24825 145
50.26837 113
50.28848 108
50.30859 115
50.32871 115
50.34882 119
50.36893 116
50.38905 111
50.40916 122
50.42927 101
50.44939 109
50.4695 114
50.48962 115
50.50973 117
50.52984 102
50.54996 114
50.57007 111
50.59018 121
50.6103 113
50.63041 101
50.65053 113
50.67064 93
50.69075 125
50.71087 113
50.73098 117
50.75109 100
50.77121 112
50.79132 102
50.81143 119
50.83155 118
50.85166 106
50.87178 119
50.89189 126
50.912 121
50.93212 115
50.95223 100
50.97234 110
50.99246 98
51.01257 107
51.03269 87
51.0528 103
51.07291 99
51.09303 101
51.11314 108
51.13325 97
51.15337 106
51.17348 89
51.1936 114
51.21371 98
51.23382 111
51.25394 112
51.27405 101
51.29416 103
51.31428 102
51.33439 108
51.3545 105
51.37462 114
51.39473 91
51.41485 101
51.43496 113
51.45507 110
51.47519 116
51.4953 109
51.51541 91
51.53553 120
51.55564 109
51.57576 102
51.59587 100
51.61598 91
51.6361 98
51.65621 113
51.67632 106
51.69644 111
51.71655 112
51.73667 106
51.75678 94
51.77689 101
51.79701 104
51.81712 111
51.83723 81
51.85735 108
51.87746 87
51.89757 115
51.91769 99
51.9378 121
51.95792 110
51.97803 109
51.99814 119
52.01826 111
52.03837 87
52.05848 104
52.0786 105
52.09871 107
52.11883 106
52.13894 90
52.15905 109
52.17917 93
52.19928 108
52.21939 103
52.23951 102
52.25962 113
52.27974 106
52.29985 96
52.31996 108
52.34008 94
52.36019 86
52.3803 96
52.40042 100
52.42053 101
52.44064 102
52.46076 116
52.48087 104
52.50099 108
52.5211 112
52.54121 104
52.56133 100
52.58144 98
52.60155 110
52.62167 103
52.64178 87
52.6619 94
52.68201 125
52.70212 119
52.72224 83
52.74235 102
52.76246 131
52.78258 111
52.80269 103
52.8228 104
52.84292 103
52.86303 97
52.88315 98
52.90326 85
52.92337 92
52.94349 97
52.9636 103
52.98371 123
53.00383 91
53.02394 93
53.04406 92
53.06417 107
53.08428 113
53.1044 110
53.12451 121
53.14462 110
53.16474 94
53.18485 110
53.20497 114
53.22508 113
53.24519 128
53.26531 105
53.28542 125
53.30553 88
53.32565 110
53.34576 105
53.36587 119
53.38599 105
53.4061 94
53.42622 109
53.44633 96
53.46644 100
53.48656 104
53.50667 106
53.52678 107
53.5469 109
53.56701 88
53.58713 96
53.60724 103
53.62735 98
53.64747 95
53.66758 99
53.68769 110
53.70781 106
53.72792 92
53.74804 105
53.76815 118
53.78826 96
53.80838 116
53.82849 109
53.8486 118
53.86872 105
53.88883 134
53.90894 109
53.92906 99
53.94917 100
53.96929 113
53.9894 112
54.00951 98
54.02963 111
54.04974 109
54.06985 106
54.08997 110
54.11008 114
54.1302 98
54.15031 91
54.17042 108
54.19054 99
54.21065 126
54.23076 94
54.25088 124
54.27099 99
54.29111 101
54.31122 119
54.33133 121
54.35145 112
54.37156 121
54.39167 102
54.41179 84
54.4319 107
54.45201 108
54.47213 104
54.49224 108
54.51236 99
54.53247 112
54.55258 104
54.5727 113
54.59281 104
54.61292 109
54.63304 91
54.65315 116
54.67327 124
54.69338 113
54.71349 100
54.73361 112
54.75372 106
54.77383 127
54.79395 117
54.81406 102
54.83417 120
54.85429 118
54.8744 111
54.89452 122
54.91463 128
54.93474 125
54.95486 116
54.97497 121
54.99508 98
55.0152 110
55.03531 124
55.05543 118
55.07554 95
55.09565 121
55.11577 93
55.13588 112
55.15599 111
55.17611 115
55.19622 128
55.21634 113
55.23645 129
55.25656 122
55.27668 125
55.29679 106
55.3169 94
55.33702 108
55.35713 108
55.37724 108
55.39736 102
55.41747 117
55.43759 93
55.4577 103
55.47781 96
55.49793 123
55.51804 101
55.53815 96
55.55827 108
55.57838 116
55.5985 118
55.61861 113
55.63872 107
55.65884 121
55.67895 107
55.69906 118
55.71918 118
55.73929 104
55.75941 118
55.77952 119
55.79963 102
55.81975 99
55.83986 99
55.85997 100
55.88009 114
55.9002 112
55.92031 95
55.94043 113
55.96054 100
55.98066 117
56.00077 105
56.02088 98
56.041 121
56.06111 104
56.08122 103
56.10134 114
56.12145 125
56.14157 105
56.16168 112
56.18179 132
56.20191 128
56.22202 136
56.24213 139
56.26225 148
56.28236 159
56.30248 168
56.32259 178
56.3427 161
56.36282 227
56.38293 194
56.40304 225
56.42316 235
56.44327 276
56.46338 279
56.4835 293
56.50361 324
56.52373 348
56.54384 332
56.56395 365
56.58407 285
56.60418 305
56.62429 293
56.64441 275
56.66452 297
56.68464 219
56.70475 249
56.72486 238
56.74498 210
56.76509 176
56.7852 175
56.80532 199
56.82543 178
56.84554 166
56.86566 175
56.88577 141
56.90589 130
56.926 164
56.94611 189
56.96623 162
56.98634 180
57.00645 162
57.02657 181
57.04668 195
57.0668 184
57.08691 221
57.10702 218
57.12714 216
57.14725 255
57.16736 257
57.18748 304
57.20759 337
57.22771 345
57.24782 429
57.26793 452
57.28805 541
57.30816 596
57.32827 634
57.34839 699
57.3685 615
57.38861 695
57.40873 697
57.42884 626
57.44896 604
57.46907 561
57.48918 518
57.5093 494
57.52941 437
57.54952 411
57.56964 381
57.58975 356
57.60987 350
57.62998 284
57.65009 259
57.67021 220
57.69032 207
57.71043 189
57.73055 178
57.75066 183
57.77078 148
57.79089 169
57.811 170
57.83112 159
57.85123 137
57.87134 170
57.89146 169
57.91157 156
57.93168 184
57.9518 185
57.97191 179
57.99203 195
58.01214 182
58.03225 191
58.05237 165
58.07248 180
58.09259 151
58.11271 148
58.13282 163
58.15294 167
58.17305 160
58.19316 145
58.21328 145
58.23339 162
58.2535 148
58.27362 124
58.29373 123
58.31385 128
58.33396 113
58.35407 100
58.37419 111
58.3943 80
58.41441 99
58.43453 109
58.45464 105
58.47475 108
58.49487 122
58.51498 120
58.5351 98
58.55521 113
58.57532 100
58.59544 97
58.61555 103
58.63566 120
58.65578 90
58.67589 105
58.69601 98
58.71612 106
58.73623 95
58.75635 111
58.77646 129
58.79657 99
58.81669 96
58.8368 114
58.85691 87
58.87703 89
58.89714 86
58.91726 102
58.93737 106
58.95748 104
58.9776 119
58.99771 92
59.01782 98
59.03794 95
59.05805 105
59.07817 111
59.09828 103
59.11839 99
59.13851 91
59.15862 105
59.17873 92
59.19885 102
59.21896 118
59.23908 78
59.25919 98
59.2793 89
59.29942 87
59.31953 101
59.33964 116
59.35976 102
59.37987 129
59.39998 96
59.4201 91
59.44021 93
59.46033 119
59.48044 98
59.50055 102
59.52067 86
59.54078 97
59.56089 103
59.58101 100
59.60112 91
59.62124 93
59.64135 105
59.66146 88
59.68158 108
59.70169 114
59.7218 112
59.74192 107
59.76203 112
59.78215 131
59.80226 143
59.82237 126
59.84249 146
59.8626 145
59.88271 136
59.90283 129
59.92294 142
59.94305 118
59.96317 121
59.98328 115
60.0034 128
60.02351 121
60.04362 106
60.06374 141
60.08385 149
60.10396 122
60.12408 133
60.14419 127
60.16431 108
60.18442 125
60.20453 126
60.22465 124
60.24476 130
60.26487 126
60.28499 140
60.3051 145
60.32522 154
60.34533 135
60.36544 156
60.38556 155
60.40567 162
60.42578 191
60.4459 193
60.46601 218
60.48612 243
60.50624 276
60.52635 347
60.54647 345
60.56658 383
60.58669 404
60.60681 451
60.62692 448
60.64703 406
60.66715 452
60.68726 457
60.70738 425
60.72749 412
60.7476 411
60.76772 390
60.78783 366
60.80794 362
60.82806 372
60.84817 380
60.86828 360
60.8884 360
60.90851 337
60.92863 349
60.94874 299
60.96885 327
60.98897 294
61.00908 299
61.02919 302
61.04931 266
61.06942 278
61.08954 273
61.10965 242
61.12976 272
61.14988 258
61.16999 227
61.1901 231
61.21022 224
61.23033 285
61.25045 240
61.27056 259
61.29067 281
61.31079 272
61.3309 282
61.35101 281
61.37113 257
61.39124 252
61.41135 234
61.43147 246
61.45158 222
61.4717 209
61.49181 197
61.51192 207
61.53204 183
61.55215 193
61.57226 176
61.59238 161
61.61249 157
61.63261 171
61.65272 166
61.67283 147
61.69295 122
61.71306 148
61.73317 155
61.75329 136
61.7734 131
61.79352 126
61.81363 103
61.83374 121
61.85386 94
61.87397 98
61.89408 119
61.9142 121
61.93431 110
61.95442 117
61.97454 112
61.99465 135
62.01477 103
62.03488 113
62.05499 122
62.07511 92
62.09522 104
62.11533 112
62.13545 126
62.15556 116
62.17568 111
62.19579 127
62.2159 114
62.23602 82
62.25613 102
62.27624 105
62.29636 111
62.31647 106
62.33659 120
62.3567 105
62.37681 105
62.39693 120
62.41704 129
62.43715 131
62.45727 106
62.47738 112
62.49749 94
62.51761 99
62.53772 105
62.55784 112
62.57795 105
62.59806 98
62.61818 115
62.63829 119
62.6584 114
62.67852 122
62.69863 110
62.71875 133
62.73886 113
62.75897 115
62.77909 126
62.7992 120
62.81931 124
62.83943 143
62.85954 127
62.87965 164
62.89977 160
62.91988 180
62.94 188
62.96011 202
62.98022 218
63.00034 210
63.02045 229
63.04056 197
63.06068 205
63.08079 179
63.10091 177
63.12102 176
63.14113 197
63.16125 185
63.18136 188
63.20147 173
63.22159 157
63.2417 177
63.26182 156
63.28193 143
63.30204 121
63.32216 124
63.34227 131
63.36238 107
63.3825 94
63.40261 114
63.42272 122
63.44284 105
63.46295 132
63.48307 122
63.50318 100
63.52329 111
63.54341 96
63.56352 113
63.58363 94
63.60375 103
63.62386 100
63.64398 99
63.66409 105
63.6842 93
63.70432 106
63.72443 103
63.74454 109
63.76466 116
63.78477 98
63.80489 112
63.825 119
63.84511 127
63.86523 124
63.88534 106
63.90545 112
63.92557 104
63.94568 120
63.96579 120
63.98591 128
64.00602 115
64.02614 115
64.04625 104
64.06636 117
64.08648 131
64.10659 112
64.1267 130
64.14682 113
64.16693 147
64.18705 125
64.20716 129
64.22727 121
64.24739 132
64.2675 119
64.28761 127
64.30773 129
64.32784 151
64.34796 154
64.36807 156
64.38818 169
64.4083 177
64.42841 176
64.44852 209
64.46864 227
64.48875 226
64.50886 276
64.52898 310
64.54909 338
64.56921 385
64.58932 440
64.60943 419
64.62955 472
64.64966 435
64.66977 464
64.68989 426
64.71 407
64.73012 356
64.75023 396
64.77034 355
64.79046 318
64.81057 346
64.83068 290
64.8508 269
64.87091 251
64.89102 237
64.91114 232
64.93125 184
64.95137 189
64.97148 174
64.99159 186
65.01171 179
65.03182 134
65.05193 152
65.07205 131
65.09216 132
65.11228 137
65.13239 145
65.1525 120
65.17262 137
65.19273 130
65.21284 137
65.23296 155
65.25307 115
65.27319 158
65.2933 151
65.31341 156
65.33353 170
65.35364 175
65.37375 185
65.39387 163
65.41398 173
65.43409 222
65.45421 228
65.47432 231
65.49444 288
65.51455 293
65.53466 288
65.55478 257
65.57489 259
65.595 272
65.61512 243
65.63523 247
65.65535 238
65.67546 236
65.69557 252
65.71569 246
65.7358 199
65.75591 200
65.77603 202
65.79614 197
65.81626 193
65.83637 173
65.85648 149
65.8766 158
65.89671 135
65.91682 136
65.93694 128
65.95705 113
65.97716 119
65.99728 125
66.01739 113
66.03751 125
66.05762 99
66.07773 109
66.09785 106
66.11796 114
66.13807 92
66.15819 101
66.1783 72
66.19842 83
66.21853 105
66.23864 101
66.25876 97
66.27887 82
66.29898 90
66.3191 120
66.33921 106
66.35933 86
66.37944 87
66.39955 87
66.41967 101
66.43978 103
66.45989 87
66.48001 92
66.50012 80
66.52023 98
66.54035 104
66.56046 93
66.58058 91
66.60069 75
66.6208 84
66.64092 87
66.66103 102
66.68114 76
66.70126 71
66.72137 74
66.74149 91
66.7616 101
66.78171 101
66.80183 83
66.82194 87
66.84205 81
66.86217 90
66.88228 69
66.90239 85
66.92251 80
66.94262 89
66.96274 86
66.98285 86
67.00296 80
67.02308 95
67.04319 78
67.0633 72
67.08342 81
67.10353 84
67.12365 94
67.14376 79
67.16387 86
67.18399 89
67.2041 84
67.22421 87
67.24433 85
67.26444 74
67.28456 89
67.30467 70
67.32478 79
67.3449 88
67.36501 101
67.38512 98
67.40524 102
67.42535 76
67.44546 71
67.46558 86
67.48569 92
67.50581 94
67.52592 91
67.54603 78
67.56615 119
67.58626 91
67.60637 100
67.62649 109
67.6466 109
67.66672 107
67.68683 108
67.70694 105
67.72706 114
67.74717 99
67.76728 107
67.7874 106
67.80751 93
67.82763 114
67.84774 105
67.86785 100
67.88797 127
67.90808 114
67.92819 136
67.94831 127
67.96842 111
67.98853 115
68.00865 94
68.02876 125
68.04888 125
68.06899 115
68.0891 125
68.10922 112
68.12933 113
68.14944 122
68.16956 102
68.18967 115
68.20979 124
68.2299 113
68.25001 113
68.27013 120
68.29024 97
68.31035 113
68.33047 102
68.35058 118
68.3707 98
68.39081 104
68.41092 91
68.43104 100
68.45115 102
68.47126 102
68.49138 122
68.51149 113
68.5316 95
68.55172 105
68.57183 86
68.59195 93
68.61206 80
68.63217 102
68.65229 91
68.6724 77
68.69251 90
68.71263 91
68.73274 102
68.75286 85
68.77297 92
68.79308 112
68.8132 97
68.83331 106
68.85342 102
68.87354 90
68.89365 89
68.91376 94
68.93388 89
68.95399 126
68.97411 124
68.99422 117
69.01433 134
69.03445 127
69.05456 137
69.07467 142
69.09479 145
69.1149 149
69.13502 151
69.15513 162
69.17524 122
69.19536 150
69.21547 130
69.23558 114
69.2557 143
69.27581 147
69.29593 126
69.31604 136
69.33615 128
69.35627 122
69.37638 138
69.39649 128
69.41661 121
69.43672 121
69.45683 110
69.47695 117
69.49706 101
69.51718 102
69.53729 105
69.5574 119
69.57752 104
69.59763 95
69.61774 95
69.63786 109
69.65797 99
69.67809 85
69.6982 98
69.71831 75
69.73843 84
69.75854 90
69.77865 107
69.79877 97
69.81888 101
69.839 105
69.85911 96
69.87922 104
69.89934 97
69.91945 101
69.93956 125
69.95968 117
69.97979 126
69.9999 124
70.02002 136
70.04013 135
70.06025 141
70.08036 170
70.10047 171
70.12059 180
70.1407 161
70.16081 192
70.18093 195
70.20104 171
70.22116 186
70.24127 151
70.26138 173
70.2815 182
70.30161 179
70.32172 177
70.34184 177
70.36195 182
70.38207 174
70.40218 159
70.42229 145
70.44241 144
70.46252 124
70.48263 120
70.50275 140
70.52286 131
70.54297 128
70.56309 122
70.5832 104
70.60332 104
70.62343 102
70.64354 102
70.66366 114
70.68377 96
70.70388 104
70.724 94
70.74411 102
70.76423 106
70.78434 96
70.80445 101
70.82457 85
70.84468 106
70.86479 96
70.88491 92
70.90502 89
70.92513 80
70.94525 98
70.96536 75
70.98548 86
71.00559 101
71.0257 88
71.04582 91
71.06593 95
71.08604 108
71.10616 99
71.12627 110
71.14639 102
71.1665 92
71.18661 96
71.20673 88
71.22684 108
71.24695 97
71.26707 120
71.28718 96
71.3073 122
71.32741 97
71.34752 94
71.36764 112
71.38775 91
71.40786 94
71.42798 88
71.44809 78
71.4682 80
71.48832 87
71.50843 87
71.52855 99
71.54866 78
71.56877 98
71.58889 108
71.609 110
71.62911 82
71.64923 83
71.66934 107
71.68946 96
71.70957 92
71.72968 95
71.7498 97
71.76991 112
71.79002 116
71.81014 102
71.83025 98
71.85037 93
71.87048 108
71.89059 100
71.91071 86
71.93082 95
71.95093 115
71.97105 103
71.99116 112
72.01127 116
72.03139 100
72.0515 114
72.07162 115
72.09173 108
72.11184 121
72.13196 121
72.15207 111
72.17218 100
72.1923 104
72.21241 96
72.23253 103
72.25264 128
72.27275 121
72.29287 126
72.31298 116
72.33309 125
72.35321 140
72.37332 112
72.39344 129
72.41355 127
72.43366 118
72.45378 136
72.47389 127
72.494 113
72.51412 125
72.53423 127
72.55434 119
72.57446 131
72.59457 138
72.61469 147
72.6348 140
72.65491 157
72.67503 159
72.69514 169
72.71525 190
72.73537 203
72.75548 173
72.7756 227
72.79571 222
72.81582 256
72.83594 246
72.85605 250
72.87616 253
72.89628 221
72.91639 238
72.9365 226
72.95662 228
72.97673 243
72.99685 215
73.01696 202
73.03707 205
73.05719 210
73.0773 182
73.09741 225
73.11753 179
73.13764 181
73.15776 178
73.17787 156
73.19798 156
73.2181 151
73.23821 139
73.25832 149
73.27844 153
73.29855 137
73.31867 141
73.33878 152
73.35889 142
73.37901 144
73.39912 156
73.41923 142
73.43935 137
73.45946 127
73.47957 151
73.49969 142
73.5198 138
73.53992 165
73.56003 151
73.58014 166
73.60026 140
73.62037 156
73.64048 136
73.6606 154
73.68071 147
73.70083 156
73.72094 164
73.74105 133
73.76117 118
73.78128 143
73.80139 133
73.82151 131
73.84162 159
73.86174 154
73.88185 138
73.90196 138
73.92208 118
73.94219 135
73.9623 149
73.98242 136
74.00253 132
74.02264 120
74.04276 135
74.06287 103
74.08299 121
74.1031 116
74.12321 129
74.14333 104
74.16344 108
74.18355 106
74.20367 109
74.22378 113
74.2439 113
74.26401 122
74.28412 115
74.30424 110
74.32435 104
74.34446 108
74.36458 101
74.38469 105
74.40481 131
74.42492 131
74.44503 120
74.46515 124
74.48526 111
74.50537 112
74.52549 117
74.5456 112
74.56571 126
74.58583 104
74.60594 107
74.62606 134
74.64617 103
74.66628 133
74.6864 115
74.70651 109
74.72662 124
74.74674 130
74.76685 142
74.78697 112
74.80708 96
74.82719 112
74.84731 117
74.86742 139
74.88753 116
74.90765 117
74.92776 114
74.94787 127
74.96799 98
74.9881 112
75.00822 128
