3.00117 21625.9675883899
3.02128 21351.8632299827
3.0414 20294
3.06151 20196.7919644361
3.08162 19348.3833939891
3.10174 19179.69763357
3.12185 18671.0018401366
3.14197 17940.5107635638
3.16208 17719.675590507
3.18219 16740.2683654208
3.20231 16701.8924809852
3.22242 16020.2486489216
3.24253 15533.6024398391
3.26265 15176.2372861648
3.28276 14338.9535682117
3.30288 14280.0595474211
3.32299 13860.3558818691
3.3431 13220
3.36322 13116.5198634341
3.38333 12357.4029606312
3.40344 12368.6858294032
3.42356 11770.4481413422
3.44367 11362.9154832808
3.46379 11427.2627816706
3.4839 10480
3.50401 10498.0533057687
3.52413 10203.005145454
3.54424 9510.19802952083
3.56435 9376.50047615347
3.58447 8962.64819962055
3.60458 8677.15796861919
3.62469 8482.1846684473
3.64481 8003.8135196686
3.66492 7758.70351322095
3.68504 7401.52339115504
3.70515 7286.60578311751
3.72526 6951.94501710522
3.74538 6564.10620204418
3.76549 6540.1654346597
3.7856 5997
3.80572 6090.03522955168
3.82583 5796.28311611042
3.84595 5400.5496475472
3.86606 5361.20052621801
3.88617 5108.4369788232
3.90629 4861.11345049168
3.9264 4624
3.94651 4435.97106338785
3.96663 4359.5336519409
3.98674 3936.62091482257
4.00686 4014.92045443328
4.02697 3815.49902515069
4.04708 3535.14123826692
4.0672 3462
4.08731 3234.93667504175
4.10742 3254.04306918035
4.12754 3161.47158389993
4.14765 2867.34663529661
4.16776 2854.19542252515
4.18788 2636.15876984452
4.20799 2626.97257951862
4.22811 2576.88148107181
4.24822 2300.92007445463
4.26833 2413.10250389864
4.28845 2323.68553393611
4.30856 2244.13687951769
4.32867 2142.21330580974
4.34879 2020.01557050948
4.3689 2061
4.38902 2010.90525461549
4.40913 1925.92694255671
4.42924 1884.82720055835
4.44936 1782.06905235428
4.46947 1807.01090372583
4.48958 1746.04350838003
4.5097 1778
4.52981 1788.89666055764
4.54992 1497.89607590237
4.57004 1616.21421237961
4.59015 1565.3101057254
4.61027 1501.9268844687
4.63038 1566.06866259763
4.65049 1401.03742514048
4.67061 1423.97189450564
4.69072 1287.96200792934
4.71083 1366.05356241797
4.73095 1293.7808511014
4.75106 1251.0552223371
4.77118 1239.96230241686
4.79129 1293.99752765531
4.8114 1247
4.83152 1223.93179339934
4.85163 1109.85000005211
4.87174 1086.11352162152
4.89186 1149.02178948371
4.91197 1087.01610159554
4.93209 1119.01812011633
4.9522 1031
4.97231 1107.02290026793
4.99243 1072.92995172025
5.01254 1056.98391876185
5.03265 1028.13731081918
5.05277 962.08300213327
5.07288 934.004461599198
5.09299 923.021665943074
5.11311 895.030774552902
5.13322 983.979334911947
5.15334 874.921930813906
5.17345 931.049336062265
5.19356 881.043755504995
5.21368 903.015732463278
5.23379 845.011242806113
5.2539 859
5.27402 798.988340067545
5.29413 833.997186348402
5.31425 789.979983500323
5.33436 810.074740645423
5.35447 727.045579814991
5.37459 771.977544845343
5.3947 755
5.41481 689.986688552044
5.43493 707.043613618176
5.45504 707.927765306097
5.47516 678.936301795363
5.49527 733.024616769718
5.51538 652.046190827065
5.5355 675
5.55561 661.9824470761
5.57572 623.960423193852
5.59584 608.064716628411
5.61595 653.008675040803
5.63606 614.995586762868
5.65618 654.002893557021
5.67629 591.031027432112
5.69641 588.027061752855
5.71652 644.003744321237
5.73663 600.954128594185
5.75675 595.93863334111
5.77686 558.992913631218
5.79697 609.921487417426
5.81709 619.016853263867
5.8372 575
5.85732 583.013622598027
5.87743 600.062965152616
5.89754 623.881650521404
5.91766 530.027192775831
5.93777 605.909206874918
5.95788 605.004364145767
5.978 615
5.99811 589.010792449132
6.01823 630.966481968442
6.03834 564.99130500483
6.05845 623.953514754593
6.07857 587.006557816941
6.09868 639.953638997645
6.11879 634.020333407868
6.13891 614.019422962317
6.15902 675.007745068394
6.17913 615.90365076553
6.19925 587.974212214984
6.21936 582.985803038756
6.23948 585.026966661345
6.25959 556.98836099748
6.2797 616
6.29982 587.964289385329
6.31993 581.01843894074
6.34004 594.009023753748
6.36016 592.989156619409
6.38027 599.01694292098
6.40039 566.02033362815
6.4205 539
6.44061 548.003660890663
6.46073 554.030899149341
6.48084 584.035701250313
6.50095 566.139670483442
6.52107 509.026962164659
6.54118 526.988969001396
6.56129 513.007070393847
6.58141 510.99888263036
6.60152 516.032044262274
6.62164 556.0168526945
6.64175 528.931572876873
6.66186 519.018361368073
6.68198 505.007285483594
6.70209 517.982357227344
6.7222 551
6.74232 526.978038824864
6.76243 520.992507647113
6.78255 528.112579428031
6.80266 582.980755301709
6.82277 555.005118186579
6.84289 566.023486889737
6.863 491
6.88311 573.033154034345
6.90323 581.004322094559
6.92334 596.987852897965
6.94346 574.992804286755
6.96357 607.963099585915
6.98368 601.024243581668
7.0038 575
7.02391 571.019469062652
7.04402 635.049478907998
7.06414 636.919818466216
7.08425 608.916868498228
7.10436 672.970807670378
7.12448 635.013374109673
7.14459 664.992545241593
7.16471 641.987346325342
7.18482 645.026739205972
7.20493 665.985002475237
7.22505 639.99543354076
7.24516 667.953657793427
7.26527 667.015613375457
7.28539 657.007160514703
7.3055 643
7.32562 637.97332032946
7.34573 616.045058716206
7.36584 663.968791859455
7.38596 583.130804427145
7.40607 596.883344340748
7.42618 672.977397639259
7.4463 638
7.46641 627.011003004491
7.48653 651.998799138223
7.50664 618.914064349869
7.52675 597.970907848338
7.54687 624.978231582891
7.56698 615.018814142194
7.58709 608.993498201232
7.60721 630.005752984784
7.62732 621.979707849985
7.64743 595.952190105273
7.66755 577.033855107972
7.68766 616.919804943341
7.70778 619.048883486227
7.72789 559.008720698269
7.748 586
7.76812 561.946272097062
7.78823 526.023784291801
7.80834 566.005081607406
7.82846 545.932887872002
7.84857 609.012652112582
7.86869 541.007029056672
7.8888 588
7.90891 521.974842612799
7.92903 533.053026661879
7.94914 548.978830676262
7.96925 532.982551446084
7.98937 545.043838658922
8.00948 498.991298845709
8.0296 552
8.04971 504.974660764829
8.06982 480.975906261959
8.08994 469.079379595202
8.11005 532.044973747647
8.13016 488.109470280184
8.15028 471.977935625181
8.17039 498.001933462664
8.1905 467
8.21062 477.02694729678
8.23073 493.99129804847
8.25085 460.870655812058
8.27096 434.926569150357
8.29107 490.012417473633
8.31119 428.011948935859
8.3313 458
8.35141 423.989351258346
8.37153 437.021425850071
8.39164 429.963832254887
8.41176 433.902293452268
8.43187 497.961705877761
8.45198 466.055049458545
8.4721 435
8.49221 455.999175609898
8.51232 429.984895542477
8.53244 433.992959504757
8.55255 430.9200328607
8.57266 470.034191679806
8.59278 409.028609126461
8.61289 433.988047480346
8.63301 426.993366187615
8.65312 422.996384922882
8.67323 416.996800789027
8.69335 429.075408154088
8.71346 461.968962331389
8.73357 447.0582060034
8.75369 414.001717651028
8.7738 439
8.79392 460.026399049915
8.81403 488.018168150011
8.83414 467.897590097181
8.85426 433.936695580361
8.87437 499.969385248234
8.89448 471.002426393351
8.9146 489
8.93471 394.975284636561
8.95483 420.053563484657
8.97494 419.961944133261
8.99505 388.13662340626
9.01517 351.947364919804
9.03528 419.990692725082
9.05539 374.003151896589
9.07551 415.000400701734
9.09562 367.984978932228
9.11573 409.062504802905
9.13585 400.866337365864
9.15596 351.995421852409
9.17608 400.955302725665
9.19619 409.005451927551
9.2163 397
9.23642 380.979178992005
9.25653 363.996629673166
9.27664 375.024041381866
9.29676 383.972575319484
9.31687 387.04673379916
9.33699 362.97576241859
9.3571 443
9.37721 360.964305702162
9.39733 356.032719422861
9.41744 368.010001046154
9.43755 372.977982342426
9.45767 383.988861339898
9.47778 389.98774237477
9.4979 391
9.51801 341.993449245879
9.53812 373.034408899247
9.55824 385.007463512087
9.57835 386.981059136502
9.59846 371.030148809102
9.61858 364.997641018728
9.63869 369.998696338733
9.6588 370
9.67892 375.00373974141
9.69903 372.987731732003
9.71915 366.005267776719
9.73926 375.982695732864
9.75937 381.983572837761
9.77949 384.014303161268
9.7996 347
9.81971 389.023608244281
9.83983 414.017976375919
9.85994 410.940812289034
9.88006 375.01945633282
9.90017 396.959453235967
9.92028 402.017764389288
9.9404 384
9.96051 402.999682030399
9.98062 374.970251104445
10.00074 366.018563650091
10.02085 378.98877478275
10.04097 369.027515036379
10.06108 361.981836637223
10.08119 390.994383490515
10.10131 378.99385732432
10.12142 374.990194870258
10.14153 360.996620991848
10.16165 371.017435736814
10.18176 370.991745991984
10.20187 374.0218500051
10.22199 353.998229924837
10.2421 377
10.26222 357.971149781431
10.28233 342.002521928344
10.30244 354.020597163959
10.32256 355.008179909836
10.34267 348.017816926688
10.36278 355.94544299828
10.3829 406
10.40301 318.984497304563
10.42313 371.079873984557
10.44324 376.981565856355
10.46335 374.01853018582
10.48347 358.026557737522
10.50358 354.978509469662
10.52369 381.998366421072
10.54381 361.993212324475
10.56392 371.018291869714
10.58403 376.9777141142
10.60415 348.938338285488
10.62426 338.999455141132
10.64438 347.979245699723
10.66449 370.993913029753
10.6846 373
10.70472 378.990852401512
10.72483 360.993235869683
10.74494 371.006862198438
10.76506 370.958962531176
10.78517 394.025370631944
10.80529 345.015054264718
10.8254 347
10.84551 329.998590676718
10.86563 353.048335809921
10.88574 364.956573165112
10.90585 331.027081218766
10.92597 343.996180469151
10.94608 330.999273261159
10.9662 359
10.98631 384.000273544237
11.00642 370.994373368186
11.02654 369.960358409179
11.04665 342.003727753949
11.06676 372.930362223541
11.08688 384.012345506848
11.10699 351.025480783282
11.1271 317
11.14722 372.048622057212
11.16733 394.028419599055
11.18745 410.979914270203
11.20756 382.044946098576
11.22767 371.031825932205
11.24779 349.994043632349
11.2679 381
11.28801 348.985875346577
11.30813 355.048242144746
11.32824 386.020201201959
11.34836 374.031581237291
11.36847 357.050103241068
11.38858 328.984847096653
11.4087 376
11.42881 379.008556022077
11.44892 398.970983036334
11.46904 337.952810290586
11.48915 362.960142879822
11.50927 363.943791391708
11.52938 418.00188710945
11.54949 370.005847892192
11.56961 408.009334043052
11.58972 395.011497150191
11.60983 427.992765447559
11.62995 383.936628954788
11.65006 398.960559890304
11.67017 396.026465845038
11.69029 391.984983113702
11.7104 432
11.73052 406.995291840817
11.75063 416.953978095387
11.77074 350.919877711803
11.79086 377.851665747962
11.81097 436.004545590505
11.83108 387.034680690837
11.8512 395
11.87131 396.993769337896
11.89143 392.032560053104
11.91154 415.964898895593
11.93165 381.953342455946
11.95177 438.982778481651
11.97188 405.992602753002
11.99199 464.981857514209
12.01211 444.981979859801
12.03222 438.027413743679
12.05234 477.043975520771
12.07245 471.964578858702
12.09256 469.972528757373
12.11268 471.043689014999
12.13279 423.988048871943
12.1529 512
12.17302 528.005479143529
12.19313 553.045502065929
12.21324 568.991000435617
12.23336 540.101529463166
12.25347 507.961359145939
12.27359 568.983101383328
12.2937 552
12.31381 546.007947653305
12.33393 547.930955266455
12.35404 497.043547500753
12.37415 570.932056142557
12.39427 527.061692211472
12.41438 525.000039777932
12.4345 508
12.45461 497.990538469681
12.47472 457.941778897427
12.49484 419.032181290992
12.51495 460.000652578461
12.53506 416.048131927285
12.55518 437.969513848738
12.57529 450.996727216544
12.5954 449
12.61552 417.990247694027
12.63563 435.031800182668
12.65575 424.864114295926
12.67586 363.036577367595
12.69597 383.99141868796
12.71609 364.999213958001
12.7362 390
12.75631 377.005375466099
12.77643 408.00731614684
12.79654 370.902939013304
12.81666 341.020807806075
12.83677 350.953749893707
12.85688 376.008559108808
12.877 346
12.89711 358.000056108797
12.91722 329.963018181329
12.93734 328.116896573554
12.95745 399.970819233028
12.97757 353.046324456993
12.99768 362.998739344658
13.01779 344.000478081459
13.03791 368.008708470972
13.05802 357.972969828403
13.07813 333.983799701388
13.09825 328.959309256803
13.11836 317.94388654676
13.13847 361.000601225906
13.15859 320.010032060015
13.1787 336
13.19882 324.007946099749
13.21893 352.015157064404
13.23904 324.908692717142
13.25916 294.994753303171
13.27927 321.960190796907
13.29938 331.998282029507
13.3195 332
13.33961 329.001714121076
13.35973 332.989179400364
13.37984 318.990992582042
13.39995 322.018847398286
13.42007 308.99265689539
13.44018 325.003212708036
13.46029 315.98552735872
13.48041 369.009307953222
13.50052 335.956098317247
13.52064 311.973831119392
13.54075 309.039378877354
13.56086 328.998498360481
13.58098 311.012915542933
13.60109 319.987994214003
13.6212 346
13.64132 357.001215323935
13.66143 351.987565702226
13.68154 357.064024103862
13.70166 386.036787837659
13.72177 336.03199760414
13.74189 366.976665589442
13.762 419
13.78211 508.022441936355
13.80223 508.00555216864
13.82234 577.293451754783
13.84245 732.801321929178
13.86257 729.018480415918
13.88268 736.021164312499
13.9028 675
13.92291 618.964012770796
13.94302 536.939943784771
13.96314 502.932134478775
13.98325 460.083801877628
14.00336 439.045094519994
14.02348 409.028479007138
14.04359 402.985515630593
14.06371 427.984581403888
14.08382 358.962900123706
14.10393 376.036452864633
14.12405 361.871557764762
14.14416 303.072348835972
14.16427 303.964665768333
14.18439 333.982832541021
14.2045 348
14.22461 289.976312332551
14.24473 289.064666675471
14.26484 346.084567205704
14.28496 345.0900838778
14.30507 302.985837673308
14.32518 344.993126781694
14.3453 307
14.36541 332.02668456674
14.38552 359.969392062437
14.40564 295.922811432659
14.42575 313.881112681241
14.44587 337.043851368498
14.46598 283.022772404894
14.48609 307.983226572855
14.50621 327.009955355501
14.52632 338.979338906601
14.54643 304.995431444572
14.56655 334.045436443979
14.58666 318.061542396056
14.60677 303.976918931629
14.62689 328.00057854987
14.647 302
14.66712 311.01713142023
14.68723 322.011721070561
14.70734 334.040568737824
14.72746 350.010985805367
14.74757 328.024542924506
14.76768 325.00375910958
14.7878 316
14.80791 326.012191394224
14.82803 342.981133355524
14.84814 315.991793854851
14.86825 337.965140031831
14.88837 334.992508220789
14.90848 353.986229451202
14.92859 350.007625528083
14.94871 347.013197446645
14.96882 393.038089992609
14.98894 416.05429470061
15.00905 432.931709021446
15.02916 393.967115023163
15.04928 436.02931023603
15.06939 338.033002800737
15.0895 351
15.10962 351.949639484185
15.12973 294.992017591636
15.14984 324.982827034707
15.16996 281.997828701403
15.19007 333.953052679877
15.21019 313.016724913749
15.2303 308
15.25041 342.010048700824
15.27053 334.962725392799
15.29064 311.979451497225
15.31075 320.939871473671
15.33087 340.999181790571
15.35098 314.046936944642
15.3711 278
15.39121 302.007062887268
15.41132 285.968042509655
15.43144 277.078385164835
15.45155 334.947399465864
15.47166 310.050391412859
15.49178 315.97710948648
15.51189 326.009341996376
15.53201 284.979702418614
15.55212 278.037903521105
15.57223 328.026189105254
15.59235 316.013628363248
15.61246 336.030616239601
15.63257 302.974626665408
15.65269 363.98462570464
15.6728 344
15.69291 357.009179933461
15.71303 348.93831716639
15.73314 313.029453577822
15.75326 365.934886285685
15.77337 356.025500963521
15.79348 356.991431634741
15.8136 373
15.83371 406.001952539894
15.85382 387.99564820527
15.87394 395.967393372887
15.89405 352.093693839299
15.91417 339.005390278332
15.93428 332.007915168568
15.95439 318.013709586358
15.97451 291.999126182504
15.99462 317.031514589654
16.01473 327.974604632854
16.03485 301.978287597751
16.05496 307.021677417385
16.07508 286.992631652228
16.09519 316.994458618749
16.1153 296
16.13542 286.998504430349
16.15553 293.032755813249
16.17564 328.073319402575
16.19576 350.991255748943
16.21587 339.032397077602
16.23598 319.013449656323
16.2561 312
16.27621 308.000784590587
16.29633 313.002931389883
16.31644 314.017009096054
16.33655 319.044993526168
16.35667 287.025513143464
16.37678 305.952948251276
16.39689 342.003564214553
16.41701 305.990810909623
16.43712 318.009127116111
16.45724 315.017388782467
16.47735 323.935194510643
16.49746 269.08377770758
16.51758 271.961293240672
16.53769 303.005810290885
16.5578 274
16.57792 334.048638577994
16.59803 333.955588215356
16.61814 304.966283694465
16.63826 306.967105259511
16.65837 315.028539105722
16.67849 276.016322132222
16.6986 272
16.71871 310.024563633165
16.73883 346.004607605758
16.75894 319.936325889699
16.77905 307.972673847324
16.79917 328.977354824067
16.81928 324.023474645409
16.8394 310
16.85951 340.992723867802
16.87962 300.00609465355
16.89974 351.040484384548
16.91985 321.060698494663
16.93996 317.049126085832
16.96008 279.002586872525
16.98019 313.98711392723
17.00031 305.990063663573
17.02042 300.011996594559
17.04053 311.984735032642
17.06065 288.989392384287
17.08076 308.963731766004
17.10087 312.995141012246
17.12099 314.008085467704
17.1411 285
17.16121 279.000038976116
17.18133 287.041685374017
17.20144 322.034445016832
17.22156 328.943188960274
17.24167 359.030884371936
17.26178 304.020270836384
17.2819 321
17.30201 271.986376936857
17.32212 290.028599155487
17.34224 300.998701594145
17.36235 297.012725848603
17.38247 295.990830495125
17.40258 305.992550431863
17.42269 310.995560128313
17.44281 322.002386912632
17.46292 322.004841383871
17.48303 325.981706477006
17.50315 293.900489022818
17.52326 275.955435854013
17.54338 318.974540089311
17.56349 315.003805563683
17.5836 323
17.60372 329.984598977581
17.62383 307.9997428847
17.64394 327.014620493928
17.66406 318.992486988799
17.68417 336.988770680071
17.70428 331.994795890681
17.7244 345
17.74451 320.989971251828
17.76463 312.983853117908
17.78474 309.054627229167
17.80485 347.985644872452
17.82497 312.062181986902
17.84508 300.9802410678
17.86519 324.999459375972
17.88531 315.008904137828
17.90542 344.987447934224
17.92554 296.956981987287
17.94565 321.06862668613
17.96576 323.021455133071
17.98588 315.002583644921
18.00599 321.990980645793
18.0261 342
18.04622 336.98275159324
18.06633 314.966061841092
18.08645 310.068198639405
18.10656 348.970445837923
18.12667 326.058379320327
18.14679 315.978779656378
18.1669 374
18.18701 327.972118257706
18.20713 302.998399453887
18.22724 320.07262103028
18.24735 354.973168009093
18.26747 345.007361023536
18.28758 349.009047554258
18.3077 318
18.32781 301.011726235843
18.34792 342.017289948257
18.36804 323.951725923672
18.38815 319.965968983081
18.40826 334.994790073983
18.42838 322.017897876787
18.44849 323.981921909922
18.46861 358.991784308693
18.48872 298.954789081653
18.50883 305.05449788976
18.52895 331.996003300854
18.54906 312.018090957879
18.56917 318.005848070842
18.58929 305.996582227848
18.6094 324
18.62951 296.994294739518
18.64963 315.036641639311
18.66974 323.988395278108
18.68986 323.949016175001
18.70997 355.00551855028
18.73008 319.025398991428
18.7502 318
18.77031 295.988893370711
18.79042 299.037484120222
18.81054 331.959440019381
18.83065 283.009877051833
18.85077 332.941320235539
18.87088 318.047884396901
18.89099 293.981944214956
18.91111 351.00085076458
18.93122 307.998692593083
18.95133 360.046040094869
18.97145 331.874425168313
18.99156 315.922203482435
19.01168 367.000723648903
19.03179 314.020851418736
19.0519 314
19.07202 319.019452412264
19.09213 341.994791935168
19.11224 313.958572079297
19.13236 314.988456451745
19.15247 322.963183416658
19.17258 361.963792497401
19.1927 383
19.21281 390.004176108223
19.23293 409.051725496096
19.25304 453.083744116557
19.27315 480.968571642467
19.29327 481.013390481397
19.31338 462.033488659891
19.33349 439.989729195451
19.35361 463.978548812421
19.37372 381.97778140555
19.39384 426.037341571885
19.41395 396.979415629643
19.43406 427.959790096222
19.45418 416.015553242747
19.47429 418.992369660552
19.4944 425
19.51452 405.017662783951
19.53463 451.03873469992
19.55475 432.905770376154
19.57486 406.01822652871
19.59497 414.968886133893
19.61509 428.004124868155
19.6352 422
19.65531 475.007834692084
19.67543 444.958983815403
19.69554 451.044636635522
19.71565 470.961310923328
19.73577 481.987922113035
19.75588 494.976035774511
19.776 520
19.79611 523.010896414766
19.81622 562.028795197015
19.83634 566.98849837698
19.85645 562.0143544847
19.87656 555.01402930038
19.89668 554.987116810583
19.91679 563.010344220519
19.93691 529.9976816667
19.95702 555.015468759128
19.97713 543.976630389596
19.99725 528.923031029068
20.01736 493.026419642266
20.03747 504.981512139647
20.05759 492.019508263806
20.0777 468
20.09782 521.994913000888
20.11793 481.038210277917
20.13804 559.028299923993
20.15816 486.133091109255
20.17827 488.934762503351
20.19838 522.997186300796
20.2185 507
20.23861 521.998762046883
20.25872 509.016666422008
20.27884 549.033041290711
20.29895 541.961114755137
20.31907 572.015470484566
20.33918 524.027713076339
20.35929 521.015599828252
20.37941 477.006179781172
20.39952 537.029704444364
20.41963 509.950547814501
20.43975 504.009499831495
20.45986 502.012098113779
20.47998 514.946811252557
20.50009 571.000459373423
20.5202 522
20.54032 538.01622157945
20.56043 525.962999988808
20.58054 508.991772656329
20.60066 526.912324140914
20.62077 567.993003051387
20.64088 530.053198676329
20.661 514
20.68111 593.026616233747
20.70123 613.053297338607
20.72134 675.099322877143
20.74145 748.574441234962
20.76157 1000.63896542266
20.78168 1244.65241616433
20.80179 1693.78149302977
20.82191 2063.17309727743
20.84202 2373.2050198469
20.86214 2438.91058999589
20.88225 2279.23732591998
20.90236 1856.94025766204
20.92248 1416.38780889592
20.94259 1085.14022317848
20.9627 821
20.98282 602.908504815384
21.00293 607.996194846855
21.02305 557.917623377152
21.04316 555.046900870343
21.06327 519.979579501303
21.08339 558.011241309479
21.1035 477
21.12361 487.009126122002
21.14373 495.04895431168
21.16384 541.025143077653
21.18395 512.079953969836
21.20407 498.019322282113
21.22418 470.041844218509
21.2443 441
21.26441 489.028912963617
21.28452 504.949431250575
21.30464 439.996173973904
21.32475 504.85554503385
21.34486 515.011312396427
21.36498 511.017151789865
21.38509 479.016563237366
21.40521 479.027088246447
21.42532 534.983583409359
21.44543 467.96748167483
21.46555 501.005105357593
21.48566 456.04438568844
21.50577 470.008385792907
21.52589 439.002980974208
21.546 474
21.56612 500.022656879011
21.58623 509.963168600168
21.60634 471.98359178081
21.62646 491.992809278724
21.64657 477.98251219552
21.66668 503.017586060158
21.6868 445
21.70691 459.022239275534
21.72702 494.007859227801
21.74714 478.967307308727
21.76725 492.864439203964
21.78737 535.050397133729
21.80748 480.955167551492
21.82759 589.991044623991
21.84771 500.971790721392
21.86782 559.115688748978
21.88793 652.066589107046
21.90805 689.23668030669
21.92816 867.560905595401
21.94828 1078.81099558032
21.96839 1297.84596656212
21.9885 1680
22.00862 2023.3661625592
22.02873 2315.08718820836
22.04884 2170.68245921838
22.06896 2048.4357160832
22.08907 1691.59979904112
22.10919 1328.16588516609
22.1293 1013
22.14941 759.91223488661
22.16953 644.851238219946
22.18964 540.836927234473
22.20975 505.972750025425
22.22987 534.969293496838
22.24998 517.059805593577
22.27009 453.012915649573
22.29021 475.018818269985
22.31032 485.973673327128
22.33044 443.950064529636
22.35055 457.100030812116
22.37066 478.067090148832
22.39078 420.016390271229
22.41089 449.9923428493
22.431 430
22.45112 434.999807682374
22.47123 423.996629827248
22.49135 447.112964649713
22.51146 475.052708354778
22.53157 415.053264087099
22.55169 424.990577922313
22.5718 427
22.59191 421.994331109869
22.61203 420.042933891118
22.63214 459.01490652874
22.65225 434.041338656744
22.67237 447.961231395357
22.69248 460.009289334431
22.7126 431
22.73271 406.002695488167
22.75282 432.020793426401
22.77294 428.959945783683
22.79305 415.971046479271
22.81316 445.951060251748
22.83328 450.007838150305
22.85339 441.003986830716
22.87351 437.000463397724
22.89362 444.013238218523
22.91373 477.098430594018
22.93385 542.042157259586
22.95396 508.081010987237
22.97407 529.836007943857
22.99419 674.949493038382
23.0143 703
23.03442 734.062772390708
23.05453 779.963420532595
23.07464 694.835572192493
23.09476 668.955570646974
23.11487 674.103111295593
23.13498 553.092925460979
23.1551 516
23.17521 461.973451631827
23.19532 440.017042904549
23.21544 466.999842210642
23.23555 434.085914222191
23.25567 428.963578009244
23.27578 463.973428076021
23.29589 464.013007393778
23.31601 440.002975845058
23.33612 470.020202587652
23.35623 476.030933646848
23.37635 511.049506304534
23.39646 521.925914298774
23.41658 593.920648107286
23.43669 669.956359359413
23.4568 784
23.47692 934.146139062387
23.49703 1102.33918371557
23.51714 1335.2931919677
23.53726 1366.05058495243
23.55737 1344.02907313105
23.57749 1288.06498857258
23.5976 1059
23.61771 773.920376479344
23.63783 721.913772267219
23.65794 614.828282432079
23.67805 564.17423370162
23.69817 483.042405933516
23.71828 503.996751237468
23.73839 485.987829232363
23.75851 533.994370394911
23.77862 471.978700952997
23.79874 500.996355740251
23.81885 465.018089450868
23.83896 515.965016334707
23.85908 487.011742271361
23.87919 505.00171265031
23.8993 479
23.91942 513.020777237366
23.93953 496.953160049584
23.95965 497.141373103617
23.97976 570.949064082962
23.99987 553.983462823773
24.01999 603.985691192323
24.0401 604
24.06021 677.047119400839
24.08033 769.13770422932
24.10044 881.295251987007
24.12056 1042.73299397994
24.14067 1128.91512356629
24.16078 1215.84333859906
24.1809 1372
24.20101 1363.05765323287
24.22112 1584.13020335656
24.24124 1594.10572296984
24.26135 1712.89366887843
24.28146 1648.12459721037
24.30158 1584.17853783073
24.32169 1300.13087071425
24.34181 1100.89180008316
24.36192 851.789861183412
24.38203 732.938371969583
24.40215 684.690229840279
24.42226 528.147829998014
24.44237 553.95494015911
24.46249 533.015588488891
24.4826 519
24.50272 496.962615307166
24.52283 477.050938214877
24.54294 531.006641774386
24.56306 481.069900047635
24.58317 495.951580243116
24.60328 505.022561483931
24.6234 472
24.64351 489.01440808138
24.66362 503.99371117518
24.68374 501.064352462956
24.70385 550.956209822598
24.72397 533.010508444117
24.74408 555.974682168434
24.76419 564.000856648368
24.78431 556.992271729965
24.80442 534.976954084613
24.82453 521.000324961925
24.84465 541.100649885752
24.86476 588.917617680938
24.88488 588.065238058356
24.90499 510.007871815866
24.9251 543
24.94522 492.990254605704
24.96533 547.086444508882
24.98544 572.029726955296
25.00556 572.084726420885
25.02567 520.000852235164
25.04579 554.004782028291
25.0659 497
25.08601 515.006105002584
25.10613 501.99368434956
25.12624 516.015561106253
25.14635 509.014953145091
25.16647 506.020563913045
25.18658 491.989871410492
25.20669 516.997049542616
25.22681 504.001084858442
25.24692 540.054203642494
25.26704 586.051531767396
25.28715 596.024219764356
25.30726 619.926778454682
25.32738 664.950513356851
25.34749 721.965058697174
25.3676 794
25.38772 826.016476188624
25.40783 819.933372872503
25.42795 750.842684277486
25.44806 709.068978429337
25.46817 671.055798638811
25.48829 641.009859341641
25.5084 639
25.52851 651.985216954235
25.54863 599.971957454685
25.56874 620.018382853377
25.58886 592.083206017591
25.60897 567.996681273348
25.62908 582.994306338763
25.6492 562
25.66931 534.009704390944
25.68942 572.99808384292
25.70954 520.898383009497
25.72965 509.956834859181
25.74976 525.012105253494
25.76988 507.001779276362
25.78999 533.98002995476
25.81011 557.997098593924
25.83022 527.965290107977
25.85033 518.038014539166
25.87045 558.05764502341
25.89056 557.002715721521
25.91067 562.008726998732
25.93079 543.008524634488
25.9509 535
25.97102 524.989606535776
25.99113 513.978191434492
26.01124 513.065597706441
26.03136 556.977297284645
26.05147 532.032805234595
26.07158 535.986652432081
26.0917 537
26.11181 528.014665743371
26.13193 577.028087946851
26.15204 545.898157718687
26.17215 537.82925447125
26.19227 621.993329695441
26.21238 566.001905731538
26.23249 627.98962483307
26.25261 596.004322702445
26.27272 676.088235937573
26.29283 732.066372315683
26.31295 790.187815975714
26.33306 864.897276700154
26.35318 931.857749529915
26.37329 1087.9775138078
26.3934 1061
26.41352 1220.09589964251
26.43363 1186.89269278539
26.45374 1221.38750373258
26.47386 1509.48510092372
26.49397 1746.48572966863
26.51409 2301.63292264823
26.5342 3178
26.55431 4280.60211910284
26.57443 5695.54968126662
26.59454 7540.44125600163
26.61465 8981.94251579173
26.63477 9726.14692993091
26.65488 8755.51308200417
26.67499 7086.86382564566
26.69511 5443.27171145837
26.71522 4150.79625621213
26.73534 2921.49837170951
26.75545 1766.73550313948
26.77556 1179.64957823247
26.79568 964.188883239701
26.81579 785.048011717454
26.8359 772
26.85602 734.94831048763
26.87613 705.010897564077
26.89625 707.855148767546
26.91636 603.15824485783
26.93647 580.009972592194
26.95659 567.999413516133
26.9767 572
26.99681 535.995564463768
27.01693 539.942855846382
27.03704 471.939749732072
27.05716 495.945681941436
27.07727 506.961163625789
27.09738 525.044221115877
27.1175 457
27.13761 529.023840925945
27.15772 517.98905272945
27.17784 528.992359725187
27.19795 493.119948744036
27.21806 467.972131799332
27.23818 503.975330669523
27.25829 512.989118423472
27.27841 546.006794136025
27.29852 528.971533293619
27.31863 513.002715106206
27.33875 536.1057737011
27.35886 581.931170706113
27.37897 584.055763582461
27.39909 549.990479623499
27.4192 607
27.43932 600.012098423798
27.45943 631.995292292153
27.47954 607.042233340411
27.49966 671.924977842324
27.51977 652.055968871819
27.53988 651.947969681213
27.56 716
27.58011 725.04307511063
27.60023 896.259482415949
27.62034 1032.27603204045
27.64045 1222.37977417296
27.66057 1491.64029946785
27.68068 1733.6817884396
27.70079 2049.92365812148
27.72091 2050.00745540192
27.74102 2119.99695097122
27.76113 1986.71280696826
27.78125 1865.02009608021
27.80136 1966.80151829143
27.82148 2055.83576697645
27.84159 2364.78430910934
27.8617 2842
27.88182 3301.53820299091
27.90193 3882.74380090713
27.92204 4150.02208266164
27.94216 3920.84807487333
27.96227 3401.82118826934
27.98239 2870.26016407544
28.0025 2348
28.02261 1871.7997406304
28.04273 1574.71429325507
28.06284 1460.87251803455
28.08295 1393.24121418022
28.10307 1337.87476612561
28.12318 1481.97277660915
28.1433 1354
28.16341 1277.9696673159
28.18352 1229.01337305021
28.20364 1282.03866016114
28.22375 1256.98088385693
28.24386 1298.87684137626
28.26398 1326.0330137867
28.28409 1227.07203946879
28.3042 1079
28.32432 979.918173615418
28.34443 882.805025498162
28.36455 745.757888200136
28.38466 678.186137458476
28.40477 570.082462000127
28.42489 567.009443126389
28.445 509
28.46511 487.994714370851
28.48523 470.970623164356
28.50534 454.980841842339
28.52546 447.027137465584
28.54557 435.989107428176
28.56568 461.970866309167
28.5858 477
28.60591 459.985273703381
28.62602 433.990873829532
28.64614 423.916970445913
28.66625 383.934884455068
28.68636 444.005654973235
28.70648 387.004994929135
28.72659 452.975292760989
28.74671 433.973842473658
28.76682 390.974850837835
28.78693 383.001164370483
28.80705 392.062790041967
28.82716 416.005730032241
28.84727 401.976077233633
28.86739 436.999259908351
28.8875 407
28.90762 420.978227470854
28.92773 364.952528913371
28.94784 387.094522306921
28.96796 415.016678987952
28.98807 391.998999409814
29.00818 412.003482039127
29.0283 392
29.04841 433.006232834067
29.06853 408.981058685668
29.08864 426.03480148967
29.10875 420.060041862643
29.12887 402.984947480409
29.14898 425.001387910443
29.16909 398.009633199547
29.18921 404.007870685041
29.20932 402.971156128622
29.22943 371.001607421809
29.24955 406.084486657125
29.26966 406.063577970459
29.28978 364.032041503011
29.30989 362.984239223406
29.33 401
29.35012 398.007755748004
29.37023 415.996299863891
29.39034 386.938114093478
29.41046 377.974227082585
29.43057 397.981431696483
29.45069 403.992356766253
29.4708 416
29.49091 377.993181605515
29.51103 412.093845674462
29.53114 454.98633412574
29.55125 411.094768515689
29.57137 401.999216351357
29.59148 388.032876333095
29.6116 379
29.63171 465.006464498816
29.65182 403.960256447487
29.67194 429.077770288122
29.69205 439.978656062044
29.71216 432.985740949517
29.73228 451.984144417261
29.75239 455.002430247383
29.7725 463
29.79262 507.014237339091
29.81273 490.984978830544
29.83285 492.960234667873
29.85296 467.989916509237
29.87307 501.965907607634
29.89319 487.019532496186
29.9133 472
29.93341 548.022403096487
29.95353 545.996215230991
29.97364 586.158033674462
29.99376 673.864972133039
30.01387 717.934249542678
30.03398 780.923502101212
30.0541 858
30.07421 921.034677339727
30.09432 958.955965128126
30.11444 861.860721308133
30.13455 843.057659049987
30.15467 803.020314003443
30.17478 818.994622893461
30.19489 810.992008974144
30.21501 840.998127249055
30.23512 781.912238185124
30.25523 695.882885104337
30.27535 632.888541727527
30.29546 604.035357644112
30.31557 600.969714380534
30.33569 625.998794155085
30.3558 619
30.37592 675.048052935338
30.39603 714.101004792601
30.41614 812.183643374596
30.43626 908.708362305309
30.45637 1059.9044992855
30.47648 1023.05937182014
30.4966 979
30.51671 872.941631599303
30.53683 778.906919316485
30.55694 722.834630147461
30.57705 610.275537640573
30.59717 540.032127798538
30.61728 520.073076308412
30.63739 427.011661188287
30.65751 467.003943502192
30.67762 410.943744593035
30.69773 402.034973791378
30.71785 420.982222952518
30.73796 397.019483735511
30.75808 415.968739495846
30.77819 435.000963199475
30.7983 407
30.81842 370.009422990617
30.83853 413.046207271014
30.85864 404.943135872388
30.87876 384.006957004254
30.89887 401.949597486753
30.91899 420.011772942699
30.9391 378
30.95921 401.005299207211
30.97933 371.925777537912
30.99944 346.046515018931
31.01955 398.908410901717
31.03967 403.000030398328
31.05978 411.000703400202
31.0799 409
31.10001 448.013961466167
31.12012 452.998774609187
31.14024 473.103423746585
31.16035 543.837053275516
31.18046 582.969696606437
31.20058 606.937554208164
31.22069 681.984796466071
31.2408 663
31.26092 648.938148638307
31.28103 552.903363927925
31.30115 540.993872917316
31.32126 514.083607296385
31.34137 481.013744970415
31.36149 474.020564539424
31.3816 417
31.40171 435.998410117034
31.42183 403.986719960939
31.44194 434.065925484344
31.46206 443.013368645316
31.48217 438.987264491228
31.50228 446.018391710138
31.5224 404
31.54251 401.020545894936
31.56262 448.006231548249
31.58274 404.891310164758
31.60285 374.023363637279
31.62297 372.009512581347
31.64308 362.001081288312
31.66319 371.994694672603
31.68331 373.997227202126
31.70342 374.017563229756
31.72353 393.992546324071
31.74365 359.90071018805
31.76376 334.029790582148
31.78387 329.984815952407
31.80399 342.999417799459
31.8241 334
31.84422 343.010093157009
31.86433 336.95697210629
31.88444 320.071987132842
31.90456 374.010272911715
31.92467 324.005882488693
31.94478 375.973646707952
31.9649 348
31.98501 356.016287953686
32.00513 384.010134307228
32.02524 378.011852216939
32.04535 396.979494856541
32.06547 391.995538337928
32.08558 400.011190048573
32.10569 374.005918922267
32.12581 390.014323796266
32.14592 393.956854104952
32.16604 338.983252939318
32.18615 371.021313756605
32.20626 346.009664280902
32.22638 382.953417728281
32.24649 395.01762830839
32.2666 344
32.28672 354.000178510892
32.30683 326.955300409492
32.32694 317.017364982698
32.34706 343.909076389163
32.36717 378.01312875235
32.38729 335.018469433341
32.4074 341
32.42751 377.990453044836
32.44763 321.96027637146
32.46774 350.083808501478
32.48785 362.054383654214
32.50797 326.039937965626
32.52808 340.93459224133
32.5482 397
32.56831 321.985645687262
32.58842 364.039888586408
32.60854 360.970773912726
32.62865 349.064934611157
32.64876 331.935732879182
32.66888 389.98070392716
32.68899 352.024701665776
32.7091 343
32.72922 389.007537577708
32.74933 354.951022342514
32.76945 349.009564767237
32.78956 349.995147063658
32.80967 358.975613911027
32.82979 375.994948389261
32.8499 371
32.87001 356.006780017519
32.89013 393.048477074613
32.91024 402.994587805833
32.93036 406.959738431972
32.95047 423.027241796024
32.97058 393.986056459353
32.9907 450
33.01081 457.001624747852
33.03092 474.015988426265
33.05104 489.056653613094
33.07115 529.9065588697
33.09127 545.016622784142
33.11138 508.058479244058
33.13149 462.999850335797
33.15161 493.006169555985
33.17172 476.992012764033
33.19183 479.971297386061
33.21195 442.95722887323
33.23206 446.027323589421
33.25217 405.062189601983
33.27229 380.008780357567
33.2924 372
33.31252 395.009659783959
33.33263 391.007229438756
33.35274 399.972076165687
33.37286 366.04655735462
33.39297 357.031412286907
33.41308 342.961561209583
33.4332 404
33.45331 352.981373022669
33.47343 365.03837192258
33.49354 375.001011211107
33.51365 366.061185061571
33.53377 342.996954366715
33.55388 362.992794261422
33.57399 349.006427237563
33.59411 360.017633014759
33.61422 393.003114854187
33.63434 367.952000223754
33.65445 359.986323121968
33.67456 357.967997067089
33.69468 390.96607783352
33.71479 407.002707793568
33.7349 398
33.75502 423.018362435449
33.77513 420.979581051428
33.79524 418.042383030648
33.81536 457.922298903137
33.83547 479.98794001154
33.85559 496.977256188084
33.8757 554
33.89581 568.0215828891
33.91593 632.044047151272
33.93604 607.916640546594
33.95615 585.99943456554
33.97627 593.005577826552
33.99638 573.02405783899
34.0165 558
34.03661 560.001654914587
34.05672 561.000225911146
34.07684 562.003518594885
34.09695 551.092127173239
34.11706 509.024665953633
34.13718 528.979868753775
34.15729 525.01021380079
34.17741 516.011424086879
34.19752 542.982782722881
34.21763 492.96572890318
34.23775 513.04842136066
34.25786 503.049432686748
34.27797 483.015056451447
34.29809 466.02282219029
34.3182 412
34.33831 436.016546035256
34.35843 442.968985039936
34.37854 417.991575740076
34.39866 442.925488763738
34.41877 455.051793126524
34.43888 408.003304166398
34.459 445
34.47911 431.000744518631
34.49922 459.018312658232
34.51934 447.951725459342
34.53945 432.005519250074
34.55957 436.999542636136
34.57968 419.037745087492
34.59979 403.973888613723
34.61991 480.005333418388
34.64002 428.979497734392
34.66013 472.071685525124
34.68025 488.013225188157
34.70036 495.994854530812
34.72047 502.956374869277
34.74059 536.998348689215
34.7607 512
34.78082 509.97750664844
34.80093 491.063908392537
34.82104 575.093058399811
34.84116 566.009997830256
34.86127 587.98191267443
34.88138 580.001324310346
34.9015 596
34.92161 610.011313501491
34.94173 656.107434565312
34.96184 738.146193584718
34.98195 776.015677063245
35.00207 773.911622602882
35.02218 853.996965953405
35.04229 774.035293995965
35.06241 748.982913046973
35.08252 685.944461835061
35.10264 653.945708481071
35.12275 621.932602857781
35.14286 602.039778776097
35.16298 573.0393869514
35.18309 541.00230639949
35.2032 553
35.22332 538.003462300336
35.24343 558.004716004704
35.26354 534.949601998745
35.28366 530.965875373133
35.30377 556.965974324452
35.32389 564.00461619735
35.344 553
35.36411 573.013329389691
35.38423 586.98866455035
35.40434 560.935153344425
35.42445 531.073735587573
35.44457 518.961889762639
35.46468 553.006708528229
35.4848 508
35.50491 518.013433433993
35.52502 534.001249423876
35.54514 549.121501096857
35.56525 621.95532963955
35.58536 581.074316404849
35.60548 576.00673760062
35.62559 563.993327284354
35.64571 586.993037412358
35.66582 543.982539752516
35.68593 552.973644808476
35.70605 512.98759217643
35.72616 545.966970452302
35.74627 519.064879346217
35.76639 487.009776136991
35.7865 481
35.80661 482.987816515422
35.82673 466.067176031951
35.84684 539.025537599528
35.86696 482.095388077015
35.88707 488.956409169604
35.90718 504.999984086125
35.9273 491
35.94741 478.005840998471
35.96752 507.024148727143
35.98764 506.956330915815
36.00775 487.983622131353
36.02787 503.02429945167
36.04798 461.022111017891
36.06809 471.994015587148
36.08821 461.988607961789
36.10832 438.980675120233
36.12843 432.015888049238
36.14855 455.062098758973
36.16866 457.070516843654
36.18878 414.006171089108
36.20889 433.005937439645
36.229 396
36.24912 443.04158698887
36.26923 441.956030056156
36.28934 420.013938598887
36.30946 450.943940160484
36.32957 466.968643036973
36.34968 501.959481052838
36.3698 520
36.38991 489.009954418225
36.41003 559.092539694532
36.43014 608.176776094966
36.45025 741.676634956917
36.47037 846.840887970173
36.49048 965.885009162599
36.51059 1059.96508487987
36.53071 1088.986443942
36.55082 1012.89818776104
36.57094 909.799986928624
36.59105 830.896819101979
36.61116 817.023975211096
36.63128 788.038723402101
36.65139 764.994155177546
36.6715 775
36.69162 693.964243556909
36.71173 703.967536069558
36.73184 626.843808652531
36.75196 599.952258636329
36.77207 630.011933780762
36.79219 576.031656765983
36.8123 528
36.83241 509.01806840969
36.85253 555.973293872646
36.87264 492.973629640374
36.89275 531.010226076276
36.91287 483.995709774953
36.93298 557.927194216074
36.9531 577
36.97321 558.997923630821
36.99332 549.952395086167
37.01344 498.024944151481
37.03355 558.939247838247
37.05366 510.147882458075
37.07378 466.006072292421
37.09389 482.99129043792
37.11401 477.986101825445
37.13412 448.992281457032
37.15423 463.021034428136
37.17435 463.990817928024
37.19446 466.974947813384
37.21457 486.96676419839
37.23469 495.008781139294
37.2548 492
37.27491 581.010919206087
37.29503 538.984583810468
37.31514 572.991654777073
37.33526 530.99342590819
37.35537 576.995261107427
37.37548 525.033416050719
37.3956 536
37.41571 538.020199196743
37.43582 597.012607298918
37.45594 543.853466717764
37.47605 486.125153564442
37.49617 455.982535748391
37.51628 495.966990542021
37.53639 492.018066163584
37.55651 464.008066526653
37.57662 518.049338006167
37.59673 538.010907906098
37.61685 522.840730793201
37.63696 454.005605500043
37.65708 501.987218490312
37.67719 454.024071748174
37.6973 453
37.71742 485.006503104488
37.73753 469.986596372198
37.75764 472.98701620455
37.77776 451.043122535554
37.79787 440.008330675892
37.81798 432.012965007674
37.8381 412
37.85821 384.988615802716
37.87833 374.005734638232
37.89844 388.033062487386
37.91855 397.003451285696
37.93867 389.012167782102
37.95878 378.022872673518
37.97889 363.987492104597
37.99901 404.000129243446
38.01912 363.973796247576
38.03924 377.048293709955
38.05935 389.010422068955
38.07946 389.010078326183
38.09958 383.998940097614
38.11969 391.995139813849
38.1398 391
38.15992 366.991895024186
38.18003 383.04160136368
38.20015 411.071369537829
38.22026 424.039252881623
38.24037 392.010340282725
38.26049 416.986976697485
38.2806 423
38.30071 417.998056977977
38.32083 415.999167081737
38.34094 413.988322843874
38.36105 410.977601697904
38.38117 426.986849984404
38.40128 431.981295842059
38.4214 437
38.44151 359.990854849011
38.46162 413.055556857014
38.48174 422.967838667751
38.50185 414.963304129975
38.52196 436.00758868992
38.54208 402.037977454477
38.56219 394.983341987324
38.58231 430.995557290509
38.60242 401.020048681324
38.62253 458.014289890785
38.64265 417.980529182013
38.66276 450.00429640371
38.68287 402.047055105541
38.70299 421.97810314024
38.7231 469
38.74321 509.99725811851
38.76333 482.006948686569
38.78344 534.11802481035
38.80356 558.0281163795
38.82367 535.995791354004
38.84378 557.997369289727
38.8639 531
38.88401 503.974324242882
38.90412 448.98873000164
38.92424 478.038069216777
38.94435 461.072283849336
38.96447 430.069818327574
38.98458 389.996776644681
39.00469 426.987773005984
39.02481 419.994280531318
39.04492 425.015409618264
39.06503 434.991851530297
39.08515 404.866037962241
39.10526 368.95411832988
39.12538 432.954340287126
39.14549 430.011693009104
39.1656 411
39.18572 412.040616565039
39.20583 462.011400218803
39.22594 423.928813382752
39.24606 417.992901837012
39.26617 417.994465458746
39.28628 445.93481999958
39.3064 516
39.32651 514.01307873928
39.34663 584.105831621888
39.36674 641.141213064819
39.38685 728.80325142946
39.40697 801.858898491178
39.42708 900.941662004157
39.44719 910.002388940982
39.46731 898.977406687237
39.48742 811.892852624373
39.50754 717.867055927005
39.52765 682.970795378441
39.54776 675.029706815224
39.56788 644.045103209233
39.58799 573.054550313187
39.6081 453
39.62822 420.006547440055
39.64833 440.035423549139
39.66845 446.948698746314
39.68856 410.061585031987
39.70867 398.003314783258
39.72879 402.990666530095
39.7489 413
39.76901 380.011808522771
39.78913 442.029813232162
39.80924 395.888133339137
39.82935 370.02682201842
39.84947 375.94067977939
39.86958 422.989471585276
39.8897 392
39.90981 385.005376050964
39.92992 393.996613809423
39.95004 378.969635101875
39.97015 369.025844339025
39.99026 379.880865844885
40.01038 449.986608696413
40.03049 414.005676048548
40.05061 441.002518788743
40.07072 414.994045685648
40.09083 438.014975161199
40.11095 423.98180808927
40.13106 428.021206468736
40.15117 410.983583448089
40.17129 468.955542174999
40.1914 539
40.21152 512.981040209815
40.23163 541.100072867947
40.25174 626.179269448245
40.27186 669.087058679977
40.29197 575.102277310734
40.31208 568.982575641316
40.3322 565
40.35231 526.991526289388
40.37242 538.018728720344
40.39254 534.931614677536
40.41265 473.188009436767
40.43277 410.056018896637
40.45288 397.002502134702
40.47299 390.006193546753
40.49311 380.000665207512
40.51322 379.977213939268
40.53333 348.995809534227
40.55345 380.085579827446
40.57356 391.017858248472
40.59368 379.001704682458
40.61379 388.995138730004
40.6339 385
40.65402 354.965890325178
40.67413 342.041177484144
40.69424 382.010188838412
40.71436 357.005967503862
40.73447 385.971729352862
40.75458 381.997649789966
40.7747 392
40.79481 367.99872823746
40.81493 400.066831306657
40.83504 430.018647041591
40.85515 419.062602232444
40.87527 397.011332612498
40.89538 399.004550373528
40.91549 392.993076145548
40.93561 410.992443198271
40.95572 378.001757144692
40.97584 409.00450835212
40.99595 368.904688811652
41.01606 368.938302942331
41.03618 408.965803913818
41.05629 425.998722208482
41.0764 432
41.09652 458.998774594118
41.11663 440.006545029532
41.13675 474.071934880361
41.15686 476.024247796591
41.17697 467.00197333721
41.19709 482.980900877788
41.2172 528
41.23731 516.970547691252
41.25743 458.998751951393
41.27754 491.976007734129
41.29765 439.026523289693
41.31777 476.985397820708
41.33788 426.066849220502
41.358 400
41.37811 450.013504172847
41.39822 424.938583259884
41.41834 379.013556085862
41.43845 420.944572322064
41.45856 400.065782070196
41.47868 391.97717787689
41.49879 420.997933567095
41.51891 394.984842987615
41.53902 379.994808739999
41.55913 380.009511024255
41.57925 370.882151009738
41.59936 318.99921664904
41.61947 373.917643789318
41.63959 390.003978527364
41.6597 373
41.67982 353.001401908821
41.69993 369.012774653116
41.72004 353.934710721218
41.74016 331.976502163755
41.76027 364.971961022678
41.78038 360.002782326554
41.8005 375
41.82061 389.00015694144
41.84072 391.024261028116
41.86084 412.948521274033
41.88095 373.930172755228
41.90107 447.972409440863
41.92118 390.053259911807
41.94129 391.986310399195
41.96141 398.985253479886
41.98152 358.992056821362
42.00163 377.998120598749
42.02175 339.889930051943
42.04186 325.955431341443
42.06198 355.997145351383
42.08209 344.988432928201
42.1022 391
42.12232 353.967807206634
42.14243 368.077086825203
42.16254 409.987693245606
42.18266 376.005570647502
42.20277 414.951449544466
42.22289 410.012520745035
42.243 397
42.26311 434.02002923357
42.28323 461.024920016541
42.30334 477.043639414265
42.32345 515.850814803169
42.34357 591.876858040971
42.36368 665.940317460975
42.38379 728.9559057875
42.40391 830.038505186321
42.42402 869.021542539715
42.44414 901.097583205497
42.46425 910.771120288854
42.48436 748.275777050103
42.50448 695.000035856965
42.52459 694.011727355334
42.5447 643
42.56482 604.000083209538
42.58493 598.89448769967
42.60505 495.896459882664
42.62516 518.01060216042
42.64527 462.057888036064
42.66539 464.000886148441
42.6855 447
42.70561 467.003615952985
42.72573 433.896885112231
42.74584 379.01010628414
42.76595 430.9018763176
42.78607 414.086612994597
42.80618 363.011008404847
42.8263 384
42.84641 371.994961685724
42.86652 373.998518754329
42.88664 355.936312095948
42.90675 333.976010826685
42.92686 361.976972096431
42.94698 352.001683226646
42.96709 363.999421498023
42.98721 343.986605235468
43.00732 330.004564461564
43.02743 343.008417561606
43.04755 326.909684707243
43.06766 311.907500148025
43.08777 369.035056095629
43.10789 289.01034552094
43.128 342
43.14812 323.020432218009
43.16823 388.045687699084
43.18834 359.935462406994
43.20846 361.958104535627
43.22857 367.045729754703
43.24868 329.994293443562
43.2688 370
43.28891 349.99429755481
43.30902 363.008462948664
43.32914 366.050615586777
43.34925 402.976397430992
43.36937 380.032181390036
43.38948 375.007231184985
43.40959 361.003158625371
43.42971 377.019229462318
43.44982 409.998722574503
43.46993 397.039373550885
43.49005 455.077180915045
43.51016 433.084523349789
43.53028 404.014001516013
43.55039 383.025524026583
43.5705 340
43.59062 416.040508296418
43.61073 390.943833530481
43.63084 371.955997862027
43.65096 340.052742389444
43.67107 336.965008374503
43.69119 359.005203837241
43.7113 318
43.73141 301.996807290038
43.75153 299.01076307237
43.77164 312.015202068947
43.79175 312.989647509075
43.81187 321.99161286697
43.83198 320.005574846006
43.85209 321.991643639681
43.87221 348.011126969977
43.89232 345.965830052276
43.91244 311.007931501842
43.93255 343.024383213581
43.95266 317.049919425224
43.97278 320.975502981748
43.99289 331.015662956145
44.013 293
44.03312 350.018570107248
44.05323 313.956049359055
44.07335 319.015757298032
44.09346 321.944472269567
44.11357 351.032944136127
44.13369 296.00853485486
44.1538 326
44.17391 320.013243707785
44.19403 370.014788197091
44.21414 334.956849177752
44.23426 346.984499790691
44.25437 337.005118881703
44.27448 335.029964024901
44.2946 289
44.31471 321.033784546148
44.33482 360.964398480751
44.35494 296.000091236339
44.37505 357.934441545569
44.39516 319.072738159198
44.41528 336.943683516378
44.43539 384.996037875754
44.45551 360.99188533991
44.47562 373.021291679973
44.49573 390.026436109339
44.51585 394.934464443075
44.53596 361.99251181317
44.55607 390.00514415996
44.57619 351.011267956311
44.5963 363
44.61642 359.997502566584
44.63653 361.991106647706
44.65664 346.974659383066
44.67676 341.011928740324
44.69687 332.012179438477
44.71698 340.961613086648
44.7371 369
44.75721 305.998891493964
44.77732 371.050191903459
44.79744 359.924703566749
44.81755 333.03186790922
44.83767 332.987454531113
44.85778 343.98793775436
44.87789 354.99547216778
44.89801 357.996752690334
44.91812 353.01095850222
44.93823 376.024703752196
44.95835 370.941853731905
44.97846 344.037417306163
44.99858 349.964324530738
45.01869 385.000873336575
45.0388 355
45.05892 369.008600119586
45.07903 363.004546387589
45.09914 374.994533511079
45.11926 361.990093909098
45.13937 380.998670839889
45.15949 361.005646988314
45.1796 380
45.19971 403.987188715725
45.21983 364.020163870615
45.23994 426.076022980911
45.26005 407.092513398809
45.28017 388.005179117607
45.30028 400.96724538301
45.32039 424.010088559477
45.34051 372.982265377186
45.36062 380.030875499338
45.38074 398.979076438004
45.40085 386.071823586427
45.42096 431.018045870685
45.44108 376.022684108683
45.46119 401.99348140794
45.4813 380
45.50142 376.982272787222
45.52153 362.051948172789
45.54165 429.086786020899
45.56176 409.066564361314
45.58187 390.027013692197
45.60199 380.989134812821
45.6221 420
45.64221 423.010713015328
45.66233 469.060097694077
45.68244 500.096129967705
45.70256 554.952421129215
45.72267 558.95161296365
45.74278 621.953081291103
45.7629 642
45.78301 681.008696215737
45.80312 651.932182110435
45.82324 570.850835660781
45.84335 519.075265748671
45.86346 510.96686182971
45.88358 534.988640893087
45.90369 513.027971555374
45.92381 451.982390747015
45.94392 436.970029487436
45.96403 382.923502253124
45.98415 359.00327585963
46.00426 378.932677152784
46.02437 400.020623443629
46.04449 365.010080881222
46.0646 373
46.08472 368.976923417618
46.10483 347.001344012279
46.12494 361.99749771806
46.14506 341.027261259259
46.16517 340.014603276761
46.18528 323.001084955718
46.2054 334
46.22551 320.003948461882
46.24563 351.034729386664
46.26574 347.965735525008
46.28585 337.983523337976
46.30597 344.031612635041
46.32608 311.002703461307
46.34619 334.997575726698
46.36631 308.988707272516
46.38642 313.019933116473
46.40653 330.008324772666
46.42665 321.961544935753
46.44676 318.953855023573
46.46688 347.002293191073
46.48699 317.009856663523
46.5071 323
46.52722 327.011663479827
46.54733 345.014388140037
46.56744 344.001252658708
46.58756 348.006318694896
46.60767 342.986496761646
46.62779 354.007527484753
46.6479 320
46.66801 328.003480410579
46.68813 318.979755490807
46.70824 325.076371088761
46.72835 366.990607682665
46.74847 332.048781495941
46.76858 330.981204212855
46.78869 333.019870297405
46.80881 282.998529560156
46.82892 336.060658830183
46.84904 357.968012103629
46.86915 330.970401591489
46.88926 330.039979300864
46.90938 306.979671166289
46.92949 352.996438163355
46.9496 317
46.96972 335.014582112106
46.98983 333.012258834919
47.00995 353.016350997861
47.03006 343.009049906162
47.05017 353.978207423811
47.07029 362.996945947344
47.0904 369
47.11051 366.991254558388
47.13063 339.966324241415
47.15074 336.029781179069
47.17086 353.990888295743
47.19097 347.000682476297
47.21108 355.996832750796
47.2312 350
47.25131 353.000370368516
47.27142 345.988285652381
47.29154 334.984769172139
47.31165 331.998900922729
47.33176 324.05374993425
47.35188 298.991282524144
47.37199 330.993634883325
47.39211 314.994099113311
47.41222 324.01367384362
47.43233 324.980361089788
47.45245 304.954756814929
47.47256 310.91294118569
47.49267 356.005773981623
47.51279 312.012349332862
47.5329 328
47.55302 328.999205041391
47.57313 327.9762092419
47.59324 297.94314354894
47.61336 289.967579985486
47.63347 318.96044484458
47.65358 329.005208697973
47.6737 323
47.69381 342.009037220184
47.71393 352.011640305748
47.73404 356.991289395519
47.75415 347.012988258074
47.77427 355.966737489663
47.79438 369.017891903462
47.81449 348.98568090219
47.83461 419.02620517564
47.85472 426.994374139035
47.87483 433.017873723702
47.89495 444.021797849663
47.91506 458.938937647233
47.93518 496.972911647854
47.95529 490.023130462925
47.9754 442
47.99552 477.031856251248
48.01563 472.956517352492
48.03574 439.947104341373
48.05586 439.927580744141
48.07597 496.922449570846
48.09609 512.013985081772
48.1162 484
48.13631 530.999289995294
48.15643 473.931276987084
48.17654 468.999887194003
48.19665 437.159576513151
48.21677 380.014773305872
48.23688 411.971788888903
48.257 417
48.27711 421.985793692953
48.29722 364.950824776616
48.31734 349.014739694919
48.33745 356.989755867202
48.35756 345.999849575303
48.37768 349.020019225457
48.39779 318.001737711037
48.4179 343
48.43802 326.966590671801
48.45813 308.019939263874
48.47825 339.040591638405
48.49836 330.025254777006
48.51847 322.024714936351
48.53859 301.003977050556
48.5587 315
48.57881 338.00444830001
48.59893 320.9322933259
48.61904 278.990965134804
48.63916 310.933767819468
48.65927 321.99973309993
48.67938 323.994963017665
48.6995 327
48.71961 312.991899233433
48.73972 302.998601399025
48.75984 310.025785290004
48.77995 319.006190155358
48.80006 315.97036544456
48.82018 342.985356208807
48.84029 333.011286334482
48.86041 313.994561773449
48.88052 317.018359017838
48.90063 340.022643363439
48.92075 352.064273163418
48.94086 377.015212230189
48.96097 334.073729816187
48.98109 312.993426135402
49.0012 349
49.02132 377.012958202947
49.04143 365.936346651008
49.06154 330.032862082541
49.08166 386.92212559836
49.10177 387.999288280295
49.12188 415.954346665659
49.142 459
49.16211 471.001729547687
49.18223 477.016712629255
49.20234 496.053325164116
49.22245 513.026087734397
49.24257 473.080392928299
49.26268 432.016908380219
49.28279 434.996170355019
49.30291 442.008058730349
49.32302 457.99653224989
49.34313 430.947175984702
49.36325 418.062658394975
49.38336 446.04040894358
49.40348 389.030888054091
49.42359 409.981925065833
49.4437 435
49.46382 457.009910903475
49.48393 445.954280113437
49.50404 406.925294111284
49.52416 382.021615064031
49.54427 390.950312022762
49.56439 430.987804024637
49.5845 427
49.60461 407.999890545904
49.62473 427.036190690441
49.64484 450.058150529079
49.66495 485.911986830434
49.68507 515.960021720053
49.70518 525.025320499857
49.7253 496
49.74541 531.992837972795
49.76552 468.961422038189
49.78564 499.140954447301
49.80575 558.055966660738
49.82586 553.992289533932
49.84598 571.996191031137
49.86609 563.994590218735
49.8862 609
49.90632 662.028437802678
49.92643 655.944576513806
49.94655 641.141926350073
49.96666 739.88011587963
49.98677 751.949218488342
50.00689 850.932167596169
50.027 978
50.04711 1077.07358906435
50.06723 1267.26416308797
50.08734 1377.08684882343
50.10746 1370.08498796098
50.12757 1267.30234606339
50.14768 1046.11776734809
50.1678 995
50.18791 789.956730591542
50.20802 860.08362328961
50.22814 859.921298988027
50.24825 807.209093595803
50.26837 691.194317355209
50.28848 587.054868318613
50.30859 534.059929748279
50.32871 385.967300885653
50.34882 424.053470373233
50.36893 427.965037274197
50.38905 407.979878039945
50.40916 393.097079015363
50.42927 342.987320031536
50.44939 409.967539746015
50.4695 430
50.48962 426.016856634693
50.50973 463.059541581641
50.52984 479.970864837495
50.54996 458.986631561845
50.57007 491.964350477018
50.59018 486.02100965581
50.6103 471
50.63041 460.977869573455
50.65053 399.951154865787
50.67064 409.039305868691
50.69075 416.988462271331
50.71087 424.985803074322
50.73098 421.030504652961
50.75109 387.00037751958
50.77121 404.992811729814
50.79132 356.968574625977
50.81143 356.995439502935
50.83155 338.974430988575
50.85166 342.001469934226
50.87178 343.971864551886
50.89189 383.993279011001
50.912 360
50.93212 349.018401342777
50.95223 372.998985972928
50.97234 353.998091887912
50.99246 388.89636282338
51.01257 431.960781271076
51.03269 446.991563609151
51.0528 476
51.07291 515.017625157017
51.09303 547.049828976853
51.11314 586.087708457581
51.13325 620.970362755668
51.15337 595.097013807511
51.17348 518.06032855601
51.1936 483
51.21371 467.010949622714
51.23382 511.024506099102
51.25394 484.867076153791
51.27405 412.133404147833
51.29416 391.993855004188
51.31428 390.024769025238
51.33439 352.011642097785
51.3545 344
51.37462 313.987679709905
51.39473 323.009279236735
51.41485 305.908852616502
51.43496 281.965280344934
51.45507 336.910440989352
51.47519 364.005680615129
51.4953 325
51.51541 295.002627411257
51.53553 317.00761882839
51.55564 304.002222651337
51.57576 334.912364489168
51.59587 353.045546984805
51.61598 308.999642703624
51.6361 348
51.65621 318.987286582527
51.67632 320.004493281445
51.69644 319.014890743629
51.71655 331.003729321352
51.73667 317.011196809
51.75678 318.007504474798
51.77689 304.999146119155
51.79701 322.006279045574
51.81712 331.025643733786
51.83723 354.975087276777
51.85735 306.922183432818
51.87746 312.968222910288
51.89757 332.932144786904
51.91769 371.011944202662
51.9378 305
51.95792 333.042899416875
51.97803 357.024921679392
51.99814 360.948255635053
52.01826 337.939678106163
52.03837 395.985253581085
52.05848 351.030229758055
52.0786 374
52.09871 405.005128090155
52.11883 403.000369520888
52.13894 403.971595649773
52.15905 381.022317677657
52.17917 383.018927269478
52.19928 356.015115287903
52.21939 368.984403131085
52.23951 385.989904150329
52.25962 353.00176979719
52.27974 391.056447308704
52.29985 381.928853963114
52.31996 346.096537302906
52.34008 306.004812433583
52.36019 338.976790560949
52.3803 365
52.40042 338.972741311123
52.42053 335.036583803846
52.44064 377.086646540715
52.46076 398.019698271011
52.48087 378.001853902743
52.50099 396.994190499612
52.5211 390
52.54121 392.005580031852
52.56133 393.965009610027
52.58144 346.895200734582
52.60155 322.947093309997
52.62167 367.954118042445
52.64178 375.985183773667
52.6619 392
52.68201 349.990340997902
52.70212 364.012067322226
52.72224 350.947836819855
52.74235 334.985485328303
52.76246 348.011875787037
52.78258 328.999740349071
52.80269 353.988645288558
52.8228 354
52.84292 331.977493338404
52.86303 317.998605762201
52.88315 327.02848646772
52.90326 331.01175351665
52.92337 322.004306273983
52.94349 330.991354521496
52.9636 353
52.98371 367.994143026818
53.00383 343.990648095584
53.02394 362.037919313905
53.04406 368.990183046358
53.06417 391.923903218497
53.08428 445.978157754418
53.1044 432
53.12451 440.017138789115
53.14462 469.994797049572
53.16474 437.960835443906
53.18485 445.970231351753
53.20497 444.015080083832
53.22508 447.965707805321
53.24519 496.984531908626
53.26531 487.980704835936
53.28542 444.968213619862
53.30553 426.975587376581
53.32565 418.040898984825
53.34576 440.020692122082
53.36587 398.052132901659
53.38599 386.005974178567
53.4061 364
53.42622 350.98333414939
53.44633 338.012031645176
53.46644 365.053095099933
53.48656 363.078928194171
53.50667 317.017934262053
53.52678 340.978691747093
53.5469 336
53.56701 330.005970665156
53.58713 352.024785044963
53.60724 348.957073039414
53.62735 317.086916907513
53.64747 306.946784799557
53.66758 359.979107104696
53.68769 331.023594828149
53.70781 316.01830616003
53.72792 361.993298679979
53.74804 314.9740065509
53.76815 355.095986420072
53.78826 359.018751070286
53.80838 358.989184745999
53.82849 370.999059283847
53.8486 370
53.86872 397.017610911055
53.88883 396.99327834945
53.90894 397.000653743572
53.92906 391.029249348733
53.94917 387.952997508513
53.96929 426.003254659169
53.9894 386
54.00951 416.010666242946
54.02963 403.969210790019
54.04974 390.972387600239
54.06985 379.989499353581
54.08997 396.977576490697
54.11008 391.031099838061
54.1302 360
54.15031 394.021749422765
54.17042 415.993959821023
54.19054 395.973083040245
54.21065 409.895670398195
54.23076 445.014681466771
54.25088 406.023823143444
54.27099 410.999465403538
54.29111 405.008299470489
54.31122 443.028139005268
54.33133 444.985174628478
54.35145 431.946247323365
54.37156 411.010839610362
54.39167 417.002056216399
54.41179 385.033296781374
54.4319 336
54.45201 416.027408053491
54.47213 419.003444235028
54.49224 430.96176445968
54.51236 392.012302753473
54.53247 419.983243854817
54.55258 404.999548071786
54.5727 427
54.59281 408.990138580615
54.61292 405.005475332012
54.63304 423.079395437511
54.65315 467.941646444768
54.67327 462.025536810726
54.69338 458.98206131378
54.71349 486.990105927772
54.73361 517.038054071755
54.75372 597.004161028337
54.77383 549.003637195902
54.79395 625.175668429278
54.81406 654.935598555864
54.83417 697.972786271145
54.85429 689.001515315641
54.8744 690
54.89452 623.928559579381
54.91463 578.976675712042
54.93474 583.022908665424
54.95486 589.000915600947
54.97497 589.98324802422
54.99508 597.020381759207
55.0152 562
55.03531 560.982565100928
55.05543 498.94664290258
55.07554 488.925001535303
55.09565 436.997886751732
55.11577 483.970957186425
55.13588 440.069044348828
55.15599 403.990963482079
55.17611 457.023657473679
55.19622 468.986554243155
55.21634 445.94710661955
55.23645 440.082024661611
55.25656 481.994983496731
55.27668 455.995391298558
55.29679 489.00009155123
55.3169 458
55.33702 481.970436614918
55.35713 392.882458439696
55.37724 376.053974142622
55.39736 402.999668949209
55.41747 385.001575684972
55.43759 403.996580400044
55.4577 392
55.47781 404.00738942286
55.49793 391.91926573804
55.51804 345.048631920171
55.53815 409.974961078396
55.55827 347.087724223166
55.57838 339.985144576773
55.5985 355
55.61861 366.98715499064
55.63872 329.002260008192
55.65884 357.97982333546
55.67895 308.060740672221
55.69906 328.958237101979
55.71918 328.996435460753
55.73929 344.993695253737
55.75941 354.01032385268
55.77952 380.00930235559
55.79963 365.966752423509
55.81975 348.967071149914
55.83986 342.987459431095
55.85997 356.981953317517
55.88009 361.998822534721
55.9002 353
55.92031 324.008882988915
55.94043 364.997224775749
55.96054 330.014353346738
55.98066 378.970772892549
56.00077 335.076407444007
56.02088 309.019847748851
56.041 301
56.06111 339.998530158954
56.08122 301.985816789669
56.10134 330.060053463742
56.12145 337.996580724806
56.14157 336.026674146065
56.16168 312.007740488614
56.18179 329.984638170134
56.20191 340.985672626069
56.22202 296.985342624206
56.24213 318.028245467543
56.26225 313.974863301212
56.28236 318.951506355953
56.30248 343.997452808587
56.32259 330.999251624044
56.3427 341
56.36282 309.003023200819
56.38293 342.012963061298
56.40304 319.989979660827
56.42316 342.971584461944
56.44327 332.024151007903
56.46338 330.985640321094
56.4835 348
56.50361 337.990582175986
56.52373 327.009530998634
56.54384 342.010927075203
56.56395 339.973737789028
56.58407 347.048945957215
56.60418 295.014033208648
56.62429 333.975145175341
56.64441 344.982194423582
56.66452 303.000194509254
56.68464 337.022253610434
56.70475 311.954372210982
56.72486 326.936218007516
56.74498 348.001917935324
56.76509 328.010552809351
56.7852 319
56.80532 325.013043252142
56.82543 340.016129576323
56.84554 331.929431899096
56.86566 307.930232224912
56.88577 371.977038445064
56.90589 330.01497179901
56.926 339
56.94611 324.995524113434
56.96623 335.026903372574
56.98634 336.94588827424
57.00645 302.019957826129
57.02657 322.973927197635
57.04668 322.001797274816
57.0668 334
57.08691 347.994426187016
57.10702 325.998047885718
57.12714 351.056102120264
57.14725 353.074008442422
57.16736 316.028212131986
57.18748 326.9918811003
57.20759 321.001718307994
57.22771 328.004300749068
57.24782 329.995867032493
57.26793 323.993959027955
57.28805 315.946055204229
57.30816 299.962596990634
57.32827 333.00354794005
57.34839 300.004450101095
57.3685 336
57.38861 346.980780631576
57.40873 308.035012365875
57.42884 375.058259921397
57.44896 336.111870970801
57.46907 316.967518372667
57.48918 346.001095088811
57.5093 316
57.52941 328.013831199168
57.54952 339.981003318109
57.56964 309.98905530633
57.58975 333.942926169238
57.60987 348.954351887827
57.62998 375.022233395564
57.65009 315.021359775315
57.67021 323.018920729476
57.69032 359.022655459063
57.71043 361.981770257706
57.73055 341.937796280421
57.75066 337.920125000735
57.77078 390.988650026303
57.79089 354.01867603382
57.811 344
57.83112 329.974630538592
57.85123 312.012324600154
57.87134 339.039117757474
57.89146 333.047378526506
57.91157 316.985728322916
57.93168 343.981736395616
57.9518 341
57.97191 340.006628028321
57.99203 373.080132047483
58.01214 421.029735668987
58.03225 391.147076894639
58.05237 345.009176281583
58.07248 374.964797702078
58.09259 374.024047216115
58.11271 320.998086469571
58.13282 368.04567227386
58.15294 387.036087274595
58.17305 394.906743197307
58.19316 333.059264757712
58.21328 343.995896291366
58.23339 332.993386394953
58.2535 369
58.27362 356.988244436963
58.29373 351.968191042808
58.31385 316.942662982891
58.33396 317.976859506324
58.35407 336.945399822037
58.37419 367.005512241969
58.3943 329
58.41441 339.997366598712
58.43453 313.988498348614
58.45464 337.054498002165
58.47475 350.977690868053
58.49487 358.00075810102
58.51498 350.009821973646
58.5351 353
58.55521 385.007392636243
58.57532 370.969631956729
58.59544 358.052346807231
58.61555 393.021895655275
58.63566 350.030244462141
58.65578 385.952096058801
58.67589 399.015135567452
58.69601 352.987415153141
58.71612 370.044534039904
58.73623 393.954055575458
58.75635 339.970460851266
58.77646 375.951667210035
58.79657 360.037856654366
58.81669 349.001899705224
58.8368 352
58.85691 367.997201543489
58.87703 342.968432260257
58.89714 342.02463572811
58.91726 351.008746567135
58.93737 347.96556133167
58.95748 387.97722064776
58.9776 380
58.99771 362.988172703191
59.01782 338.990656726525
59.03794 340.990832939469
59.05805 338.931191684302
59.07817 376.9973348396
59.09828 345.016432409148
59.11839 373.972569526554
59.13851 404.987986449588
59.15862 359.999390959229
59.17873 400.017677423147
59.19885 372.979996183751
59.21896 398.965625180016
59.23908 386.021997500712
59.25919 370.007853908027
59.2793 364
59.29942 381.974821188715
59.31953 331.978762568386
59.33964 357.015049078898
59.35976 335.013707480458
59.37987 361.947732767136
59.39998 367.036961620192
59.4201 317
59.44021 332.008430784729
59.46033 333.002040995285
59.48044 343.021199951731
59.50055 352.960586750488
59.52067 374.96752940523
59.54078 374.03960413604
59.56089 329.998689834525
59.58101 365.001034995498
59.60112 330.991929225239
59.62124 363.048866254579
59.64135 354.954154323918
59.66146 353.956075817738
59.68158 394.95014755311
59.70169 422.009203622502
59.7218 373
59.74192 370.030284150516
59.76203 416.073617753429
59.78215 460.1050941504
59.80226 499.934113304117
59.82237 539.903433790774
59.84249 638.937883932208
59.8626 734
59.88271 736.047304478311
59.90283 914.212020749484
59.92294 963.03370906231
59.94305 960.178152435637
59.96317 816.254943582515
59.98328 687.063721600904
60.0034 661
60.02351 596.973930454161
60.04362 589.031977749175
60.06374 641.111427271703
60.08385 681.944431088308
60.10396 679.063297718729
60.12408 620.080379723443
60.14419 544.024855624628
60.16431 523.996288882523
60.18442 505.965912626642
60.20453 468.969334406899
60.22465 484.126170593979
60.24476 526.022958032866
60.26487 473.056606024705
60.28499 475.993523359254
60.3051 473
60.32522 463.004839699004
60.34533 473.996729624744
60.36544 446.911867123314
60.38556 419.965133210956
60.40567 463.961986929976
60.42578 446.040950436452
60.4459 410
60.46601 407.007528334204
60.48612 426.010174285694
60.50624 418.959945636396
60.52635 390.092818234626
60.54647 369.966073761096
60.56658 410.99096029436
60.58669 379.015853661875
60.60681 383.017109677153
60.62692 405.97537269908
60.64703 347.939389603871
60.66715 349.040998628141
60.68726 358.984916884154
60.70738 351.040725216718
60.72749 316.984939096663
60.7476 385
60.76772 347.976281264506
60.78783 363.01188160982
60.80794 347.983754069238
60.82806 354.00458589474
60.84817 340.00982599213
60.86828 349.983538065836
60.8884 353
60.90851 321.991022300637
60.92863 326.017705667867
60.94874 327.977195102727
60.96885 315.990017783426
60.98897 336.966548210241
61.00908 343.01257631336
61.02919 328.997895724298
61.04931 349.006792152602
61.06942 345.992132282399
61.08954 348.02989253342
61.10965 362.997208263307
61.12976 341.062361187007
61.14988 320.002305847307
61.16999 331.993283581494
61.1901 339
61.21022 347.010204774078
61.23033 352.993502505922
61.25045 349.032700017565
61.27056 369.000574229665
61.29067 350.013613933336
61.31079 344.019068736318
61.3309 314
61.35101 416.018023426933
61.37113 370.95730450457
61.39124 396.037124204894
61.41135 379.054360016519
61.43147 375.986952156148
61.45158 384.995223000833
61.4717 388
61.49181 392.993464621784
61.51192 367.984504621569
61.53204 368.001003333001
61.55215 363.996109245396
61.57226 383.918119585948
61.59238 412.022175410963
61.61249 367.999877601628
61.63261 408.004537104693
61.65272 378.996126270164
61.67283 408.009907079109
61.69295 389.017812698887
61.71306 421.986757452467
61.73317 383.077421503935
61.75329 367.980677954752
61.7734 409
61.79352 337.973981231714
61.81363 379.060713501655
61.83374 380.984486900297
61.85386 385.977343453632
61.87397 394.993686567603
61.89408 395.001257532782
61.9142 396
61.93431 400.000468656641
61.95442 396.995413894708
61.97454 383.939186146702
61.99465 363.930714499943
62.01477 422.946141208912
62.03488 408.039748414997
62.05499 373.013031075219
62.07511 360.000347156228
62.09522 376.032279309863
62.11533 415.051631778205
62.13545 426.95527265204
62.15556 396.038784756395
62.17568 397.990838970592
62.19579 401.999691624632
62.2159 405
62.23602 411.992097479945
62.25613 400.011042658213
62.27624 416.986991048377
62.29636 391.016075794377
62.31647 406.986542750899
62.33659 393.010882242113
62.3567 380
62.37681 376.991930295088
62.39693 366.037925640483
62.41704 402.985612404539
62.43715 364.00589059782
62.45727 395.010853999534
62.47738 348.016167069047
62.49749 389.971622401806
62.51761 410.988567854669
62.53772 367.968984693628
62.55784 364.013525876135
62.57795 367.002441941814
62.59806 367.997515398947
62.61818 368.002973019218
62.63829 364.000637971201
62.6584 356
62.67852 328.0048839154
62.69863 362.039482867117
62.71875 360.970382762012
62.73886 351.023298011955
62.75897 346.974831098297
62.77909 369.999459300147
62.7992 350
62.81931 349.993814496975
62.83943 334.020767150404
62.85954 360.980025353961
62.87965 308.12750260993
62.89977 300.947182053262
62.91988 341.988645398997
62.94 324
62.96011 334.005965007742
62.98022 329.981920355866
63.00034 321.043256210322
63.02045 358.95536735452
63.04056 359.953852964183
63.06068 387.026802145603
63.08079 307.036892458945
63.10091 299.029635953292
63.12102 365.009818813198
63.14113 325.97262286327
63.16125 351.054225755873
63.18136 347.011837954501
63.20147 344.028479180526
63.22159 319.000789661702
63.2417 345
63.26182 358.005025543636
63.28193 360.999119647114
63.30204 357.994594149868
63.32216 356.006977141511
63.34227 367.930288583525
63.36238 414.009478417057
63.3825 366
63.40261 393.00177615072
63.42272 364.996885507546
63.44284 406.095861208537
63.46295 433.957640373066
63.48307 443.008538528755
63.50318 428.011969130942
63.52329 424.001586357948
63.54341 415.994417948427
63.56352 404.991116534276
63.58363 406.025341767857
63.60375 420.972694365174
63.62386 388.053458554913
63.64398 392.965505625204
63.66409 435.984062978257
63.6842 445
63.70432 435.995087455856
63.72443 441.021747740171
63.74454 461.043212121244
63.76466 465.058471623128
63.78477 432.982445440901
63.80489 477.989584691321
63.825 451
63.84511 434.006476416437
63.86523 460.024516469979
63.88534 453.962384263539
63.90545 440.001794501522
63.92557 445.007580726536
63.94568 436.987964174889
63.96579 469.984291636767
63.98591 485.002792012625
64.00602 476.967114025096
64.02614 437.971249469684
64.04625 454.055209364959
64.06636 450.075954962687
64.08648 409.004438090788
64.10659 429.003567555782
64.1267 392
64.14682 405.006236323059
64.16693 389.979949316807
64.18705 386.983897376057
64.20716 374.017034536178
64.22727 373.997276624533
64.24739 360.02025929505
64.2675 324
64.28761 369.011508535825
64.30773 343.934612772305
64.32784 317.998396818919
64.34796 330.984083549622
64.36807 326.010831857261
64.38818 324.99698891434
64.4083 319
64.42841 295.005210723203
64.44852 326.005009155569
64.46864 306.004523614247
64.48875 338.938719618356
64.50886 333.039673599081
64.52898 322.99285480056
64.54909 343.988003271443
64.56921 355.997684356814
64.58932 340.985549465888
64.60943 341.026584068091
64.62955 355.970867908137
64.64966 329.013719590124
64.66977 348.972471803217
64.68989 359.986980668957
64.71 389
64.73012 363.998487299126
64.75023 389.014056884385
64.77034 369.963445838478
64.79046 364.021510141629
64.81057 343.028661067003
64.83068 325.02924761102
64.8508 311
64.87091 377.010919512826
64.89102 347.982290124945
64.91114 363.014697329267
64.93125 351.999380299707
64.95137 369.981303465021
64.97148 364.014216961011
64.99159 352.004647172291
65.01171 356.013761323655
65.03182 386.000701800071
65.05193 368.008046157655
65.07205 404.079513788156
65.09216 423.931783515298
65.11228 454.019402797355
65.13239 393.024386105518
65.1525 384
65.17262 389.014816658124
65.19273 419.0596964774
65.21284 441.968260780108
65.23296 404.041632758269
65.25307 410.989625957411
65.27319 397.013842021476
65.2933 367
65.31341 361.015061484352
65.33353 405.030630215248
65.35364 393.972843286224
65.37375 388.041760009853
65.39387 370.982095198108
65.41398 399.995429612494
65.43409 369.018013264982
65.45421 362.013068386177
65.47432 394.006110943518
65.49444 366.928332356404
65.51455 349.00754513025
65.53466 361.982344420561
65.55478 356.017504973229
65.57489 342.997735277453
65.595 370
65.61512 393.983126182237
65.63523 363.008020577924
65.65535 383.914434316464
65.67546 310.052629523002
65.69557 355.915452127035
65.71569 367.014470885827
65.7358 350
65.75591 412.999828343593
65.77603 342.90801650241
65.79614 338.044373049467
65.81626 348.024920633924
65.83637 329.994530877886
65.85648 349.996331123476
65.8766 339
65.89671 357.992780159735
65.91682 315.980354862699
65.93694 347.120895683942
65.95705 385.041073181036
65.97716 339.037795310873
65.99728 358.985991291096
66.01739 344.011091718163
66.03751 327.991102187475
66.05762 314.003818059701
66.07773 323.985955665054
66.09785 305.01670783221
66.11796 330.992997087845
66.13807 313.990950497325
66.15819 335.007959320451
66.1783 288
66.19842 311.02385365705
66.21853 308.980513346953
66.23864 310.050352668645
66.25876 338.002665496806
66.27887 311.025639002471
66.29898 313.005038790649
66.3191 306
66.33921 343.002518559531
66.35933 312.967421704844
66.37944 316.002903818769
66.39955 306.012240288693
66.41967 311.990708640975
66.43978 312.001963840436
66.45989 312.997674719657
66.48001 319.002121917263
66.50012 313.981329499307
66.52023 300.020583736817
66.54035 329.02175540862
66.56046 309.043237022982
66.58058 314.963967502198
66.60069 344.00908509224
66.6208 295
66.64092 309.005333319437
66.66103 292.993190530303
66.68114 302.990070790312
66.70126 286.986905119201
66.72137 313.982496166568
66.74149 305.998168614005
66.7616 322
66.78171 300.995604413222
66.80183 315.025166773807
66.82194 311.94876978368
66.84205 283.024036805315
66.86217 300.952882334789
66.88228 323.993720041623
66.90239 316.005829935256
66.92251 309.99929060623
66.94262 309.999425421388
66.96274 309.001462411241
66.98285 313.016595725129
67.00296 328.935695563719
67.02308 359.995199101399
67.04319 342.006205437327
67.0633 360
67.08342 392.985245814636
67.10353 343.949291489744
67.12365 352.069704653351
67.14376 366.024193696007
67.16387 346.991902649147
67.18399 367.00336656783
67.2041 347
67.22421 400.009439933562
67.24433 368.952661886417
67.26444 368.024124536469
67.28456 376.98576677468
67.30467 375.029601564914
67.32478 347.017601087001
67.3449 344
67.36501 342.006276957193
67.38512 374.041867285831
67.40524 392.944186030331
67.42535 351.989420357394
67.44546 383.037326737488
67.46558 334.979742703227
67.48569 420.97463641718
67.50581 399.985497801499
67.52592 409.029650015896
67.54603 426.986469528868
67.56615 407.000852965129
67.58626 443.883932153177
67.60637 495.950795257918
67.62649 520.979619686886
67.6466 577
67.66672 613.050230510983
67.68683 675.068687508741
67.70694 690.998425388505
67.72706 680.055166267659
67.74717 631.101601761523
67.76728 567.038690974511
67.7874 549
67.80751 513.985094699436
67.82763 512.046998580057
67.84774 541.976285375868
67.86785 510.967200197466
67.88797 581.882086054978
67.90808 601.058822641747
67.92819 529.000580195912
67.94831 595.022644889495
67.96842 584.986923909501
67.98853 595.010669656494
68.00865 585.968772144259
68.02876 594.914741326051
68.04888 670.904549179668
68.06899 746.985391682289
68.0891 744
68.10922 784.058343702807
68.12933 803.909743301513
68.14944 697.850229510332
68.16956 660.138484092702
68.18967 588.959113727683
68.20979 695.966612704214
68.2299 695
68.25001 770.032917352507
68.27013 786.983584060055
68.29024 771.967678303796
68.31035 743.13808126357
68.33047 659.149376459454
68.35058 568.068729572945
68.3707 516
68.39081 466.988603913376
68.41092 474.018379765761
68.43104 480.982039920694
68.45115 467.998831124711
68.47126 469.049555993582
68.49138 426.025631135084
68.51149 416.015490196998
68.5316 359
68.55172 333.987770505345
68.57183 334.037095073437
68.59195 357.96245475671
68.61206 322.000904323125
68.63217 354.987901351178
68.65229 325.011284227755
68.6724 330
68.69251 333.008018063756
68.71263 357.013284974847
68.73274 345.974329676754
68.75286 335.045963860466
68.77297 311.994804169633
68.79308 342.967232148583
68.8132 354
68.83331 352.015369700397
68.85342 388.990685554731
68.87354 340.94696295417
68.89365 352.979984779907
68.91376 343.992843520204
68.93388 356.013524391493
68.95399 326.001547197251
68.97411 350.003941136862
68.99422 334.998328062352
69.01433 347.989380944637
69.03445 330.03744354963
69.05456 373.950877621173
69.07467 356.053823061353
69.09479 331.004653382178
69.1149 340
69.13502 370.024506433355
69.15513 371.958123620918
69.17524 342.006962010976
69.19536 378.930870514074
69.21547 384.024969079409
69.23558 360.024546272716
69.2557 350
69.27581 376.009472770028
69.29593 381.005074531057
69.31604 385.994782070273
69.33615 385.945393643625
69.35627 417.984096564817
69.37638 419.962626994807
69.39649 474.99506476768
69.41661 448.003456529232
69.43672 495.022351151013
69.45683 465.935721726192
69.47695 442.984794746757
69.49706 439.026429075737
69.51718 411.036425453308
69.53729 392.989188052284
69.5574 425
69.57752 391.006068875953
69.59763 431.003432010485
69.61774 404.046597642959
69.63786 463.994685479429
69.65797 400.069305665596
69.67809 400.004580669821
69.6982 363
69.71831 365.007599990409
69.73843 377.012901705576
69.75854 380.996241339047
69.77865 372.039712982847
69.79877 361.986785388881
69.81888 384.980698426279
69.839 389
69.85911 380.995152974505
69.87922 378.011342187311
69.89934 396.018280566619
69.91945 385.939461543703
69.93956 361.033029696141
69.95968 353.007928680477
69.97979 342.004245463064
69.9999 338
70.02002 338.008124242883
70.04013 349.004883777998
70.06025 339.961816091035
70.08036 329.003514141805
70.10047 345.939564261706
70.12059 367.023055427474
70.1407 297
70.16081 360.016464549595
70.18093 314.885579740104
70.20104 277.049255466922
70.22116 318.026714668112
70.24127 263.019861731376
70.26138 311.952021390477
70.2815 320
70.30161 320.004899621688
70.32172 319.969230973923
70.34184 289.041488392404
70.36195 331.048457250504
70.38207 272.986405829047
70.40218 341.98453825913
70.42229 284.018863109783
70.44241 310.01992160679
70.46252 316.976706424651
70.48263 298.026226905634
70.50275 329.980773365121
70.52286 281.074460867185
70.54297 285.961638399816
70.56309 306.993785162995
70.5832 316
70.60332 325.987112546362
70.62343 306.011012481325
70.64354 334.01521073236
70.66366 322.974150826832
70.68377 355.990517756683
70.70388 331.014078431546
70.724 332
70.74411 291.992321857868
70.76423 322.080191445245
70.78434 361.014864541167
70.80445 350.991808597867
70.82457 361.030902710467
70.84468 329.983364487639
70.86479 384.987284044887
70.88491 364.993115315858
70.90502 372.993937687774
70.92513 344.96729777367
70.94525 344.017102066533
70.96536 336.064434929143
70.98548 299.012146977293
71.00559 319.983549437029
71.0257 348
71.04582 368.003259452492
71.06593 355.975959662774
71.08604 342.972455071343
71.10616 330.012661837781
71.12627 338.959094604492
71.14639 362.003675986154
71.1665 331
71.18661 326.994770139885
71.20673 305.983288515369
71.22684 326.104536484453
71.24695 366.047536709782
71.26707 319.991477934569
71.28718 369.992157447339
71.3073 325
71.32741 354.015872283278
71.34752 353.98130494815
71.36764 345.032411447529
71.38775 372.973989281908
71.40786 355.056183679539
71.42798 346.975640761372
71.44809 376.003406954872
71.4682 331
71.48832 311.994841435141
71.50843 317.035472648535
71.52855 340.992906570424
71.54866 317.024512840163
71.56877 320.01600350225
71.58889 309.982920054558
71.609 362
71.62911 313.990310353926
71.64923 338.010011304956
71.66934 306.942919881908
71.68946 307.964159273572
71.70957 320.006359876468
71.72968 304.012769534148
71.7498 297
71.76991 284.003276066007
71.79002 309.023037813148
71.81014 318.005448183012
71.83025 313.054680167078
71.85037 289.002497906369
71.87048 303.998501731496
71.89059 290.999137959206
71.91071 317.015180010775
71.93082 329.993179953265
71.95093 310.968389168464
71.97105 307.056430614718
71.99116 338.971657861952
72.01127 330.016321441062
72.03139 329.000260213349
72.0515 325
72.07162 322.99049409485
72.09173 308.988301975158
72.11184 314.027859138379
72.13196 329.970841299551
72.15207 328.04591226296
72.17218 294.99644665738
72.1923 332
72.21241 329.994233050931
72.23253 321.982289070737
72.25264 307.986123536994
72.27275 308.005429260921
72.29287 298.021205157358
72.31298 298.968161433813
72.33309 333.004440519697
72.35321 282.978039040752
72.37332 286.044453759712
72.39344 326.994909340975
72.41355 292.965444440446
72.43366 322.908674808428
72.45378 343.019752931134
72.47389 299.019036694051
72.494 287
72.51412 306.039517331706
72.53423 333.966008272354
72.55434 279.946357906107
72.57446 297.955186814798
72.59457 300.004666427509
72.61469 301.00049672576
72.6348 304
72.65491 321.993775270205
72.67503 292.996882465162
72.69514 315.000240152429
72.71525 284.062527365223
72.73537 285.97978448964
72.75548 289.014029919569
72.7756 279
72.79571 318.006599631367
72.81582 303.999901868362
72.83594 309.926630878852
72.85605 254.005295272677
72.87616 305.933159739067
72.89628 290.023725466972
72.91639 285.000576521261
72.9365 292
72.95662 331.001207197657
72.97673 296.96334580255
72.99685 291.950598910592
73.01696 263.989848238395
73.03707 303.94687601006
73.05719 315.995705692797
73.0773 317
73.09741 278.000873095785
73.11753 318.040523069247
73.13764 298.905044644918
73.15776 277.913053799122
73.17787 350.956547508769
73.19798 320.033533943965
73.2181 316
73.23821 306.996044682768
73.25832 304.998176821018
73.27844 310.048409799679
73.29855 343.947266497716
73.31867 342.019986658848
73.33878 335.991613308329
73.35889 356.987764587125
73.37901 385.019999183876
73.39912 417.997606581543
73.41923 401.025828129681
73.43935 437.983465616788
73.45946 384.082514018218
73.47957 385.974859531172
73.49969 382.015899004214
73.5198 341
73.53992 347.02256857364
73.56003 375.052578237679
73.58014 397.978820843957
73.60026 368.026795675983
73.62037 384.961637424039
73.64048 398.996381983807
73.6606 396
73.68071 383.99011702031
73.70083 363.98606163919
73.72094 363.994651930871
73.74105 347.076214721326
73.76117 324.987385963457
73.78128 341.021258857276
73.80139 299.998902514928
73.82151 350.019591034555
73.84162 350.993148985766
73.86174 348.970463905646
73.88185 319.933030956795
73.90196 306.012414717237
73.92208 316.957139639657
73.94219 364.994633085271
73.9623 336
73.98242 331.003680850388
74.00253 332.003429419065
74.02264 346.064047027275
74.04276 378.980792058397
74.06287 359.047911787939
74.08299 339.000596783205
74.1031 344
74.12321 331.004900969772
74.14333 356.007124924909
74.16344 339.995710824703
74.18355 361.946161186506
74.20367 354.063383920221
74.22378 319.977693045218
74.2439 369
74.26401 330.008859033475
74.28412 387.988514625229
74.30424 294.846670614356
74.32435 298.868672656073
74.34446 339.003783901682
74.36458 302.03552196475
74.38469 297.989212966753
74.40481 323.005910687207
74.42492 310.969865694869
74.44503 290.01533387198
74.46515 324.070666661722
74.48526 336.966643485077
74.50537 350.026443070864
74.52549 310.013243698924
74.5456 307
74.56571 302.010886872067
74.58583 345.046754756731
74.60594 348.98724332537
74.62606 346.005335889798
74.64617 343.001202546928
74.66628 344.997131719312
74.6864 356
74.70651 381.997512205723
74.72662 354.988720219743
74.74674 372.040765928915
74.76685 367.085713080535
74.78697 345.941224618776
74.80708 409.994506320627
74.82719 340.039347920417
74.84731 322.023331994727
74.86742 374.996507393517
74.88753 314.919112722438
74.90765 311.071175261484
74.92776 335.994767512389
74.94787 319.022950624352
74.96799 315.002075179447
74.9881 302
75.00822 280.978084303195
