3.00117 20379
3.02128 20191
3.0414 19524
3.06151 18501
3.08162 18413
3.10174 17768
3.12185 17399
3.14197 16466
3.16208 16155
3.18219 15867
3.20231 15258
3.22242 14995
3.24253 14292
3.26265 13846
3.28276 13447
3.30288 12897
3.32299 12855
3.3431 12429
3.36322 11906
3.38333 11612
3.40344 11184
3.42356 10982
3.44367 10441
3.46379 10056
3.4839 9809
3.50401 9087
3.52413 9188
3.54424 8761
3.56435 8544
3.58447 8098
3.60458 7930
3.62469 7697
3.64481 7015
3.66492 6933
3.68504 6758
3.70515 6405
3.72526 6509
3.74538 5760
3.76549 5621
3.7856 5517
3.80572 5357
3.82583 5213
3.84595 4648
3.86606 4587
3.88617 4440
3.90629 4399
3.9264 4193
3.94651 3846
3.96663 3633
3.98674 3613
4.00686 3436
4.02697 3349
4.04708 3087
4.0672 2962
4.08731 2843
4.10742 2700
4.12754 2629
4.14765 2521
4.16776 2452
4.18788 2405
4.20799 2250
4.22811 2195
4.24822 2000
4.26833 1932
4.28845 1961
4.30856 1969
4.32867 1955
4.34879 1802
4.3689 1713
4.38902 1701
4.40913 1625
4.42924 1618
4.44936 1480
4.46947 1453
4.48958 1525
4.5097 1429
4.52981 1482
4.54992 1330
4.57004 1303
4.59015 1401
4.61027 1321
4.63038 1295
4.65049 1190
4.67061 1263
4.69072 1099
4.71083 1186
4.73095 1053
4.75106 1122
4.77118 1002
4.79129 1050
4.8114 1033
4.83152 1029
4.85163 957
4.87174 933
4.89186 894
4.91197 958
4.93209 853
4.9522 842
4.97231 859
4.99243 851
5.01254 869
5.03265 797
5.05277 745
5.07288 822
5.09299 749
5.11311 732
5.13322 684
5.15334 712
5.17345 643
5.19356 686
5.21368 634
5.23379 597
5.2539 631
5.27402 624
5.29413 596
5.31425 624
5.33436 574
5.35447 588
5.37459 537
5.3947 543
5.41481 572
5.43493 515
5.45504 488
5.47516 530
5.49527 483
5.51538 501
5.5355 470
5.55561 452
5.57572 460
5.59584 420
5.61595 434
5.63606 429
5.65618 414
5.67629 388
5.69641 430
5.71652 403
5.73663 373
5.75675 446
5.77686 407
5.79697 402
5.81709 363
5.8372 359
5.85732 331
5.87743 387
5.89754 382
5.91766 307
5.93777 338
5.95788 379
5.978 343
5.99811 346
6.01823 361
6.03834 367
6.05845 371
6.07857 362
6.09868 326
6.11879 340
6.13891 343
6.15902 322
6.17913 335
6.19925 343
6.21936 315
6.23948 320
6.25959 316
6.2797 285
6.29982 297
6.31993 366
6.34004 294
6.36016 305
6.38027 310
6.40039 333
6.4205 322
6.44061 319
6.46073 296
6.48084 282
6.50095 310
6.52107 320
6.54118 313
6.56129 312
6.58141 276
6.60152 282
6.62164 298
6.64175 280
6.66186 289
6.68198 309
6.70209 303
6.7222 300
6.74232 298
6.76243 271
6.78255 303
6.80266 265
6.82277 289
6.84289 294
6.863 291
6.88311 262
6.90323 268
6.92334 275
6.94346 295
6.96357 290
6.98368 273
7.0038 312
7.02391 310
7.04402 279
7.06414 268
7.08425 305
7.10436 272
7.12448 252
7.14459 294
7.16471 250
7.18482 294
7.20493 290
7.22505 289
7.24516 279
7.26527 295
7.28539 278
7.3055 309
7.32562 286
7.34573 298
7.36584 273
7.38596 290
7.40607 269
7.42618 295
7.4463 312
7.46641 317
7.48653 299
7.50664 269
7.52675 283
7.54687 318
7.56698 319
7.58709 275
7.60721 298
7.62732 299
7.64743 270
7.66755 302
7.68766 301
7.70778 265
7.72789 289
7.748 285
7.76812 308
7.78823 260
7.80834 307
7.82846 299
7.84857 287
7.86869 239
7.8888 275
7.90891 280
7.92903 280
7.94914 281
7.96925 289
7.98937 245
8.00948 278
8.0296 285
8.04971 274
8.06982 290
8.08994 292
8.11005 267
8.13016 309
8.15028 295
8.17039 307
8.1905 333
8.21062 299
8.23073 306
8.25085 255
8.27096 285
8.29107 284
8.31119 306
8.3313 292
8.35141 285
8.37153 250
8.39164 297
8.41176 255
8.43187 323
8.45198 283
8.4721 285
8.49221 283
8.51232 291
8.53244 299
8.55255 292
8.57266 292
8.59278 289
8.61289 289
8.63301 286
8.65312 269
8.67323 295
8.69335 293
8.71346 274
8.73357 317
8.75369 301
8.7738 303
8.79392 249
8.81403 319
8.83414 337
8.85426 299
8.87437 273
8.89448 323
8.9146 274
8.93471 296
8.95483 284
8.97494 277
8.99505 267
9.01517 272
9.03528 252
9.05539 262
9.07551 274
9.09562 285
9.11573 295
9.13585 259
9.15596 283
9.17608 298
9.19619 279
9.2163 289
9.23642 270
9.25653 279
9.27664 265
9.29676 288
9.31687 301
9.33699 285
9.3571 283
9.37721 283
9.39733 292
9.41744 249
9.43755 270
9.45767 291
9.47778 286
9.4979 331
9.51801 284
9.53812 290
9.55824 272
9.57835 275
9.59846 291
9.61858 320
9.63869 272
9.6588 270
9.67892 273
9.69903 303
9.71915 262
9.73926 278
9.75937 328
9.77949 240
9.7996 323
9.81971 285
9.83983 285
9.85994 311
9.88006 291
9.90017 306
9.92028 278
9.9404 267
9.96051 288
9.98062 278
10.00074 313
10.02085 314
10.04097 302
10.06108 306
10.08119 275
10.10131 289
10.12142 285
10.14153 309
10.16165 293
10.18176 289
10.20187 302
10.22199 311
10.2421 299
10.26222 306
10.28233 300
10.30244 290
10.32256 280
10.34267 276
10.36278 310
10.3829 280
10.40301 265
10.42313 260
10.44324 294
10.46335 301
10.48347 304
10.50358 273
10.52369 300
10.54381 268
10.56392 296
10.58403 291
10.60415 266
10.62426 314
10.64438 291
10.66449 299
10.6846 295
10.70472 258
10.72483 282
10.74494 282
10.76506 286
10.78517 246
10.80529 320
10.8254 257
10.84551 278
10.86563 303
10.88574 301
10.90585 290
10.92597 309
10.94608 302
10.9662 291
10.98631 264
11.00642 333
11.02654 279
11.04665 286
11.06676 303
11.08688 297
11.10699 306
11.1271 334
11.14722 273
11.16733 280
11.18745 295
11.20756 318
11.22767 283
11.24779 289
11.2679 289
11.28801 300
11.30813 283
11.32824 284
11.34836 266
11.36847 304
11.38858 312
11.4087 311
11.42881 311
11.44892 335
11.46904 305
11.48915 273
11.50927 328
11.52938 337
11.54949 311
11.56961 274
11.58972 325
11.60983 286
11.62995 328
11.65006 318
11.67017 307
11.69029 339
11.7104 335
11.73052 327
11.75063 350
11.77074 379
11.79086 346
11.81097 346
11.83108 405
11.8512 350
11.87131 367
11.89143 423
11.91154 431
11.93165 409
11.95177 410
11.97188 416
11.99199 423
12.01211 457
12.03222 458
12.05234 503
12.07245 534
12.09256 567
12.11268 523
12.13279 570
12.1529 586
12.17302 627
12.19313 677
12.21324 627
12.23336 692
12.25347 741
12.27359 711
12.2937 740
12.31381 716
12.33393 640
12.35404 699
12.37415 624
12.39427 576
12.41438 581
12.4345 491
12.45461 533
12.47472 474
12.49484 490
12.51495 439
12.53506 438
12.55518 406
12.57529 371
12.5954 383
12.61552 411
12.63563 369
12.65575 345
12.67586 321
12.69597 346
12.71609 362
12.7362 323
12.75631 307
12.77643 272
12.79654 335
12.81666 265
12.83677 284
12.85688 307
12.877 286
12.89711 271
12.91722 270
12.93734 294
12.95745 286
12.97757 277
12.99768 290
13.01779 302
13.03791 288
13.05802 273
13.07813 249
13.09825 273
13.11836 251
13.13847 237
13.15859 272
13.1787 232
13.19882 251
13.21893 290
13.23904 246
13.25916 292
13.27927 288
13.29938 261
13.3195 250
13.33961 276
13.35973 253
13.37984 291
13.39995 285
13.42007 232
13.44018 249
13.46029 261
13.48041 235
13.50052 258
13.52064 265
13.54075 252
13.56086 282
13.58098 254
13.60109 250
13.6212 254
13.64132 265
13.66143 255
13.68154 268
13.70166 264
13.72177 274
13.74189 240
13.762 232
13.78211 264
13.80223 286
13.82234 262
13.84245 262
13.86257 252
13.88268 244
13.9028 243
13.92291 245
13.94302 262
13.96314 235
13.98325 224
14.00336 261
14.02348 252
14.04359 239
14.06371 235
14.08382 231
14.10393 254
14.12405 237
14.14416 245
14.16427 238
14.18439 260
14.2045 273
14.22461 216
14.24473 268
14.26484 236
14.28496 242
14.30507 242
14.32518 278
14.3453 245
14.36541 218
14.38552 226
14.40564 230
14.42575 228
14.44587 226
14.46598 234
14.48609 242
14.50621 224
14.52632 199
14.54643 244
14.56655 231
14.58666 244
14.60677 226
14.62689 246
14.647 259
14.66712 215
14.68723 187
14.70734 221
14.72746 239
14.74757 252
14.76768 231
14.7878 213
14.80791 229
14.82803 238
14.84814 250
14.86825 241
14.88837 258
14.90848 224
14.92859 226
14.94871 227
14.96882 250
14.98894 223
15.00905 227
15.02916 219
15.04928 221
15.06939 239
15.0895 188
15.10962 247
15.12973 209
15.14984 230
15.16996 253
15.19007 256
15.21019 263
15.2303 259
15.25041 228
15.27053 243
15.29064 233
15.31075 229
15.33087 234
15.35098 233
15.3711 260
15.39121 242
15.41132 241
15.43144 223
15.45155 247
15.47166 222
15.49178 263
15.51189 250
15.53201 205
15.55212 199
15.57223 246
15.59235 244
15.61246 228
15.63257 222
15.65269 227
15.6728 208
15.69291 213
15.71303 223
15.73314 202
15.75326 215
15.77337 210
15.79348 213
15.8136 219
15.83371 218
15.85382 209
15.87394 235
15.89405 278
15.91417 244
15.93428 235
15.95439 245
15.97451 229
15.99462 224
16.01473 267
16.03485 231
16.05496 234
16.07508 195
16.09519 251
16.1153 238
16.13542 220
16.15553 251
16.17564 234
16.19576 217
16.21587 224
16.23598 238
16.2561 229
16.27621 199
16.29633 217
16.31644 262
16.33655 203
16.35667 242
16.37678 240
16.39689 208
16.41701 205
16.43712 234
16.45724 214
16.47735 220
16.49746 229
16.51758 252
16.53769 235
16.5578 218
16.57792 225
16.59803 215
16.61814 231
16.63826 219
16.65837 217
16.67849 218
16.6986 245
16.71871 214
16.73883 244
16.75894 217
16.77905 205
16.79917 227
16.81928 199
16.8394 249
16.85951 235
16.87962 233
16.89974 226
16.91985 231
16.93996 229
16.96008 252
16.98019 221
17.00031 222
17.02042 208
17.04053 221
17.06065 253
17.08076 231
17.10087 230
17.12099 227
17.1411 235
17.16121 234
17.18133 243
17.20144 195
17.22156 266
17.24167 226
17.26178 225
17.2819 233
17.30201 214
17.32212 248
17.34224 244
17.36235 225
17.38247 226
17.40258 227
17.42269 205
17.44281 230
17.46292 243
17.48303 223
17.50315 221
17.52326 207
17.54338 214
17.56349 228
17.5836 254
17.60372 243
17.62383 268
17.64394 222
17.66406 229
17.68417 239
17.70428 244
17.7244 272
17.74451 262
17.76463 257
17.78474 268
17.80485 244
17.82497 223
17.84508 237
17.86519 231
17.88531 259
17.90542 251
17.92554 271
17.94565 245
17.96576 256
17.98588 276
18.00599 308
18.0261 276
18.04622 285
18.06633 322
18.08645 353
18.10656 357
18.12667 378
18.14679 410
18.1669 485
18.18701 478
18.20713 550
18.22724 560
18.24735 590
18.26747 577
18.28758 626
18.3077 557
18.32781 501
18.34792 436
18.36804 376
18.38815 342
18.40826 273
18.42838 317
18.44849 305
18.46861 302
18.48872 271
18.50883 272
18.52895 262
18.54906 244
18.56917 266
18.58929 227
18.6094 251
18.62951 251
18.64963 275
18.66974 251
18.68986 276
18.70997 233
18.73008 241
18.7502 294
18.77031 253
18.79042 214
18.81054 233
18.83065 260
18.85077 262
18.87088 236
18.89099 227
18.91111 255
18.93122 220
18.95133 274
18.97145 273
18.99156 228
19.01168 234
19.03179 261
19.0519 257
19.07202 247
19.09213 221
19.11224 247
19.13236 252
19.15247 244
19.17258 227
19.1927 215
19.21281 245
19.23293 239
19.25304 271
19.27315 244
19.29327 273
19.31338 241
19.33349 269
19.35361 284
19.37372 249
19.39384 260
19.41395 269
19.43406 266
19.45418 270
19.47429 282
19.4944 271
19.51452 272
19.53463 309
19.55475 291
19.57486 297
19.59497 336
19.61509 324
19.6352 333
19.65531 390
19.67543 360
19.69554 446
19.71565 431
19.73577 472
19.75588 494
19.776 593
19.79611 541
19.81622 571
19.83634 540
19.85645 563
19.87656 558
19.89668 588
19.91679 585
19.93691 571
19.95702 572
19.97713 528
19.99725 533
20.01736 526
20.03747 551
20.05759 577
20.0777 519
20.09782 613
20.11793 579
20.13804 633
20.15816 594
20.17827 615
20.19838 670
20.2185 644
20.23861 636
20.25872 605
20.27884 646
20.29895 616
20.31907 637
20.33918 651
20.35929 598
20.37941 630
20.39952 644
20.41963 649
20.43975 649
20.45986 689
20.47998 695
20.50009 733
20.5202 716
20.54032 750
20.56043 774
20.58054 845
20.60066 860
20.62077 1123
20.64088 1279
20.661 1625
20.68111 2060
20.70123 2622
20.72134 3264
20.74145 4035
20.76157 4595
20.78168 4794
20.80179 5107
20.82191 4831
20.84202 4174
20.86214 3423
20.88225 2564
20.90236 1928
20.92248 1389
20.94259 1013
20.9627 850
20.98282 693
21.00293 665
21.02305 598
21.04316 641
21.06327 620
21.08339 556
21.1035 571
21.12361 474
21.14373 518
21.16384 541
21.18395 480
21.20407 538
21.22418 477
21.2443 514
21.26441 524
21.28452 519
21.30464 514
21.32475 494
21.34486 501
21.36498 502
21.38509 564
21.40521 532
21.42532 528
21.44543 520
21.46555 522
21.48566 500
21.50577 495
21.52589 457
21.546 502
21.56612 440
21.58623 482
21.60634 433
21.62646 456
21.64657 458
21.66668 451
21.6868 433
21.70691 443
21.72702 422
21.74714 393
21.76725 394
21.78737 368
21.80748 389
21.82759 397
21.84771 389
21.86782 366
21.88793 357
21.90805 378
21.92816 386
21.94828 379
21.96839 398
21.9885 381
22.00862 399
22.02873 379
22.04884 368
22.06896 338
22.08907 335
22.10919 357
22.1293 382
22.14941 370
22.16953 380
22.18964 375
22.20975 357
22.22987 331
22.24998 351
22.27009 411
22.29021 350
22.31032 329
22.33044 364
22.35055 360
22.37066 354
22.39078 316
22.41089 338
22.431 313
22.45112 376
22.47123 368
22.49135 347
22.51146 349
22.53157 341
22.55169 316
22.5718 296
22.59191 330
22.61203 332
22.63214 335
22.65225 316
22.67237 334
22.69248 342
22.7126 320
22.73271 301
22.75282 338
22.77294 311
22.79305 318
22.81316 321
22.83328 325
22.85339 317
22.87351 341
22.89362 324
22.91373 304
22.93385 300
22.95396 323
22.97407 319
22.99419 329
23.0143 366
23.03442 327
23.05453 353
23.07464 325
23.09476 332
23.11487 341
23.13498 287
23.1551 305
23.17521 340
23.19532 336
23.21544 311
23.23555 314
23.25567 322
23.27578 354
23.29589 303
23.31601 342
23.33612 289
23.35623 309
23.37635 306
23.39646 299
23.41658 301
23.43669 354
23.4568 297
23.47692 318
23.49703 302
23.51714 292
23.53726 310
23.55737 309
23.57749 327
23.5976 288
23.61771 337
23.63783 310
23.65794 309
23.67805 308
23.69817 314
23.71828 327
23.73839 317
23.75851 315
23.77862 338
23.79874 357
23.81885 338
23.83896 348
23.85908 343
23.87919 387
23.8993 406
23.91942 388
23.93953 399
23.95965 373
23.97976 360
23.99987 375
24.01999 414
24.0401 357
24.06021 337
24.08033 367
24.10044 365
24.12056 364
24.14067 355
24.16078 349
24.1809 407
24.20101 339
24.22112 398
24.24124 352
24.26135 384
24.28146 397
24.30158 351
24.32169 350
24.34181 367
24.36192 395
24.38203 360
24.40215 400
24.42226 361
24.44237 379
24.46249 387
24.4826 428
24.50272 442
24.52283 459
24.54294 449
24.56306 444
24.58317 458
24.60328 488
24.6234 506
24.64351 550
24.66362 533
24.68374 515
24.70385 556
24.72397 548
24.74408 568
24.76419 577
24.78431 580
24.80442 596
24.82453 605
24.84465 629
24.86476 549
24.88488 557
24.90499 544
24.9251 526
24.94522 503
24.96533 552
24.98544 511
25.00556 480
25.02567 497
25.04579 457
25.0659 455
25.08601 453
25.10613 460
25.12624 449
25.14635 483
25.16647 450
25.18658 423
25.20669 411
25.22681 462
25.24692 433
25.26704 407
25.28715 397
25.30726 433
25.32738 404
25.34749 418
25.3676 390
25.38772 415
25.40783 421
25.42795 371
25.44806 406
25.46817 395
25.48829 420
25.5084 407
25.52851 442
25.54863 410
25.56874 375
25.58886 397
25.60897 450
25.62908 393
25.6492 425
25.66931 488
25.68942 482
25.70954 474
25.72965 468
25.74976 468
25.76988 480
25.78999 478
25.81011 449
25.83022 508
25.85033 486
25.87045 492
25.89056 518
25.91067 506
25.93079 460
25.9509 487
25.97102 491
25.99113 558
26.01124 563
26.03136 547
26.05147 640
26.07158 644
26.0917 647
26.11181 672
26.13193 712
26.15204 774
26.17215 806
26.19227 897
26.21238 962
26.23249 1020
26.25261 1069
26.27272 1233
26.29283 1412
26.31295 1536
26.33306 1911
26.35318 2342
26.37329 2833
26.3934 3787
26.41352 4668
26.43363 6451
26.45374 8511
26.47386 11304
26.49397 14085
26.51409 17386
26.5342 20580
26.55431 22026
26.57443 22818
26.59454 22011
26.61465 19291
26.63477 15722
26.65488 12416
26.67499 8694
26.69511 6092
26.71522 4117
26.73534 2728
26.75545 1803
26.77556 1486
26.79568 1197
26.81579 1163
26.8359 1087
26.85602 994
26.87613 878
26.89625 838
26.91636 801
26.93647 736
26.95659 671
26.9767 637
26.99681 602
27.01693 536
27.03704 539
27.05716 542
27.07727 506
27.09738 475
27.1175 452
27.13761 508
27.15772 460
27.17784 486
27.19795 481
27.21806 445
27.23818 450
27.25829 437
27.27841 453
27.29852 435
27.31863 510
27.33875 447
27.35886 463
27.37897 502
27.39909 462
27.4192 477
27.43932 456
27.45943 418
27.47954 420
27.49966 422
27.51977 367
27.53988 376
27.56 388
27.58011 362
27.60023 371
27.62034 375
27.64045 370
27.66057 377
27.68068 408
27.70079 374
27.72091 380
27.74102 358
27.76113 371
27.78125 326
27.80136 359
27.82148 324
27.84159 371
27.8617 350
27.88182 364
27.90193 367
27.92204 331
27.94216 308
27.96227 341
27.98239 358
28.0025 344
28.02261 306
28.04273 318
28.06284 343
28.08295 337
28.10307 331
28.12318 344
28.1433 298
28.16341 298
28.18352 307
28.20364 293
28.22375 306
28.24386 353
28.26398 297
28.28409 324
28.3042 295
28.32432 301
28.34443 323
28.36455 275
28.38466 288
28.40477 279
28.42489 319
28.445 295
28.46511 289
28.48523 304
28.50534 320
28.52546 282
28.54557 270
28.56568 309
28.5858 318
28.60591 330
28.62602 262
28.64614 300
28.66625 287
28.68636 291
28.70648 315
28.72659 259
28.74671 273
28.76682 324
28.78693 275
28.80705 313
28.82716 274
28.84727 299
28.86739 287
28.8875 305
28.90762 289
28.92773 273
28.94784 282
28.96796 293
28.98807 246
29.00818 303
29.0283 276
29.04841 275
29.06853 281
29.08864 286
29.10875 267
29.12887 248
29.14898 276
29.16909 291
29.18921 270
29.20932 295
29.22943 270
29.24955 294
29.26966 269
29.28978 283
29.30989 299
29.33 330
29.35012 287
29.37023 322
29.39034 291
29.41046 301
29.43057 285
29.45069 305
29.4708 284
29.49091 303
29.51103 275
29.53114 238
29.55125 287
29.57137 264
29.59148 254
29.6116 275
29.63171 278
29.65182 277
29.67194 283
29.69205 272
29.71216 257
29.73228 259
29.75239 283
29.7725 278
29.79262 289
29.81273 250
29.83285 248
29.85296 286
29.87307 278
29.89319 264
29.9133 246
29.93341 285
29.95353 257
29.97364 239
29.99376 276
30.01387 250
30.03398 234
30.0541 289
30.07421 272
30.09432 276
30.11444 281
30.13455 267
30.15467 290
30.17478 259
30.19489 279
30.21501 277
30.23512 295
30.25523 252
30.27535 258
30.29546 261
30.31557 268
30.33569 278
30.3558 262
30.37592 267
30.39603 248
30.41614 259
30.43626 264
30.45637 249
30.47648 253
30.4966 268
30.51671 250
30.53683 252
30.55694 262
30.57705 251
30.59717 266
30.61728 298
30.63739 276
30.65751 254
30.67762 260
30.69773 283
30.71785 287
30.73796 252
30.75808 273
30.77819 296
30.7983 286
30.81842 285
30.83853 277
30.85864 241
30.87876 252
30.89887 255
30.91899 258
30.9391 267
30.95921 231
30.97933 248
30.99944 246
31.01955 225
31.03967 276
31.05978 275
31.0799 259
31.10001 256
31.12012 251
31.14024 254
31.16035 244
31.18046 250
31.20058 236
31.22069 260
31.2408 238
31.26092 232
31.28103 235
31.30115 224
31.32126 255
31.34137 270
31.36149 285
31.3816 260
31.40171 240
31.42183 250
31.44194 239
31.46206 236
31.48217 249
31.50228 225
31.5224 223
31.54251 266
31.56262 268
31.58274 237
31.60285 249
31.62297 241
31.64308 240
31.66319 247
31.68331 261
31.70342 246
31.72353 246
31.74365 234
31.76376 246
31.78387 219
31.80399 238
31.8241 260
31.84422 253
31.86433 250
31.88444 252
31.90456 220
31.92467 251
31.94478 246
31.9649 281
31.98501 239
32.00513 256
32.02524 265
32.04535 248
32.06547 208
32.08558 262
32.10569 237
32.12581 255
32.14592 255
32.16604 251
32.18615 222
32.20626 265
32.22638 277
32.24649 219
32.2666 254
32.28672 253
32.30683 243
32.32694 265
32.34706 253
32.36717 249
32.38729 239
32.4074 263
32.42751 278
32.44763 254
32.46774 236
32.48785 260
32.50797 240
32.52808 243
32.5482 258
32.56831 243
32.58842 233
32.60854 248
32.62865 251
32.64876 273
32.66888 265
32.68899 247
32.7091 248
32.72922 247
32.74933 255
32.76945 275
32.78956 251
32.80967 286
32.82979 272
32.8499 296
32.87001 305
32.89013 267
32.91024 286
32.93036 281
32.95047 305
32.97058 280
32.9907 291
33.01081 304
33.03092 326
33.05104 316
33.07115 301
33.09127 312
33.11138 284
33.13149 310
33.15161 280
33.17172 275
33.19183 320
33.21195 287
33.23206 281
33.25217 260
33.27229 296
33.2924 275
33.31252 264
33.33263 269
33.35274 241
33.37286 284
33.39297 260
33.41308 271
33.4332 267
33.45331 274
33.47343 245
33.49354 266
33.51365 275
33.53377 254
33.55388 298
33.57399 251
33.59411 276
33.61422 261
33.63434 250
33.65445 265
33.67456 254
33.69468 257
33.71479 287
33.7349 274
33.75502 269
33.77513 245
33.79524 268
33.81536 256
33.83547 268
33.85559 266
33.8757 276
33.89581 293
33.91593 290
33.93604 235
33.95615 257
33.97627 242
33.99638 266
34.0165 251
34.03661 281
34.05672 291
34.07684 217
34.09695 280
34.11706 252
34.13718 246
34.15729 254
34.17741 250
34.19752 235
34.21763 245
34.23775 248
34.25786 256
34.27797 240
34.29809 240
34.3182 262
34.33831 236
34.35843 251
34.37854 241
34.39866 238
34.41877 269
34.43888 281
34.459 255
34.47911 262
34.49922 298
34.51934 249
34.53945 275
34.55957 304
34.57968 284
34.59979 280
34.61991 264
34.64002 316
34.66013 298
34.68025 316
34.70036 319
34.72047 306
34.74059 321
34.7607 356
34.78082 375
34.80093 367
34.82104 338
34.84116 366
34.86127 411
34.88138 395
34.9015 410
34.92161 393
34.94173 396
34.96184 400
34.98195 383
35.00207 360
35.02218 345
35.04229 370
35.06241 347
35.08252 381
35.10264 327
35.12275 354
35.14286 343
35.16298 357
35.18309 333
35.2032 367
35.22332 369
35.24343 352
35.26354 350
35.28366 361
35.30377 379
35.32389 391
35.344 372
35.36411 400
35.38423 382
35.40434 436
35.42445 399
35.44457 410
35.46468 414
35.4848 427
35.50491 400
35.52502 415
35.54514 433
35.56525 436
35.58536 411
35.60548 398
35.62559 386
35.64571 433
35.66582 412
35.68593 410
35.70605 419
35.72616 400
35.74627 429
35.76639 405
35.7865 412
35.80661 416
35.82673 446
35.84684 420
35.86696 432
35.88707 417
35.90718 437
35.9273 395
35.94741 368
35.96752 407
35.98764 432
36.00775 392
36.02787 373
36.04798 370
36.06809 346
36.08821 373
36.10832 360
36.12843 354
36.14855 401
36.16866 422
36.18878 453
36.20889 444
36.229 432
36.24912 485
36.26923 542
36.28934 669
36.30946 684
36.32957 817
36.34968 936
36.3698 1134
36.38991 1378
36.41003 1455
36.43014 1730
36.45025 1854
36.47037 1800
36.49048 1702
36.51059 1575
36.53071 1424
36.55082 1234
36.57094 1012
36.59105 857
36.61116 751
36.63128 626
36.65139 498
36.6715 447
36.69162 385
36.71173 392
36.73184 361
36.75196 348
36.77207 366
36.79219 371
36.8123 332
36.83241 355
36.85253 306
36.87264 317
36.89275 346
36.91287 328
36.93298 333
36.9531 362
36.97321 356
36.99332 374
37.01344 330
37.03355 335
37.05366 352
37.07378 345
37.09389 351
37.11401 376
37.13412 368
37.15423 347
37.17435 338
37.19446 364
37.21457 326
37.23469 339
37.2548 341
37.27491 326
37.29503 341
37.31514 348
37.33526 364
37.35537 359
37.37548 398
37.3956 389
37.41571 375
37.43582 361
37.45594 382
37.47605 396
37.49617 402
37.51628 373
37.53639 413
37.55651 364
37.57662 385
37.59673 369
37.61685 387
37.63696 418
37.65708 409
37.67719 375
37.6973 382
37.71742 389
37.73753 362
37.75764 349
37.77776 366
37.79787 323
37.81798 340
37.8381 334
37.85821 315
37.87833 370
37.89844 328
37.91855 311
37.93867 329
37.95878 325
37.97889 307
37.99901 328
38.01912 351
38.03924 336
38.05935 362
38.07946 368
38.09958 347
38.11969 348
38.1398 398
38.15992 388
38.18003 388
38.20015 382
38.22026 390
38.24037 385
38.26049 409
38.2806 396
38.30071 419
38.32083 398
38.34094 406
38.36105 397
38.38117 366
38.40128 426
38.4214 403
38.44151 367
38.46162 412
38.48174 410
38.50185 388
38.52196 407
38.54208 402
38.56219 389
38.58231 351
38.60242 377
38.62253 374
38.64265 369
38.66276 361
38.68287 357
38.70299 330
38.7231 341
38.74321 376
38.76333 330
38.78344 340
38.80356 334
38.82367 344
38.84378 332
38.8639 336
38.88401 350
38.90412 343
38.92424 338
38.94435 337
38.96447 362
38.98458 361
39.00469 374
39.02481 383
39.04492 356
39.06503 391
39.08515 407
39.10526 424
39.12538 434
39.14549 426
39.1656 497
39.18572 527
39.20583 595
39.22594 646
39.24606 717
39.26617 874
39.28628 1049
39.3064 1183
39.32651 1336
39.34663 1552
39.36674 1635
39.38685 1692
39.40697 1595
39.42708 1583
39.44719 1391
39.46731 1172
39.48742 1000
39.50754 916
39.52765 811
39.54776 648
39.56788 528
39.58799 387
39.6081 352
39.62822 343
39.64833 346
39.66845 329
39.68856 285
39.70867 355
39.72879 296
39.7489 302
39.76901 311
39.78913 310
39.80924 348
39.82935 318
39.84947 282
39.86958 306
39.8897 309
39.90981 313
39.92992 329
39.95004 337
39.97015 396
39.99026 324
40.01038 420
40.03049 427
40.05061 454
40.07072 496
40.09083 581
40.11095 635
40.13106 727
40.15117 811
40.17129 895
40.1914 932
40.21152 928
40.23163 930
40.25174 886
40.27186 772
40.29197 649
40.31208 615
40.3322 579
40.35231 516
40.37242 406
40.39254 389
40.41265 377
40.43277 373
40.45288 329
40.47299 314
40.49311 277
40.51322 314
40.53333 307
40.55345 302
40.57356 329
40.59368 289
40.61379 267
40.6339 271
40.65402 311
40.67413 284
40.69424 329
40.71436 318
40.73447 291
40.75458 308
40.7747 263
40.79481 331
40.81493 273
40.83504 284
40.85515 322
40.87527 263
40.89538 312
40.91549 276
40.93561 295
40.95572 303
40.97584 287
40.99595 272
41.01606 291
41.03618 304
41.05629 272
41.0764 275
41.09652 262
41.11663 289
41.13675 261
41.15686 269
41.17697 282
41.19709 264
41.2172 268
41.23731 282
41.25743 255
41.27754 250
41.29765 257
41.31777 276
41.33788 285
41.358 257
41.37811 236
41.39822 288
41.41834 280
41.43845 288
41.45856 272
41.47868 261
41.49879 306
41.51891 286
41.53902 261
41.55913 319
41.57925 285
41.59936 308
41.61947 301
41.63959 317
41.6597 328
41.67982 303
41.69993 290
41.72004 296
41.74016 305
41.76027 295
41.78038 331
41.8005 290
41.82061 249
41.84072 276
41.86084 258
41.88095 294
41.90107 303
41.92118 283
41.94129 285
41.96141 285
41.98152 308
42.00163 303
42.02175 273
42.04186 294
42.06198 289
42.08209 332
42.1022 328
42.12232 384
42.14243 378
42.16254 390
42.18266 392
42.20277 463
42.22289 575
42.243 683
42.26311 815
42.28323 815
42.30334 992
42.32345 1082
42.34357 1144
42.36368 1175
42.38379 1126
42.40391 1095
42.42402 1005
42.44414 924
42.46425 786
42.48436 714
42.50448 585
42.52459 558
42.5447 442
42.56482 419
42.58493 317
42.60505 330
42.62516 302
42.64527 256
42.66539 265
42.6855 262
42.70561 277
42.72573 275
42.74584 247
42.76595 265
42.78607 235
42.80618 242
42.8263 248
42.84641 253
42.86652 284
42.88664 233
42.90675 232
42.92686 221
42.94698 247
42.96709 233
42.98721 234
43.00732 250
43.02743 227
43.04755 246
43.06766 243
43.08777 217
43.10789 225
43.128 230
43.14812 216
43.16823 210
43.18834 217
43.20846 214
43.22857 219
43.24868 232
43.2688 216
43.28891 247
43.30902 229
43.32914 220
43.34925 222
43.36937 213
43.38948 238
43.40959 228
43.42971 236
43.44982 232
43.46993 217
43.49005 209
43.51016 218
43.53028 229
43.55039 225
43.5705 235
43.59062 243
43.61073 250
43.63084 221
43.65096 233
43.67107 225
43.69119 249
43.7113 227
43.73141 229
43.75153 228
43.77164 230
43.79175 226
43.81187 228
43.83198 221
43.85209 217
43.87221 247
43.89232 235
43.91244 256
43.93255 230
43.95266 240
43.97278 248
43.99289 249
44.013 251
44.03312 242
44.05323 243
44.07335 260
44.09346 261
44.11357 247
44.13369 241
44.1538 237
44.17391 247
44.19403 245
44.21414 236
44.23426 265
44.25437 247
44.27448 225
44.2946 249
44.31471 232
44.33482 238
44.35494 218
44.37505 206
44.39516 239
44.41528 222
44.43539 218
44.45551 217
44.47562 242
44.49573 218
44.51585 230
44.53596 228
44.55607 234
44.57619 249
44.5963 244
44.61642 248
44.63653 205
44.65664 227
44.67676 221
44.69687 231
44.71698 213
44.7371 258
44.75721 232
44.77732 239
44.79744 253
44.81755 230
44.83767 209
44.85778 246
44.87789 269
44.89801 261
44.91812 225
44.93823 229
44.95835 235
44.97846 237
44.99858 253
45.01869 242
45.0388 247
45.05892 228
45.07903 276
45.09914 255
45.11926 270
45.13937 266
45.15949 266
45.1796 242
45.19971 257
45.21983 264
45.23994 281
45.26005 265
45.28017 279
45.30028 291
45.32039 317
45.34051 334
45.36062 331
45.38074 327
45.40085 319
45.42096 356
45.44108 323
45.46119 371
45.4813 388
45.50142 403
45.52153 394
45.54165 436
45.56176 486
45.58187 566
45.60199 600
45.6221 620
45.64221 754
45.66233 763
45.68244 888
45.70256 849
45.72267 887
45.74278 808
45.7629 775
45.78301 690
45.80312 640
45.82324 574
45.84335 552
45.86346 505
45.88358 441
45.90369 383
45.92381 368
45.94392 288
45.96403 283
45.98415 283
46.00426 259
46.02437 246
46.04449 254
46.0646 257
46.08472 259
46.10483 218
46.12494 242
46.14506 246
46.16517 287
46.18528 227
46.2054 256
46.22551 229
46.24563 235
46.26574 253
46.28585 232
46.30597 253
46.32608 224
46.34619 232
46.36631 259
46.38642 236
46.40653 245
46.42665 238
46.44676 237
46.46688 229
46.48699 244
46.5071 268
46.52722 232
46.54733 256
46.56744 232
46.58756 224
46.60767 219
46.62779 237
46.6479 215
46.66801 249
46.68813 246
46.70824 241
46.72835 238
46.74847 229
46.76858 216
46.78869 229
46.80881 262
46.82892 241
46.84904 248
46.86915 230
46.88926 232
46.90938 249
46.92949 242
46.9496 233
46.96972 237
46.98983 265
47.00995 244
47.03006 204
47.05017 228
47.07029 244
47.0904 251
47.11051 252
47.13063 235
47.15074 275
47.17086 234
47.19097 249
47.21108 212
47.2312 254
47.25131 233
47.27142 262
47.29154 238
47.31165 263
47.33176 279
47.35188 234
47.37199 247
47.39211 239
47.41222 238
47.43233 249
47.45245 242
47.47256 224
47.49267 252
47.51279 241
47.5329 227
47.55302 237
47.57313 218
47.59324 236
47.61336 217
47.63347 233
47.65358 246
47.6737 235
47.69381 229
47.71393 232
47.73404 237
47.75415 246
47.77427 216
47.79438 236
47.81449 259
47.83461 242
47.85472 247
47.87483 251
47.89495 265
47.91506 247
47.93518 221
47.95529 254
47.9754 239
47.99552 244
48.01563 253
48.03574 213
48.05586 231
48.07597 236
48.09609 255
48.1162 198
48.13631 247
48.15643 219
48.17654 228
48.19665 253
48.21677 251
48.23688 258
48.257 217
48.27711 241
48.29722 239
48.31734 234
48.33745 238
48.35756 232
48.37768 227
48.39779 214
48.4179 242
48.43802 265
48.45813 229
48.47825 221
48.49836 237
48.51847 230
48.53859 255
48.5587 235
48.57881 252
48.59893 213
48.61904 232
48.63916 232
48.65927 245
48.67938 237
48.6995 250
48.71961 260
48.73972 229
48.75984 226
48.77995 253
48.80006 246
48.82018 242
48.84029 235
48.86041 223
48.88052 215
48.90063 240
48.92075 234
48.94086 229
48.96097 241
48.98109 240
49.0012 258
49.02132 209
49.04143 241
49.06154 251
49.08166 252
49.10177 215
49.12188 251
49.142 239
49.16211 250
49.18223 242
49.20234 254
49.22245 246
49.24257 262
49.26268 261
49.28279 266
49.30291 263
49.32302 265
49.34313 256
49.36325 264
49.38336 260
49.40348 295
49.42359 257
49.4437 278
49.46382 246
49.48393 275
49.50404 254
49.52416 277
49.54427 305
49.56439 284
49.5845 288
49.60461 280
49.62473 319
49.64484 341
49.66495 343
49.68507 321
49.70518 342
49.7253 398
49.74541 372
49.76552 446
49.78564 506
49.80575 515
49.82586 554
49.84598 650
49.86609 708
49.8862 843
49.90632 1030
49.92643 1156
49.94655 1478
49.96666 1713
49.98677 1987
50.00689 2267
50.027 2459
50.04711 2534
50.06723 2477
50.08734 2386
50.10746 2123
50.12757 1843
50.14768 1602
50.1678 1464
50.18791 1461
50.20802 1197
50.22814 1076
50.24825 866
50.26837 688
50.28848 549
50.30859 436
50.32871 416
50.34882 397
50.36893 316
50.38905 331
50.40916 336
50.42927 331
50.44939 329
50.4695 332
50.48962 323
50.50973 349
50.52984 353
50.54996 336
50.57007 335
50.59018 337
50.6103 328
50.63041 309
50.65053 279
50.67064 270
50.69075 302
50.71087 251
50.73098 260
50.75109 268
50.77121 289
50.79132 266
50.81143 237
50.83155 233
50.85166 244
50.87178 239
50.89189 270
50.912 262
50.93212 260
50.95223 232
50.97234 251
50.99246 267
51.01257 222
51.03269 207
51.0528 234
51.07291 249
51.09303 229
51.11314 234
51.13325 243
51.15337 222
51.17348 248
51.1936 260
51.21371 262
51.23382 205
51.25394 229
51.27405 230
51.29416 233
51.31428 227
51.33439 245
51.3545 193
51.37462 198
51.39473 198
51.41485 224
51.43496 194
51.45507 230
51.47519 223
51.4953 243
51.51541 222
51.53553 225
51.55564 188
51.57576 224
51.59587 205
51.61598 208
51.6361 216
51.65621 222
51.67632 226
51.69644 215
51.71655 210
51.73667 215
51.75678 244
51.77689 214
51.79701 270
51.81712 236
51.83723 233
51.85735 202
51.87746 203
51.89757 230
51.91769 236
51.9378 192
51.95792 208
51.97803 245
51.99814 233
52.01826 203
52.03837 250
52.05848 224
52.0786 242
52.09871 240
52.11883 234
52.13894 236
52.15905 276
52.17917 223
52.19928 230
52.21939 245
52.23951 207
52.25962 222
52.27974 232
52.29985 230
52.31996 242
52.34008 197
52.36019 233
52.3803 213
52.40042 181
52.42053 217
52.44064 204
52.46076 208
52.48087 250
52.50099 228
52.5211 203
52.54121 219
52.56133 214
52.58144 207
52.60155 235
52.62167 184
52.64178 245
52.6619 225
52.68201 230
52.70212 209
52.72224 216
52.74235 218
52.76246 222
52.78258 215
52.80269 215
52.8228 240
52.84292 235
52.86303 206
52.88315 214
52.90326 249
52.92337 226
52.94349 240
52.9636 212
52.98371 224
53.00383 202
53.02394 212
53.04406 197
53.06417 214
53.08428 228
53.1044 213
53.12451 237
53.14462 231
53.16474 230
53.18485 239
53.20497 238
53.22508 255
53.24519 204
53.26531 231
53.28542 237
53.30553 234
53.32565 230
53.34576 237
53.36587 240
53.38599 245
53.4061 253
53.42622 255
53.44633 247
53.46644 229
53.48656 242
53.50667 241
53.52678 241
53.5469 241
53.56701 231
53.58713 253
53.60724 261
53.62735 264
53.64747 252
53.66758 255
53.68769 251
53.70781 252
53.72792 267
53.74804 260
53.76815 279
53.78826 302
53.80838 280
53.82849 248
53.8486 285
53.86872 274
53.88883 289
53.90894 288
53.92906 297
53.94917 279
53.96929 300
53.9894 285
54.00951 286
54.02963 321
54.04974 283
54.06985 321
54.08997 310
54.11008 299
54.1302 309
54.15031 344
54.17042 300
54.19054 308
54.21065 323
54.23076 347
54.25088 330
54.27099 319
54.29111 325
54.31122 357
54.33133 323
54.35145 344
54.37156 335
54.39167 352
54.41179 315
54.4319 355
54.45201 358
54.47213 366
54.49224 337
54.51236 372
54.53247 365
54.55258 413
54.5727 409
54.59281 477
54.61292 457
54.63304 495
54.65315 552
54.67327 612
54.69338 717
54.71349 751
54.73361 788
54.75372 864
54.77383 909
54.79395 958
54.81406 941
54.83417 852
54.85429 761
54.8744 733
54.89452 678
54.91463 677
54.93474 658
54.95486 571
54.97497 568
54.99508 513
55.0152 455
55.03531 430
55.05543 407
55.07554 394
55.09565 451
55.11577 432
55.13588 469
55.15599 515
55.17611 486
55.19622 528
55.21634 545
55.23645 583
55.25656 616
55.27668 544
55.29679 511
55.3169 490
55.33702 433
55.35713 446
55.37724 440
55.39736 391
55.41747 408
55.43759 366
55.4577 332
55.47781 342
55.49793 323
55.51804 316
55.53815 308
55.55827 326
55.57838 276
55.5985 302
55.61861 288
55.63872 289
55.65884 258
55.67895 269
55.69906 283
55.71918 264
55.73929 274
55.75941 252
55.77952 244
55.79963 248
55.81975 262
55.83986 275
55.85997 250
55.88009 235
55.9002 270
55.92031 253
55.94043 250
55.96054 253
55.98066 249
56.00077 233
56.02088 237
56.041 251
56.06111 256
56.08122 264
56.10134 229
56.12145 238
56.14157 239
56.16168 229
56.18179 218
56.20191 240
56.22202 249
56.24213 262
56.26225 236
56.28236 255
56.30248 253
56.32259 223
56.3427 226
56.36282 221
56.38293 241
56.40304 244
56.42316 255
56.44327 259
56.46338 260
56.4835 218
56.50361 255
56.52373 258
56.54384 227
56.56395 223
56.58407 250
56.60418 223
56.62429 252
56.64441 255
56.66452 230
56.68464 250
56.70475 242
56.72486 253
56.74498 230
56.76509 240
56.7852 237
56.80532 260
56.82543 232
56.84554 254
56.86566 233
56.88577 263
56.90589 264
56.926 236
56.94611 239
56.96623 248
56.98634 244
57.00645 242
57.02657 248
57.04668 223
57.0668 252
57.08691 261
57.10702 270
57.12714 259
57.14725 270
57.16736 274
57.18748 229
57.20759 286
57.22771 229
57.24782 251
57.26793 277
57.28805 255
57.30816 252
57.32827 249
57.34839 226
57.3685 242
57.38861 250
57.40873 224
57.42884 225
57.44896 206
57.46907 208
57.48918 217
57.5093 218
57.52941 206
57.54952 259
57.56964 229
57.58975 229
57.60987 213
57.62998 226
57.65009 210
57.67021 218
57.69032 227
57.71043 263
57.73055 227
57.75066 219
57.77078 248
57.79089 253
57.811 243
57.83112 222
57.85123 240
57.87134 231
57.89146 256
57.91157 218
57.93168 209
57.9518 247
57.97191 207
57.99203 238
58.01214 230
58.03225 234
58.05237 224
58.07248 238
58.09259 236
58.11271 237
58.13282 204
58.15294 235
58.17305 252
58.19316 229
58.21328 242
58.23339 214
58.2535 246
58.27362 238
58.29373 236
58.31385 240
58.33396 221
58.35407 245
58.37419 225
58.3943 185
58.41441 240
58.43453 217
58.45464 267
58.47475 224
58.49487 230
58.51498 234
58.5351 232
58.55521 231
58.57532 215
58.59544 247
58.61555 239
58.63566 197
58.65578 219
58.67589 242
58.69601 230
58.71612 226
58.73623 239
58.75635 227
58.77646 232
58.79657 245
58.81669 178
58.8368 217
58.85691 189
58.87703 213
58.89714 222
58.91726 227
58.93737 224
58.95748 234
58.9776 213
58.99771 234
59.01782 231
59.03794 255
59.05805 241
59.07817 236
59.09828 206
59.11839 239
59.13851 211
59.15862 239
59.17873 236
59.19885 252
59.21896 231
59.23908 269
59.25919 241
59.2793 245
59.29942 279
59.31953 249
59.33964 252
59.35976 254
59.37987 263
59.39998 273
59.4201 272
59.44021 289
59.46033 301
59.48044 315
59.50055 309
59.52067 336
59.54078 370
59.56089 354
59.58101 414
59.60112 432
59.62124 461
59.64135 518
59.66146 557
59.68158 637
59.70169 736
59.7218 810
59.74192 942
59.76203 1071
59.78215 1281
59.80226 1399
59.82237 1578
59.84249 1674
59.8626 1757
59.88271 1693
59.90283 1471
59.92294 1385
59.94305 1251
59.96317 1104
59.98328 1053
60.0034 1027
60.02351 938
60.04362 906
60.06374 850
60.08385 721
60.10396 613
60.12408 512
60.14419 406
60.16431 360
60.18442 343
60.20453 336
60.22465 293
60.24476 281
60.26487 287
60.28499 268
60.3051 282
60.32522 272
60.34533 259
60.36544 268
60.38556 229
60.40567 251
60.42578 243
60.4459 241
60.46601 216
60.48612 250
60.50624 227
60.52635 261
60.54647 218
60.56658 237
60.58669 228
60.60681 225
60.62692 222
60.64703 241
60.66715 205
60.68726 213
60.70738 238
60.72749 232
60.7476 226
60.76772 233
60.78783 232
60.80794 239
60.82806 212
60.84817 225
60.86828 242
60.8884 221
60.90851 237
60.92863 243
60.94874 215
60.96885 240
60.98897 201
61.00908 245
61.02919 220
61.04931 219
61.06942 221
61.08954 232
61.10965 220
61.12976 253
61.14988 214
61.16999 222
61.1901 250
61.21022 218
61.23033 219
61.25045 230
61.27056 245
61.29067 221
61.31079 237
61.3309 225
61.35101 238
61.37113 207
61.39124 214
61.41135 216
61.43147 224
61.45158 216
61.4717 216
61.49181 213
61.51192 227
61.53204 235
61.55215 247
61.57226 241
61.59238 236
61.61249 233
61.63261 235
61.65272 196
61.67283 246
61.69295 246
61.71306 251
61.73317 240
61.75329 247
61.7734 242
61.79352 252
61.81363 255
61.83374 244
61.85386 276
61.87397 275
61.89408 289
61.9142 265
61.93431 295
61.95442 308
61.97454 281
61.99465 281
62.01477 292
62.03488 304
62.05499 329
62.07511 353
62.09522 352
62.11533 328
62.13545 353
62.15556 343
62.17568 340
62.19579 341
62.2159 365
62.23602 367
62.25613 365
62.27624 391
62.29636 352
62.31647 303
62.33659 336
62.3567 292
62.37681 319
62.39693 309
62.41704 291
62.43715 327
62.45727 285
62.47738 298
62.49749 285
62.51761 300
62.53772 306
62.55784 273
62.57795 280
62.59806 275
62.61818 283
62.63829 271
62.6584 252
62.67852 274
62.69863 257
62.71875 260
62.73886 262
62.75897 242
62.77909 229
62.7992 228
62.81931 253
62.83943 259
62.85954 228
62.87965 256
62.89977 243
62.91988 240
62.94 238
62.96011 248
62.98022 221
63.00034 239
63.02045 239
63.04056 247
63.06068 234
63.08079 233
63.10091 253
63.12102 230
63.14113 230
63.16125 215
63.18136 246
63.20147 232
63.22159 258
63.2417 265
63.26182 269
63.28193 248
63.30204 222
63.32216 208
63.34227 233
63.36238 222
63.3825 233
63.40261 246
63.42272 225
63.44284 226
63.46295 253
63.48307 273
63.50318 250
63.52329 244
63.54341 237
63.56352 248
63.58363 270
63.60375 275
63.62386 281
63.64398 304
63.66409 271
63.6842 304
63.70432 301
63.72443 297
63.74454 338
63.76466 344
63.78477 356
63.80489 373
63.825 398
63.84511 427
63.86523 465
63.88534 471
63.90545 498
63.92557 512
63.94568 488
63.96579 519
63.98591 442
64.00602 432
64.02614 431
64.04625 371
64.06636 374
64.08648 396
64.10659 368
64.1267 375
64.14682 368
64.16693 307
64.18705 316
64.20716 286
64.22727 274
64.24739 273
64.2675 247
64.28761 266
64.30773 247
64.32784 211
64.34796 246
64.36807 250
64.38818 240
64.4083 259
64.42841 234
64.44852 225
64.46864 225
64.48875 226
64.50886 208
64.52898 227
64.54909 243
64.56921 227
64.58932 223
64.60943 237
64.62955 214
64.64966 213
64.66977 212
64.68989 223
64.71 226
64.73012 232
64.75023 254
64.77034 225
64.79046 206
64.81057 220
64.83068 216
64.8508 221
64.87091 209
64.89102 220
64.91114 229
64.93125 209
64.95137 210
64.97148 226
64.99159 224
65.01171 246
65.03182 208
65.05193 219
65.07205 190
65.09216 220
65.11228 237
65.13239 187
65.1525 230
65.17262 197
65.19273 243
65.21284 205
65.23296 215
65.25307 252
65.27319 205
65.2933 223
65.31341 209
65.33353 203
65.35364 208
65.37375 204
65.39387 217
65.41398 220
65.43409 236
65.45421 245
65.47432 228
65.49444 223
65.51455 240
65.53466 234
65.55478 261
65.57489 248
65.595 246
65.61512 263
65.63523 265
65.65535 241
65.67546 301
65.69557 272
65.71569 263
65.7358 296
65.75591 256
65.77603 257
65.79614 285
65.81626 242
65.83637 252
65.85648 257
65.8766 229
65.89671 243
65.91682 263
65.93694 263
65.95705 249
65.97716 247
65.99728 219
66.01739 218
66.03751 239
66.05762 203
66.07773 241
66.09785 223
66.11796 235
66.13807 252
66.15819 231
66.1783 216
66.19842 247
66.21853 228
66.23864 228
66.25876 226
66.27887 208
66.29898 200
66.3191 187
66.33921 224
66.35933 207
66.37944 213
66.39955 255
66.41967 220
66.43978 214
66.45989 256
66.48001 219
66.50012 225
66.52023 217
66.54035 223
66.56046 230
66.58058 214
66.60069 220
66.6208 216
66.64092 218
66.66103 227
66.68114 203
66.70126 204
66.72137 209
66.74149 249
66.7616 227
66.78171 246
66.80183 216
66.82194 230
66.84205 237
66.86217 232
66.88228 234
66.90239 240
66.92251 260
66.94262 233
66.96274 256
66.98285 230
67.00296 256
67.02308 226
67.04319 256
67.0633 274
67.08342 251
67.10353 241
67.12365 265
67.14376 241
67.16387 250
67.18399 268
67.2041 263
67.22421 258
67.24433 275
67.26444 270
67.28456 299
67.30467 276
67.32478 300
67.3449 326
67.36501 321
67.38512 367
67.40524 388
67.42535 401
67.44546 450
67.46558 487
67.48569 550
67.50581 607
67.52592 663
67.54603 752
67.56615 848
67.58626 961
67.60637 1030
67.62649 1055
67.6466 1162
67.66672 1100
67.68683 1008
67.70694 953
67.72706 910
67.74717 822
67.76728 808
67.7874 823
67.80751 878
67.82763 878
67.84774 867
67.86785 979
67.88797 973
67.90808 939
67.92819 996
67.94831 951
67.96842 1133
67.98853 1244
68.00865 1295
68.02876 1384
68.04888 1457
68.06899 1539
68.0891 1469
68.10922 1435
68.12933 1318
68.14944 1248
68.16956 1346
68.18967 1299
68.20979 1446
68.2299 1348
68.25001 1307
68.27013 1190
68.29024 997
68.31035 926
68.33047 766
68.35058 643
68.3707 649
68.39081 635
68.41092 603
68.43104 551
68.45115 503
68.47126 450
68.49138 388
68.51149 349
68.5316 327
68.55172 325
68.57183 285
68.59195 302
68.61206 249
68.63217 260
68.65229 266
68.6724 231
68.69251 230
68.71263 231
68.73274 243
68.75286 253
68.77297 238
68.79308 233
68.8132 246
68.83331 196
68.85342 234
68.87354 222
68.89365 245
68.91376 243
68.93388 237
68.95399 212
68.97411 243
68.99422 211
69.01433 226
69.03445 213
69.05456 204
69.07467 201
69.09479 223
69.1149 203
69.13502 196
69.15513 233
69.17524 221
69.19536 207
69.21547 217
69.23558 228
69.2557 189
69.27581 221
69.29593 221
69.31604 229
69.33615 242
69.35627 214
69.37638 236
69.39649 206
69.41661 212
69.43672 216
69.45683 228
69.47695 236
69.49706 237
69.51718 208
69.53729 207
69.5574 207
69.57752 203
69.59763 199
69.61774 217
69.63786 193
69.65797 234
69.67809 207
69.6982 214
69.71831 221
69.73843 224
69.75854 241
69.77865 212
69.79877 218
69.81888 219
69.839 227
69.85911 227
69.87922 196
69.89934 202
69.91945 222
69.93956 217
69.95968 232
69.97979 211
69.9999 187
70.02002 216
70.04013 213
70.06025 217
70.08036 221
70.10047 209
70.12059 229
70.1407 191
70.16081 182
70.18093 199
70.20104 178
70.22116 180
70.24127 186
70.26138 210
70.2815 213
70.30161 246
70.32172 198
70.34184 214
70.36195 198
70.38207 215
70.40218 211
70.42229 228
70.44241 217
70.46252 199
70.48263 193
70.50275 216
70.52286 233
70.54297 218
70.56309 213
70.5832 213
70.60332 233
70.62343 222
70.64354 217
70.66366 229
70.68377 201
70.70388 186
70.724 204
70.74411 178
70.76423 211
70.78434 202
70.80445 215
70.82457 196
70.84468 206
70.86479 213
70.88491 210
70.90502 190
70.92513 208
70.94525 204
70.96536 209
70.98548 192
71.00559 186
71.0257 212
71.04582 213
71.06593 206
71.08604 197
71.10616 194
71.12627 206
71.14639 176
71.1665 183
71.18661 193
71.20673 207
71.22684 193
71.24695 218
71.26707 237
71.28718 215
71.3073 206
71.32741 192
71.34752 211
71.36764 205
71.38775 213
71.40786 205
71.42798 198
71.44809 219
71.4682 198
71.48832 228
71.50843 202
71.52855 216
71.54866 215
71.56877 211
71.58889 204
71.609 249
71.62911 189
71.64923 201
71.66934 214
71.68946 194
71.70957 217
71.72968 211
71.7498 192
71.76991 213
71.79002 204
71.81014 205
71.83025 229
71.85037 201
71.87048 203
71.89059 227
71.91071 234
71.93082 205
71.95093 214
71.97105 220
71.99116 234
72.01127 209
72.03139 210
72.0515 197
72.07162 228
72.09173 202
72.11184 194
72.13196 205
72.15207 223
72.17218 216
72.1923 240
72.21241 218
72.23253 223
72.25264 203
72.27275 220
72.29287 179
72.31298 226
72.33309 201
72.35321 190
72.37332 213
72.39344 206
72.41355 228
72.43366 199
72.45378 199
72.47389 221
72.494 181
72.51412 201
72.53423 189
72.55434 227
72.57446 211
72.59457 204
72.61469 218
72.6348 207
72.65491 203
72.67503 212
72.69514 204
72.71525 205
72.73537 222
72.75548 213
72.7756 213
72.79571 196
72.81582 211
72.83594 230
72.85605 227
72.87616 200
72.89628 201
72.91639 200
72.9365 217
72.95662 214
72.97673 197
72.99685 251
73.01696 264
73.03707 248
73.05719 260
73.0773 257
73.09741 249
73.11753 266
73.13764 258
73.15776 316
73.17787 290
73.19798 316
73.2181 308
73.23821 360
73.25832 380
73.27844 418
73.29855 457
73.31867 486
73.33878 522
73.35889 527
73.37901 549
73.39912 541
73.41923 515
73.43935 431
73.45946 433
73.47957 396
73.49969 364
73.5198 352
73.53992 408
73.56003 369
73.58014 389
73.60026 391
73.62037 342
73.64048 319
73.6606 296
73.68071 277
73.70083 244
73.72094 272
73.74105 207
73.76117 218
73.78128 233
73.80139 263
73.82151 233
73.84162 240
73.86174 222
73.88185 234
73.90196 212
73.92208 189
73.94219 219
73.9623 215
73.98242 222
74.00253 227
74.02264 208
74.04276 212
74.06287 206
74.08299 208
74.1031 192
74.12321 207
74.14333 224
74.16344 219
74.18355 210
74.20367 233
74.22378 218
74.2439 194
74.26401 213
74.28412 172
74.30424 212
74.32435 198
74.34446 190
74.36458 197
74.38469 204
74.40481 192
74.42492 228
74.44503 206
74.46515 235
74.48526 216
74.50537 215
74.52549 194
74.5456 228
74.56571 193
74.58583 172
74.60594 250
74.62606 209
74.64617 191
74.66628 199
74.6864 206
74.70651 207
74.72662 242
74.74674 195
74.76685 220
74.78697 222
74.80708 205
74.82719 244
74.84731 216
74.86742 220
74.88753 196
74.90765 199
74.92776 214
74.94787 238
74.96799 228
74.9881 178
75.00822 237
