3.00117 20391
3.02128 19869
3.0414 19212
3.06151 18771
3.08162 18232
3.10174 17728
3.12185 16908
3.14197 16797
3.16208 15903
3.18219 15758
3.20231 15438
3.22242 14825
3.24253 14484
3.26265 13739
3.28276 13500
3.30288 13097
3.32299 12586
3.3431 12544
3.36322 11693
3.38333 11222
3.40344 10997
3.42356 10714
3.44367 10414
3.46379 10068
3.4839 9572
3.50401 9300
3.52413 8882
3.54424 8673
3.56435 8165
3.58447 8153
3.60458 7798
3.62469 7494
3.64481 7116
3.66492 6761
3.68504 6507
3.70515 6578
3.72526 6017
3.74538 5817
3.76549 5723
3.7856 5268
3.80572 5262
3.82583 4723
3.84595 4839
3.86606 4616
3.88617 4395
3.90629 4177
3.9264 4090
3.94651 4013
3.96663 3501
3.98674 3507
4.00686 3452
4.02697 3206
4.04708 3081
4.0672 2910
4.08731 2822
4.10742 2694
4.12754 2629
4.14765 2482
4.16776 2417
4.18788 2273
4.20799 2202
4.22811 2088
4.24822 2052
4.26833 1923
4.28845 1921
4.30856 1863
4.32867 1823
4.34879 1747
4.3689 1630
4.38902 1621
4.40913 1645
4.42924 1502
4.44936 1520
4.46947 1450
4.48958 1448
4.5097 1447
4.52981 1392
4.54992 1360
4.57004 1266
4.59015 1253
4.61027 1303
4.63038 1265
4.65049 1230
4.67061 1108
4.69072 1078
4.71083 1047
4.73095 1038
4.75106 1041
4.77118 1034
4.79129 922
4.8114 1021
4.83152 951
4.85163 894
4.87174 937
4.89186 863
4.91197 885
4.93209 866
4.9522 782
4.97231 811
4.99243 817
5.01254 770
5.03265 768
5.05277 682
5.07288 733
5.09299 691
5.11311 706
5.13322 691
5.15334 690
5.17345 682
5.19356 631
5.21368 588
5.23379 675
5.2539 585
5.27402 552
5.29413 530
5.31425 612
5.33436 562
5.35447 526
5.37459 525
5.3947 480
5.41481 481
5.43493 549
5.45504 477
5.47516 475
5.49527 471
5.51538 435
5.5355 491
5.55561 457
5.57572 416
5.59584 415
5.61595 388
5.63606 425
5.65618 377
5.67629 397
5.69641 379
5.71652 369
5.73663 390
5.75675 360
5.77686 329
5.79697 339
5.81709 333
5.8372 343
5.85732 355
5.87743 344
5.89754 330
5.91766 338
5.93777 348
5.95788 333
5.978 282
5.99811 316
6.01823 302
6.03834 281
6.05845 294
6.07857 346
6.09868 314
6.11879 306
6.13891 312
6.15902 277
6.17913 312
6.19925 293
6.21936 293
6.23948 283
6.25959 263
6.2797 293
6.29982 287
6.31993 290
6.34004 267
6.36016 296
6.38027 287
6.40039 277
6.4205 264
6.44061 276
6.46073 242
6.48084 269
6.50095 297
6.52107 266
6.54118 277
6.56129 274
6.58141 251
6.60152 228
6.62164 236
6.64175 271
6.66186 251
6.68198 288
6.70209 273
6.7222 242
6.74232 258
6.76243 268
6.78255 248
6.80266 284
6.82277 255
6.84289 223
6.863 228
6.88311 274
6.90323 275
6.92334 275
6.94346 257
6.96357 230
6.98368 261
7.0038 253
7.02391 217
7.04402 262
7.06414 271
7.08425 272
7.10436 273
7.12448 270
7.14459 276
7.16471 270
7.18482 289
7.20493 245
7.22505 282
7.24516 265
7.26527 266
7.28539 230
7.3055 272
7.32562 286
7.34573 254
7.36584 266
7.38596 266
7.40607 269
7.42618 270
7.4463 259
7.46641 290
7.48653 279
7.50664 271
7.52675 278
7.54687 271
7.56698 241
7.58709 253
7.60721 275
7.62732 284
7.64743 287
7.66755 297
7.68766 261
7.70778 236
7.72789 244
7.748 253
7.76812 262
7.78823 299
7.80834 237
7.82846 262
7.84857 283
7.86869 254
7.8888 255
7.90891 244
7.92903 301
7.94914 295
7.96925 235
7.98937 263
8.00948 257
8.0296 280
8.04971 280
8.06982 287
8.08994 271
8.11005 311
8.13016 288
8.15028 302
8.17039 282
8.1905 312
8.21062 239
8.23073 313
8.25085 304
8.27096 298
8.29107 298
8.31119 290
8.3313 295
8.35141 292
8.37153 281
8.39164 283
8.41176 254
8.43187 291
8.45198 272
8.4721 300
8.49221 311
8.51232 323
8.53244 307
8.55255 301
8.57266 301
8.59278 319
8.61289 320
8.63301 272
8.65312 310
8.67323 355
8.69335 359
8.71346 328
8.73357 316
8.75369 375
8.7738 350
8.79392 383
8.81403 375
8.83414 304
8.85426 315
8.87437 284
8.89448 329
8.9146 323
8.93471 337
8.95483 326
8.97494 289
8.99505 300
9.01517 281
9.03528 250
9.05539 270
9.07551 308
9.09562 286
9.11573 283
9.13585 262
9.15596 293
9.17608 324
9.19619 256
9.2163 300
9.23642 260
9.25653 280
9.27664 256
9.29676 278
9.31687 292
9.33699 259
9.3571 251
9.37721 286
9.39733 270
9.41744 277
9.43755 258
9.45767 281
9.47778 268
9.4979 263
9.51801 258
9.53812 260
9.55824 310
9.57835 267
9.59846 256
9.61858 281
9.63869 299
9.6588 246
9.67892 241
9.69903 256
9.71915 275
9.73926 276
9.75937 286
9.77949 258
9.7996 268
9.81971 244
9.83983 257
9.85994 263
9.88006 277
9.90017 271
9.92028 247
9.9404 241
9.96051 269
9.98062 289
10.00074 250
10.02085 269
10.04097 256
10.06108 275
10.08119 308
10.10131 255
10.12142 267
10.14153 250
10.16165 265
10.18176 288
10.20187 249
10.22199 255
10.2421 278
10.26222 270
10.28233 285
10.30244 283
10.32256 271
10.34267 272
10.36278 259
10.3829 239
10.40301 272
10.42313 255
10.44324 280
10.46335 272
10.48347 263
10.50358 277
10.52369 263
10.54381 298
10.56392 238
10.58403 263
10.60415 292
10.62426 285
10.64438 254
10.66449 238
10.6846 298
10.70472 251
10.72483 260
10.74494 274
10.76506 260
10.78517 279
10.80529 274
10.8254 270
10.84551 258
10.86563 257
10.88574 258
10.90585 287
10.92597 252
10.94608 241
10.9662 232
10.98631 220
11.00642 272
11.02654 278
11.04665 247
11.06676 268
11.08688 286
11.10699 253
11.1271 315
11.14722 286
11.16733 249
11.18745 274
11.20756 273
11.22767 301
11.24779 270
11.2679 268
11.28801 275
11.30813 253
11.32824 256
11.34836 266
11.36847 251
11.38858 289
11.4087 254
11.42881 263
11.44892 249
11.46904 300
11.48915 265
11.50927 307
11.52938 254
11.54949 267
11.56961 296
11.58972 314
11.60983 306
11.62995 273
11.65006 326
11.67017 289
11.69029 308
11.7104 317
11.73052 308
11.75063 290
11.77074 287
11.79086 329
11.81097 339
11.83108 320
11.8512 312
11.87131 380
11.89143 350
11.91154 317
11.93165 339
11.95177 324
11.97188 318
11.99199 334
12.01211 388
12.03222 377
12.05234 394
12.07245 393
12.09256 363
12.11268 393
12.13279 400
12.1529 440
12.17302 406
12.19313 439
12.21324 403
12.23336 421
12.25347 424
12.27359 445
12.2937 427
12.31381 442
12.33393 447
12.35404 403
12.37415 438
12.39427 420
12.41438 392
12.4345 349
12.45461 353
12.47472 329
12.49484 359
12.51495 337
12.53506 333
12.55518 332
12.57529 341
12.5954 296
12.61552 323
12.63563 302
12.65575 286
12.67586 260
12.69597 271
12.71609 296
12.7362 275
12.75631 292
12.77643 262
12.79654 291
12.81666 289
12.83677 249
12.85688 251
12.877 246
12.89711 237
12.91722 240
12.93734 251
12.95745 243
12.97757 253
12.99768 284
13.01779 224
13.03791 265
13.05802 242
13.07813 242
13.09825 240
13.11836 274
13.13847 221
13.15859 243
13.1787 232
13.19882 264
13.21893 200
13.23904 219
13.25916 212
13.27927 219
13.29938 229
13.3195 235
13.33961 265
13.35973 234
13.37984 236
13.39995 249
13.42007 246
13.44018 249
13.46029 222
13.48041 214
13.50052 211
13.52064 213
13.54075 235
13.56086 177
13.58098 208
13.60109 208
13.6212 252
13.64132 223
13.66143 238
13.68154 211
13.70166 208
13.72177 198
13.74189 233
13.762 205
13.78211 220
13.80223 213
13.82234 211
13.84245 184
13.86257 213
13.88268 201
13.9028 240
13.92291 203
13.94302 224
13.96314 222
13.98325 225
14.00336 227
14.02348 260
14.04359 225
14.06371 216
14.08382 210
14.10393 223
14.12405 224
14.14416 211
14.16427 203
14.18439 219
14.2045 220
14.22461 216
14.24473 230
14.26484 198
14.28496 205
14.30507 240
14.32518 202
14.3453 205
14.36541 187
14.38552 210
14.40564 217
14.42575 201
14.44587 203
14.46598 233
14.48609 224
14.50621 215
14.52632 222
14.54643 213
14.56655 218
14.58666 203
14.60677 199
14.62689 211
14.647 211
14.66712 209
14.68723 185
14.70734 226
14.72746 229
14.74757 193
14.76768 199
14.7878 218
14.80791 177
14.82803 212
14.84814 203
14.86825 208
14.88837 210
14.90848 206
14.92859 198
14.94871 194
14.96882 177
14.98894 221
15.00905 232
15.02916 215
15.04928 219
15.06939 189
15.0895 186
15.10962 208
15.12973 214
15.14984 203
15.16996 177
15.19007 199
15.21019 191
15.2303 214
15.25041 223
15.27053 196
15.29064 200
15.31075 193
15.33087 207
15.35098 197
15.3711 196
15.39121 224
15.41132 188
15.43144 200
15.45155 185
15.47166 204
15.49178 191
15.51189 224
15.53201 195
15.55212 206
15.57223 182
15.59235 210
15.61246 197
15.63257 200
15.65269 198
15.6728 197
15.69291 193
15.71303 208
15.73314 197
15.75326 170
15.77337 194
15.79348 186
15.8136 208
15.83371 235
15.85382 191
15.87394 199
15.89405 221
15.91417 198
15.93428 203
15.95439 211
15.97451 196
15.99462 200
16.01473 207
16.03485 228
16.05496 222
16.07508 195
16.09519 216
16.1153 218
16.13542 178
16.15553 198
16.17564 222
16.19576 209
16.21587 211
16.23598 197
16.2561 181
16.27621 197
16.29633 191
16.31644 212
16.33655 198
16.35667 178
16.37678 193
16.39689 200
16.41701 183
16.43712 174
16.45724 206
16.47735 199
16.49746 208
16.51758 210
16.53769 206
16.5578 189
16.57792 217
16.59803 184
16.61814 191
16.63826 203
16.65837 160
16.67849 190
16.6986 191
16.71871 188
16.73883 214
16.75894 198
16.77905 207
16.79917 242
16.81928 217
16.8394 239
16.85951 212
16.87962 193
16.89974 199
16.91985 213
16.93996 211
16.96008 202
16.98019 194
17.00031 210
17.02042 202
17.04053 180
17.06065 207
17.08076 179
17.10087 195
17.12099 180
17.1411 201
17.16121 195
17.18133 163
17.20144 192
17.22156 181
17.24167 185
17.26178 213
17.2819 180
17.30201 187
17.32212 204
17.34224 203
17.36235 194
17.38247 194
17.40258 198
17.42269 217
17.44281 202
17.46292 193
17.48303 204
17.50315 188
17.52326 210
17.54338 224
17.56349 212
17.5836 216
17.60372 203
17.62383 232
17.64394 206
17.66406 220
17.68417 194
17.70428 229
17.7244 220
17.74451 241
17.76463 199
17.78474 259
17.80485 216
17.82497 212
17.84508 239
17.86519 212
17.88531 214
17.90542 194
17.92554 190
17.94565 210
17.96576 184
17.98588 193
18.00599 175
18.0261 208
18.04622 186
18.06633 203
18.08645 181
18.10656 217
18.12667 180
18.14679 200
18.1669 166
18.18701 196
18.20713 203
18.22724 185
18.24735 229
18.26747 196
18.28758 195
18.3077 200
18.32781 187
18.34792 190
18.36804 232
18.38815 189
18.40826 230
18.42838 195
18.44849 199
18.46861 200
18.48872 210
18.50883 200
18.52895 199
18.54906 221
18.56917 195
18.58929 177
18.6094 205
18.62951 205
18.64963 222
18.66974 212
18.68986 200
18.70997 205
18.73008 253
18.7502 209
18.77031 210
18.79042 203
18.81054 195
18.83065 213
18.85077 216
18.87088 220
18.89099 185
18.91111 196
18.93122 170
18.95133 194
18.97145 201
18.99156 183
19.01168 189
19.03179 210
19.0519 207
19.07202 205
19.09213 193
19.11224 210
19.13236 196
19.15247 192
19.17258 208
19.1927 227
19.21281 198
19.23293 183
19.25304 198
19.27315 210
19.29327 254
19.31338 209
19.33349 224
19.35361 212
19.37372 237
19.39384 216
19.41395 216
19.43406 266
19.45418 284
19.47429 267
19.4944 259
19.51452 309
19.53463 318
19.55475 348
19.57486 406
19.59497 404
19.61509 415
19.6352 464
19.65531 512
19.67543 487
19.69554 540
19.71565 551
19.73577 602
19.75588 605
19.776 609
19.79611 576
19.81622 562
19.83634 592
19.85645 615
19.87656 605
19.89668 558
19.91679 541
19.93691 548
19.95702 494
19.97713 552
19.99725 463
20.01736 477
20.03747 480
20.05759 420
20.0777 452
20.09782 436
20.11793 511
20.13804 501
20.15816 486
20.17827 480
20.19838 459
20.2185 456
20.23861 442
20.25872 497
20.27884 458
20.29895 517
20.31907 561
20.33918 467
20.35929 500
20.37941 519
20.39952 529
20.41963 505
20.43975 480
20.45986 570
20.47998 565
20.50009 575
20.5202 605
20.54032 615
20.56043 613
20.58054 741
20.60066 802
20.62077 997
20.64088 1154
20.661 1487
20.68111 1926
20.70123 2534
20.72134 3262
20.74145 3982
20.76157 4933
20.78168 5670
20.80179 5968
20.82191 5594
20.84202 5171
20.86214 4315
20.88225 3257
20.90236 2288
20.92248 1664
20.94259 1131
20.9627 842
20.98282 694
21.00293 606
21.02305 573
21.04316 536
21.06327 517
21.08339 472
21.1035 487
21.12361 471
21.14373 424
21.16384 409
21.18395 438
21.20407 422
21.22418 385
21.2443 421
21.26441 435
21.28452 397
21.30464 442
21.32475 395
21.34486 397
21.36498 399
21.38509 402
21.40521 356
21.42532 401
21.44543 369
21.46555 443
21.48566 375
21.50577 386
21.52589 350
21.546 362
21.56612 388
21.58623 345
21.60634 353
21.62646 365
21.64657 323
21.66668 378
21.6868 341
21.70691 346
21.72702 346
21.74714 325
21.76725 336
21.78737 330
21.80748 333
21.82759 298
21.84771 349
21.86782 321
21.88793 327
21.90805 332
21.92816 332
21.94828 324
21.96839 331
21.9885 289
22.00862 334
22.02873 297
22.04884 296
22.06896 312
22.08907 311
22.10919 305
22.1293 331
22.14941 312
22.16953 319
22.18964 290
22.20975 281
22.22987 327
22.24998 300
22.27009 282
22.29021 311
22.31032 282
22.33044 293
22.35055 291
22.37066 288
22.39078 324
22.41089 302
22.431 338
22.45112 275
22.47123 317
22.49135 297
22.51146 312
22.53157 327
22.55169 280
22.5718 277
22.59191 288
22.61203 289
22.63214 288
22.65225 294
22.67237 316
22.69248 280
22.7126 285
22.73271 297
22.75282 299
22.77294 331
22.79305 335
22.81316 340
22.83328 317
22.85339 299
22.87351 334
22.89362 324
22.91373 305
22.93385 288
22.95396 282
22.97407 268
22.99419 306
23.0143 276
23.03442 319
23.05453 265
23.07464 303
23.09476 323
23.11487 279
23.13498 315
23.1551 293
23.17521 282
23.19532 286
23.21544 283
23.23555 299
23.25567 256
23.27578 264
23.29589 271
23.31601 292
23.33612 280
23.35623 274
23.37635 280
23.39646 262
23.41658 267
23.43669 305
23.4568 272
23.47692 321
23.49703 288
23.51714 279
23.53726 273
23.55737 271
23.57749 267
23.5976 298
23.61771 273
23.63783 292
23.65794 288
23.67805 323
23.69817 339
23.71828 336
23.73839 330
23.75851 299
23.77862 296
23.79874 318
23.81885 295
23.83896 348
23.85908 336
23.87919 338
23.8993 343
23.91942 368
23.93953 361
23.95965 324
23.97976 336
23.99987 351
24.01999 343
24.0401 331
24.06021 342
24.08033 337
24.10044 324
24.12056 312
24.14067 324
24.16078 314
24.1809 360
24.20101 316
24.22112 325
24.24124 319
24.26135 318
24.28146 346
24.30158 345
24.32169 311
24.34181 325
24.36192 351
24.38203 357
24.40215 333
24.42226 282
24.44237 325
24.46249 332
24.4826 353
24.50272 352
24.52283 321
24.54294 383
24.56306 380
24.58317 369
24.60328 335
24.6234 374
24.64351 360
24.66362 367
24.68374 428
24.70385 398
24.72397 343
24.74408 383
24.76419 409
24.78431 401
24.80442 395
24.82453 409
24.84465 437
24.86476 405
24.88488 390
24.90499 392
24.9251 404
24.94522 358
24.96533 400
24.98544 358
25.00556 374
25.02567 363
25.04579 425
25.0659 408
25.08601 384
25.10613 393
25.12624 372
25.14635 378
25.16647 418
25.18658 414
25.20669 422
25.22681 382
25.24692 412
25.26704 404
25.28715 414
25.30726 403
25.32738 349
25.34749 397
25.3676 353
25.38772 370
25.40783 374
25.42795 354
25.44806 372
25.46817 340
25.48829 366
25.5084 333
25.52851 357
25.54863 368
25.56874 397
25.58886 396
25.60897 409
25.62908 394
25.6492 421
25.66931 415
25.68942 447
25.70954 415
25.72965 499
25.74976 429
25.76988 464
25.78999 476
25.81011 489
25.83022 486
25.85033 502
25.87045 484
25.89056 515
25.91067 541
25.93079 546
25.9509 520
25.97102 546
25.99113 562
26.01124 596
26.03136 679
26.05147 648
26.07158 647
26.0917 703
26.11181 807
26.13193 778
26.15204 899
26.17215 948
26.19227 972
26.21238 1030
26.23249 1119
26.25261 1227
26.27272 1343
26.29283 1517
26.31295 1759
26.33306 2103
26.35318 2382
26.37329 3143
26.3934 4041
26.41352 5186
26.43363 6738
26.45374 8987
26.47386 11643
26.49397 14830
26.51409 18376
26.5342 22055
26.55431 24645
26.57443 25720
26.59454 25150
26.61465 23271
26.63477 19690
26.65488 15348
26.67499 11460
26.69511 8169
26.71522 5618
26.73534 3690
26.75545 2511
26.77556 1958
26.79568 1593
26.81579 1494
26.8359 1308
26.85602 1141
26.87613 1048
26.89625 899
26.91636 885
26.93647 806
26.95659 811
26.9767 731
26.99681 642
27.01693 562
27.03704 554
27.05716 606
27.07727 533
27.09738 555
27.1175 510
27.13761 527
27.15772 461
27.17784 508
27.19795 409
27.21806 460
27.23818 426
27.25829 444
27.27841 399
27.29852 389
27.31863 403
27.33875 431
27.35886 399
27.37897 373
27.39909 404
27.4192 408
27.43932 398
27.45943 371
27.47954 390
27.49966 385
27.51977 349
27.53988 357
27.56 340
27.58011 389
27.60023 306
27.62034 325
27.64045 379
27.66057 327
27.68068 334
27.70079 342
27.72091 371
27.74102 345
27.76113 337
27.78125 366
27.80136 343
27.82148 326
27.84159 320
27.8617 332
27.88182 368
27.90193 357
27.92204 358
27.94216 342
27.96227 319
27.98239 314
28.0025 336
28.02261 336
28.04273 306
28.06284 320
28.08295 306
28.10307 338
28.12318 297
28.1433 302
28.16341 287
28.18352 314
28.20364 265
28.22375 279
28.24386 291
28.26398 300
28.28409 313
28.3042 308
28.32432 278
28.34443 315
28.36455 324
28.38466 280
28.40477 281
28.42489 285
28.445 238
28.46511 272
28.48523 308
28.50534 300
28.52546 280
28.54557 320
28.56568 265
28.5858 245
28.60591 338
28.62602 277
28.64614 314
28.66625 267
28.68636 287
28.70648 296
28.72659 277
28.74671 289
28.76682 297
28.78693 280
28.80705 289
28.82716 296
28.84727 278
28.86739 283
28.8875 295
28.90762 290
28.92773 298
28.94784 276
28.96796 288
28.98807 290
29.00818 311
29.0283 298
29.04841 267
29.06853 278
29.08864 285
29.10875 308
29.12887 278
29.14898 260
29.16909 268
29.18921 283
29.20932 313
29.22943 253
29.24955 256
29.26966 294
29.28978 259
29.30989 261
29.33 272
29.35012 266
29.37023 242
29.39034 261
29.41046 280
29.43057 268
29.45069 277
29.4708 251
29.49091 276
29.51103 260
29.53114 260
29.55125 279
29.57137 284
29.59148 263
29.6116 305
29.63171 263
29.65182 302
29.67194 264
29.69205 294
29.71216 261
29.73228 287
29.75239 266
29.7725 264
29.79262 241
29.81273 280
29.83285 280
29.85296 259
29.87307 294
29.89319 266
29.9133 270
29.93341 268
29.95353 274
29.97364 260
29.99376 260
30.01387 237
30.03398 263
30.0541 258
30.07421 246
30.09432 233
30.11444 267
30.13455 238
30.15467 283
30.17478 256
30.19489 269
30.21501 224
30.23512 267
30.25523 242
30.27535 262
30.29546 271
30.31557 234
30.33569 259
30.3558 262
30.37592 272
30.39603 246
30.41614 225
30.43626 254
30.45637 232
30.47648 266
30.4966 242
30.51671 253
30.53683 227
30.55694 247
30.57705 250
30.59717 235
30.61728 232
30.63739 248
30.65751 240
30.67762 220
30.69773 247
30.71785 247
30.73796 273
30.75808 265
30.77819 242
30.7983 273
30.81842 222
30.83853 192
30.85864 242
30.87876 207
30.89887 219
30.91899 262
30.9391 237
30.95921 229
30.97933 254
30.99944 237
31.01955 259
31.03967 210
31.05978 230
31.0799 242
31.10001 226
31.12012 269
31.14024 237
31.16035 232
31.18046 201
31.20058 231
31.22069 257
31.2408 217
31.26092 250
31.28103 239
31.30115 226
31.32126 211
31.34137 222
31.36149 208
31.3816 237
31.40171 257
31.42183 248
31.44194 241
31.46206 238
31.48217 257
31.50228 204
31.5224 220
31.54251 214
31.56262 197
31.58274 213
31.60285 217
31.62297 247
31.64308 202
31.66319 197
31.68331 188
31.70342 221
31.72353 219
31.74365 228
31.76376 238
31.78387 222
31.80399 219
31.8241 181
31.84422 209
31.86433 220
31.88444 202
31.90456 214
31.92467 230
31.94478 221
31.9649 231
31.98501 226
32.00513 225
32.02524 224
32.04535 202
32.06547 216
32.08558 215
32.10569 218
32.12581 236
32.14592 199
32.16604 213
32.18615 212
32.20626 216
32.22638 222
32.24649 190
32.2666 206
32.28672 228
32.30683 215
32.32694 233
32.34706 197
32.36717 200
32.38729 201
32.4074 195
32.42751 232
32.44763 185
32.46774 193
32.48785 209
32.50797 185
32.52808 216
32.5482 204
32.56831 192
32.58842 210
32.60854 204
32.62865 171
32.64876 165
32.66888 174
32.68899 236
32.7091 236
32.72922 220
32.74933 219
32.76945 218
32.78956 195
32.80967 207
32.82979 186
32.8499 184
32.87001 239
32.89013 244
32.91024 218
32.93036 199
32.95047 229
32.97058 226
32.9907 197
33.01081 203
33.03092 222
33.05104 229
33.07115 248
33.09127 243
33.11138 213
33.13149 228
33.15161 217
33.17172 253
33.19183 221
33.21195 209
33.23206 225
33.25217 230
33.27229 196
33.2924 182
33.31252 204
33.33263 222
33.35274 204
33.37286 217
33.39297 224
33.41308 198
33.4332 205
33.45331 198
33.47343 200
33.49354 236
33.51365 221
33.53377 204
33.55388 220
33.57399 213
33.59411 242
33.61422 229
33.63434 201
33.65445 197
33.67456 206
33.69468 208
33.71479 209
33.7349 213
33.75502 218
33.77513 215
33.79524 193
33.81536 181
33.83547 221
33.85559 217
33.8757 197
33.89581 173
33.91593 202
33.93604 186
33.95615 210
33.97627 201
33.99638 206
34.0165 201
34.03661 192
34.05672 209
34.07684 189
34.09695 205
34.11706 229
34.13718 222
34.15729 200
34.17741 221
34.19752 219
34.21763 185
34.23775 264
34.25786 230
34.27797 241
34.29809 232
34.3182 264
34.33831 294
34.35843 259
34.37854 279
34.39866 319
34.41877 297
34.43888 312
34.459 330
34.47911 323
34.49922 355
34.51934 304
34.53945 337
34.55957 330
34.57968 341
34.59979 342
34.61991 350
34.64002 403
34.66013 360
34.68025 385
34.70036 402
34.72047 381
34.74059 457
34.7607 446
34.78082 477
34.80093 429
34.82104 484
34.84116 424
34.86127 465
34.88138 450
34.9015 445
34.92161 466
34.94173 422
34.96184 419
34.98195 397
35.00207 375
35.02218 357
35.04229 338
35.06241 312
35.08252 340
35.10264 328
35.12275 342
35.14286 302
35.16298 291
35.18309 305
35.2032 270
35.22332 296
35.24343 282
35.26354 289
35.28366 286
35.30377 283
35.32389 274
35.344 306
35.36411 351
35.38423 302
35.40434 296
35.42445 317
35.44457 313
35.46468 335
35.4848 295
35.50491 332
35.52502 322
35.54514 278
35.56525 300
35.58536 302
35.60548 287
35.62559 299
35.64571 306
35.66582 292
35.68593 313
35.70605 289
35.72616 283
35.74627 274
35.76639 305
35.7865 295
35.80661 311
35.82673 333
35.84684 319
35.86696 267
35.88707 288
35.90718 319
35.9273 332
35.94741 307
35.96752 302
35.98764 301
36.00775 298
36.02787 306
36.04798 354
36.06809 330
36.08821 317
36.10832 321
36.12843 337
36.14855 333
36.16866 320
36.18878 378
36.20889 404
36.229 469
36.24912 428
36.26923 526
36.28934 590
36.30946 679
36.32957 794
36.34968 913
36.3698 1140
36.38991 1261
36.41003 1458
36.43014 1569
36.45025 1812
36.47037 1797
36.49048 1742
36.51059 1727
36.53071 1510
36.55082 1329
36.57094 1080
36.59105 985
36.61116 837
36.63128 620
36.65139 506
36.6715 462
36.69162 413
36.71173 385
36.73184 338
36.75196 280
36.77207 308
36.79219 293
36.8123 285
36.83241 279
36.85253 273
36.87264 270
36.89275 288
36.91287 285
36.93298 282
36.9531 286
36.97321 273
36.99332 293
37.01344 256
37.03355 251
37.05366 253
37.07378 280
37.09389 272
37.11401 277
37.13412 258
37.15423 279
37.17435 259
37.19446 297
37.21457 285
37.23469 309
37.2548 271
37.27491 293
37.29503 294
37.31514 298
37.33526 289
37.35537 291
37.37548 312
37.3956 314
37.41571 264
37.43582 251
37.45594 258
37.47605 268
37.49617 293
37.51628 284
37.53639 277
37.55651 306
37.57662 296
37.59673 289
37.61685 305
37.63696 305
37.65708 302
37.67719 330
37.6973 299
37.71742 307
37.73753 273
37.75764 304
37.77776 291
37.79787 266
37.81798 301
37.8381 281
37.85821 276
37.87833 297
37.89844 252
37.91855 250
37.93867 262
37.95878 305
37.97889 266
37.99901 238
38.01912 290
38.03924 282
38.05935 280
38.07946 292
38.09958 273
38.11969 287
38.1398 309
38.15992 303
38.18003 291
38.20015 296
38.22026 288
38.24037 300
38.26049 295
38.2806 309
38.30071 311
38.32083 319
38.34094 324
38.36105 308
38.38117 289
38.40128 289
38.4214 311
38.44151 314
38.46162 316
38.48174 301
38.50185 283
38.52196 296
38.54208 295
38.56219 297
38.58231 245
38.60242 281
38.62253 305
38.64265 246
38.66276 241
38.68287 274
38.70299 277
38.7231 265
38.74321 272
38.76333 257
38.78344 240
38.80356 274
38.82367 256
38.84378 260
38.8639 290
38.88401 273
38.90412 259
38.92424 286
38.94435 270
38.96447 277
38.98458 302
39.00469 274
39.02481 311
39.04492 326
39.06503 313
39.08515 329
39.10526 327
39.12538 370
39.14549 390
39.1656 441
39.18572 456
39.20583 541
39.22594 625
39.24606 763
39.26617 886
39.28628 970
39.3064 1220
39.32651 1281
39.34663 1509
39.36674 1655
39.38685 1681
39.40697 1644
39.42708 1622
39.44719 1438
39.46731 1260
39.48742 1124
39.50754 915
39.52765 807
39.54776 637
39.56788 530
39.58799 430
39.6081 373
39.62822 331
39.64833 306
39.66845 304
39.68856 260
39.70867 289
39.72879 312
39.7489 282
39.76901 315
39.78913 296
39.80924 284
39.82935 278
39.84947 298
39.86958 289
39.8897 275
39.90981 260
39.92992 289
39.95004 336
39.97015 340
39.99026 344
40.01038 360
40.03049 380
40.05061 452
40.07072 503
40.09083 581
40.11095 635
40.13106 728
40.15117 768
40.17129 868
40.1914 893
40.21152 907
40.23163 894
40.25174 872
40.27186 758
40.29197 744
40.31208 640
40.3322 581
40.35231 510
40.37242 466
40.39254 386
40.41265 358
40.43277 325
40.45288 274
40.47299 260
40.49311 257
40.51322 263
40.53333 258
40.55345 245
40.57356 259
40.59368 249
40.61379 230
40.6339 222
40.65402 231
40.67413 250
40.69424 243
40.71436 237
40.73447 215
40.75458 268
40.7747 256
40.79481 268
40.81493 229
40.83504 204
40.85515 232
40.87527 224
40.89538 241
40.91549 234
40.93561 244
40.95572 231
40.97584 221
40.99595 229
41.01606 211
41.03618 219
41.05629 249
41.0764 236
41.09652 231
41.11663 255
41.13675 226
41.15686 242
41.17697 219
41.19709 218
41.2172 225
41.23731 232
41.25743 212
41.27754 217
41.29765 236
41.31777 222
41.33788 227
41.358 200
41.37811 218
41.39822 231
41.41834 204
41.43845 196
41.45856 230
41.47868 224
41.49879 229
41.51891 224
41.53902 228
41.55913 223
41.57925 238
41.59936 200
41.61947 213
41.63959 246
41.6597 221
41.67982 210
41.69993 189
41.72004 265
41.74016 251
41.76027 230
41.78038 240
41.8005 231
41.82061 204
41.84072 237
41.86084 226
41.88095 262
41.90107 254
41.92118 248
41.94129 256
41.96141 269
41.98152 259
42.00163 270
42.02175 281
42.04186 271
42.06198 326
42.08209 288
42.1022 311
42.12232 345
42.14243 362
42.16254 418
42.18266 445
42.20277 470
42.22289 583
42.243 669
42.26311 777
42.28323 879
42.30334 1012
42.32345 1076
42.34357 1193
42.36368 1226
42.38379 1119
42.40391 1193
42.42402 1078
42.44414 954
42.46425 884
42.48436 755
42.50448 706
42.52459 589
42.5447 485
42.56482 420
42.58493 321
42.60505 274
42.62516 273
42.64527 274
42.66539 239
42.6855 230
42.70561 245
42.72573 228
42.74584 224
42.76595 226
42.78607 200
42.80618 205
42.8263 203
42.84641 194
42.86652 218
42.88664 222
42.90675 190
42.92686 208
42.94698 191
42.96709 208
42.98721 201
43.00732 199
43.02743 199
43.04755 189
43.06766 194
43.08777 199
43.10789 172
43.128 168
43.14812 198
43.16823 200
43.18834 194
43.20846 183
43.22857 196
43.24868 209
43.2688 186
43.28891 191
43.30902 194
43.32914 198
43.34925 209
43.36937 211
43.38948 218
43.40959 188
43.42971 192
43.44982 189
43.46993 219
43.49005 185
43.51016 207
43.53028 193
43.55039 180
43.5705 203
43.59062 190
43.61073 203
43.63084 217
43.65096 194
43.67107 212
43.69119 189
43.7113 204
43.73141 189
43.75153 179
43.77164 212
43.79175 205
43.81187 186
43.83198 195
43.85209 192
43.87221 203
43.89232 194
43.91244 207
43.93255 209
43.95266 196
43.97278 201
43.99289 206
44.013 182
44.03312 206
44.05323 187
44.07335 203
44.09346 207
44.11357 195
44.13369 202
44.1538 181
44.17391 212
44.19403 176
44.21414 203
44.23426 218
44.25437 201
44.27448 211
44.2946 206
44.31471 185
44.33482 180
44.35494 204
44.37505 197
44.39516 177
44.41528 168
44.43539 184
44.45551 201
44.47562 182
44.49573 213
44.51585 179
44.53596 186
44.55607 197
44.57619 207
44.5963 205
44.61642 195
44.63653 219
44.65664 200
44.67676 192
44.69687 181
44.71698 186
44.7371 210
44.75721 191
44.77732 199
44.79744 205
44.81755 210
44.83767 202
44.85778 201
44.87789 208
44.89801 216
44.91812 212
44.93823 220
44.95835 195
44.97846 201
44.99858 203
45.01869 230
45.0388 240
45.05892 212
45.07903 227
45.09914 226
45.11926 203
45.13937 211
45.15949 224
45.1796 225
45.19971 217
45.21983 233
45.23994 221
45.26005 246
45.28017 235
45.30028 255
45.32039 227
45.34051 251
45.36062 262
45.38074 262
45.40085 289
45.42096 259
45.44108 306
45.46119 311
45.4813 333
45.50142 355
45.52153 371
45.54165 428
45.56176 451
45.58187 507
45.60199 619
45.6221 616
45.64221 678
45.66233 768
45.68244 862
45.70256 891
45.72267 865
45.74278 873
45.7629 748
45.78301 663
45.80312 612
45.82324 569
45.84335 539
45.86346 441
45.88358 437
45.90369 359
45.92381 311
45.94392 270
45.96403 283
45.98415 266
46.00426 243
46.02437 244
46.04449 229
46.0646 207
46.08472 195
46.10483 210
46.12494 193
46.14506 202
46.16517 205
46.18528 204
46.2054 225
46.22551 222
46.24563 202
46.26574 214
46.28585 186
46.30597 169
46.32608 211
46.34619 204
46.36631 214
46.38642 194
46.40653 208
46.42665 200
46.44676 230
46.46688 196
46.48699 199
46.5071 176
46.52722 180
46.54733 192
46.56744 200
46.58756 188
46.60767 178
46.62779 177
46.6479 185
46.66801 191
46.68813 174
46.70824 184
46.72835 193
46.74847 182
46.76858 171
46.78869 174
46.80881 194
46.82892 192
46.84904 207
46.86915 196
46.88926 212
46.90938 189
46.92949 174
46.9496 174
46.96972 190
46.98983 184
47.00995 158
47.03006 175
47.05017 178
47.07029 160
47.0904 168
47.11051 186
47.13063 180
47.15074 190
47.17086 158
47.19097 213
47.21108 180
47.2312 201
47.25131 207
47.27142 174
47.29154 177
47.31165 184
47.33176 170
47.35188 183
47.37199 175
47.39211 172
47.41222 168
47.43233 200
47.45245 186
47.47256 176
47.49267 179
47.51279 153
47.5329 189
47.55302 183
47.57313 173
47.59324 169
47.61336 178
47.63347 189
47.65358 195
47.6737 164
47.69381 188
47.71393 186
47.73404 197
47.75415 199
47.77427 189
47.79438 170
47.81449 194
47.83461 203
47.85472 202
47.87483 196
47.89495 176
47.91506 219
47.93518 208
47.95529 191
47.9754 195
47.99552 188
48.01563 189
48.03574 175
48.05586 169
48.07597 187
48.09609 175
48.1162 176
48.13631 211
48.15643 169
48.17654 152
48.19665 188
48.21677 177
48.23688 194
48.257 195
48.27711 187
48.29722 195
48.31734 144
48.33745 175
48.35756 177
48.37768 191
48.39779 206
48.4179 189
48.43802 187
48.45813 199
48.47825 204
48.49836 201
48.51847 221
48.53859 197
48.5587 186
48.57881 167
48.59893 178
48.61904 199
48.63916 166
48.65927 173
48.67938 191
48.6995 173
48.71961 193
48.73972 199
48.75984 189
48.77995 198
48.80006 182
48.82018 170
48.84029 151
48.86041 185
48.88052 198
48.90063 199
48.92075 201
48.94086 180
48.96097 182
48.98109 190
49.0012 181
49.02132 210
49.04143 231
49.06154 179
49.08166 214
49.10177 204
49.12188 198
49.142 187
49.16211 183
49.18223 211
49.20234 189
49.22245 199
49.24257 208
49.26268 207
49.28279 217
49.30291 222
49.32302 201
49.34313 225
49.36325 237
49.38336 201
49.40348 208
49.42359 217
49.4437 225
49.46382 228
49.48393 232
49.50404 243
49.52416 233
49.54427 233
49.56439 261
49.5845 221
49.60461 213
49.62473 265
49.64484 288
49.66495 318
49.68507 332
49.70518 338
49.7253 372
49.74541 419
49.76552 454
49.78564 482
49.80575 482
49.82586 588
49.84598 688
49.86609 835
49.8862 942
49.90632 1113
49.92643 1384
49.94655 1518
49.96666 1722
49.98677 2015
50.00689 2393
50.027 2557
50.04711 2569
50.06723 2567
50.08734 2456
50.10746 2303
50.12757 2029
50.14768 1834
50.1678 1654
50.18791 1431
50.20802 1342
50.22814 1080
50.24825 916
50.26837 710
50.28848 557
50.30859 434
50.32871 393
50.34882 363
50.36893 300
50.38905 322
50.40916 286
50.42927 261
50.44939 300
50.4695 284
50.48962 283
50.50973 269
50.52984 287
50.54996 278
50.57007 279
50.59018 240
50.6103 241
50.63041 240
50.65053 253
50.67064 229
50.69075 225
50.71087 184
50.73098 203
50.75109 218
50.77121 217
50.79132 189
50.81143 173
50.83155 191
50.85166 192
50.87178 168
50.89189 202
50.912 208
50.93212 179
50.95223 179
50.97234 192
50.99246 190
51.01257 192
51.03269 185
51.0528 161
51.07291 184
51.09303 205
51.11314 189
51.13325 190
51.15337 212
51.17348 168
51.1936 185
51.21371 163
51.23382 186
51.25394 202
51.27405 172
51.29416 169
51.31428 164
51.33439 161
51.3545 169
51.37462 172
51.39473 173
51.41485 168
51.43496 191
51.45507 180
51.47519 166
51.4953 187
51.51541 169
51.53553 191
51.55564 150
51.57576 158
51.59587 159
51.61598 154
51.6361 176
51.65621 167
51.67632 178
51.69644 148
51.71655 200
51.73667 168
51.75678 172
51.77689 148
51.79701 170
51.81712 177
51.83723 156
51.85735 143
51.87746 162
51.89757 163
51.91769 165
51.9378 154
51.95792 178
51.97803 144
51.99814 174
52.01826 179
52.03837 153
52.05848 192
52.0786 153
52.09871 165
52.11883 163
52.13894 166
52.15905 190
52.17917 169
52.19928 182
52.21939 178
52.23951 167
52.25962 144
52.27974 149
52.29985 157
52.31996 201
52.34008 182
52.36019 180
52.3803 173
52.40042 175
52.42053 161
52.44064 164
52.46076 157
52.48087 161
52.50099 166
52.5211 164
52.54121 171
52.56133 177
52.58144 166
52.60155 155
52.62167 188
52.64178 180
52.6619 182
52.68201 172
52.70212 174
52.72224 174
52.74235 181
52.76246 172
52.78258 162
52.80269 186
52.8228 177
52.84292 194
52.86303 161
52.88315 174
52.90326 172
52.92337 158
52.94349 176
52.9636 175
52.98371 182
53.00383 186
53.02394 184
53.04406 189
53.06417 189
53.08428 187
53.1044 173
53.12451 200
53.14462 191
53.16474 185
53.18485 194
53.20497 200
53.22508 198
53.24519 192
53.26531 191
53.28542 210
53.30553 212
53.32565 203
53.34576 207
53.36587 193
53.38599 202
53.4061 210
53.42622 181
53.44633 220
53.46644 211
53.48656 238
53.50667 222
53.52678 218
53.5469 194
53.56701 190
53.58713 219
53.60724 220
53.62735 207
53.64747 241
53.66758 261
53.68769 238
53.70781 228
53.72792 222
53.74804 213
53.76815 202
53.78826 217
53.80838 210
53.82849 231
53.8486 223
53.86872 226
53.88883 232
53.90894 216
53.92906 219
53.94917 229
53.96929 205
53.9894 219
54.00951 236
54.02963 212
54.04974 219
54.06985 221
54.08997 217
54.11008 228
54.1302 233
54.15031 238
54.17042 215
54.19054 252
54.21065 218
54.23076 222
54.25088 244
54.27099 246
54.29111 250
54.31122 234
54.33133 220
54.35145 242
54.37156 239
54.39167 270
54.41179 313
54.4319 245
54.45201 298
54.47213 281
54.49224 324
54.51236 305
54.53247 317
54.55258 340
54.5727 377
54.59281 422
54.61292 485
54.63304 508
54.65315 547
54.67327 590
54.69338 633
54.71349 726
54.73361 831
54.75372 867
54.77383 863
54.79395 886
54.81406 837
54.83417 838
54.85429 782
54.8744 733
54.89452 658
54.91463 643
54.93474 580
54.95486 567
54.97497 492
54.99508 471
55.0152 430
55.03531 407
55.05543 377
55.07554 394
55.09565 371
55.11577 440
55.13588 476
55.15599 486
55.17611 489
55.19622 527
55.21634 539
55.23645 505
55.25656 489
55.27668 516
55.29679 475
55.3169 430
55.33702 407
55.35713 405
55.37724 383
55.39736 352
55.41747 371
55.43759 334
55.4577 317
55.47781 277
55.49793 271
55.51804 257
55.53815 246
55.55827 246
55.57838 254
55.5985 234
55.61861 238
55.63872 227
55.65884 245
55.67895 243
55.69906 240
55.71918 216
55.73929 209
55.75941 219
55.77952 233
55.79963 232
55.81975 195
55.83986 234
55.85997 241
55.88009 225
55.9002 191
55.92031 212
55.94043 233
55.96054 192
55.98066 208
56.00077 213
56.02088 197
56.041 222
56.06111 214
56.08122 216
56.10134 207
56.12145 209
56.14157 194
56.16168 229
56.18179 191
56.20191 198
56.22202 212
56.24213 208
56.26225 216
56.28236 230
56.30248 198
56.32259 196
56.3427 222
56.36282 204
56.38293 203
56.40304 211
56.42316 178
56.44327 208
56.46338 185
56.4835 205
56.50361 210
56.52373 220
56.54384 201
56.56395 191
56.58407 204
56.60418 205
56.62429 214
56.64441 224
56.66452 186
56.68464 207
56.70475 200
56.72486 177
56.74498 197
56.76509 194
56.7852 188
56.80532 210
56.82543 198
56.84554 200
56.86566 201
56.88577 171
56.90589 192
56.926 183
56.94611 176
56.96623 181
56.98634 197
57.00645 188
57.02657 211
57.04668 214
57.0668 231
57.08691 225
57.10702 255
57.12714 219
57.14725 212
57.16736 229
57.18748 223
57.20759 223
57.22771 202
57.24782 216
57.26793 182
57.28805 203
57.30816 216
57.32827 178
57.34839 193
57.3685 174
57.38861 184
57.40873 174
57.42884 181
57.44896 164
57.46907 161
57.48918 168
57.5093 179
57.52941 174
57.54952 173
57.56964 207
57.58975 178
57.60987 176
57.62998 174
57.65009 169
57.67021 196
57.69032 172
57.71043 192
57.73055 199
57.75066 175
57.77078 199
57.79089 182
57.811 194
57.83112 180
57.85123 177
57.87134 191
57.89146 181
57.91157 170
57.93168 170
57.9518 164
57.97191 178
57.99203 188
58.01214 173
58.03225 182
58.05237 169
58.07248 182
58.09259 178
58.11271 192
58.13282 152
58.15294 179
58.17305 159
58.19316 173
58.21328 176
58.23339 158
58.2535 185
58.27362 195
58.29373 162
58.31385 173
58.33396 188
58.35407 190
58.37419 177
58.3943 160
58.41441 179
58.43453 180
58.45464 173
58.47475 172
58.49487 164
58.51498 173
58.5351 190
58.55521 188
58.57532 150
58.59544 204
58.61555 175
58.63566 173
58.65578 176
58.67589 175
58.69601 178
58.71612 187
58.73623 186
58.75635 184
58.77646 166
58.79657 174
58.81669 164
58.8368 160
58.85691 162
58.87703 167
58.89714 187
58.91726 187
58.93737 184
58.95748 206
58.9776 183
58.99771 171
59.01782 181
59.03794 185
59.05805 205
59.07817 208
59.09828 207
59.11839 198
59.13851 204
59.15862 185
59.17873 198
59.19885 181
59.21896 219
59.23908 195
59.25919 193
59.2793 201
59.29942 221
59.31953 220
59.33964 220
59.35976 246
59.37987 246
59.39998 256
59.4201 254
59.44021 276
59.46033 253
59.48044 311
59.50055 313
59.52067 332
59.54078 332
59.56089 361
59.58101 400
59.60112 441
59.62124 482
59.64135 538
59.66146 570
59.68158 692
59.70169 732
59.7218 882
59.74192 956
59.76203 1165
59.78215 1204
59.80226 1367
59.82237 1483
59.84249 1583
59.8626 1631
59.88271 1626
59.90283 1515
59.92294 1380
59.94305 1252
59.96317 1137
59.98328 1051
60.0034 967
60.02351 932
60.04362 857
60.06374 772
60.08385 663
60.10396 575
60.12408 469
60.14419 398
60.16431 381
60.18442 307
60.20453 310
60.22465 244
60.24476 255
60.26487 249
60.28499 253
60.3051 241
60.32522 231
60.34533 215
60.36544 214
60.38556 203
60.40567 208
60.42578 195
60.4459 218
60.46601 208
60.48612 218
60.50624 184
60.52635 203
60.54647 202
60.56658 209
60.58669 174
60.60681 193
60.62692 179
60.64703 183
60.66715 194
60.68726 222
60.70738 207
60.72749 206
60.7476 168
60.76772 184
60.78783 199
60.80794 181
60.82806 158
60.84817 193
60.86828 202
60.8884 184
60.90851 204
60.92863 194
60.94874 180
60.96885 177
60.98897 181
61.00908 205
61.02919 193
61.04931 184
61.06942 181
61.08954 201
61.10965 186
61.12976 213
61.14988 191
61.16999 183
61.1901 199
61.21022 194
61.23033 176
61.25045 186
61.27056 216
61.29067 197
61.31079 234
61.3309 212
61.35101 215
61.37113 227
61.39124 239
61.41135 238
61.43147 250
61.45158 228
61.4717 262
61.49181 227
61.51192 241
61.53204 223
61.55215 244
61.57226 254
61.59238 232
61.61249 246
61.63261 259
61.65272 225
61.67283 245
61.69295 238
61.71306 245
61.73317 228
61.75329 248
61.7734 265
61.79352 236
61.81363 212
61.83374 218
61.85386 214
61.87397 241
61.89408 238
61.9142 246
61.93431 211
61.95442 222
61.97454 227
61.99465 224
62.01477 233
62.03488 243
62.05499 268
62.07511 232
62.09522 250
62.11533 249
62.13545 281
62.15556 253
62.17568 281
62.19579 274
62.2159 249
62.23602 264
62.25613 251
62.27624 247
62.29636 251
62.31647 230
62.33659 236
62.3567 240
62.37681 240
62.39693 234
62.41704 238
62.43715 216
62.45727 233
62.47738 198
62.49749 206
62.51761 212
62.53772 220
62.55784 201
62.57795 193
62.59806 192
62.61818 186
62.63829 185
62.6584 169
62.67852 193
62.69863 195
62.71875 158
62.73886 196
62.75897 187
62.77909 176
62.7992 177
62.81931 172
62.83943 185
62.85954 194
62.87965 179
62.89977 187
62.91988 171
62.94 188
62.96011 177
62.98022 189
63.00034 169
63.02045 186
63.04056 167
63.06068 171
63.08079 142
63.10091 169
63.12102 167
63.14113 179
63.16125 167
63.18136 173
63.20147 190
63.22159 197
63.2417 169
63.26182 171
63.28193 181
63.30204 193
63.32216 165
63.34227 164
63.36238 188
63.3825 190
63.40261 182
63.42272 196
63.44284 177
63.46295 199
63.48307 178
63.50318 198
63.52329 178
63.54341 198
63.56352 213
63.58363 176
63.60375 212
63.62386 200
63.64398 215
63.66409 235
63.6842 226
63.70432 236
63.72443 276
63.74454 217
63.76466 258
63.78477 307
63.80489 325
63.825 320
63.84511 333
63.86523 388
63.88534 369
63.90545 420
63.92557 431
63.94568 393
63.96579 367
63.98591 399
64.00602 362
64.02614 353
64.04625 307
64.06636 322
64.08648 316
64.10659 306
64.1267 319
64.14682 267
64.16693 280
64.18705 245
64.20716 232
64.22727 204
64.24739 210
64.2675 177
64.28761 191
64.30773 193
64.32784 175
64.34796 171
64.36807 157
64.38818 151
64.4083 201
64.42841 194
64.44852 179
64.46864 184
64.48875 180
64.50886 167
64.52898 167
64.54909 189
64.56921 168
64.58932 152
64.60943 192
64.62955 166
64.64966 152
64.66977 177
64.68989 171
64.71 164
64.73012 168
64.75023 151
64.77034 159
64.79046 153
64.81057 154
64.83068 165
64.8508 140
64.87091 166
64.89102 174
64.91114 160
64.93125 164
64.95137 175
64.97148 151
64.99159 158
65.01171 163
65.03182 139
65.05193 165
65.07205 161
65.09216 145
65.11228 149
65.13239 146
65.1525 159
65.17262 164
65.19273 186
65.21284 148
65.23296 163
65.25307 157
65.27319 168
65.2933 184
65.31341 146
65.33353 147
65.35364 161
65.37375 180
65.39387 171
65.41398 174
65.43409 190
65.45421 174
65.47432 173
65.49444 159
65.51455 165
65.53466 173
65.55478 197
65.57489 199
65.595 208
65.61512 242
65.63523 215
65.65535 206
65.67546 253
65.69557 224
65.71569 224
65.7358 217
65.75591 190
65.77603 208
65.79614 201
65.81626 198
65.83637 211
65.85648 225
65.8766 200
65.89671 186
65.91682 177
65.93694 214
65.95705 145
65.97716 165
65.99728 175
66.01739 179
66.03751 166
66.05762 161
66.07773 157
66.09785 162
66.11796 168
66.13807 166
66.15819 159
66.1783 148
66.19842 162
66.21853 171
66.23864 171
66.25876 159
66.27887 162
66.29898 162
66.3191 175
66.33921 166
66.35933 171
66.37944 171
66.39955 164
66.41967 158
66.43978 164
66.45989 162
66.48001 170
66.50012 170
66.52023 149
66.54035 181
66.56046 181
66.58058 171
66.60069 169
66.6208 182
66.64092 162
66.66103 170
66.68114 162
66.70126 194
66.72137 178
66.74149 164
66.7616 187
66.78171 164
66.80183 158
66.82194 165
66.84205 169
66.86217 176
66.88228 165
66.90239 181
66.92251 182
66.94262 166
66.96274 151
66.98285 200
67.00296 174
67.02308 196
67.04319 185
67.0633 201
67.08342 174
67.10353 189
67.12365 196
67.14376 208
67.16387 208
67.18399 195
67.2041 212
67.22421 212
67.24433 217
67.26444 257
67.28456 272
67.30467 271
67.32478 303
67.3449 313
67.36501 302
67.38512 332
67.40524 383
67.42535 474
67.44546 434
67.46558 487
67.48569 605
67.50581 633
67.52592 697
67.54603 766
67.56615 850
67.58626 902
67.60637 960
67.62649 1013
67.6466 1044
67.66672 1039
67.68683 955
67.70694 900
67.72706 917
67.74717 850
67.76728 863
67.7874 875
67.80751 884
67.82763 849
67.84774 915
67.86785 922
67.88797 926
67.90808 974
67.92819 1015
67.94831 1097
67.96842 1138
67.98853 1241
68.00865 1330
68.02876 1373
68.04888 1458
68.06899 1344
68.0891 1446
68.10922 1369
68.12933 1286
68.14944 1334
68.16956 1202
68.18967 1268
68.20979 1237
68.2299 1293
68.25001 1211
68.27013 1022
68.29024 960
68.31035 856
68.33047 751
68.35058 664
68.3707 595
68.39081 604
68.41092 503
68.43104 493
68.45115 445
68.47126 396
68.49138 376
68.51149 293
68.5316 297
68.55172 254
68.57183 252
68.59195 261
68.61206 246
68.63217 214
68.65229 241
68.6724 214
68.69251 207
68.71263 169
68.73274 191
68.75286 207
68.77297 176
68.79308 195
68.8132 192
68.83331 185
68.85342 202
68.87354 186
68.89365 170
68.91376 175
68.93388 192
68.95399 188
68.97411 212
68.99422 194
69.01433 177
69.03445 187
69.05456 199
69.07467 177
69.09479 167
69.1149 163
69.13502 175
69.15513 191
69.17524 169
69.19536 166
69.21547 192
69.23558 183
69.2557 181
69.27581 154
69.29593 173
69.31604 162
69.33615 163
69.35627 190
69.37638 178
69.39649 180
69.41661 185
69.43672 170
69.45683 164
69.47695 199
69.49706 166
69.51718 184
69.53729 183
69.5574 173
69.57752 182
69.59763 178
69.61774 171
69.63786 157
69.65797 166
69.67809 151
69.6982 170
69.71831 184
69.73843 165
69.75854 178
69.77865 160
69.79877 178
69.81888 178
69.839 168
69.85911 166
69.87922 149
69.89934 142
69.91945 148
69.93956 148
69.95968 176
69.97979 163
69.9999 174
70.02002 161
70.04013 153
70.06025 163
70.08036 186
70.10047 179
70.12059 177
70.1407 177
70.16081 151
70.18093 137
70.20104 178
70.22116 172
70.24127 161
70.26138 162
70.2815 168
70.30161 150
70.32172 159
70.34184 167
70.36195 153
70.38207 176
70.40218 169
70.42229 167
70.44241 149
70.46252 157
70.48263 170
70.50275 161
70.52286 144
70.54297 165
70.56309 149
70.5832 148
70.60332 187
70.62343 137
70.64354 141
70.66366 148
70.68377 150
70.70388 166
70.724 168
70.74411 167
70.76423 157
70.78434 175
70.80445 160
70.82457 156
70.84468 142
70.86479 162
70.88491 141
70.90502 162
70.92513 150
70.94525 153
70.96536 151
70.98548 156
71.00559 131
71.0257 151
71.04582 151
71.06593 142
71.08604 152
71.10616 130
71.12627 158
71.14639 126
71.1665 150
71.18661 135
71.20673 153
71.22684 141
71.24695 152
71.26707 164
71.28718 151
71.3073 166
71.32741 143
71.34752 136
71.36764 163
71.38775 150
71.40786 149
71.42798 156
71.44809 163
71.4682 152
71.48832 145
71.50843 127
71.52855 153
71.54866 147
71.56877 153
71.58889 154
71.609 143
71.62911 163
71.64923 151
71.66934 156
71.68946 153
71.70957 152
71.72968 161
71.7498 132
71.76991 143
71.79002 163
71.81014 147
71.83025 164
71.85037 137
71.87048 179
71.89059 155
71.91071 151
71.93082 153
71.95093 193
71.97105 148
71.99116 160
72.01127 160
72.03139 152
72.0515 158
72.07162 149
72.09173 168
72.11184 147
72.13196 148
72.15207 164
72.17218 165
72.1923 169
72.21241 174
72.23253 171
72.25264 194
72.27275 155
72.29287 179
72.31298 181
72.33309 197
72.35321 168
72.37332 161
72.39344 172
72.41355 166
72.43366 164
72.45378 168
72.47389 176
72.494 183
72.51412 159
72.53423 169
72.55434 196
72.57446 185
72.59457 183
72.61469 162
72.6348 171
72.65491 183
72.67503 163
72.69514 183
72.71525 178
72.73537 180
72.75548 178
72.7756 166
72.79571 162
72.81582 190
72.83594 177
72.85605 195
72.87616 197
72.89628 174
72.91639 198
72.9365 183
72.95662 185
72.97673 204
72.99685 203
73.01696 187
73.03707 200
73.05719 209
73.0773 244
73.09741 216
73.11753 193
73.13764 240
73.15776 276
73.17787 277
73.19798 280
73.2181 313
73.23821 344
73.25832 336
73.27844 350
73.29855 386
73.31867 395
73.33878 442
73.35889 458
73.37901 430
73.39912 454
73.41923 409
73.43935 388
73.45946 367
73.47957 320
73.49969 343
73.5198 313
73.53992 343
73.56003 307
73.58014 293
73.60026 289
73.62037 290
73.64048 248
73.6606 251
73.68071 241
73.70083 235
73.72094 191
73.74105 200
73.76117 194
73.78128 195
73.80139 187
73.82151 188
73.84162 183
73.86174 177
73.88185 180
73.90196 187
73.92208 169
73.94219 172
73.9623 196
73.98242 165
74.00253 156
74.02264 183
74.04276 161
74.06287 151
74.08299 174
74.1031 150
74.12321 159
74.14333 160
74.16344 174
74.18355 159
74.20367 159
74.22378 160
74.2439 160
74.26401 150
74.28412 164
74.30424 184
74.32435 142
74.34446 162
74.36458 164
74.38469 162
74.40481 173
74.42492 150
74.44503 147
74.46515 146
74.48526 158
74.50537 158
74.52549 158
74.5456 149
74.56571 141
74.58583 152
74.60594 161
74.62606 134
74.64617 158
74.66628 169
74.6864 143
74.70651 144
74.72662 155
74.74674 161
74.76685 166
74.78697 148
74.80708 169
74.82719 165
74.84731 158
74.86742 151
74.88753 153
74.90765 136
74.92776 167
74.94787 155
74.96799 185
74.9881 176
75.00822 178
