3.00117 20782
3.02128 20535
3.0414 19499
3.06151 19424
3.08162 18763
3.10174 18418
3.12185 17952
3.14197 17287
3.16208 16894
3.18219 16306
3.20231 15785
3.22242 15726
3.24253 14722
3.26265 14549
3.28276 14007
3.30288 13466
3.32299 13201
3.3431 12848
3.36322 12642
3.38333 11873
3.40344 11417
3.42356 11247
3.44367 10746
3.46379 10857
3.4839 10114
3.50401 9768
3.52413 9614
3.54424 8920
3.56435 9031
3.58447 8548
3.60458 8058
3.62469 8132
3.64481 7424
3.66492 7582
3.68504 7218
3.70515 6835
3.72526 6502
3.74538 6164
3.76549 6071
3.7856 5798
3.80572 5667
3.82583 5242
3.84595 5048
3.86606 4971
3.88617 4789
3.90629 4446
3.9264 4161
3.94651 4067
3.96663 4097
3.98674 3842
4.00686 3580
4.02697 3416
4.04708 3217
4.0672 3182
4.08731 3163
4.10742 2956
4.12754 2774
4.14765 2615
4.16776 2579
4.18788 2484
4.20799 2329
4.22811 2282
4.24822 2242
4.26833 2076
4.28845 2158
4.30856 1839
4.32867 1986
4.34879 1810
4.3689 1851
4.38902 1840
4.40913 1700
4.42924 1715
4.44936 1654
4.46947 1601
4.48958 1616
4.5097 1525
4.52981 1491
4.54992 1438
4.57004 1425
4.59015 1411
4.61027 1350
4.63038 1289
4.65049 1196
4.67061 1241
4.69072 1310
4.71083 1103
4.73095 1248
4.75106 1149
4.77118 1087
4.79129 1141
4.8114 1031
4.83152 1036
4.85163 1006
4.87174 1066
4.89186 1021
4.91197 987
4.93209 955
4.9522 905
4.97231 905
4.99243 907
5.01254 834
5.03265 855
5.05277 820
5.07288 766
5.09299 845
5.11311 803
5.13322 708
5.15334 782
5.17345 765
5.19356 774
5.21368 648
5.23379 688
5.2539 717
5.27402 640
5.29413 727
5.31425 606
5.33436 636
5.35447 701
5.37459 641
5.3947 622
5.41481 621
5.43493 559
5.45504 602
5.47516 545
5.49527 522
5.51538 525
5.5355 539
5.55561 549
5.57572 539
5.59584 509
5.61595 499
5.63606 489
5.65618 493
5.67629 511
5.69641 436
5.71652 430
5.73663 506
5.75675 453
5.77686 475
5.79697 428
5.81709 468
5.8372 466
5.85732 438
5.87743 504
5.89754 455
5.91766 462
5.93777 447
5.95788 450
5.978 469
5.99811 437
6.01823 431
6.03834 414
6.05845 444
6.07857 450
6.09868 411
6.11879 478
6.13891 501
6.15902 493
6.17913 470
6.19925 489
6.21936 482
6.23948 430
6.25959 468
6.2797 465
6.29982 405
6.31993 415
6.34004 443
6.36016 432
6.38027 417
6.40039 392
6.4205 426
6.44061 368
6.46073 386
6.48084 346
6.50095 401
6.52107 375
6.54118 354
6.56129 367
6.58141 369
6.60152 380
6.62164 381
6.64175 355
6.66186 367
6.68198 359
6.70209 356
6.7222 377
6.74232 360
6.76243 407
6.78255 332
6.80266 387
6.82277 380
6.84289 387
6.863 335
6.88311 328
6.90323 398
6.92334 358
6.94346 351
6.96357 383
6.98368 377
7.0038 341
7.02391 344
7.04402 340
7.06414 329
7.08425 331
7.10436 375
7.12448 372
7.14459 335
7.16471 310
7.18482 380
7.20493 388
7.22505 356
7.24516 350
7.26527 382
7.28539 372
7.3055 343
7.32562 337
7.34573 329
7.36584 355
7.38596 366
7.40607 359
7.42618 334
7.4463 335
7.46641 359
7.48653 351
7.50664 320
7.52675 323
7.54687 337
7.56698 320
7.58709 351
7.60721 373
7.62732 286
7.64743 324
7.66755 332
7.68766 368
7.70778 326
7.72789 332
7.748 310
7.76812 356
7.78823 308
7.80834 313
7.82846 329
7.84857 351
7.86869 301
7.8888 372
7.90891 373
7.92903 331
7.94914 356
7.96925 327
7.98937 357
8.00948 329
8.0296 325
8.04971 325
8.06982 309
8.08994 331
8.11005 324
8.13016 370
8.15028 317
8.17039 340
8.1905 333
8.21062 357
8.23073 306
8.25085 303
8.27096 362
8.29107 322
8.31119 344
8.3313 302
8.35141 349
8.37153 327
8.39164 301
8.41176 288
8.43187 362
8.45198 351
8.4721 333
8.49221 320
8.51232 317
8.53244 320
8.55255 345
8.57266 307
8.59278 377
8.61289 363
8.63301 312
8.65312 337
8.67323 291
8.69335 355
8.71346 321
8.73357 301
8.75369 343
8.7738 358
8.79392 349
8.81403 335
8.83414 322
8.85426 339
8.87437 335
8.89448 352
8.9146 291
8.93471 336
8.95483 322
8.97494 313
8.99505 341
9.01517 347
9.03528 334
9.05539 318
9.07551 339
9.09562 318
9.11573 302
9.13585 337
9.15596 322
9.17608 349
9.19619 303
9.2163 336
9.23642 304
9.25653 311
9.27664 308
9.29676 353
9.31687 336
9.33699 279
9.3571 286
9.37721 359
9.39733 338
9.41744 311
9.43755 302
9.45767 325
9.47778 329
9.4979 318
9.51801 326
9.53812 322
9.55824 361
9.57835 296
9.59846 355
9.61858 324
9.63869 325
9.6588 328
9.67892 328
9.69903 307
9.71915 314
9.73926 324
9.75937 323
9.77949 296
9.7996 318
9.81971 317
9.83983 326
9.85994 305
9.88006 348
9.90017 325
9.92028 324
9.9404 303
9.96051 372
9.98062 351
10.00074 317
10.02085 320
10.04097 303
10.06108 339
10.08119 315
10.10131 318
10.12142 319
10.14153 291
10.16165 353
10.18176 324
10.20187 317
10.22199 338
10.2421 352
10.26222 339
10.28233 362
10.30244 338
10.32256 300
10.34267 318
10.36278 359
10.3829 374
10.40301 274
10.42313 305
10.44324 298
10.46335 322
10.48347 319
10.50358 363
10.52369 312
10.54381 322
10.56392 326
10.58403 350
10.60415 355
10.62426 371
10.64438 314
10.66449 298
10.6846 292
10.70472 314
10.72483 322
10.74494 320
10.76506 330
10.78517 354
10.80529 339
10.8254 348
10.84551 344
10.86563 354
10.88574 365
10.90585 339
10.92597 336
10.94608 344
10.9662 329
10.98631 358
11.00642 355
11.02654 317
11.04665 336
11.06676 363
11.08688 314
11.10699 310
11.1271 351
11.14722 343
11.16733 357
11.18745 327
11.20756 350
11.22767 344
11.24779 323
11.2679 355
11.28801 338
11.30813 326
11.32824 332
11.34836 347
11.36847 356
11.38858 339
11.4087 350
11.42881 400
11.44892 351
11.46904 316
11.48915 338
11.50927 379
11.52938 324
11.54949 373
11.56961 379
11.58972 372
11.60983 377
11.62995 386
11.65006 387
11.67017 379
11.69029 367
11.7104 390
11.73052 371
11.75063 367
11.77074 416
11.79086 391
11.81097 406
11.83108 383
11.8512 401
11.87131 409
11.89143 430
11.91154 437
11.93165 425
11.95177 477
11.97188 476
11.99199 454
12.01211 441
12.03222 489
12.05234 516
12.07245 510
12.09256 493
12.11268 492
12.13279 515
12.1529 533
12.17302 583
12.19313 561
12.21324 581
12.23336 613
12.25347 587
12.27359 671
12.2937 635
12.31381 648
12.33393 601
12.35404 615
12.37415 602
12.39427 541
12.41438 554
12.4345 521
12.45461 549
12.47472 524
12.49484 441
12.51495 453
12.53506 453
12.55518 462
12.57529 417
12.5954 491
12.61552 406
12.63563 418
12.65575 351
12.67586 399
12.69597 359
12.71609 397
12.7362 362
12.75631 359
12.77643 385
12.79654 376
12.81666 366
12.83677 296
12.85688 349
12.877 382
12.89711 358
12.91722 350
12.93734 340
12.95745 346
12.97757 339
12.99768 299
13.01779 309
13.03791 356
13.05802 312
13.07813 302
13.09825 330
13.11836 316
13.13847 333
13.15859 367
13.1787 287
13.19882 300
13.21893 318
13.23904 314
13.25916 321
13.27927 317
13.29938 303
13.3195 337
13.33961 289
13.35973 323
13.37984 320
13.39995 307
13.42007 300
13.44018 297
13.46029 324
13.48041 312
13.50052 271
13.52064 320
13.54075 307
13.56086 295
13.58098 337
13.60109 294
13.6212 267
13.64132 312
13.66143 328
13.68154 284
13.70166 315
13.72177 288
13.74189 300
13.762 314
13.78211 291
13.80223 316
13.82234 318
13.84245 320
13.86257 338
13.88268 281
13.9028 294
13.92291 272
13.94302 324
13.96314 303
13.98325 295
14.00336 270
14.02348 309
14.04359 302
14.06371 291
14.08382 319
14.10393 288
14.12405 285
14.14416 302
14.16427 308
14.18439 307
14.2045 278
14.22461 275
14.24473 311
14.26484 281
14.28496 275
14.30507 271
14.32518 295
14.3453 281
14.36541 303
14.38552 288
14.40564 288
14.42575 283
14.44587 327
14.46598 260
14.48609 323
14.50621 289
14.52632 261
14.54643 302
14.56655 275
14.58666 301
14.60677 289
14.62689 283
14.647 287
14.66712 277
14.68723 250
14.70734 283
14.72746 318
14.74757 295
14.76768 289
14.7878 276
14.80791 256
14.82803 269
14.84814 291
14.86825 253
14.88837 288
14.90848 242
14.92859 301
14.94871 267
14.96882 260
14.98894 272
15.00905 239
15.02916 300
15.04928 266
15.06939 263
15.0895 272
15.10962 268
15.12973 293
15.14984 269
15.16996 282
15.19007 279
15.21019 281
15.2303 292
15.25041 290
15.27053 286
15.29064 241
15.31075 301
15.33087 267
15.35098 282
15.3711 274
15.39121 298
15.41132 307
15.43144 272
15.45155 260
15.47166 287
15.49178 229
15.51189 278
15.53201 288
15.55212 307
15.57223 296
15.59235 264
15.61246 258
15.63257 266
15.65269 263
15.6728 259
15.69291 280
15.71303 258
15.73314 284
15.75326 272
15.77337 273
15.79348 281
15.8136 292
15.83371 275
15.85382 307
15.87394 249
15.89405 295
15.91417 265
15.93428 279
15.95439 271
15.97451 311
15.99462 285
16.01473 263
16.03485 257
16.05496 267
16.07508 236
16.09519 301
16.1153 255
16.13542 266
16.15553 274
16.17564 260
16.19576 246
16.21587 272
16.23598 274
16.2561 274
16.27621 280
16.29633 261
16.31644 235
16.33655 264
16.35667 238
16.37678 296
16.39689 267
16.41701 270
16.43712 275
16.45724 279
16.47735 235
16.49746 295
16.51758 273
16.53769 302
16.5578 261
16.57792 280
16.59803 278
16.61814 273
16.63826 265
16.65837 256
16.67849 254
16.6986 274
16.71871 306
16.73883 251
16.75894 267
16.77905 259
16.79917 281
16.81928 297
16.8394 306
16.85951 268
16.87962 270
16.89974 273
16.91985 288
16.93996 288
16.96008 262
16.98019 250
17.00031 257
17.02042 257
17.04053 270
17.06065 260
17.08076 261
17.10087 260
17.12099 291
17.1411 290
17.16121 270
17.18133 258
17.20144 247
17.22156 277
17.24167 258
17.26178 277
17.2819 279
17.30201 257
17.32212 278
17.34224 282
17.36235 266
17.38247 282
17.40258 258
17.42269 273
17.44281 288
17.46292 264
17.48303 274
17.50315 266
17.52326 286
17.54338 281
17.56349 314
17.5836 288
17.60372 290
17.62383 287
17.64394 292
17.66406 291
17.68417 289
17.70428 280
17.7244 283
17.74451 287
17.76463 318
17.78474 322
17.80485 310
17.82497 290
17.84508 311
17.86519 275
17.88531 291
17.90542 262
17.92554 310
17.94565 317
17.96576 318
17.98588 277
18.00599 321
18.0261 287
18.04622 323
18.06633 283
18.08645 328
18.10656 329
18.12667 326
18.14679 345
18.1669 351
18.18701 413
18.20713 398
18.22724 415
18.24735 477
18.26747 491
18.28758 535
18.3077 445
18.32781 503
18.34792 449
18.36804 408
18.38815 379
18.40826 384
18.42838 355
18.44849 295
18.46861 325
18.48872 334
18.50883 318
18.52895 326
18.54906 288
18.56917 382
18.58929 281
18.6094 296
18.62951 286
18.64963 279
18.66974 305
18.68986 352
18.70997 310
18.73008 322
18.7502 324
18.77031 334
18.79042 275
18.81054 313
18.83065 304
18.85077 284
18.87088 302
18.89099 297
18.91111 294
18.93122 288
18.95133 280
18.97145 288
18.99156 300
19.01168 306
19.03179 304
19.0519 324
19.07202 304
19.09213 311
19.11224 298
19.13236 259
19.15247 293
19.17258 329
19.1927 291
19.21281 318
19.23293 300
19.25304 282
19.27315 291
19.29327 313
19.31338 332
19.33349 302
19.35361 319
19.37372 350
19.39384 330
19.41395 331
19.43406 316
19.45418 330
19.47429 342
19.4944 356
19.51452 354
19.53463 365
19.55475 386
19.57486 358
19.59497 445
19.61509 401
19.6352 453
19.65531 465
19.67543 476
19.69554 569
19.71565 565
19.73577 621
19.75588 600
19.776 632
19.79611 666
19.81622 733
19.83634 694
19.85645 753
19.87656 705
19.89668 662
19.91679 755
19.93691 715
19.95702 690
19.97713 657
19.99725 658
20.01736 658
20.03747 599
20.05759 610
20.0777 661
20.09782 692
20.11793 643
20.13804 664
20.15816 680
20.17827 697
20.19838 659
20.2185 686
20.23861 656
20.25872 685
20.27884 677
20.29895 665
20.31907 641
20.33918 626
20.35929 603
20.37941 628
20.39952 652
20.41963 669
20.43975 693
20.45986 737
20.47998 702
20.50009 661
20.5202 690
20.54032 690
20.56043 739
20.58054 699
20.60066 783
20.62077 823
20.64088 938
20.661 1112
20.68111 1276
20.70123 1582
20.72134 1926
20.74145 2580
20.76157 3398
20.78168 4224
20.80179 4709
20.82191 5054
20.84202 5013
20.86214 4384
20.88225 3753
20.90236 2665
20.92248 1865
20.94259 1327
20.9627 1051
20.98282 831
21.00293 750
21.02305 669
21.04316 664
21.06327 646
21.08339 672
21.1035 648
21.12361 637
21.14373 573
21.16384 644
21.18395 558
21.20407 582
21.22418 582
21.2443 572
21.26441 570
21.28452 577
21.30464 564
21.32475 547
21.34486 565
21.36498 586
21.38509 546
21.40521 630
21.42532 543
21.44543 560
21.46555 538
21.48566 575
21.50577 550
21.52589 530
21.546 558
21.56612 515
21.58623 517
21.60634 490
21.62646 506
21.64657 497
21.66668 545
21.6868 541
21.70691 496
21.72702 506
21.74714 498
21.76725 491
21.78737 483
21.80748 501
21.82759 490
21.84771 461
21.86782 398
21.88793 434
21.90805 431
21.92816 482
21.94828 468
21.96839 461
21.9885 466
22.00862 434
22.02873 438
22.04884 461
22.06896 415
22.08907 415
22.10919 424
22.1293 428
22.14941 460
22.16953 427
22.18964 434
22.20975 438
22.22987 430
22.24998 447
22.27009 425
22.29021 407
22.31032 415
22.33044 404
22.35055 397
22.37066 450
22.39078 374
22.41089 397
22.431 418
22.45112 417
22.47123 399
22.49135 412
22.51146 407
22.53157 398
22.55169 415
22.5718 400
22.59191 374
22.61203 413
22.63214 397
22.65225 382
22.67237 416
22.69248 358
22.7126 386
22.73271 373
22.75282 369
22.77294 419
22.79305 350
22.81316 364
22.83328 404
22.85339 387
22.87351 344
22.89362 367
22.91373 451
22.93385 385
22.95396 382
22.97407 350
22.99419 397
23.0143 344
23.03442 373
23.05453 377
23.07464 380
23.09476 415
23.11487 393
23.13498 378
23.1551 359
23.17521 384
23.19532 353
23.21544 347
23.23555 355
23.25567 401
23.27578 355
23.29589 360
23.31601 379
23.33612 403
23.35623 378
23.37635 371
23.39646 373
23.41658 354
23.43669 390
23.4568 358
23.47692 366
23.49703 363
23.51714 369
23.53726 344
23.55737 372
23.57749 368
23.5976 382
23.61771 410
23.63783 366
23.65794 370
23.67805 382
23.69817 345
23.71828 363
23.73839 400
23.75851 371
23.77862 387
23.79874 392
23.81885 373
23.83896 376
23.85908 386
23.87919 373
23.8993 390
23.91942 401
23.93953 460
23.95965 468
23.97976 453
23.99987 414
24.01999 467
24.0401 422
24.06021 359
24.08033 441
24.10044 341
24.12056 463
24.14067 421
24.16078 392
24.1809 423
24.20101 412
24.22112 470
24.24124 426
24.26135 420
24.28146 429
24.30158 422
24.32169 395
24.34181 402
24.36192 377
24.38203 418
24.40215 435
24.42226 451
24.44237 411
24.46249 438
24.4826 427
24.50272 420
24.52283 428
24.54294 444
24.56306 467
24.58317 465
24.60328 505
24.6234 462
24.64351 477
24.66362 537
24.68374 531
24.70385 571
24.72397 562
24.74408 516
24.76419 588
24.78431 594
24.80442 597
24.82453 572
24.84465 618
24.86476 583
24.88488 619
24.90499 597
24.9251 607
24.94522 596
24.96533 589
24.98544 544
25.00556 540
25.02567 561
25.04579 582
25.0659 502
25.08601 540
25.10613 503
25.12624 497
25.14635 543
25.16647 553
25.18658 595
25.20669 566
25.22681 622
25.24692 614
25.26704 584
25.28715 526
25.30726 556
25.32738 525
25.34749 492
25.3676 489
25.38772 480
25.40783 450
25.42795 428
25.44806 439
25.46817 423
25.48829 480
25.5084 457
25.52851 395
25.54863 446
25.56874 428
25.58886 417
25.60897 479
25.62908 443
25.6492 477
25.66931 468
25.68942 463
25.70954 492
25.72965 496
25.74976 490
25.76988 556
25.78999 516
25.81011 499
25.83022 498
25.85033 523
25.87045 510
25.89056 537
25.91067 502
25.93079 527
25.9509 510
25.97102 516
25.99113 557
26.01124 586
26.03136 533
26.05147 590
26.07158 623
26.0917 646
26.11181 656
26.13193 693
26.15204 732
26.17215 713
26.19227 756
26.21238 754
26.23249 949
26.25261 882
26.27272 969
26.29283 1058
26.31295 1185
26.33306 1301
26.35318 1479
26.37329 1701
26.3934 2173
26.41352 2649
26.43363 3273
26.45374 4424
26.47386 5793
26.49397 8036
26.51409 10800
26.5342 14193
26.55431 17238
26.57443 20248
26.59454 21669
26.61465 21383
26.63477 19184
26.65488 15877
26.67499 12231
26.69511 8958
26.71522 6095
26.73534 3940
26.75545 2513
26.77556 1661
26.79568 1407
26.81579 1263
26.8359 1164
26.85602 1056
26.87613 957
26.89625 884
26.91636 844
26.93647 817
26.95659 737
26.9767 685
26.99681 651
27.01693 604
27.03704 606
27.05716 572
27.07727 589
27.09738 573
27.1175 568
27.13761 492
27.15772 458
27.17784 497
27.19795 451
27.21806 480
27.23818 476
27.25829 463
27.27841 437
27.29852 459
27.31863 492
27.33875 502
27.35886 486
27.37897 460
27.39909 472
27.4192 430
27.43932 457
27.45943 444
27.47954 432
27.49966 450
27.51977 434
27.53988 427
27.56 466
27.58011 440
27.60023 396
27.62034 393
27.64045 408
27.66057 396
27.68068 390
27.70079 390
27.72091 443
27.74102 404
27.76113 406
27.78125 364
27.80136 402
27.82148 415
27.84159 371
27.8617 442
27.88182 407
27.90193 367
27.92204 372
27.94216 411
27.96227 387
27.98239 381
28.0025 388
28.02261 418
28.04273 374
28.06284 414
28.08295 399
28.10307 373
28.12318 378
28.1433 366
28.16341 359
28.18352 360
28.20364 365
28.22375 367
28.24386 360
28.26398 350
28.28409 356
28.3042 318
28.32432 363
28.34443 339
28.36455 317
28.38466 346
28.40477 357
28.42489 339
28.445 356
28.46511 351
28.48523 343
28.50534 321
28.52546 351
28.54557 324
28.56568 372
28.5858 320
28.60591 326
28.62602 301
28.64614 369
28.66625 327
28.68636 349
28.70648 356
28.72659 331
28.74671 347
28.76682 324
28.78693 332
28.80705 342
28.82716 359
28.84727 362
28.86739 299
28.8875 375
28.90762 331
28.92773 308
28.94784 287
28.96796 349
28.98807 318
29.00818 342
29.0283 328
29.04841 348
29.06853 351
29.08864 322
29.10875 349
29.12887 314
29.14898 329
29.16909 361
29.18921 284
29.20932 347
29.22943 331
29.24955 326
29.26966 362
29.28978 328
29.30989 314
29.33 303
29.35012 309
29.37023 341
29.39034 323
29.41046 346
29.43057 348
29.45069 298
29.4708 344
29.49091 347
29.51103 306
29.53114 295
29.55125 322
29.57137 322
29.59148 327
29.6116 295
29.63171 308
29.65182 307
29.67194 332
29.69205 354
29.71216 310
29.73228 314
29.75239 347
29.7725 295
29.79262 350
29.81273 325
29.83285 339
29.85296 323
29.87307 286
29.89319 316
29.9133 339
29.93341 294
29.95353 335
29.97364 326
29.99376 367
30.01387 338
30.03398 324
30.0541 341
30.07421 313
30.09432 308
30.11444 330
30.13455 364
30.15467 304
30.17478 295
30.19489 308
30.21501 325
30.23512 299
30.25523 333
30.27535 320
30.29546 304
30.31557 314
30.33569 324
30.3558 300
30.37592 319
30.39603 333
30.41614 318
30.43626 331
30.45637 312
30.47648 321
30.4966 314
30.51671 304
30.53683 323
30.55694 317
30.57705 322
30.59717 335
30.61728 302
30.63739 282
30.65751 314
30.67762 329
30.69773 298
30.71785 304
30.73796 285
30.75808 318
30.77819 312
30.7983 292
30.81842 313
30.83853 349
30.85864 314
30.87876 303
30.89887 341
30.91899 299
30.9391 305
30.95921 281
30.97933 307
30.99944 328
31.01955 323
31.03967 287
31.05978 281
31.0799 309
31.10001 305
31.12012 300
31.14024 326
31.16035 312
31.18046 292
31.20058 317
31.22069 324
31.2408 287
31.26092 303
31.28103 307
31.30115 327
31.32126 301
31.34137 312
31.36149 315
31.3816 304
31.40171 324
31.42183 283
31.44194 285
31.46206 314
31.48217 287
31.50228 323
31.5224 300
31.54251 292
31.56262 295
31.58274 298
31.60285 309
31.62297 328
31.64308 311
31.66319 294
31.68331 288
31.70342 309
31.72353 301
31.74365 288
31.76376 287
31.78387 323
31.80399 277
31.8241 333
31.84422 243
31.86433 298
31.88444 324
31.90456 274
31.92467 279
31.94478 291
31.9649 323
31.98501 294
32.00513 302
32.02524 292
32.04535 297
32.06547 275
32.08558 266
32.10569 305
32.12581 277
32.14592 299
32.16604 294
32.18615 293
32.20626 306
32.22638 272
32.24649 279
32.2666 302
32.28672 307
32.30683 295
32.32694 290
32.34706 274
32.36717 314
32.38729 304
32.4074 318
32.42751 284
32.44763 309
32.46774 303
32.48785 282
32.50797 282
32.52808 297
32.5482 330
32.56831 324
32.58842 312
32.60854 325
32.62865 285
32.64876 287
32.66888 275
32.68899 307
32.7091 318
32.72922 308
32.74933 298
32.76945 308
32.78956 335
32.80967 313
32.82979 302
32.8499 345
32.87001 305
32.89013 345
32.91024 336
32.93036 346
32.95047 359
32.97058 328
32.9907 303
33.01081 350
33.03092 345
33.05104 383
33.07115 342
33.09127 378
33.11138 356
33.13149 368
33.15161 363
33.17172 365
33.19183 365
33.21195 339
33.23206 368
33.25217 346
33.27229 364
33.2924 386
33.31252 358
33.33263 322
33.35274 335
33.37286 361
33.39297 357
33.41308 339
33.4332 309
33.45331 326
33.47343 345
33.49354 317
33.51365 321
33.53377 321
33.55388 342
33.57399 322
33.59411 325
33.61422 318
33.63434 306
33.65445 321
33.67456 321
33.69468 310
33.71479 326
33.7349 325
33.75502 331
33.77513 280
33.79524 336
33.81536 332
33.83547 294
33.85559 306
33.8757 309
33.89581 341
33.91593 302
33.93604 315
33.95615 305
33.97627 291
33.99638 288
34.0165 288
34.03661 307
34.05672 327
34.07684 301
34.09695 302
34.11706 286
34.13718 276
34.15729 287
34.17741 269
34.19752 337
34.21763 306
34.23775 341
34.25786 285
34.27797 342
34.29809 318
34.3182 267
34.33831 317
34.35843 311
34.37854 312
34.39866 296
34.41877 291
34.43888 334
34.459 351
34.47911 324
34.49922 333
34.51934 326
34.53945 360
34.55957 409
34.57968 395
34.59979 346
34.61991 411
34.64002 388
34.66013 378
34.68025 397
34.70036 423
34.72047 387
34.74059 417
34.7607 440
34.78082 426
34.80093 447
34.82104 449
34.84116 463
34.86127 473
34.88138 483
34.9015 449
34.92161 482
34.94173 459
34.96184 483
34.98195 477
35.00207 465
35.02218 474
35.04229 446
35.06241 460
35.08252 446
35.10264 440
35.12275 394
35.14286 442
35.16298 446
35.18309 402
35.2032 444
35.22332 399
35.24343 452
35.26354 403
35.28366 443
35.30377 430
35.32389 453
35.344 476
35.36411 480
35.38423 471
35.40434 498
35.42445 491
35.44457 452
35.46468 452
35.4848 451
35.50491 456
35.52502 509
35.54514 493
35.56525 522
35.58536 536
35.60548 547
35.62559 523
35.64571 506
35.66582 532
35.68593 489
35.70605 463
35.72616 469
35.74627 516
35.76639 501
35.7865 483
35.80661 503
35.82673 479
35.84684 481
35.86696 512
35.88707 504
35.90718 449
35.9273 522
35.94741 478
35.96752 451
35.98764 466
36.00775 444
36.02787 448
36.04798 476
36.06809 461
36.08821 504
36.10832 400
36.12843 442
36.14855 432
36.16866 432
36.18878 448
36.20889 472
36.229 479
36.24912 483
36.26923 515
36.28934 523
36.30946 571
36.32957 632
36.34968 728
36.3698 803
36.38991 998
36.41003 1148
36.43014 1343
36.45025 1462
36.47037 1657
36.49048 1745
36.51059 1606
36.53071 1552
36.55082 1442
36.57094 1230
36.59105 1098
36.61116 949
36.63128 803
36.65139 678
36.6715 533
36.69162 526
36.71173 469
36.73184 442
36.75196 384
36.77207 439
36.79219 441
36.8123 464
36.83241 415
36.85253 420
36.87264 416
36.89275 385
36.91287 398
36.93298 400
36.9531 402
36.97321 409
36.99332 400
37.01344 399
37.03355 383
37.05366 452
37.07378 416
37.09389 381
37.11401 400
37.13412 408
37.15423 391
37.17435 409
37.19446 400
37.21457 375
37.23469 415
37.2548 414
37.27491 406
37.29503 415
37.31514 396
37.33526 416
37.35537 378
37.37548 389
37.3956 432
37.41571 435
37.43582 413
37.45594 388
37.47605 409
37.49617 453
37.51628 445
37.53639 455
37.55651 416
37.57662 436
37.59673 430
37.61685 454
37.63696 468
37.65708 417
37.67719 418
37.6973 442
37.71742 409
37.73753 437
37.75764 427
37.77776 411
37.79787 436
37.81798 432
37.8381 413
37.85821 392
37.87833 411
37.89844 384
37.91855 418
37.93867 427
37.95878 417
37.97889 421
37.99901 441
38.01912 398
38.03924 417
38.05935 398
38.07946 387
38.09958 385
38.11969 438
38.1398 403
38.15992 417
38.18003 445
38.20015 401
38.22026 441
38.24037 433
38.26049 468
38.2806 429
38.30071 434
38.32083 478
38.34094 521
38.36105 477
38.38117 495
38.40128 429
38.4214 446
38.44151 494
38.46162 433
38.48174 419
38.50185 456
38.52196 472
38.54208 467
38.56219 457
38.58231 437
38.60242 379
38.62253 391
38.64265 359
38.66276 416
38.68287 406
38.70299 408
38.7231 392
38.74321 387
38.76333 394
38.78344 401
38.80356 403
38.82367 401
38.84378 383
38.8639 362
38.88401 401
38.90412 391
38.92424 391
38.94435 407
38.96447 405
38.98458 439
39.00469 392
39.02481 404
39.04492 416
39.06503 430
39.08515 411
39.10526 459
39.12538 442
39.14549 446
39.1656 461
39.18572 494
39.20583 527
39.22594 579
39.24606 579
39.26617 657
39.28628 736
39.3064 887
39.32651 1011
39.34663 1192
39.36674 1323
39.38685 1487
39.40697 1639
39.42708 1490
39.44719 1505
39.46731 1397
39.48742 1139
39.50754 1022
39.52765 923
39.54776 827
39.56788 650
39.58799 615
39.6081 453
39.62822 419
39.64833 410
39.66845 377
39.68856 367
39.70867 354
39.72879 361
39.7489 328
39.76901 337
39.78913 332
39.80924 293
39.82935 294
39.84947 318
39.86958 337
39.8897 343
39.90981 355
39.92992 356
39.95004 369
39.97015 386
39.99026 329
40.01038 398
40.03049 413
40.05061 430
40.07072 457
40.09083 505
40.11095 544
40.13106 569
40.15117 677
40.17129 732
40.1914 814
40.21152 907
40.23163 924
40.25174 949
40.27186 835
40.29197 772
40.31208 732
40.3322 649
40.35231 633
40.37242 556
40.39254 516
40.41265 448
40.43277 415
40.45288 389
40.47299 337
40.49311 393
40.51322 328
40.53333 354
40.55345 318
40.57356 323
40.59368 367
40.61379 332
40.6339 386
40.65402 338
40.67413 327
40.69424 321
40.71436 317
40.73447 323
40.75458 316
40.7747 339
40.79481 333
40.81493 336
40.83504 331
40.85515 327
40.87527 327
40.89538 347
40.91549 328
40.93561 341
40.95572 330
40.97584 349
40.99595 366
41.01606 339
41.03618 344
41.05629 340
41.0764 320
41.09652 349
41.11663 330
41.13675 385
41.15686 337
41.17697 352
41.19709 354
41.2172 325
41.23731 337
41.25743 339
41.27754 338
41.29765 327
41.31777 318
41.33788 302
41.358 355
41.37811 307
41.39822 329
41.41834 334
41.43845 347
41.45856 314
41.47868 318
41.49879 337
41.51891 349
41.53902 317
41.55913 318
41.57925 317
41.59936 330
41.61947 298
41.63959 318
41.6597 299
41.67982 300
41.69993 322
41.72004 323
41.74016 289
41.76027 327
41.78038 298
41.8005 291
41.82061 298
41.84072 319
41.86084 334
41.88095 329
41.90107 308
41.92118 333
41.94129 304
41.96141 309
41.98152 316
42.00163 305
42.02175 324
42.04186 338
42.06198 375
42.08209 328
42.1022 319
42.12232 358
42.14243 336
42.16254 396
42.18266 401
42.20277 414
42.22289 485
42.243 484
42.26311 619
42.28323 686
42.30334 745
42.32345 859
42.34357 988
42.36368 1056
42.38379 1102
42.40391 1209
42.42402 1095
42.44414 1013
42.46425 923
42.48436 837
42.50448 740
42.52459 643
42.5447 592
42.56482 483
42.58493 416
42.60505 366
42.62516 367
42.64527 320
42.66539 304
42.6855 300
42.70561 314
42.72573 312
42.74584 278
42.76595 285
42.78607 284
42.80618 290
42.8263 274
42.84641 275
42.86652 303
42.88664 288
42.90675 263
42.92686 306
42.94698 278
42.96709 274
42.98721 269
43.00732 283
43.02743 234
43.04755 271
43.06766 279
43.08777 278
43.10789 255
43.128 266
43.14812 252
43.16823 264
43.18834 260
43.20846 254
43.22857 269
43.24868 264
43.2688 267
43.28891 282
43.30902 281
43.32914 269
43.34925 252
43.36937 260
43.38948 279
43.40959 297
43.42971 283
43.44982 242
43.46993 266
43.49005 291
43.51016 279
43.53028 268
43.55039 278
43.5705 285
43.59062 291
43.61073 299
43.63084 281
43.65096 309
43.67107 287
43.69119 294
43.7113 306
43.73141 290
43.75153 283
43.77164 287
43.79175 276
43.81187 268
43.83198 269
43.85209 269
43.87221 291
43.89232 250
43.91244 267
43.93255 285
43.95266 274
43.97278 263
43.99289 261
44.013 273
44.03312 254
44.05323 274
44.07335 305
44.09346 304
44.11357 267
44.13369 270
44.1538 331
44.17391 280
44.19403 314
44.21414 294
44.23426 304
44.25437 302
44.27448 290
44.2946 269
44.31471 295
44.33482 277
44.35494 288
44.37505 278
44.39516 268
44.41528 311
44.43539 275
44.45551 252
44.47562 273
44.49573 266
44.51585 263
44.53596 297
44.55607 271
44.57619 282
44.5963 319
44.61642 307
44.63653 263
44.65664 267
44.67676 266
44.69687 270
44.71698 288
44.7371 274
44.75721 246
44.77732 302
44.79744 253
44.81755 315
44.83767 293
44.85778 285
44.87789 309
44.89801 270
44.91812 267
44.93823 295
44.95835 277
44.97846 275
44.99858 264
45.01869 278
45.0388 309
45.05892 314
45.07903 300
45.09914 313
45.11926 283
45.13937 309
45.15949 272
45.1796 314
45.19971 300
45.21983 313
45.23994 328
45.26005 288
45.28017 349
45.30028 318
45.32039 312
45.34051 341
45.36062 322
45.38074 317
45.40085 319
45.42096 327
45.44108 318
45.46119 394
45.4813 337
45.50142 401
45.52153 363
45.54165 392
45.56176 453
45.58187 441
45.60199 479
45.6221 529
45.64221 590
45.66233 691
45.68244 830
45.70256 820
45.72267 873
45.74278 862
45.7629 851
45.78301 824
45.80312 765
45.82324 618
45.84335 650
45.86346 595
45.88358 541
45.90369 470
45.92381 433
45.94392 376
45.96403 341
45.98415 324
46.00426 323
46.02437 326
46.04449 304
46.0646 295
46.08472 312
46.10483 300
46.12494 282
46.14506 261
46.16517 286
46.18528 293
46.2054 288
46.22551 293
46.24563 297
46.26574 283
46.28585 305
46.30597 280
46.32608 277
46.34619 291
46.36631 302
46.38642 298
46.40653 294
46.42665 294
46.44676 279
46.46688 283
46.48699 283
46.5071 294
46.52722 304
46.54733 288
46.56744 281
46.58756 285
46.60767 274
46.62779 270
46.6479 284
46.66801 300
46.68813 275
46.70824 315
46.72835 248
46.74847 287
46.76858 315
46.78869 293
46.80881 280
46.82892 273
46.84904 265
46.86915 282
46.88926 280
46.90938 295
46.92949 265
46.9496 275
46.96972 245
46.98983 248
47.00995 261
47.03006 278
47.05017 275
47.07029 264
47.0904 293
47.11051 281
47.13063 273
47.15074 272
47.17086 303
47.19097 282
47.21108 283
47.2312 291
47.25131 274
47.27142 289
47.29154 259
47.31165 253
47.33176 267
47.35188 276
47.37199 308
47.39211 264
47.41222 261
47.43233 299
47.45245 282
47.47256 304
47.49267 286
47.51279 248
47.5329 258
47.55302 277
47.57313 302
47.59324 257
47.61336 251
47.63347 294
47.65358 292
47.6737 297
47.69381 289
47.71393 303
47.73404 275
47.75415 286
47.77427 249
47.79438 282
47.81449 310
47.83461 280
47.85472 297
47.87483 283
47.89495 298
47.91506 274
47.93518 304
47.95529 278
47.9754 285
47.99552 296
48.01563 312
48.03574 254
48.05586 301
48.07597 301
48.09609 301
48.1162 280
48.13631 276
48.15643 266
48.17654 280
48.19665 279
48.21677 261
48.23688 263
48.257 249
48.27711 300
48.29722 274
48.31734 269
48.33745 245
48.35756 268
48.37768 306
48.39779 304
48.4179 270
48.43802 266
48.45813 288
48.47825 283
48.49836 272
48.51847 256
48.53859 269
48.5587 277
48.57881 221
48.59893 275
48.61904 235
48.63916 279
48.65927 263
48.67938 301
48.6995 264
48.71961 276
48.73972 265
48.75984 293
48.77995 274
48.80006 253
48.82018 271
48.84029 290
48.86041 252
48.88052 247
48.90063 271
48.92075 279
48.94086 278
48.96097 258
48.98109 281
49.0012 270
49.02132 290
49.04143 304
49.06154 284
49.08166 277
49.10177 270
49.12188 285
49.142 320
49.16211 275
49.18223 257
49.20234 291
49.22245 265
49.24257 314
49.26268 292
49.28279 306
49.30291 288
49.32302 293
49.34313 311
49.36325 306
49.38336 284
49.40348 289
49.42359 299
49.4437 281
49.46382 325
49.48393 300
49.50404 322
49.52416 313
49.54427 327
49.56439 327
49.5845 342
49.60461 320
49.62473 333
49.64484 313
49.66495 364
49.68507 393
49.70518 392
49.7253 397
49.74541 365
49.76552 381
49.78564 463
49.80575 457
49.82586 484
49.84598 589
49.86609 601
49.8862 702
49.90632 730
49.92643 875
49.94655 991
49.96666 1156
49.98677 1406
50.00689 1692
50.027 1997
50.04711 2120
50.06723 2338
50.08734 2464
50.10746 2116
50.12757 2072
50.14768 1636
50.1678 1580
50.18791 1477
50.20802 1306
50.22814 1238
50.24825 1058
50.26837 868
50.28848 685
50.30859 558
50.32871 444
50.34882 391
50.36893 372
50.38905 364
50.40916 376
50.42927 354
50.44939 366
50.4695 335
50.48962 336
50.50973 330
50.52984 380
50.54996 359
50.57007 337
50.59018 335
50.6103 344
50.63041 318
50.65053 358
50.67064 337
50.69075 317
50.71087 322
50.73098 298
50.75109 303
50.77121 270
50.79132 287
50.81143 300
50.83155 277
50.85166 283
50.87178 281
50.89189 283
50.912 301
50.93212 289
50.95223 256
50.97234 252
50.99246 308
51.01257 288
51.03269 261
51.0528 296
51.07291 266
51.09303 290
51.11314 279
51.13325 262
51.15337 265
51.17348 261
51.1936 267
51.21371 241
51.23382 278
51.25394 281
51.27405 245
51.29416 279
51.31428 277
51.33439 261
51.3545 265
51.37462 258
51.39473 258
51.41485 268
51.43496 245
51.45507 289
51.47519 263
51.4953 246
51.51541 247
51.53553 274
51.55564 293
51.57576 279
51.59587 268
51.61598 253
51.6361 245
51.65621 247
51.67632 269
51.69644 232
51.71655 253
51.73667 244
51.75678 277
51.77689 284
51.79701 267
51.81712 282
51.83723 259
51.85735 256
51.87746 270
51.89757 274
51.91769 252
51.9378 241
51.95792 287
51.97803 269
51.99814 272
52.01826 267
52.03837 276
52.05848 253
52.0786 267
52.09871 271
52.11883 292
52.13894 288
52.15905 259
52.17917 266
52.19928 269
52.21939 290
52.23951 242
52.25962 241
52.27974 265
52.29985 245
52.31996 250
52.34008 261
52.36019 282
52.3803 278
52.40042 234
52.42053 250
52.44064 251
52.46076 269
52.48087 243
52.50099 269
52.5211 241
52.54121 258
52.56133 266
52.58144 262
52.60155 248
52.62167 263
52.64178 267
52.6619 245
52.68201 264
52.70212 249
52.72224 254
52.74235 274
52.76246 265
52.78258 273
52.80269 272
52.8228 263
52.84292 279
52.86303 228
52.88315 281
52.90326 288
52.92337 262
52.94349 216
52.9636 252
52.98371 261
53.00383 261
53.02394 263
53.04406 275
53.06417 273
53.08428 254
53.1044 268
53.12451 273
53.14462 264
53.16474 251
53.18485 271
53.20497 246
53.22508 254
53.24519 266
53.26531 273
53.28542 264
53.30553 303
53.32565 268
53.34576 313
53.36587 294
53.38599 293
53.4061 320
53.42622 320
53.44633 309
53.46644 274
53.48656 278
53.50667 313
53.52678 310
53.5469 312
53.56701 280
53.58713 286
53.60724 288
53.62735 316
53.64747 321
53.66758 312
53.68769 326
53.70781 331
53.72792 309
53.74804 326
53.76815 316
53.78826 301
53.80838 331
53.82849 366
53.8486 359
53.86872 347
53.88883 347
53.90894 384
53.92906 348
53.94917 344
53.96929 359
53.9894 337
54.00951 370
54.02963 353
54.04974 352
54.06985 381
54.08997 348
54.11008 359
54.1302 355
54.15031 378
54.17042 366
54.19054 357
54.21065 373
54.23076 385
54.25088 409
54.27099 367
54.29111 393
54.31122 382
54.33133 376
54.35145 381
54.37156 386
54.39167 405
54.41179 356
54.4319 404
54.45201 403
54.47213 374
54.49224 385
54.51236 370
54.53247 401
54.55258 426
54.5727 428
54.59281 437
54.61292 461
54.63304 435
54.65315 540
54.67327 550
54.69338 631
54.71349 637
54.73361 701
54.75372 826
54.77383 875
54.79395 925
54.81406 888
54.83417 898
54.85429 857
54.8744 823
54.89452 746
54.91463 682
54.93474 670
54.95486 641
54.97497 637
54.99508 546
55.0152 536
55.03531 455
55.05543 467
55.07554 450
55.09565 470
55.11577 487
55.13588 472
55.15599 491
55.17611 515
55.19622 501
55.21634 575
55.23645 595
55.25656 621
55.27668 611
55.29679 570
55.3169 545
55.33702 487
55.35713 453
55.37724 440
55.39736 434
55.41747 446
55.43759 444
55.4577 386
55.47781 390
55.49793 349
55.51804 331
55.53815 337
55.55827 336
55.57838 361
55.5985 353
55.61861 325
55.63872 294
55.65884 304
55.67895 319
55.69906 284
55.71918 310
55.73929 289
55.75941 277
55.77952 331
55.79963 297
55.81975 315
55.83986 326
55.85997 267
55.88009 272
55.9002 304
55.92031 288
55.94043 303
55.96054 321
55.98066 302
56.00077 288
56.02088 293
56.041 277
56.06111 290
56.08122 298
56.10134 277
56.12145 283
56.14157 290
56.16168 289
56.18179 292
56.20191 308
56.22202 303
56.24213 280
56.26225 299
56.28236 321
56.30248 306
56.32259 283
56.3427 331
56.36282 282
56.38293 289
56.40304 299
56.42316 265
56.44327 294
56.46338 265
56.4835 289
56.50361 316
56.52373 297
56.54384 297
56.56395 305
56.58407 301
56.60418 283
56.62429 301
56.64441 303
56.66452 294
56.68464 306
56.70475 308
56.72486 261
56.74498 292
56.76509 270
56.7852 295
56.80532 294
56.82543 268
56.84554 265
56.86566 277
56.88577 304
56.90589 306
56.926 283
56.94611 285
56.96623 279
56.98634 273
57.00645 268
57.02657 273
57.04668 295
57.0668 281
57.08691 278
57.10702 310
57.12714 283
57.14725 287
57.16736 309
57.18748 291
57.20759 297
57.22771 292
57.24782 270
57.26793 292
57.28805 303
57.30816 271
57.32827 289
57.34839 287
57.3685 307
57.38861 256
57.40873 264
57.42884 272
57.44896 259
57.46907 252
57.48918 256
57.5093 291
57.52941 268
57.54952 250
57.56964 278
57.58975 265
57.60987 269
57.62998 281
57.65009 263
57.67021 284
57.69032 264
57.71043 271
57.73055 253
57.75066 240
57.77078 285
57.79089 269
57.811 293
57.83112 258
57.85123 293
57.87134 242
57.89146 294
57.91157 270
57.93168 242
57.9518 287
57.97191 243
57.99203 247
58.01214 266
58.03225 274
58.05237 285
58.07248 302
58.09259 262
58.11271 248
58.13282 276
58.15294 293
58.17305 267
58.19316 257
58.21328 264
58.23339 250
58.2535 240
58.27362 219
58.29373 253
58.31385 238
58.33396 253
58.35407 244
58.37419 256
58.3943 282
58.41441 248
58.43453 277
58.45464 234
58.47475 287
58.49487 270
58.51498 264
58.5351 258
58.55521 254
58.57532 252
58.59544 247
58.61555 242
58.63566 273
58.65578 254
58.67589 255
58.69601 268
58.71612 248
58.73623 251
58.75635 260
58.77646 274
58.79657 271
58.81669 234
58.8368 287
58.85691 259
58.87703 258
58.89714 263
58.91726 252
58.93737 222
58.95748 248
58.9776 250
58.99771 240
59.01782 262
59.03794 292
59.05805 255
59.07817 260
59.09828 275
59.11839 279
59.13851 244
59.15862 265
59.17873 269
59.19885 258
59.21896 308
59.23908 278
59.25919 261
59.2793 267
59.29942 287
59.31953 287
59.33964 302
59.35976 279
59.37987 281
59.39998 282
59.4201 298
59.44021 295
59.46033 327
59.48044 329
59.50055 291
59.52067 349
59.54078 332
59.56089 334
59.58101 337
59.60112 440
59.62124 419
59.64135 468
59.66146 459
59.68158 537
59.70169 579
59.7218 667
59.74192 729
59.76203 755
59.78215 898
59.80226 1090
59.82237 1267
59.84249 1388
59.8626 1528
59.88271 1567
59.90283 1582
59.92294 1393
59.94305 1282
59.96317 1181
59.98328 1057
60.0034 937
60.02351 978
60.04362 951
60.06374 873
60.08385 811
60.10396 707
60.12408 579
60.14419 475
60.16431 366
60.18442 369
60.20453 356
60.22465 319
60.24476 312
60.26487 297
60.28499 313
60.3051 313
60.32522 288
60.34533 303
60.36544 274
60.38556 266
60.40567 289
60.42578 284
60.4459 269
60.46601 275
60.48612 278
60.50624 274
60.52635 271
60.54647 257
60.56658 268
60.58669 266
60.60681 279
60.62692 238
60.64703 296
60.66715 245
60.68726 289
60.70738 299
60.72749 246
60.7476 281
60.76772 213
60.78783 254
60.80794 262
60.82806 262
60.84817 259
60.86828 278
60.8884 273
60.90851 248
60.92863 283
60.94874 275
60.96885 239
60.98897 253
61.00908 244
61.02919 238
61.04931 266
61.06942 280
61.08954 263
61.10965 260
61.12976 287
61.14988 227
61.16999 237
61.1901 268
61.21022 276
61.23033 236
61.25045 269
61.27056 270
61.29067 272
61.31079 260
61.3309 278
61.35101 251
61.37113 292
61.39124 296
61.41135 318
61.43147 242
61.45158 255
61.4717 338
61.49181 304
61.51192 319
61.53204 266
61.55215 332
61.57226 268
61.59238 298
61.61249 296
61.63261 279
61.65272 294
61.67283 285
61.69295 286
61.71306 299
61.73317 290
61.75329 325
61.7734 319
61.79352 293
61.81363 334
61.83374 357
61.85386 344
61.87397 364
61.89408 334
61.9142 340
61.93431 332
61.95442 351
61.97454 348
61.99465 370
62.01477 375
62.03488 360
62.05499 365
62.07511 353
62.09522 368
62.11533 402
62.13545 407
62.15556 405
62.17568 369
62.19579 417
62.2159 401
62.23602 392
62.25613 401
62.27624 387
62.29636 394
62.31647 385
62.33659 392
62.3567 381
62.37681 323
62.39693 341
62.41704 330
62.43715 340
62.45727 346
62.47738 349
62.49749 327
62.51761 356
62.53772 310
62.55784 327
62.57795 323
62.59806 336
62.61818 327
62.63829 317
62.6584 317
62.67852 297
62.69863 300
62.71875 303
62.73886 314
62.75897 282
62.77909 276
62.7992 293
62.81931 289
62.83943 321
62.85954 287
62.87965 295
62.89977 275
62.91988 279
62.94 297
62.96011 289
62.98022 300
63.00034 268
63.02045 250
63.04056 256
63.06068 285
63.08079 252
63.10091 259
63.12102 275
63.14113 277
63.16125 264
63.18136 256
63.20147 273
63.22159 274
63.2417 281
63.26182 274
63.28193 257
63.30204 255
63.32216 278
63.34227 272
63.36238 278
63.3825 284
63.40261 270
63.42272 274
63.44284 265
63.46295 296
63.48307 258
63.50318 252
63.52329 294
63.54341 278
63.56352 288
63.58363 269
63.60375 259
63.62386 324
63.64398 325
63.66409 328
63.6842 312
63.70432 326
63.72443 312
63.74454 326
63.76466 339
63.78477 343
63.80489 355
63.825 343
63.84511 363
63.86523 400
63.88534 456
63.90545 458
63.92557 480
63.94568 547
63.96579 542
63.98591 465
64.00602 497
64.02614 422
64.04625 402
64.06636 423
64.08648 412
64.10659 388
64.1267 406
64.14682 362
64.16693 348
64.18705 354
64.20716 357
64.22727 320
64.24739 287
64.2675 316
64.28761 304
64.30773 265
64.32784 268
64.34796 260
64.36807 270
64.38818 267
64.4083 269
64.42841 283
64.44852 247
64.46864 267
64.48875 252
64.50886 256
64.52898 238
64.54909 266
64.56921 243
64.58932 243
64.60943 262
64.62955 249
64.64966 272
64.66977 248
64.68989 250
64.71 260
64.73012 239
64.75023 256
64.77034 271
64.79046 243
64.81057 259
64.83068 258
64.8508 270
64.87091 252
64.89102 235
64.91114 256
64.93125 279
64.95137 263
64.97148 247
64.99159 232
65.01171 263
65.03182 259
65.05193 261
65.07205 221
65.09216 266
65.11228 248
65.13239 264
65.1525 256
65.17262 251
65.19273 243
65.21284 235
65.23296 297
65.25307 242
65.27319 247
65.2933 237
65.31341 237
65.33353 229
65.35364 245
65.37375 241
65.39387 231
65.41398 265
65.43409 233
65.45421 252
65.47432 280
65.49444 275
65.51455 273
65.53466 266
65.55478 257
65.57489 242
65.595 276
65.61512 295
65.63523 288
65.65535 275
65.67546 309
65.69557 314
65.71569 312
65.7358 278
65.75591 321
65.77603 273
65.79614 267
65.81626 275
65.83637 271
65.85648 253
65.8766 271
65.89671 284
65.91682 288
65.93694 280
65.95705 281
65.97716 271
65.99728 279
66.01739 272
66.03751 250
66.05762 243
66.07773 236
66.09785 244
66.11796 261
66.13807 270
66.15819 244
66.1783 260
66.19842 258
66.21853 256
66.23864 236
66.25876 256
66.27887 263
66.29898 238
66.3191 243
66.33921 238
66.35933 251
66.37944 244
66.39955 249
66.41967 219
66.43978 222
66.45989 256
66.48001 274
66.50012 262
66.52023 257
66.54035 263
66.56046 263
66.58058 226
66.60069 262
66.6208 260
66.64092 245
66.66103 249
66.68114 255
66.70126 274
66.72137 277
66.74149 250
66.7616 253
66.78171 236
66.80183 247
66.82194 286
66.84205 254
66.86217 241
66.88228 280
66.90239 253
66.92251 269
66.94262 257
66.96274 258
66.98285 264
67.00296 247
67.02308 224
67.04319 236
67.0633 235
67.08342 256
67.10353 264
67.12365 255
67.14376 288
67.16387 280
67.18399 282
67.2041 269
67.22421 272
67.24433 267
67.26444 296
67.28456 320
67.30467 285
67.32478 311
67.3449 348
67.36501 315
67.38512 352
67.40524 345
67.42535 365
67.44546 374
67.46558 408
67.48569 495
67.50581 498
67.52592 536
67.54603 595
67.56615 666
67.58626 785
67.60637 819
67.62649 886
67.6466 946
67.66672 998
67.68683 1015
67.70694 946
67.72706 902
67.74717 772
67.76728 703
67.7874 718
67.80751 718
67.82763 773
67.84774 798
67.86785 789
67.88797 828
67.90808 791
67.92819 810
67.94831 857
67.96842 898
67.98853 947
68.00865 1027
68.02876 1164
68.04888 1256
68.06899 1287
68.0891 1335
68.10922 1273
68.12933 1176
68.14944 1133
68.16956 1149
68.18967 1103
68.20979 1131
68.2299 1216
68.25001 1244
68.27013 1156
68.29024 1056
68.31035 905
68.33047 833
68.35058 704
68.3707 645
68.39081 589
68.41092 583
68.43104 548
68.45115 516
68.47126 513
68.49138 495
68.51149 419
68.5316 359
68.55172 316
68.57183 317
68.59195 292
68.61206 291
68.63217 259
68.65229 288
68.6724 291
68.69251 276
68.71263 272
68.73274 277
68.75286 262
68.77297 258
68.79308 261
68.8132 270
68.83331 251
68.85342 272
68.87354 275
68.89365 260
68.91376 266
68.93388 241
68.95399 286
68.97411 260
68.99422 273
69.01433 296
69.03445 256
69.05456 256
69.07467 249
69.09479 267
69.1149 254
69.13502 257
69.15513 250
69.17524 248
69.19536 255
69.21547 232
69.23558 248
69.2557 238
69.27581 237
69.29593 258
69.31604 239
69.33615 245
69.35627 218
69.37638 248
69.39649 253
69.41661 233
69.43672 237
69.45683 236
69.47695 230
69.49706 207
69.51718 246
69.53729 246
69.5574 248
69.57752 264
69.59763 255
69.61774 245
69.63786 259
69.65797 236
69.67809 234
69.6982 244
69.71831 250
69.73843 239
69.75854 211
69.77865 254
69.79877 238
69.81888 242
69.839 236
69.85911 280
69.87922 247
69.89934 260
69.91945 224
69.93956 249
69.95968 247
69.97979 244
69.9999 239
70.02002 232
70.04013 245
70.06025 243
70.08036 249
70.10047 241
70.12059 248
70.1407 247
70.16081 233
70.18093 254
70.20104 245
70.22116 244
70.24127 225
70.26138 247
70.2815 249
70.30161 261
70.32172 229
70.34184 229
70.36195 240
70.38207 243
70.40218 221
70.42229 258
70.44241 246
70.46252 233
70.48263 251
70.50275 224
70.52286 252
70.54297 233
70.56309 282
70.5832 258
70.60332 231
70.62343 251
70.64354 244
70.66366 227
70.68377 230
70.70388 228
70.724 229
70.74411 238
70.76423 241
70.78434 234
70.80445 227
70.82457 235
70.84468 238
70.86479 234
70.88491 233
70.90502 238
70.92513 231
70.94525 223
70.96536 220
70.98548 198
71.00559 214
71.0257 244
71.04582 253
71.06593 221
71.08604 235
71.10616 233
71.12627 217
71.14639 232
71.1665 243
71.18661 226
71.20673 231
71.22684 214
71.24695 228
71.26707 247
71.28718 239
71.3073 223
71.32741 252
71.34752 247
71.36764 232
71.38775 225
71.40786 240
71.42798 245
71.44809 257
71.4682 239
71.48832 247
71.50843 231
71.52855 213
71.54866 220
71.56877 228
71.58889 211
71.609 203
71.62911 233
71.64923 242
71.66934 233
71.68946 237
71.70957 212
71.72968 263
71.7498 241
71.76991 268
71.79002 250
71.81014 238
71.83025 261
71.85037 232
71.87048 239
71.89059 219
71.91071 232
71.93082 242
71.95093 235
71.97105 268
71.99116 261
72.01127 268
72.03139 241
72.0515 243
72.07162 229
72.09173 244
72.11184 232
72.13196 259
72.15207 211
72.17218 255
72.1923 264
72.21241 192
72.23253 237
72.25264 233
72.27275 232
72.29287 239
72.31298 251
72.33309 212
72.35321 269
72.37332 251
72.39344 259
72.41355 251
72.43366 228
72.45378 239
72.47389 239
72.494 245
72.51412 253
72.53423 261
72.55434 244
72.57446 243
72.59457 237
72.61469 231
72.6348 231
72.65491 218
72.67503 237
72.69514 236
72.71525 248
72.73537 251
72.75548 256
72.7756 246
72.79571 234
72.81582 248
72.83594 232
72.85605 222
72.87616 277
72.89628 267
72.91639 214
72.9365 237
72.95662 257
72.97673 239
72.99685 249
73.01696 269
73.03707 252
73.05719 266
73.0773 291
73.09741 303
73.11753 301
73.13764 277
73.15776 283
73.17787 297
73.19798 303
73.2181 303
73.23821 345
73.25832 330
73.27844 404
73.29855 369
73.31867 434
73.33878 487
73.35889 479
73.37901 557
73.39912 508
73.41923 504
73.43935 466
73.45946 405
73.47957 411
73.49969 380
73.5198 380
73.53992 375
73.56003 368
73.58014 361
73.60026 357
73.62037 364
73.64048 359
73.6606 351
73.68071 302
73.70083 318
73.72094 264
73.74105 256
73.76117 254
73.78128 254
73.80139 238
73.82151 242
73.84162 231
73.86174 229
73.88185 249
73.90196 245
73.92208 227
73.94219 259
73.9623 249
73.98242 260
74.00253 266
74.02264 212
74.04276 242
74.06287 227
74.08299 225
74.1031 234
74.12321 239
74.14333 243
74.16344 234
74.18355 255
74.20367 237
74.22378 266
74.2439 220
74.26401 218
74.28412 277
74.30424 250
74.32435 254
74.34446 227
74.36458 236
74.38469 235
74.40481 237
74.42492 219
74.44503 241
74.46515 242
74.48526 221
74.50537 224
74.52549 261
74.5456 226
74.56571 237
74.58583 234
74.60594 233
74.62606 234
74.64617 226
74.66628 226
74.6864 244
74.70651 248
74.72662 231
74.74674 233
74.76685 259
74.78697 234
74.80708 245
74.82719 238
74.84731 210
74.86742 270
74.88753 232
74.90765 247
74.92776 245
74.94787 239
74.96799 246
74.9881 250
75.00822 225
