3.00117 19258
3.02128 18618
3.0414 17891
3.06151 17758
3.08162 17020
3.10174 16650
3.12185 16067
3.14197 15927
3.16208 15388
3.18219 14793
3.20231 14593
3.22242 14160
3.24253 13375
3.26265 13188
3.28276 12581
3.30288 12543
3.32299 12207
3.3431 11854
3.36322 11296
3.38333 10505
3.40344 10563
3.42356 10174
3.44367 9766
3.46379 9590
3.4839 9041
3.50401 8803
3.52413 8628
3.54424 8037
3.56435 7824
3.58447 7554
3.60458 7438
3.62469 6935
3.64481 6647
3.66492 6438
3.68504 6051
3.70515 6073
3.72526 5748
3.74538 5420
3.76549 5370
3.7856 4845
3.80572 5037
3.82583 4537
3.84595 4463
3.86606 4192
3.88617 3960
3.90629 4028
3.9264 3608
3.94651 3377
3.96663 3373
3.98674 3223
4.00686 3215
4.02697 2890
4.04708 2736
4.0672 2739
4.08731 2462
4.10742 2498
4.12754 2415
4.14765 2168
4.16776 2280
4.18788 1958
4.20799 1944
4.22811 1899
4.24822 1739
4.26833 1769
4.28845 1584
4.30856 1622
4.32867 1525
4.34879 1463
4.3689 1444
4.38902 1370
4.40913 1358
4.42924 1359
4.44936 1216
4.46947 1242
4.48958 1191
4.5097 1170
4.52981 1180
4.54992 1031
4.57004 1095
4.59015 1027
4.61027 1099
4.63038 1052
4.65049 887
4.67061 955
4.69072 894
4.71083 893
4.73095 934
4.75106 789
4.77118 814
4.79129 829
4.8114 786
4.83152 738
4.85163 718
4.87174 722
4.89186 690
4.91197 711
4.93209 727
4.9522 617
4.97231 577
4.99243 621
5.01254 605
5.03265 606
5.05277 500
5.07288 572
5.09299 522
5.11311 498
5.13322 502
5.15334 479
5.17345 504
5.19356 469
5.21368 476
5.23379 464
5.2539 410
5.27402 398
5.29413 396
5.31425 409
5.33436 416
5.35447 363
5.37459 372
5.3947 336
5.41481 357
5.43493 354
5.45504 331
5.47516 337
5.49527 367
5.51538 282
5.5355 329
5.55561 282
5.57572 257
5.59584 267
5.61595 275
5.63606 271
5.65618 247
5.67629 259
5.69641 246
5.71652 279
5.73663 246
5.75675 217
5.77686 260
5.79697 230
5.81709 244
5.8372 199
5.85732 229
5.87743 197
5.89754 214
5.91766 208
5.93777 202
5.95788 178
5.978 216
5.99811 194
6.01823 216
6.03834 189
6.05845 216
6.07857 174
6.09868 197
6.11879 180
6.13891 178
6.15902 196
6.17913 185
6.19925 198
6.21936 197
6.23948 198
6.25959 178
6.2797 146
6.29982 170
6.31993 177
6.34004 171
6.36016 158
6.38027 174
6.40039 174
6.4205 139
6.44061 180
6.46073 174
6.48084 185
6.50095 172
6.52107 163
6.54118 152
6.56129 184
6.58141 184
6.60152 172
6.62164 150
6.64175 164
6.66186 152
6.68198 181
6.70209 186
6.7222 164
6.74232 163
6.76243 184
6.78255 151
6.80266 162
6.82277 162
6.84289 139
6.863 151
6.88311 143
6.90323 166
6.92334 156
6.94346 194
6.96357 180
6.98368 184
7.0038 152
7.02391 196
7.04402 173
7.06414 161
7.08425 157
7.10436 148
7.12448 175
7.14459 176
7.16471 166
7.18482 166
7.20493 163
7.22505 166
7.24516 170
7.26527 186
7.28539 152
7.3055 151
7.32562 206
7.34573 179
7.36584 174
7.38596 159
7.40607 181
7.42618 180
7.4463 174
7.46641 171
7.48653 180
7.50664 168
7.52675 162
7.54687 192
7.56698 167
7.58709 185
7.60721 197
7.62732 173
7.64743 179
7.66755 164
7.68766 196
7.70778 172
7.72789 165
7.748 164
7.76812 179
7.78823 178
7.80834 191
7.82846 210
7.84857 184
7.86869 186
7.8888 168
7.90891 150
7.92903 192
7.94914 207
7.96925 192
7.98937 151
8.00948 194
8.0296 182
8.04971 190
8.06982 198
8.08994 209
8.11005 217
8.13016 212
8.15028 194
8.17039 189
8.1905 181
8.21062 194
8.23073 182
8.25085 186
8.27096 208
8.29107 203
8.31119 189
8.3313 200
8.35141 194
8.37153 216
8.39164 202
8.41176 194
8.43187 200
8.45198 217
8.4721 200
8.49221 193
8.51232 167
8.53244 196
8.55255 212
8.57266 208
8.59278 184
8.61289 197
8.63301 193
8.65312 192
8.67323 176
8.69335 221
8.71346 200
8.73357 206
8.75369 201
8.7738 206
8.79392 214
8.81403 232
8.83414 216
8.85426 207
8.87437 181
8.89448 229
8.9146 196
8.93471 222
8.95483 203
8.97494 199
8.99505 227
9.01517 196
9.03528 223
9.05539 217
9.07551 197
9.09562 224
9.11573 197
9.13585 175
9.15596 234
9.17608 230
9.19619 207
9.2163 196
9.23642 209
9.25653 221
9.27664 227
9.29676 211
9.31687 222
9.33699 198
9.3571 204
9.37721 212
9.39733 241
9.41744 224
9.43755 226
9.45767 225
9.47778 213
9.4979 214
9.51801 208
9.53812 223
9.55824 229
9.57835 201
9.59846 222
9.61858 191
9.63869 206
9.6588 226
9.67892 224
9.69903 218
9.71915 214
9.73926 211
9.75937 224
9.77949 213
9.7996 195
9.81971 196
9.83983 201
9.85994 227
9.88006 214
9.90017 198
9.92028 228
9.9404 207
9.96051 207
9.98062 208
10.00074 239
10.02085 218
10.04097 207
10.06108 186
10.08119 235
10.10131 233
10.12142 204
10.14153 228
10.16165 207
10.18176 238
10.20187 213
10.22199 266
10.2421 205
10.26222 188
10.28233 217
10.30244 219
10.32256 207
10.34267 198
10.36278 251
10.3829 199
10.40301 210
10.42313 222
10.44324 226
10.46335 208
10.48347 226
10.50358 180
10.52369 222
10.54381 204
10.56392 207
10.58403 221
10.60415 226
10.62426 213
10.64438 175
10.66449 211
10.6846 214
10.70472 229
10.72483 249
10.74494 222
10.76506 236
10.78517 210
10.80529 191
10.8254 188
10.84551 202
10.86563 226
10.88574 190
10.90585 211
10.92597 233
10.94608 231
10.9662 204
10.98631 203
11.00642 205
11.02654 216
11.04665 213
11.06676 188
11.08688 217
11.10699 225
11.1271 181
11.14722 230
11.16733 205
11.18745 216
11.20756 214
11.22767 193
11.24779 211
11.2679 212
11.28801 200
11.30813 221
11.32824 211
11.34836 211
11.36847 207
11.38858 210
11.4087 208
11.42881 224
11.44892 212
11.46904 190
11.48915 192
11.50927 210
11.52938 222
11.54949 202
11.56961 219
11.58972 236
11.60983 218
11.62995 203
11.65006 201
11.67017 183
11.69029 214
11.7104 199
11.73052 210
11.75063 186
11.77074 189
11.79086 185
11.81097 184
11.83108 218
11.8512 237
11.87131 200
11.89143 193
11.91154 213
11.93165 224
11.95177 207
11.97188 228
11.99199 209
12.01211 202
12.03222 205
12.05234 192
12.07245 195
12.09256 195
12.11268 171
12.13279 195
12.1529 201
12.17302 199
12.19313 220
12.21324 197
12.23336 207
12.25347 232
12.27359 206
12.2937 188
12.31381 196
12.33393 204
12.35404 213
12.37415 198
12.39427 206
12.41438 191
12.4345 204
12.45461 215
12.47472 187
12.49484 189
12.51495 188
12.53506 185
12.55518 213
12.57529 178
12.5954 186
12.61552 190
12.63563 181
12.65575 175
12.67586 212
12.69597 218
12.71609 200
12.7362 219
12.75631 173
12.77643 195
12.79654 199
12.81666 187
12.83677 232
12.85688 169
12.877 189
12.89711 178
12.91722 176
12.93734 213
12.95745 182
12.97757 202
12.99768 185
13.01779 197
13.03791 195
13.05802 192
13.07813 179
13.09825 195
13.11836 209
13.13847 193
13.15859 194
13.1787 189
13.19882 212
13.21893 183
13.23904 185
13.25916 207
13.27927 198
13.29938 152
13.3195 185
13.33961 203
13.35973 222
13.37984 145
13.39995 190
13.42007 164
13.44018 188
13.46029 190
13.48041 170
13.50052 189
13.52064 198
13.54075 165
13.56086 197
13.58098 221
13.60109 186
13.6212 169
13.64132 215
13.66143 202
13.68154 204
13.70166 208
13.72177 194
13.74189 173
13.762 198
13.78211 192
13.80223 190
13.82234 183
13.84245 180
13.86257 189
13.88268 168
13.9028 220
13.92291 167
13.94302 189
13.96314 194
13.98325 180
14.00336 214
14.02348 190
14.04359 175
14.06371 208
14.08382 165
14.10393 205
14.12405 189
14.14416 171
14.16427 161
14.18439 192
14.2045 168
14.22461 187
14.24473 167
14.26484 180
14.28496 161
14.30507 187
14.32518 174
14.3453 196
14.36541 173
14.38552 203
14.40564 192
14.42575 168
14.44587 177
14.46598 191
14.48609 170
14.50621 189
14.52632 155
14.54643 159
14.56655 159
14.58666 162
14.60677 162
14.62689 156
14.647 150
14.66712 171
14.68723 165
14.70734 168
14.72746 164
14.74757 170
14.76768 181
14.7878 180
14.80791 157
14.82803 163
14.84814 152
14.86825 147
14.88837 171
14.90848 173
14.92859 195
14.94871 139
14.96882 194
14.98894 190
15.00905 174
15.02916 185
15.04928 183
15.06939 182
15.0895 165
15.10962 174
15.12973 183
15.14984 201
15.16996 177
15.19007 169
15.21019 164
15.2303 167
15.25041 170
15.27053 166
15.29064 154
15.31075 168
15.33087 197
15.35098 155
15.3711 175
15.39121 200
15.41132 157
15.43144 186
15.45155 163
15.47166 163
15.49178 137
15.51189 188
15.53201 166
15.55212 159
15.57223 165
15.59235 169
15.61246 162
15.63257 151
15.65269 155
15.6728 170
15.69291 148
15.71303 173
15.73314 166
15.75326 132
15.77337 166
15.79348 146
15.8136 148
15.83371 164
15.85382 162
15.87394 176
15.89405 170
15.91417 173
15.93428 173
15.95439 155
15.97451 164
15.99462 165
16.01473 161
16.03485 183
16.05496 150
16.07508 180
16.09519 165
16.1153 168
16.13542 158
16.15553 116
16.17564 163
16.19576 159
16.21587 161
16.23598 138
16.2561 179
16.27621 162
16.29633 159
16.31644 163
16.33655 132
16.35667 160
16.37678 158
16.39689 154
16.41701 146
16.43712 161
16.45724 157
16.47735 152
16.49746 157
16.51758 172
16.53769 138
16.5578 165
16.57792 157
16.59803 155
16.61814 168
16.63826 168
16.65837 155
16.67849 171
16.6986 171
16.71871 155
16.73883 165
16.75894 185
16.77905 142
16.79917 147
16.81928 159
16.8394 160
16.85951 173
16.87962 173
16.89974 145
16.91985 171
16.93996 187
16.96008 123
16.98019 165
17.00031 160
17.02042 138
17.04053 172
17.06065 178
17.08076 138
17.10087 170
17.12099 185
17.1411 182
17.16121 158
17.18133 152
17.20144 157
17.22156 134
17.24167 136
17.26178 137
17.2819 181
17.30201 156
17.32212 152
17.34224 156
17.36235 144
17.38247 151
17.40258 147
17.42269 146
17.44281 171
17.46292 141
17.48303 141
17.50315 153
17.52326 158
17.54338 131
17.56349 160
17.5836 147
17.60372 179
17.62383 139
17.64394 191
17.66406 140
17.68417 151
17.70428 175
17.7244 147
17.74451 154
17.76463 144
17.78474 154
17.80485 164
17.82497 147
17.84508 157
17.86519 149
17.88531 160
17.90542 148
17.92554 120
17.94565 135
17.96576 140
17.98588 117
18.00599 142
18.0261 131
18.04622 157
18.06633 133
18.08645 166
18.10656 139
18.12667 133
18.14679 161
18.1669 156
18.18701 156
18.20713 144
18.22724 159
18.24735 155
18.26747 157
18.28758 150
18.3077 197
18.32781 144
18.34792 160
18.36804 152
18.38815 147
18.40826 163
18.42838 151
18.44849 158
18.46861 175
18.48872 169
18.50883 159
18.52895 148
18.54906 160
18.56917 156
18.58929 152
18.6094 148
18.62951 173
18.64963 178
18.66974 157
18.68986 133
18.70997 181
18.73008 144
18.7502 159
18.77031 161
18.79042 163
18.81054 168
18.83065 167
18.85077 182
18.87088 180
18.89099 158
18.91111 163
18.93122 125
18.95133 144
18.97145 165
18.99156 145
19.01168 138
19.03179 179
19.0519 144
19.07202 142
19.09213 141
19.11224 165
19.13236 155
19.15247 153
19.17258 163
19.1927 163
19.21281 130
19.23293 143
19.25304 139
19.27315 153
19.29327 129
19.31338 167
19.33349 152
19.35361 153
19.37372 165
19.39384 175
19.41395 148
19.43406 153
19.45418 147
19.47429 151
19.4944 143
19.51452 171
19.53463 167
19.55475 170
19.57486 150
19.59497 151
19.61509 163
19.6352 138
19.65531 164
19.67543 159
19.69554 178
19.71565 184
19.73577 196
19.75588 189
19.776 185
19.79611 186
19.81622 178
19.83634 189
19.85645 163
19.87656 185
19.89668 156
19.91679 178
19.93691 160
19.95702 177
19.97713 189
19.99725 179
20.01736 169
20.03747 180
20.05759 185
20.0777 184
20.09782 185
20.11793 185
20.13804 213
20.15816 204
20.17827 196
20.19838 218
20.2185 238
20.23861 227
20.25872 232
20.27884 208
20.29895 239
20.31907 222
20.33918 239
20.35929 265
20.37941 267
20.39952 252
20.41963 274
20.43975 299
20.45986 281
20.47998 326
20.50009 308
20.5202 273
20.54032 309
20.56043 390
20.58054 354
20.60066 391
20.62077 436
20.64088 552
20.661 581
20.68111 768
20.70123 1049
20.72134 1519
20.74145 2069
20.76157 2967
20.78168 4151
20.80179 5722
20.82191 7283
20.84202 8830
20.86214 9544
20.88225 8716
20.90236 7012
20.92248 4999
20.94259 3206
20.9627 1907
20.98282 998
21.00293 724
21.02305 599
21.04316 488
21.06327 447
21.08339 458
21.1035 399
21.12361 349
21.14373 378
21.16384 326
21.18395 299
21.20407 274
21.22418 265
21.2443 255
21.26441 242
21.28452 261
21.30464 224
21.32475 245
21.34486 250
21.36498 215
21.38509 212
21.40521 234
21.42532 234
21.44543 220
21.46555 226
21.48566 216
21.50577 188
21.52589 204
21.546 208
21.56612 200
21.58623 179
21.60634 220
21.62646 209
21.64657 236
21.66668 185
21.6868 186
21.70691 184
21.72702 197
21.74714 203
21.76725 170
21.78737 181
21.80748 206
21.82759 194
21.84771 192
21.86782 205
21.88793 225
21.90805 195
21.92816 221
21.94828 188
21.96839 210
21.9885 198
22.00862 237
22.02873 183
22.04884 202
22.06896 218
22.08907 186
22.10919 200
22.1293 190
22.14941 207
22.16953 191
22.18964 171
22.20975 183
22.22987 190
22.24998 221
22.27009 196
22.29021 193
22.31032 193
22.33044 198
22.35055 183
22.37066 184
22.39078 179
22.41089 200
22.431 181
22.45112 195
22.47123 189
22.49135 145
22.51146 153
22.53157 174
22.55169 180
22.5718 184
22.59191 167
22.61203 166
22.63214 180
22.65225 157
22.67237 165
22.69248 166
22.7126 163
22.73271 170
22.75282 191
22.77294 208
22.79305 180
22.81316 168
22.83328 158
22.85339 180
22.87351 163
22.89362 170
22.91373 175
22.93385 157
22.95396 161
22.97407 206
22.99419 168
23.0143 162
23.03442 165
23.05453 196
23.07464 213
23.09476 216
23.11487 217
23.13498 188
23.1551 211
23.17521 196
23.19532 239
23.21544 230
23.23555 215
23.25567 200
23.27578 164
23.29589 187
23.31601 185
23.33612 174
23.35623 172
23.37635 200
23.39646 215
23.41658 181
23.43669 181
23.4568 174
23.47692 177
23.49703 137
23.51714 173
23.53726 178
23.55737 186
23.57749 176
23.5976 209
23.61771 160
23.63783 170
23.65794 148
23.67805 192
23.69817 172
23.71828 176
23.73839 177
23.75851 180
23.77862 180
23.79874 204
23.81885 187
23.83896 184
23.85908 211
23.87919 230
23.8993 220
23.91942 220
23.93953 252
23.95965 269
23.97976 273
23.99987 320
24.01999 309
24.0401 298
24.06021 257
24.08033 220
24.10044 215
24.12056 176
24.14067 170
24.16078 172
24.1809 164
24.20101 192
24.22112 191
24.24124 180
24.26135 228
24.28146 166
24.30158 193
24.32169 192
24.34181 177
24.36192 217
24.38203 179
24.40215 160
24.42226 181
24.44237 166
24.46249 165
24.4826 183
24.50272 170
24.52283 175
24.54294 183
24.56306 177
24.58317 191
24.60328 198
24.6234 202
24.64351 176
24.66362 190
24.68374 161
24.70385 187
24.72397 188
24.74408 177
24.76419 187
24.78431 172
24.80442 167
24.82453 169
24.84465 190
24.86476 177
24.88488 171
24.90499 183
24.9251 174
24.94522 191
24.96533 171
24.98544 163
25.00556 181
25.02567 169
25.04579 189
25.0659 176
25.08601 183
25.10613 186
25.12624 187
25.14635 186
25.16647 183
25.18658 184
25.20669 173
25.22681 169
25.24692 167
25.26704 185
25.28715 203
25.30726 170
25.32738 183
25.34749 219
25.3676 177
25.38772 192
25.40783 203
25.42795 221
25.44806 207
25.46817 226
25.48829 221
25.5084 269
25.52851 263
25.54863 254
25.56874 221
25.58886 257
25.60897 247
25.62908 288
25.6492 281
25.66931 297
25.68942 336
25.70954 358
25.72965 370
25.74976 390
25.76988 412
25.78999 385
25.81011 410
25.83022 418
25.85033 425
25.87045 385
25.89056 407
25.91067 466
25.93079 448
25.9509 472
25.97102 426
25.99113 417
26.01124 484
26.03136 470
26.05147 468
26.07158 490
26.0917 481
26.11181 555
26.13193 576
26.15204 581
26.17215 660
26.19227 677
26.21238 746
26.23249 738
26.25261 823
26.27272 959
26.29283 1027
26.31295 1039
26.33306 1239
26.35318 1384
26.37329 1574
26.3934 1930
26.41352 2282
26.43363 2888
26.45374 3860
26.47386 5276
26.49397 7309
26.51409 10322
26.5342 14564
26.55431 20139
26.57443 27117
26.59454 33904
26.61465 39642
26.63477 43097
26.65488 40681
26.67499 32440
26.69511 24511
26.71522 18410
26.73534 12436
26.75545 6751
26.77556 3545
26.79568 2382
26.81579 1880
26.8359 1590
26.85602 1406
26.87613 1187
26.89625 1055
26.91636 1059
26.93647 910
26.95659 861
26.9767 785
26.99681 706
27.01693 660
27.03704 647
27.05716 569
27.07727 534
27.09738 457
27.1175 486
27.13761 450
27.15772 421
27.17784 479
27.19795 466
27.21806 417
27.23818 399
27.25829 383
27.27841 400
27.29852 412
27.31863 411
27.33875 466
27.35886 422
27.37897 437
27.39909 470
27.4192 429
27.43932 469
27.45943 452
27.47954 432
27.49966 391
27.51977 402
27.53988 392
27.56 347
27.58011 332
27.60023 334
27.62034 321
27.64045 298
27.66057 326
27.68068 297
27.70079 306
27.72091 309
27.74102 297
27.76113 309
27.78125 280
27.80136 306
27.82148 281
27.84159 282
27.8617 306
27.88182 309
27.90193 276
27.92204 300
27.94216 302
27.96227 318
27.98239 305
28.0025 275
28.02261 282
28.04273 258
28.06284 259
28.08295 255
28.10307 249
28.12318 239
28.1433 261
28.16341 223
28.18352 250
28.20364 232
28.22375 255
28.24386 281
28.26398 239
28.28409 240
28.3042 236
28.32432 237
28.34443 229
28.36455 246
28.38466 241
28.40477 260
28.42489 250
28.445 235
28.46511 221
28.48523 229
28.50534 224
28.52546 247
28.54557 210
28.56568 224
28.5858 200
28.60591 242
28.62602 210
28.64614 242
28.66625 223
28.68636 229
28.70648 232
28.72659 209
28.74671 208
28.76682 245
28.78693 229
28.80705 211
28.82716 228
28.84727 206
28.86739 235
28.8875 216
28.90762 239
28.92773 235
28.94784 238
28.96796 210
28.98807 202
29.00818 200
29.0283 187
29.04841 204
29.06853 218
29.08864 208
29.10875 214
29.12887 212
29.14898 197
29.16909 198
29.18921 199
29.20932 220
29.22943 187
29.24955 226
29.26966 239
29.28978 221
29.30989 201
29.33 226
29.35012 219
29.37023 226
29.39034 233
29.41046 236
29.43057 226
29.45069 190
29.4708 222
29.49091 207
29.51103 201
29.53114 227
29.55125 214
29.57137 228
29.59148 189
29.6116 196
29.63171 180
29.65182 192
29.67194 184
29.69205 179
29.71216 218
29.73228 200
29.75239 186
29.7725 193
29.79262 198
29.81273 190
29.83285 222
29.85296 178
29.87307 191
29.89319 191
29.9133 214
29.93341 191
29.95353 205
29.97364 181
29.99376 196
30.01387 206
30.03398 195
30.0541 211
30.07421 215
30.09432 201
30.11444 234
30.13455 221
30.15467 215
30.17478 235
30.19489 202
30.21501 223
30.23512 218
30.25523 196
30.27535 196
30.29546 217
30.31557 219
30.33569 213
30.3558 191
30.37592 193
30.39603 201
30.41614 205
30.43626 203
30.45637 219
30.47648 196
30.4966 171
30.51671 210
30.53683 175
30.55694 180
30.57705 183
30.59717 197
30.61728 178
30.63739 178
30.65751 187
30.67762 228
30.69773 206
30.71785 215
30.73796 213
30.75808 201
30.77819 185
30.7983 206
30.81842 191
30.83853 176
30.85864 170
30.87876 209
30.89887 169
30.91899 181
30.9391 178
30.95921 158
30.97933 180
30.99944 195
31.01955 148
31.03967 197
31.05978 167
31.0799 148
31.10001 148
31.12012 185
31.14024 193
31.16035 168
31.18046 140
31.20058 159
31.22069 168
31.2408 155
31.26092 166
31.28103 177
31.30115 149
31.32126 160
31.34137 161
31.36149 159
31.3816 173
31.40171 173
31.42183 171
31.44194 180
31.46206 161
31.48217 149
31.50228 163
31.5224 154
31.54251 173
31.56262 165
31.58274 156
31.60285 177
31.62297 166
31.64308 159
31.66319 155
31.68331 161
31.70342 144
31.72353 168
31.74365 142
31.76376 170
31.78387 179
31.80399 149
31.8241 163
31.84422 166
31.86433 155
31.88444 138
31.90456 141
31.92467 140
31.94478 144
31.9649 157
31.98501 134
32.00513 164
32.02524 126
32.04535 165
32.06547 155
32.08558 176
32.10569 184
32.12581 174
32.14592 177
32.16604 166
32.18615 158
32.20626 147
32.22638 157
32.24649 153
32.2666 146
32.28672 181
32.30683 178
32.32694 163
32.34706 155
32.36717 151
32.38729 139
32.4074 168
32.42751 153
32.44763 159
32.46774 158
32.48785 131
32.50797 147
32.52808 135
32.5482 151
32.56831 121
32.58842 156
32.60854 141
32.62865 151
32.64876 119
32.66888 139
32.68899 150
32.7091 150
32.72922 159
32.74933 144
32.76945 140
32.78956 133
32.80967 134
32.82979 138
32.8499 149
32.87001 155
32.89013 194
32.91024 164
32.93036 165
32.95047 138
32.97058 164
32.9907 131
33.01081 154
33.03092 136
33.05104 166
33.07115 156
33.09127 160
33.11138 137
33.13149 146
33.15161 157
33.17172 164
33.19183 135
33.21195 143
33.23206 146
33.25217 149
33.27229 137
33.2924 158
33.31252 150
33.33263 140
33.35274 150
33.37286 152
33.39297 149
33.41308 152
33.4332 147
33.45331 150
33.47343 133
33.49354 144
33.51365 159
33.53377 130
33.55388 137
33.57399 142
33.59411 145
33.61422 162
33.63434 147
33.65445 157
33.67456 140
33.69468 153
33.71479 150
33.7349 153
33.75502 150
33.77513 155
33.79524 124
33.81536 119
33.83547 146
33.85559 131
33.8757 155
33.89581 148
33.91593 124
33.93604 131
33.95615 148
33.97627 165
33.99638 143
34.0165 150
34.03661 145
34.05672 143
34.07684 144
34.09695 133
34.11706 141
34.13718 145
34.15729 163
34.17741 146
34.19752 144
34.21763 132
34.23775 162
34.25786 142
34.27797 160
34.29809 157
34.3182 144
34.33831 161
34.35843 153
34.37854 167
34.39866 152
34.41877 157
34.43888 131
34.459 164
34.47911 145
34.49922 165
34.51934 154
34.53945 146
34.55957 148
34.57968 158
34.59979 167
34.61991 135
34.64002 128
34.66013 149
34.68025 167
34.70036 137
34.72047 149
34.74059 139
34.7607 147
34.78082 151
34.80093 146
34.82104 154
34.84116 162
34.86127 139
34.88138 163
34.9015 156
34.92161 171
34.94173 138
34.96184 149
34.98195 156
35.00207 157
35.02218 160
35.04229 143
35.06241 184
35.08252 149
35.10264 175
35.12275 151
35.14286 154
35.16298 164
35.18309 160
35.2032 162
35.22332 163
35.24343 155
35.26354 161
35.28366 159
35.30377 146
35.32389 144
35.344 145
35.36411 158
35.38423 143
35.40434 160
35.42445 167
35.44457 170
35.46468 161
35.4848 196
35.50491 185
35.52502 150
35.54514 167
35.56525 185
35.58536 170
35.60548 175
35.62559 180
35.64571 153
35.66582 175
35.68593 175
35.70605 156
35.72616 151
35.74627 158
35.76639 167
35.7865 145
35.80661 162
35.82673 169
35.84684 171
35.86696 160
35.88707 162
35.90718 147
35.9273 171
35.94741 182
35.96752 146
35.98764 166
36.00775 147
36.02787 156
36.04798 173
36.06809 182
36.08821 161
36.10832 189
36.12843 203
36.14855 183
36.16866 197
36.18878 186
36.20889 196
36.229 222
36.24912 264
36.26923 252
36.28934 308
36.30946 358
36.32957 404
36.34968 514
36.3698 604
36.38991 816
36.41003 946
36.43014 1240
36.45025 1589
36.47037 1952
36.49048 2392
36.51059 2770
36.53071 2807
36.55082 2608
36.57094 2086
36.59105 1756
36.61116 1517
36.63128 1388
36.65139 1068
36.6715 744
36.69162 471
36.71173 332
36.73184 298
36.75196 240
36.77207 232
36.79219 254
36.8123 233
36.83241 210
36.85253 195
36.87264 202
36.89275 196
36.91287 159
36.93298 211
36.9531 182
36.97321 180
36.99332 172
37.01344 156
37.03355 163
37.05366 184
37.07378 158
37.09389 151
37.11401 154
37.13412 166
37.15423 139
37.17435 168
37.19446 167
37.21457 155
37.23469 150
37.2548 144
37.27491 175
37.29503 144
37.31514 153
37.33526 137
37.35537 155
37.37548 144
37.3956 131
37.41571 156
37.43582 130
37.45594 139
37.47605 146
37.49617 156
37.51628 164
37.53639 159
37.55651 147
37.57662 153
37.59673 151
37.61685 150
37.63696 158
37.65708 120
37.67719 120
37.6973 150
37.71742 135
37.73753 137
37.75764 176
37.77776 126
37.79787 131
37.81798 180
37.8381 134
37.85821 124
37.87833 140
37.89844 145
37.91855 128
37.93867 149
37.95878 130
37.97889 140
37.99901 154
38.01912 164
38.03924 160
38.05935 161
38.07946 164
38.09958 172
38.11969 170
38.1398 157
38.15992 161
38.18003 139
38.20015 145
38.22026 160
38.24037 158
38.26049 151
38.2806 157
38.30071 165
38.32083 146
38.34094 141
38.36105 144
38.38117 154
38.40128 150
38.4214 138
38.44151 147
38.46162 154
38.48174 147
38.50185 161
38.52196 135
38.54208 144
38.56219 156
38.58231 137
38.60242 169
38.62253 143
38.64265 156
38.66276 160
38.68287 141
38.70299 143
38.7231 137
38.74321 158
38.76333 144
38.78344 150
38.80356 174
38.82367 169
38.84378 186
38.8639 159
38.88401 161
38.90412 165
38.92424 153
38.94435 143
38.96447 161
38.98458 184
39.00469 186
39.02481 195
39.04492 202
39.06503 167
39.08515 193
39.10526 173
39.12538 214
39.14549 274
39.1656 279
39.18572 295
39.20583 323
39.22594 295
39.24606 401
39.26617 458
39.28628 578
39.3064 672
39.32651 874
39.34663 1099
39.36674 1437
39.38685 1795
39.40697 2120
39.42708 2329
39.44719 2569
39.46731 2491
39.48742 2080
39.50754 1681
39.52765 1422
39.54776 1270
39.56788 1140
39.58799 908
39.6081 620
39.62822 371
39.64833 288
39.66845 247
39.68856 225
39.70867 244
39.72879 219
39.7489 232
39.76901 233
39.78913 199
39.80924 183
39.82935 193
39.84947 189
39.86958 156
39.8897 172
39.90981 177
39.92992 194
39.95004 209
39.97015 207
39.99026 226
40.01038 227
40.03049 240
40.05061 275
40.07072 263
40.09083 320
40.11095 371
40.13106 429
40.15117 563
40.17129 652
40.1914 765
40.21152 932
40.23163 1103
40.25174 1175
40.27186 1287
40.29197 1301
40.31208 1082
40.3322 850
40.35231 677
40.37242 705
40.39254 676
40.41265 512
40.43277 378
40.45288 260
40.47299 246
40.49311 223
40.51322 190
40.53333 184
40.55345 170
40.57356 186
40.59368 168
40.61379 160
40.6339 179
40.65402 149
40.67413 143
40.69424 150
40.71436 134
40.73447 132
40.75458 148
40.7747 147
40.79481 157
40.81493 164
40.83504 153
40.85515 134
40.87527 171
40.89538 157
40.91549 137
40.93561 149
40.95572 173
40.97584 146
40.99595 163
41.01606 150
41.03618 152
41.05629 144
41.0764 146
41.09652 162
41.11663 176
41.13675 155
41.15686 146
41.17697 138
41.19709 151
41.2172 135
41.23731 152
41.25743 141
41.27754 157
41.29765 151
41.31777 131
41.33788 158
41.358 170
41.37811 164
41.39822 152
41.41834 160
41.43845 153
41.45856 152
41.47868 144
41.49879 123
41.51891 145
41.53902 153
41.55913 151
41.57925 156
41.59936 175
41.61947 165
41.63959 157
41.6597 180
41.67982 174
41.69993 170
41.72004 166
41.74016 188
41.76027 159
41.78038 201
41.8005 175
41.82061 185
41.84072 169
41.86084 164
41.88095 171
41.90107 183
41.92118 170
41.94129 159
41.96141 151
41.98152 162
42.00163 167
42.02175 167
42.04186 200
42.06198 191
42.08209 187
42.1022 178
42.12232 230
42.14243 219
42.16254 281
42.18266 267
42.20277 285
42.22289 317
42.243 364
42.26311 446
42.28323 557
42.30334 653
42.32345 871
42.34357 1043
42.36368 1227
42.38379 1477
42.40391 1727
42.42402 1867
42.44414 1809
42.46425 1561
42.48436 1370
42.50448 1129
42.52459 966
42.5447 921
42.56482 805
42.58493 607
42.60505 393
42.62516 325
42.64527 237
42.66539 235
42.6855 201
42.70561 189
42.72573 189
42.74584 194
42.76595 169
42.78607 165
42.80618 176
42.8263 155
42.84641 138
42.86652 166
42.88664 148
42.90675 146
42.92686 146
42.94698 148
42.96709 167
42.98721 160
43.00732 149
43.02743 151
43.04755 134
43.06766 141
43.08777 158
43.10789 134
43.128 131
43.14812 143
43.16823 162
43.18834 128
43.20846 137
43.22857 138
43.24868 129
43.2688 133
43.28891 141
43.30902 122
43.32914 141
43.34925 137
43.36937 147
43.38948 139
43.40959 153
43.42971 133
43.44982 126
43.46993 129
43.49005 153
43.51016 131
43.53028 148
43.55039 132
43.5705 137
43.59062 145
43.61073 127
43.63084 135
43.65096 151
43.67107 120
43.69119 121
43.7113 131
43.73141 127
43.75153 149
43.77164 132
43.79175 129
43.81187 145
43.83198 142
43.85209 140
43.87221 123
43.89232 140
43.91244 129
43.93255 127
43.95266 127
43.97278 106
43.99289 140
44.013 140
44.03312 141
44.05323 155
44.07335 151
44.09346 139
44.11357 150
44.13369 140
44.1538 135
44.17391 146
44.19403 124
44.21414 134
44.23426 140
44.25437 121
44.27448 162
44.2946 130
44.31471 150
44.33482 137
44.35494 134
44.37505 145
44.39516 129
44.41528 141
44.43539 137
44.45551 147
44.47562 131
44.49573 121
44.51585 148
44.53596 125
44.55607 144
44.57619 138
44.5963 131
44.61642 161
44.63653 133
44.65664 147
44.67676 126
44.69687 145
44.71698 132
44.7371 131
44.75721 134
44.77732 133
44.79744 167
44.81755 122
44.83767 136
44.85778 135
44.87789 144
44.89801 133
44.91812 164
44.93823 137
44.95835 138
44.97846 154
44.99858 163
45.01869 131
45.0388 131
45.05892 142
45.07903 142
45.09914 135
45.11926 119
45.13937 130
45.15949 147
45.1796 119
45.19971 156
45.21983 136
45.23994 132
45.26005 146
45.28017 142
45.30028 129
45.32039 164
45.34051 142
45.36062 158
45.38074 150
45.40085 172
45.42096 170
45.44108 189
45.46119 185
45.4813 195
45.50142 206
45.52153 237
45.54165 232
45.56176 259
45.58187 314
45.60199 333
45.6221 419
45.64221 516
45.66233 608
45.68244 669
45.70256 848
45.72267 992
45.74278 1158
45.7629 1174
45.78301 1164
45.80312 1042
45.82324 899
45.84335 745
45.86346 659
45.88358 619
45.90369 563
45.92381 495
45.94392 387
45.96403 240
45.98415 202
46.00426 165
46.02437 175
46.04449 134
46.0646 120
46.08472 146
46.10483 164
46.12494 155
46.14506 160
46.16517 156
46.18528 146
46.2054 149
46.22551 128
46.24563 139
46.26574 129
46.28585 144
46.30597 125
46.32608 133
46.34619 126
46.36631 139
46.38642 144
46.40653 130
46.42665 129
46.44676 129
46.46688 135
46.48699 125
46.5071 122
46.52722 131
46.54733 124
46.56744 136
46.58756 114
46.60767 134
46.62779 112
46.6479 127
46.66801 123
46.68813 135
46.70824 117
46.72835 126
46.74847 126
46.76858 134
46.78869 146
46.80881 116
46.82892 123
46.84904 118
46.86915 108
46.88926 135
46.90938 124
46.92949 127
46.9496 102
46.96972 110
46.98983 126
47.00995 136
47.03006 121
47.05017 142
47.07029 114
47.0904 144
47.11051 125
47.13063 125
47.15074 118
47.17086 135
47.19097 126
47.21108 122
47.2312 120
47.25131 103
47.27142 132
47.29154 128
47.31165 135
47.33176 137
47.35188 117
47.37199 125
47.39211 126
47.41222 118
47.43233 132
47.45245 111
47.47256 133
47.49267 109
47.51279 122
47.5329 118
47.55302 123
47.57313 124
47.59324 123
47.61336 126
47.63347 149
47.65358 113
47.6737 111
47.69381 131
47.71393 126
47.73404 131
47.75415 102
47.77427 110
47.79438 125
47.81449 121
47.83461 114
47.85472 126
47.87483 125
47.89495 111
47.91506 122
47.93518 118
47.95529 126
47.9754 112
47.99552 110
48.01563 118
48.03574 125
48.05586 128
48.07597 119
48.09609 134
48.1162 140
48.13631 115
48.15643 120
48.17654 123
48.19665 116
48.21677 146
48.23688 126
48.257 142
48.27711 115
48.29722 123
48.31734 130
48.33745 141
48.35756 128
48.37768 130
48.39779 151
48.4179 112
48.43802 131
48.45813 133
48.47825 120
48.49836 124
48.51847 126
48.53859 149
48.5587 128
48.57881 138
48.59893 130
48.61904 151
48.63916 120
48.65927 138
48.67938 139
48.6995 130
48.71961 131
48.73972 132
48.75984 139
48.77995 119
48.80006 135
48.82018 141
48.84029 144
48.86041 124
48.88052 146
48.90063 135
48.92075 132
48.94086 157
48.96097 141
48.98109 150
49.0012 136
49.02132 143
49.04143 131
49.06154 155
49.08166 157
49.10177 150
49.12188 124
49.142 134
49.16211 148
49.18223 133
49.20234 162
49.22245 139
49.24257 186
49.26268 172
49.28279 142
49.30291 141
49.32302 128
49.34313 131
49.36325 163
49.38336 139
49.40348 151
49.42359 135
49.4437 140
49.46382 139
49.48393 157
49.50404 153
49.52416 160
49.54427 189
49.56439 183
49.5845 156
49.60461 153
49.62473 190
49.64484 197
49.66495 198
49.68507 202
49.70518 240
49.7253 260
49.74541 257
49.76552 309
49.78564 304
49.80575 339
49.82586 397
49.84598 440
49.86609 509
49.8862 561
49.90632 684
49.92643 837
49.94655 899
49.96666 1230
49.98677 1518
50.00689 1821
50.027 2312
50.04711 2876
50.06723 3291
50.08734 3560
50.10746 3924
50.12757 3821
50.14768 3429
50.1678 2813
50.18791 2215
50.20802 1987
50.22814 1962
50.24825 1922
50.26837 1727
50.28848 1352
50.30859 889
50.32871 585
50.34882 419
50.36893 354
50.38905 303
50.40916 292
50.42927 272
50.44939 276
50.4695 268
50.48962 283
50.50973 259
50.52984 261
50.54996 266
50.57007 270
50.59018 247
50.6103 258
50.63041 268
50.65053 198
50.67064 208
50.69075 192
50.71087 194
50.73098 184
50.75109 185
50.77121 182
50.79132 186
50.81143 125
50.83155 169
50.85166 160
50.87178 149
50.89189 149
50.912 152
50.93212 145
50.95223 142
50.97234 122
50.99246 117
51.01257 114
51.03269 147
51.0528 121
51.07291 154
51.09303 146
51.11314 141
51.13325 124
51.15337 139
51.17348 141
51.1936 121
51.21371 121
51.23382 123
51.25394 126
51.27405 125
51.29416 131
51.31428 123
51.33439 121
51.3545 117
51.37462 120
51.39473 116
51.41485 118
51.43496 111
51.45507 132
51.47519 130
51.4953 118
51.51541 109
51.53553 150
51.55564 110
51.57576 138
51.59587 124
51.61598 135
51.6361 126
51.65621 112
51.67632 120
51.69644 126
51.71655 136
51.73667 150
51.75678 122
51.77689 146
51.79701 109
51.81712 123
51.83723 125
51.85735 119
51.87746 134
51.89757 103
51.91769 125
51.9378 123
51.95792 114
51.97803 125
51.99814 103
52.01826 151
52.03837 126
52.05848 122
52.0786 113
52.09871 120
52.11883 112
52.13894 106
52.15905 116
52.17917 119
52.19928 120
52.21939 117
52.23951 132
52.25962 109
52.27974 103
52.29985 128
52.31996 123
52.34008 110
52.36019 122
52.3803 131
52.40042 122
52.42053 112
52.44064 115
52.46076 104
52.48087 129
52.50099 119
52.5211 108
52.54121 114
52.56133 110
52.58144 141
52.60155 143
52.62167 124
52.64178 118
52.6619 139
52.68201 125
52.70212 106
52.72224 129
52.74235 137
52.76246 117
52.78258 122
52.80269 117
52.8228 102
52.84292 102
52.86303 135
52.88315 128
52.90326 108
52.92337 119
52.94349 110
52.9636 120
52.98371 117
53.00383 113
53.02394 118
53.04406 114
53.06417 116
53.08428 110
53.1044 109
53.12451 137
53.14462 112
53.16474 126
53.18485 128
53.20497 120
53.22508 120
53.24519 120
53.26531 125
53.28542 112
53.30553 120
53.32565 138
53.34576 125
53.36587 141
53.38599 107
53.4061 150
53.42622 116
53.44633 132
53.46644 108
53.48656 137
53.50667 105
53.52678 130
53.5469 116
53.56701 109
53.58713 130
53.60724 138
53.62735 122
53.64747 126
53.66758 133
53.68769 126
53.70781 125
53.72792 125
53.74804 112
53.76815 117
53.78826 130
53.80838 132
53.82849 128
53.8486 135
53.86872 124
53.88883 132
53.90894 136
53.92906 130
53.94917 131
53.96929 134
53.9894 145
54.00951 145
54.02963 137
54.04974 119
54.06985 112
54.08997 118
54.11008 118
54.1302 131
54.15031 136
54.17042 138
54.19054 140
54.21065 140
54.23076 133
54.25088 133
54.27099 146
54.29111 153
54.31122 144
54.33133 148
54.35145 120
54.37156 154
54.39167 144
54.41179 146
54.4319 139
54.45201 168
54.47213 162
54.49224 185
54.51236 174
54.53247 184
54.55258 219
54.5727 192
54.59281 223
54.61292 269
54.63304 267
54.65315 347
54.67327 342
54.69338 443
54.71349 559
54.73361 609
54.75372 725
54.77383 862
54.79395 974
54.81406 1083
54.83417 1146
54.85429 1127
54.8744 1130
54.89452 932
54.91463 777
54.93474 649
54.95486 694
54.97497 669
54.99508 664
55.0152 610
55.03531 539
55.05543 379
55.07554 316
55.09565 300
55.11577 276
55.13588 265
55.15599 306
55.17611 335
55.19622 385
55.21634 417
55.23645 500
55.25656 537
55.27668 554
55.29679 607
55.3169 557
55.33702 506
55.35713 438
55.37724 388
55.39736 347
55.41747 338
55.43759 346
55.4577 356
55.47781 270
55.49793 251
55.51804 181
55.53815 158
55.55827 167
55.57838 144
55.5985 167
55.61861 124
55.63872 142
55.65884 120
55.67895 118
55.69906 129
55.71918 108
55.73929 124
55.75941 121
55.77952 116
55.79963 131
55.81975 120
55.83986 109
55.85997 115
55.88009 128
55.9002 122
55.92031 109
55.94043 102
55.96054 122
55.98066 123
56.00077 132
56.02088 125
56.041 117
56.06111 114
56.08122 101
56.10134 113
56.12145 138
56.14157 114
56.16168 105
56.18179 114
56.20191 119
56.22202 143
56.24213 109
56.26225 115
56.28236 112
56.30248 112
56.32259 123
56.3427 110
56.36282 108
56.38293 116
56.40304 103
56.42316 122
56.44327 104
56.46338 132
56.4835 112
56.50361 113
56.52373 123
56.54384 110
56.56395 115
56.58407 109
56.60418 114
56.62429 106
56.64441 102
56.66452 90
56.68464 125
56.70475 108
56.72486 104
56.74498 127
56.76509 114
56.7852 121
56.80532 126
56.82543 117
56.84554 126
56.86566 96
56.88577 122
56.90589 120
56.926 138
56.94611 95
56.96623 130
56.98634 100
57.00645 118
57.02657 111
57.04668 142
57.0668 137
57.08691 148
57.10702 148
57.12714 158
57.14725 156
57.16736 186
57.18748 180
57.20759 172
57.22771 163
57.24782 165
57.26793 139
57.28805 129
57.30816 147
57.32827 131
57.34839 147
57.3685 143
57.38861 124
57.40873 136
57.42884 122
57.44896 128
57.46907 114
57.48918 126
57.5093 104
57.52941 113
57.54952 107
57.56964 124
57.58975 109
57.60987 127
57.62998 118
57.65009 147
57.67021 113
57.69032 118
57.71043 113
57.73055 127
57.75066 129
57.77078 125
57.79089 125
57.811 130
57.83112 115
57.85123 120
57.87134 107
57.89146 117
57.91157 108
57.93168 117
57.9518 98
57.97191 97
57.99203 129
58.01214 114
58.03225 117
58.05237 123
58.07248 129
58.09259 126
58.11271 114
58.13282 142
58.15294 104
58.17305 106
58.19316 118
58.21328 125
58.23339 100
58.2535 134
58.27362 115
58.29373 109
58.31385 112
58.33396 115
58.35407 111
58.37419 124
58.3943 106
58.41441 117
58.43453 111
58.45464 103
58.47475 131
58.49487 141
58.51498 127
58.5351 112
58.55521 121
58.57532 112
58.59544 119
58.61555 127
58.63566 122
58.65578 108
58.67589 135
58.69601 107
58.71612 111
58.73623 122
58.75635 110
58.77646 111
58.79657 128
58.81669 112
58.8368 136
58.85691 118
58.87703 114
58.89714 118
58.91726 118
58.93737 121
58.95748 129
58.9776 125
58.99771 103
59.01782 115
59.03794 107
59.05805 140
59.07817 118
59.09828 134
59.11839 122
59.13851 142
59.15862 118
59.17873 135
59.19885 146
59.21896 115
59.23908 153
59.25919 140
59.2793 143
59.29942 149
59.31953 143
59.33964 134
59.35976 119
59.37987 137
59.39998 160
59.4201 145
59.44021 155
59.46033 166
59.48044 168
59.50055 172
59.52067 223
59.54078 206
59.56089 224
59.58101 258
59.60112 310
59.62124 296
59.64135 344
59.66146 359
59.68158 416
59.70169 469
59.7218 571
59.74192 639
59.76203 694
59.78215 972
59.80226 1146
59.82237 1356
59.84249 1629
59.8626 1935
59.88271 2203
59.90283 2252
59.92294 2342
59.94305 2304
59.96317 2045
59.98328 1650
60.0034 1391
60.02351 1240
60.04362 1241
60.06374 1228
60.08385 1169
60.10396 1072
60.12408 1022
60.14419 750
60.16431 548
60.18442 404
60.20453 322
60.22465 255
60.24476 226
60.26487 210
60.28499 186
60.3051 181
60.32522 186
60.34533 152
60.36544 164
60.38556 150
60.40567 147
60.42578 136
60.4459 142
60.46601 141
60.48612 152
60.50624 124
60.52635 113
60.54647 148
60.56658 123
60.58669 127
60.60681 149
60.62692 116
60.64703 136
60.66715 142
60.68726 138
60.70738 117
60.72749 111
60.7476 142
60.76772 142
60.78783 121
60.80794 134
60.82806 120
60.84817 127
60.86828 158
60.8884 119
60.90851 132
60.92863 134
60.94874 134
60.96885 101
60.98897 112
61.00908 104
61.02919 112
61.04931 120
61.06942 144
61.08954 127
61.10965 139
61.12976 132
61.14988 130
61.16999 110
61.1901 111
61.21022 128
61.23033 124
61.25045 131
61.27056 105
61.29067 121
61.31079 133
61.3309 120
61.35101 105
61.37113 118
61.39124 105
61.41135 118
61.43147 101
61.45158 110
61.4717 111
61.49181 130
61.51192 108
61.53204 145
61.55215 119
61.57226 126
61.59238 126
61.61249 123
61.63261 121
61.65272 105
61.67283 109
61.69295 121
61.71306 105
61.73317 113
61.75329 124
61.7734 129
61.79352 102
61.81363 115
61.83374 105
61.85386 110
61.87397 128
61.89408 118
61.9142 119
61.93431 112
61.95442 114
61.97454 117
61.99465 114
62.01477 101
62.03488 113
62.05499 115
62.07511 120
62.09522 87
62.11533 119
62.13545 137
62.15556 123
62.17568 108
62.19579 93
62.2159 121
62.23602 117
62.25613 107
62.27624 112
62.29636 97
62.31647 113
62.33659 117
62.3567 117
62.37681 99
62.39693 104
62.41704 109
62.43715 110
62.45727 109
62.47738 110
62.49749 98
62.51761 123
62.53772 101
62.55784 116
62.57795 121
62.59806 107
62.61818 125
62.63829 104
62.6584 102
62.67852 115
62.69863 100
62.71875 115
62.73886 102
62.75897 115
62.77909 102
62.7992 101
62.81931 120
62.83943 110
62.85954 127
62.87965 105
62.89977 106
62.91988 108
62.94 106
62.96011 105
62.98022 100
63.00034 114
63.02045 112
63.04056 109
63.06068 124
63.08079 124
63.10091 121
63.12102 131
63.14113 92
63.16125 117
63.18136 122
63.20147 131
63.22159 109
63.2417 106
63.26182 127
63.28193 103
63.30204 120
63.32216 105
63.34227 114
63.36238 119
63.3825 101
63.40261 91
63.42272 109
63.44284 111
63.46295 112
63.48307 107
63.50318 114
63.52329 119
63.54341 121
63.56352 109
63.58363 126
63.60375 122
63.62386 135
63.64398 135
63.66409 147
63.6842 137
63.70432 132
63.72443 156
63.74454 178
63.76466 175
63.78477 175
63.80489 182
63.825 208
63.84511 241
63.86523 284
63.88534 311
63.90545 334
63.92557 399
63.94568 458
63.96579 488
63.98591 525
64.00602 502
64.02614 482
64.04625 428
64.06636 361
64.08648 316
64.10659 293
64.1267 278
64.14682 308
64.16693 281
64.18705 306
64.20716 293
64.22727 244
64.24739 210
64.2675 175
64.28761 132
64.30773 132
64.32784 117
64.34796 112
64.36807 114
64.38818 127
64.4083 113
64.42841 101
64.44852 126
64.46864 101
64.48875 117
64.50886 116
64.52898 107
64.54909 96
64.56921 132
64.58932 86
64.60943 108
64.62955 95
64.64966 126
64.66977 94
64.68989 121
64.71 109
64.73012 93
64.75023 127
64.77034 108
64.79046 103
64.81057 117
64.83068 116
64.8508 98
64.87091 84
64.89102 112
64.91114 103
64.93125 100
64.95137 110
64.97148 97
64.99159 93
65.01171 100
65.03182 121
65.05193 119
65.07205 126
65.09216 127
65.11228 128
65.13239 123
65.1525 124
65.17262 112
65.19273 125
65.21284 124
65.23296 111
65.25307 115
65.27319 115
65.2933 120
65.31341 103
65.33353 115
65.35364 136
65.37375 120
65.39387 120
65.41398 140
65.43409 113
65.45421 110
65.47432 119
65.49444 110
65.51455 121
65.53466 131
65.55478 136
65.57489 156
65.595 135
65.61512 163
65.63523 174
65.65535 170
65.67546 178
65.69557 205
65.71569 208
65.7358 206
65.75591 210
65.77603 186
65.79614 211
65.81626 161
65.83637 145
65.85648 164
65.8766 131
65.89671 176
65.91682 157
65.93694 160
65.95705 148
65.97716 123
65.99728 147
66.01739 145
66.03751 139
66.05762 115
66.07773 132
66.09785 110
66.11796 131
66.13807 115
66.15819 120
66.1783 121
66.19842 129
66.21853 121
66.23864 118
66.25876 120
66.27887 120
66.29898 113
66.3191 118
66.33921 122
66.35933 114
66.37944 112
66.39955 119
66.41967 126
66.43978 118
66.45989 120
66.48001 123
66.50012 114
66.52023 151
66.54035 123
66.56046 110
66.58058 136
66.60069 120
66.6208 116
66.64092 125
66.66103 136
66.68114 119
66.70126 110
66.72137 110
66.74149 127
66.7616 119
66.78171 123
66.80183 132
66.82194 126
66.84205 118
66.86217 129
66.88228 116
66.90239 115
66.92251 105
66.94262 131
66.96274 144
66.98285 122
67.00296 148
67.02308 138
67.04319 126
67.0633 127
67.08342 130
67.10353 120
67.12365 133
67.14376 130
67.16387 141
67.18399 139
67.2041 134
67.22421 163
67.24433 168
67.26444 150
67.28456 167
67.30467 188
67.32478 183
67.3449 205
67.36501 220
67.38512 220
67.40524 226
67.42535 245
67.44546 313
67.46558 344
67.48569 332
67.50581 391
67.52592 480
67.54603 517
67.56615 619
67.58626 737
67.60637 867
67.62649 1016
67.6466 1098
67.66672 1250
67.68683 1351
67.70694 1274
67.72706 1345
67.74717 1258
67.76728 1044
67.7874 925
67.80751 844
67.82763 836
67.84774 894
67.86785 968
67.88797 999
67.90808 974
67.92819 1070
67.94831 1004
67.96842 1037
67.98853 1067
68.00865 1230
68.02876 1398
68.04888 1545
68.06899 1641
68.0891 1758
68.10922 1775
68.12933 1831
68.14944 1731
68.16956 1659
68.18967 1494
68.20979 1557
68.2299 1565
68.25001 1689
68.27013 1666
68.29024 1669
68.31035 1529
68.33047 1450
68.35058 1099
68.3707 854
68.39081 721
68.41092 661
68.43104 624
68.45115 610
68.47126 594
68.49138 529
68.51149 492
68.5316 396
68.55172 306
68.57183 251
68.59195 215
68.61206 198
68.63217 186
68.65229 157
68.6724 167
68.69251 176
68.71263 147
68.73274 152
68.75286 144
68.77297 171
68.79308 150
68.8132 146
68.83331 141
68.85342 128
68.87354 154
68.89365 131
68.91376 124
68.93388 135
68.95399 140
68.97411 119
68.99422 144
69.01433 123
69.03445 116
69.05456 124
69.07467 141
69.09479 125
69.1149 125
69.13502 128
69.15513 137
69.17524 126
69.19536 105
69.21547 122
69.23558 112
69.2557 126
69.27581 114
69.29593 117
69.31604 114
69.33615 111
69.35627 98
69.37638 114
69.39649 109
69.41661 111
69.43672 127
69.45683 115
69.47695 101
69.49706 112
69.51718 116
69.53729 108
69.5574 109
69.57752 92
69.59763 113
69.61774 122
69.63786 106
69.65797 110
69.67809 125
69.6982 105
69.71831 120
69.73843 108
69.75854 105
69.77865 102
69.79877 141
69.81888 111
69.839 106
69.85911 131
69.87922 111
69.89934 104
69.91945 120
69.93956 86
69.95968 107
69.97979 110
69.9999 119
70.02002 115
70.04013 109
70.06025 94
70.08036 103
70.10047 96
70.12059 116
70.1407 105
70.16081 117
70.18093 87
70.20104 103
70.22116 95
70.24127 103
70.26138 105
70.2815 121
70.30161 104
70.32172 109
70.34184 105
70.36195 120
70.38207 113
70.40218 103
70.42229 101
70.44241 113
70.46252 97
70.48263 108
70.50275 101
70.52286 116
70.54297 97
70.56309 103
70.5832 92
70.60332 111
70.62343 108
70.64354 97
70.66366 116
70.68377 93
70.70388 95
70.724 106
70.74411 107
70.76423 90
70.78434 98
70.80445 131
70.82457 91
70.84468 106
70.86479 90
70.88491 104
70.90502 117
70.92513 103
70.94525 106
70.96536 92
70.98548 105
71.00559 102
71.0257 96
71.04582 91
71.06593 105
71.08604 113
71.10616 110
71.12627 113
71.14639 94
71.1665 99
71.18661 92
71.20673 109
71.22684 101
71.24695 90
71.26707 99
71.28718 92
71.3073 82
71.32741 103
71.34752 114
71.36764 114
71.38775 90
71.40786 92
71.42798 106
71.44809 100
71.4682 118
71.48832 120
71.50843 96
71.52855 100
71.54866 114
71.56877 99
71.58889 111
71.609 96
71.62911 112
71.64923 108
71.66934 110
71.68946 89
71.70957 110
71.72968 102
71.7498 113
71.76991 102
71.79002 113
71.81014 103
71.83025 92
71.85037 106
71.87048 101
71.89059 108
71.91071 99
71.93082 102
71.95093 110
71.97105 105
71.99116 94
72.01127 103
72.03139 100
72.0515 123
72.07162 108
72.09173 98
72.11184 94
72.13196 121
72.15207 118
72.17218 100
72.1923 110
72.21241 123
72.23253 107
72.25264 101
72.27275 113
72.29287 110
72.31298 97
72.33309 101
72.35321 84
72.37332 105
72.39344 102
72.41355 86
72.43366 110
72.45378 125
72.47389 83
72.494 92
72.51412 106
72.53423 96
72.55434 97
72.57446 131
72.59457 102
72.61469 90
72.6348 108
72.65491 110
72.67503 84
72.69514 97
72.71525 116
72.73537 106
72.75548 103
72.7756 119
72.79571 102
72.81582 117
72.83594 106
72.85605 113
72.87616 99
72.89628 109
72.91639 138
72.9365 94
72.95662 118
72.97673 118
72.99685 111
73.01696 126
73.03707 124
73.05719 115
73.0773 137
73.09741 137
73.11753 144
73.13764 140
73.15776 154
73.17787 163
73.19798 185
73.2181 194
73.23821 229
73.25832 211
73.27844 259
73.29855 313
73.31867 298
73.33878 382
73.35889 438
73.37901 453
73.39912 489
73.41923 528
73.43935 542
73.45946 476
73.47957 445
73.49969 366
73.5198 328
73.53992 261
73.56003 270
73.58014 278
73.60026 307
73.62037 305
73.64048 307
73.6606 288
73.68071 258
73.70083 218
73.72094 188
73.74105 144
73.76117 124
73.78128 125
73.80139 133
73.82151 119
73.84162 104
73.86174 104
73.88185 124
73.90196 105
73.92208 118
73.94219 90
73.9623 114
73.98242 95
74.00253 108
74.02264 114
74.04276 125
74.06287 106
74.08299 106
74.1031 115
74.12321 101
74.14333 104
74.16344 101
74.18355 94
74.20367 116
74.22378 100
74.2439 101
74.26401 94
74.28412 93
74.30424 110
74.32435 104
74.34446 99
74.36458 87
74.38469 125
74.40481 126
74.42492 95
74.44503 94
74.46515 100
74.48526 116
74.50537 110
74.52549 100
74.5456 91
74.56571 112
74.58583 94
74.60594 92
74.62606 108
74.64617 86
74.66628 104
74.6864 104
74.70651 105
74.72662 85
74.74674 95
74.76685 91
74.78697 111
74.80708 94
74.82719 100
74.84731 85
74.86742 106
74.88753 107
74.90765 112
74.92776 85
74.94787 120
74.96799 115
74.9881 122
75.00822 122
