3.00117 20803
3.02128 20004
3.0414 19844
3.06151 19238
3.08162 18644
3.10174 18018
3.12185 17467
3.14197 17449
3.16208 16422
3.18219 15937
3.20231 15833
3.22242 14919
3.24253 15055
3.26265 14268
3.28276 13657
3.30288 13625
3.32299 12922
3.3431 12532
3.36322 12277
3.38333 11681
3.40344 11400
3.42356 10893
3.44367 10763
3.46379 10245
3.4839 10102
3.50401 9743
3.52413 9114
3.54424 8837
3.56435 8562
3.58447 8342
3.60458 7984
3.62469 7657
3.64481 7396
3.66492 7113
3.68504 6815
3.70515 6440
3.72526 6117
3.74538 5993
3.76549 5822
3.7856 5493
3.80572 5400
3.82583 4960
3.84595 4811
3.86606 4790
3.88617 4552
3.90629 4383
3.9264 3830
3.94651 3962
3.96663 3757
3.98674 3648
4.00686 3439
4.02697 3109
4.04708 3103
4.0672 3021
4.08731 2765
4.10742 2658
4.12754 2504
4.14765 2563
4.16776 2436
4.18788 2176
4.20799 2295
4.22811 2088
4.24822 1997
4.26833 1970
4.28845 1729
4.30856 1674
4.32867 1678
4.34879 1692
4.3689 1711
4.38902 1516
4.40913 1444
4.42924 1378
4.44936 1322
4.46947 1454
4.48958 1257
4.5097 1313
4.52981 1288
4.54992 1221
4.57004 1267
4.59015 1104
4.61027 1109
4.63038 1105
4.65049 1051
4.67061 1077
4.69072 992
4.71083 1023
4.73095 922
4.75106 1052
4.77118 982
4.79129 866
4.8114 893
4.83152 854
4.85163 894
4.87174 839
4.89186 764
4.91197 799
4.93209 803
4.9522 701
4.97231 738
4.99243 688
5.01254 723
5.03265 694
5.05277 680
5.07288 659
5.09299 618
5.11311 587
5.13322 576
5.15334 611
5.17345 596
5.19356 571
5.21368 573
5.23379 546
5.2539 535
5.27402 492
5.29413 503
5.31425 524
5.33436 493
5.35447 470
5.37459 457
5.3947 465
5.41481 436
5.43493 474
5.45504 435
5.47516 409
5.49527 431
5.51538 426
5.5355 342
5.55561 397
5.57572 374
5.59584 348
5.61595 365
5.63606 371
5.65618 368
5.67629 363
5.69641 337
5.71652 306
5.73663 322
5.75675 333
5.77686 313
5.79697 331
5.81709 274
5.8372 298
5.85732 320
5.87743 306
5.89754 280
5.91766 295
5.93777 256
5.95788 293
5.978 277
5.99811 268
6.01823 286
6.03834 277
6.05845 267
6.07857 290
6.09868 276
6.11879 317
6.13891 278
6.15902 244
6.17913 238
6.19925 274
6.21936 266
6.23948 243
6.25959 267
6.2797 271
6.29982 247
6.31993 252
6.34004 243
6.36016 239
6.38027 246
6.40039 233
6.4205 234
6.44061 225
6.46073 253
6.48084 229
6.50095 235
6.52107 200
6.54118 255
6.56129 226
6.58141 261
6.60152 225
6.62164 253
6.64175 246
6.66186 196
6.68198 235
6.70209 212
6.7222 248
6.74232 213
6.76243 251
6.78255 219
6.80266 176
6.82277 245
6.84289 248
6.863 238
6.88311 223
6.90323 250
6.92334 220
6.94346 221
6.96357 235
6.98368 229
7.0038 216
7.02391 240
7.04402 206
7.06414 240
7.08425 212
7.10436 217
7.12448 252
7.14459 217
7.16471 219
7.18482 227
7.20493 217
7.22505 251
7.24516 201
7.26527 225
7.28539 214
7.3055 213
7.32562 209
7.34573 239
7.36584 209
7.38596 218
7.40607 206
7.42618 237
7.4463 251
7.46641 204
7.48653 248
7.50664 227
7.52675 200
7.54687 231
7.56698 232
7.58709 227
7.60721 204
7.62732 229
7.64743 255
7.66755 193
7.68766 239
7.70778 234
7.72789 261
7.748 209
7.76812 247
7.78823 226
7.80834 239
7.82846 244
7.84857 248
7.86869 235
7.8888 230
7.90891 216
7.92903 201
7.94914 234
7.96925 227
7.98937 237
8.00948 231
8.0296 224
8.04971 229
8.06982 213
8.08994 219
8.11005 221
8.13016 234
8.15028 208
8.17039 262
8.1905 204
8.21062 239
8.23073 248
8.25085 253
8.27096 252
8.29107 233
8.31119 256
8.3313 256
8.35141 250
8.37153 247
8.39164 253
8.41176 260
8.43187 246
8.45198 262
8.4721 257
8.49221 254
8.51232 262
8.53244 239
8.55255 278
8.57266 254
8.59278 235
8.61289 266
8.63301 263
8.65312 226
8.67323 246
8.69335 271
8.71346 237
8.73357 258
8.75369 273
8.7738 276
8.79392 277
8.81403 274
8.83414 263
8.85426 284
8.87437 271
8.89448 282
8.9146 268
8.93471 301
8.95483 253
8.97494 283
8.99505 289
9.01517 233
9.03528 238
9.05539 237
9.07551 249
9.09562 240
9.11573 237
9.13585 227
9.15596 264
9.17608 260
9.19619 215
9.2163 228
9.23642 264
9.25653 223
9.27664 252
9.29676 258
9.31687 213
9.33699 232
9.3571 220
9.37721 234
9.39733 206
9.41744 256
9.43755 206
9.45767 247
9.47778 247
9.4979 227
9.51801 250
9.53812 207
9.55824 250
9.57835 239
9.59846 252
9.61858 224
9.63869 233
9.6588 216
9.67892 221
9.69903 240
9.71915 210
9.73926 235
9.75937 241
9.77949 223
9.7996 213
9.81971 246
9.83983 235
9.85994 219
9.88006 224
9.90017 267
9.92028 216
9.9404 203
9.96051 239
9.98062 247
10.00074 238
10.02085 243
10.04097 210
10.06108 235
10.08119 242
10.10131 198
10.12142 200
10.14153 238
10.16165 261
10.18176 230
10.20187 245
10.22199 205
10.2421 271
10.26222 223
10.28233 223
10.30244 242
10.32256 240
10.34267 224
10.36278 222
10.3829 235
10.40301 228
10.42313 266
10.44324 235
10.46335 217
10.48347 243
10.50358 246
10.52369 274
10.54381 283
10.56392 246
10.58403 245
10.60415 207
10.62426 235
10.64438 246
10.66449 267
10.6846 226
10.70472 233
10.72483 248
10.74494 208
10.76506 200
10.78517 242
10.80529 251
10.8254 235
10.84551 226
10.86563 209
10.88574 247
10.90585 262
10.92597 237
10.94608 237
10.9662 268
10.98631 233
11.00642 248
11.02654 238
11.04665 233
11.06676 230
11.08688 230
11.10699 236
11.1271 227
11.14722 204
11.16733 247
11.18745 218
11.20756 238
11.22767 241
11.24779 241
11.2679 257
11.28801 207
11.30813 242
11.32824 209
11.34836 230
11.36847 225
11.38858 230
11.4087 245
11.42881 248
11.44892 197
11.46904 244
11.48915 236
11.50927 249
11.52938 233
11.54949 237
11.56961 217
11.58972 218
11.60983 227
11.62995 221
11.65006 206
11.67017 250
11.69029 224
11.7104 228
11.73052 248
11.75063 251
11.77074 241
11.79086 223
11.81097 247
11.83108 259
11.8512 257
11.87131 250
11.89143 239
11.91154 260
11.93165 225
11.95177 266
11.97188 259
11.99199 240
12.01211 255
12.03222 225
12.05234 226
12.07245 247
12.09256 244
12.11268 261
12.13279 261
12.1529 257
12.17302 248
12.19313 234
12.21324 223
12.23336 247
12.25347 300
12.27359 219
12.2937 245
12.31381 268
12.33393 253
12.35404 260
12.37415 275
12.39427 266
12.41438 267
12.4345 263
12.45461 249
12.47472 233
12.49484 259
12.51495 240
12.53506 246
12.55518 216
12.57529 264
12.5954 267
12.61552 204
12.63563 236
12.65575 256
12.67586 230
12.69597 229
12.71609 233
12.7362 227
12.75631 224
12.77643 222
12.79654 236
12.81666 213
12.83677 212
12.85688 203
12.877 206
12.89711 209
12.91722 205
12.93734 195
12.95745 233
12.97757 239
12.99768 220
13.01779 254
13.03791 202
13.05802 202
13.07813 240
13.09825 230
13.11836 213
13.13847 208
13.15859 215
13.1787 220
13.19882 203
13.21893 231
13.23904 247
13.25916 216
13.27927 229
13.29938 220
13.3195 236
13.33961 234
13.35973 205
13.37984 197
13.39995 212
13.42007 213
13.44018 213
13.46029 219
13.48041 204
13.50052 227
13.52064 192
13.54075 251
13.56086 221
13.58098 256
13.60109 250
13.6212 248
13.64132 283
13.66143 293
13.68154 311
13.70166 307
13.72177 271
13.74189 257
13.762 287
13.78211 301
13.80223 270
13.82234 315
13.84245 394
13.86257 354
13.88268 360
13.9028 327
13.92291 335
13.94302 313
13.96314 273
13.98325 267
14.00336 249
14.02348 206
14.04359 215
14.06371 211
14.08382 219
14.10393 236
14.12405 200
14.14416 213
14.16427 199
14.18439 211
14.2045 219
14.22461 228
14.24473 218
14.26484 212
14.28496 200
14.30507 171
14.32518 194
14.3453 201
14.36541 206
14.38552 212
14.40564 191
14.42575 199
14.44587 197
14.46598 194
14.48609 200
14.50621 194
14.52632 195
14.54643 185
14.56655 187
14.58666 190
14.60677 187
14.62689 195
14.647 211
14.66712 218
14.68723 197
14.70734 199
14.72746 165
14.74757 168
14.76768 209
14.7878 186
14.80791 192
14.82803 193
14.84814 205
14.86825 205
14.88837 166
14.90848 211
14.92859 229
14.94871 226
14.96882 217
14.98894 254
15.00905 226
15.02916 227
15.04928 254
15.06939 260
15.0895 255
15.10962 275
15.12973 281
15.14984 271
15.16996 224
15.19007 198
15.21019 220
15.2303 209
15.25041 218
15.27053 203
15.29064 221
15.31075 219
15.33087 192
15.35098 209
15.3711 192
15.39121 210
15.41132 176
15.43144 165
15.45155 190
15.47166 199
15.49178 189
15.51189 184
15.53201 185
15.55212 194
15.57223 193
15.59235 196
15.61246 206
15.63257 182
15.65269 188
15.6728 213
15.69291 200
15.71303 206
15.73314 207
15.75326 220
15.77337 253
15.79348 213
15.8136 230
15.83371 228
15.85382 200
15.87394 197
15.89405 183
15.91417 187
15.93428 188
15.95439 211
15.97451 198
15.99462 217
16.01473 185
16.03485 190
16.05496 179
16.07508 188
16.09519 177
16.1153 191
16.13542 196
16.15553 181
16.17564 184
16.19576 181
16.21587 158
16.23598 155
16.2561 182
16.27621 170
16.29633 161
16.31644 182
16.33655 183
16.35667 154
16.37678 176
16.39689 201
16.41701 196
16.43712 193
16.45724 166
16.47735 199
16.49746 194
16.51758 178
16.53769 188
16.5578 184
16.57792 175
16.59803 202
16.61814 194
16.63826 182
16.65837 188
16.67849 184
16.6986 183
16.71871 207
16.73883 167
16.75894 170
16.77905 197
16.79917 183
16.81928 195
16.8394 186
16.85951 187
16.87962 178
16.89974 199
16.91985 186
16.93996 177
16.96008 143
16.98019 185
17.00031 163
17.02042 186
17.04053 150
17.06065 166
17.08076 173
17.10087 155
17.12099 166
17.1411 172
17.16121 160
17.18133 208
17.20144 186
17.22156 181
17.24167 168
17.26178 175
17.2819 170
17.30201 165
17.32212 180
17.34224 189
17.36235 194
17.38247 193
17.40258 201
17.42269 187
17.44281 208
17.46292 213
17.48303 171
17.50315 171
17.52326 172
17.54338 205
17.56349 188
17.5836 193
17.60372 188
17.62383 180
17.64394 188
17.66406 152
17.68417 170
17.70428 169
17.7244 177
17.74451 202
17.76463 200
17.78474 185
17.80485 207
17.82497 192
17.84508 161
17.86519 194
17.88531 198
17.90542 206
17.92554 197
17.94565 217
17.96576 201
17.98588 186
18.00599 193
18.0261 182
18.04622 164
18.06633 155
18.08645 209
18.10656 179
18.12667 180
18.14679 191
18.1669 201
18.18701 162
18.20713 154
18.22724 179
18.24735 147
18.26747 168
18.28758 174
18.3077 169
18.32781 191
18.34792 188
18.36804 182
18.38815 184
18.40826 178
18.42838 204
18.44849 171
18.46861 169
18.48872 195
18.50883 173
18.52895 185
18.54906 176
18.56917 151
18.58929 189
18.6094 178
18.62951 207
18.64963 158
18.66974 217
18.68986 175
18.70997 190
18.73008 164
18.7502 176
18.77031 191
18.79042 197
18.81054 175
18.83065 189
18.85077 175
18.87088 195
18.89099 201
18.91111 186
18.93122 206
18.95133 193
18.97145 220
18.99156 213
19.01168 200
19.03179 198
19.0519 203
19.07202 181
19.09213 188
19.11224 179
19.13236 214
19.15247 203
19.17258 190
19.1927 208
19.21281 202
19.23293 219
19.25304 194
19.27315 201
19.29327 217
19.31338 217
19.33349 200
19.35361 205
19.37372 248
19.39384 248
19.41395 201
19.43406 224
19.45418 189
19.47429 232
19.4944 207
19.51452 201
19.53463 201
19.55475 216
19.57486 279
19.59497 274
19.61509 243
19.6352 223
19.65531 234
19.67543 253
19.69554 256
19.71565 231
19.73577 247
19.75588 251
19.776 274
19.79611 272
19.81622 295
19.83634 283
19.85645 297
19.87656 292
19.89668 300
19.91679 289
19.93691 292
19.95702 312
19.97713 275
19.99725 272
20.01736 301
20.03747 258
20.05759 293
20.0777 258
20.09782 270
20.11793 273
20.13804 252
20.15816 277
20.17827 307
20.19838 269
20.2185 293
20.23861 319
20.25872 281
20.27884 300
20.29895 283
20.31907 308
20.33918 293
20.35929 295
20.37941 309
20.39952 276
20.41963 305
20.43975 310
20.45986 311
20.47998 280
20.50009 343
20.5202 349
20.54032 365
20.56043 329
20.58054 356
20.60066 369
20.62077 375
20.64088 393
20.661 448
20.68111 541
20.70123 633
20.72134 837
20.74145 1153
20.76157 1594
20.78168 2086
20.80179 2873
20.82191 3755
20.84202 4479
20.86214 5100
20.88225 5044
20.90236 4435
20.92248 3281
20.94259 2419
20.9627 1618
20.98282 1085
21.00293 955
21.02305 811
21.04316 797
21.06327 725
21.08339 672
21.1035 568
21.12361 459
21.14373 429
21.16384 365
21.18395 328
21.20407 303
21.22418 326
21.2443 289
21.26441 286
21.28452 291
21.30464 313
21.32475 304
21.34486 289
21.36498 298
21.38509 313
21.40521 282
21.42532 284
21.44543 282
21.46555 313
21.48566 287
21.50577 281
21.52589 268
21.546 275
21.56612 267
21.58623 286
21.60634 293
21.62646 277
21.64657 253
21.66668 285
21.6868 287
21.70691 285
21.72702 279
21.74714 295
21.76725 285
21.78737 289
21.80748 318
21.82759 327
21.84771 387
21.86782 410
21.88793 464
21.90805 566
21.92816 743
21.94828 867
21.96839 1069
21.9885 1183
22.00862 1217
22.02873 1196
22.04884 1020
22.06896 808
22.08907 649
22.10919 520
22.1293 422
22.14941 325
22.16953 290
22.18964 278
22.20975 268
22.22987 275
22.24998 281
22.27009 298
22.29021 305
22.31032 315
22.33044 320
22.35055 263
22.37066 293
22.39078 304
22.41089 278
22.431 279
22.45112 283
22.47123 317
22.49135 285
22.51146 275
22.53157 272
22.55169 247
22.5718 291
22.59191 325
22.61203 277
22.63214 292
22.65225 271
22.67237 287
22.69248 256
22.7126 263
22.73271 282
22.75282 261
22.77294 226
22.79305 263
22.81316 277
22.83328 305
22.85339 310
22.87351 364
22.89362 399
22.91373 395
22.93385 418
22.95396 453
22.97407 496
22.99419 400
23.0143 384
23.03442 364
23.05453 357
23.07464 330
23.09476 312
23.11487 304
23.13498 329
23.1551 366
23.17521 329
23.19532 330
23.21544 368
23.23555 400
23.25567 359
23.27578 318
23.29589 346
23.31601 320
23.33612 298
23.35623 324
23.37635 300
23.39646 330
23.41658 350
23.43669 372
23.4568 373
23.47692 399
23.49703 420
23.51714 523
23.53726 504
23.55737 633
23.57749 697
23.5976 719
23.61771 778
23.63783 751
23.65794 707
23.67805 657
23.69817 530
23.71828 466
23.73839 434
23.75851 435
23.77862 331
23.79874 399
23.81885 448
23.83896 470
23.85908 512
23.87919 574
23.8993 656
23.91942 684
23.93953 820
23.95965 794
23.97976 808
23.99987 755
24.01999 747
24.0401 679
24.06021 545
24.08033 466
24.10044 398
24.12056 386
24.14067 374
24.16078 357
24.1809 398
24.20101 441
24.22112 531
24.24124 592
24.26135 620
24.28146 705
24.30158 676
24.32169 685
24.34181 678
24.36192 590
24.38203 578
24.40215 565
24.42226 458
24.44237 434
24.46249 367
24.4826 355
24.50272 315
24.52283 331
24.54294 315
24.56306 314
24.58317 315
24.60328 292
24.6234 287
24.64351 259
24.66362 312
24.68374 291
24.70385 281
24.72397 307
24.74408 346
24.76419 321
24.78431 309
24.80442 282
24.82453 307
24.84465 307
24.86476 330
24.88488 288
24.90499 281
24.9251 273
24.94522 262
24.96533 272
24.98544 302
25.00556 277
25.02567 294
25.04579 314
25.0659 292
25.08601 267
25.10613 279
25.12624 310
25.14635 328
25.16647 302
25.18658 327
25.20669 272
25.22681 300
25.24692 291
25.26704 311
25.28715 303
25.30726 300
25.32738 268
25.34749 298
25.3676 318
25.38772 349
25.40783 351
25.42795 415
25.44806 431
25.46817 484
25.48829 594
25.5084 588
25.52851 618
25.54863 625
25.56874 683
25.58886 601
25.60897 649
25.62908 635
25.6492 586
25.66931 578
25.68942 568
25.70954 511
25.72965 501
25.74976 484
25.76988 482
25.78999 469
25.81011 432
25.83022 428
25.85033 403
25.87045 411
25.89056 425
25.91067 393
25.93079 396
25.9509 422
25.97102 408
25.99113 431
26.01124 367
26.03136 394
26.05147 422
26.07158 452
26.0917 482
26.11181 439
26.13193 491
26.15204 537
26.17215 507
26.19227 565
26.21238 611
26.23249 648
26.25261 654
26.27272 740
26.29283 779
26.31295 919
26.33306 914
26.35318 1184
26.37329 1207
26.3934 1410
26.41352 1682
26.43363 2047
26.45374 2422
26.47386 2929
26.49397 3817
26.51409 5146
26.5342 7159
26.55431 9810
26.57443 13068
26.59454 17035
26.61465 20722
26.63477 23231
26.65488 22742
26.67499 19900
26.69511 15305
26.71522 11641
26.73534 8301
26.75545 5470
26.77556 3025
26.79568 1928
26.81579 1439
26.8359 1324
26.85602 1182
26.87613 1027
26.89625 1025
26.91636 972
26.93647 951
26.95659 913
26.9767 877
26.99681 829
27.01693 845
27.03704 855
27.05716 905
27.07727 912
27.09738 833
27.1175 759
27.13761 722
27.15772 697
27.17784 633
27.19795 547
27.21806 566
27.23818 545
27.25829 533
27.27841 537
27.29852 569
27.31863 592
27.33875 658
27.35886 730
27.37897 808
27.39909 904
27.4192 920
27.43932 1149
27.45943 1169
27.47954 1126
27.49966 1150
27.51977 1052
27.53988 961
27.56 837
27.58011 812
27.60023 782
27.62034 733
27.64045 776
27.66057 830
27.68068 920
27.70079 1143
27.72091 1415
27.74102 1696
27.76113 1689
27.78125 1888
27.80136 1997
27.82148 2047
27.84159 2155
27.8617 1992
27.88182 1894
27.90193 1949
27.92204 1849
27.94216 1919
27.96227 2007
27.98239 2087
28.0025 1944
28.02261 1646
28.04273 1440
28.06284 1166
28.08295 897
28.10307 774
28.12318 622
28.1433 549
28.16341 498
28.18352 577
28.20364 600
28.22375 596
28.24386 709
28.26398 715
28.28409 731
28.3042 720
28.32432 674
28.34443 598
28.36455 611
28.38466 450
28.40477 411
28.42489 375
28.445 349
28.46511 290
28.48523 319
28.50534 309
28.52546 284
28.54557 323
28.56568 248
28.5858 275
28.60591 260
28.62602 268
28.64614 288
28.66625 241
28.68636 253
28.70648 284
28.72659 265
28.74671 292
28.76682 273
28.78693 251
28.80705 247
28.82716 274
28.84727 233
28.86739 254
28.8875 267
28.90762 286
28.92773 269
28.94784 293
28.96796 255
28.98807 219
29.00818 247
29.0283 249
29.04841 257
29.06853 265
29.08864 260
29.10875 258
29.12887 258
29.14898 282
29.16909 262
29.18921 278
29.20932 249
29.22943 283
29.24955 254
29.26966 259
29.28978 285
29.30989 284
29.33 255
29.35012 247
29.37023 268
29.39034 296
29.41046 285
29.43057 301
29.45069 327
29.4708 306
29.49091 319
29.51103 346
29.53114 308
29.55125 329
29.57137 350
29.59148 299
29.6116 308
29.63171 315
29.65182 363
29.67194 347
29.69205 353
29.71216 412
29.73228 489
29.75239 493
29.7725 477
29.79262 546
29.81273 492
29.83285 520
29.85296 532
29.87307 470
29.89319 458
29.9133 419
29.93341 384
29.95353 333
29.97364 343
29.99376 300
30.01387 346
30.03398 327
30.0541 302
30.07421 316
30.09432 338
30.11444 341
30.13455 379
30.15467 377
30.17478 370
30.19489 417
30.21501 406
30.23512 378
30.25523 432
30.27535 424
30.29546 479
30.31557 543
30.33569 628
30.3558 621
30.37592 634
30.39603 700
30.41614 679
30.43626 702
30.45637 682
30.47648 596
30.4966 553
30.51671 484
30.53683 437
30.55694 388
30.57705 365
30.59717 313
30.61728 317
30.63739 302
30.65751 326
30.67762 306
30.69773 367
30.71785 357
30.73796 377
30.75808 389
30.77819 404
30.7983 379
30.81842 404
30.83853 396
30.85864 395
30.87876 372
30.89887 322
30.91899 316
30.9391 276
30.95921 245
30.97933 238
30.99944 260
31.01955 254
31.03967 224
31.05978 220
31.0799 240
31.10001 232
31.12012 249
31.14024 238
31.16035 209
31.18046 225
31.20058 249
31.22069 270
31.2408 271
31.26092 272
31.28103 334
31.30115 360
31.32126 353
31.34137 385
31.36149 453
31.3816 449
31.40171 417
31.42183 384
31.44194 361
31.46206 334
31.48217 338
31.50228 288
31.5224 273
31.54251 270
31.56262 281
31.58274 237
31.60285 276
31.62297 290
31.64308 228
31.66319 253
31.68331 261
31.70342 259
31.72353 227
31.74365 213
31.76376 211
31.78387 208
31.80399 227
31.8241 238
31.84422 228
31.86433 221
31.88444 225
31.90456 217
31.92467 228
31.94478 173
31.9649 211
31.98501 225
32.00513 212
32.02524 204
32.04535 208
32.06547 247
32.08558 243
32.10569 258
32.12581 240
32.14592 203
32.16604 254
32.18615 237
32.20626 273
32.22638 275
32.24649 241
32.2666 251
32.28672 278
32.30683 248
32.32694 242
32.34706 276
32.36717 273
32.38729 263
32.4074 273
32.42751 254
32.44763 230
32.46774 227
32.48785 231
32.50797 250
32.52808 235
32.5482 226
32.56831 213
32.58842 205
32.60854 199
32.62865 180
32.64876 195
32.66888 196
32.68899 187
32.7091 218
32.72922 214
32.74933 211
32.76945 182
32.78956 217
32.80967 173
32.82979 204
32.8499 179
32.87001 157
32.89013 208
32.91024 177
32.93036 186
32.95047 177
32.97058 187
32.9907 223
33.01081 199
33.03092 183
33.05104 184
33.07115 186
33.09127 181
33.11138 182
33.13149 207
33.15161 205
33.17172 226
33.19183 210
33.21195 189
33.23206 213
33.25217 200
33.27229 185
33.2924 204
33.31252 175
33.33263 226
33.35274 191
33.37286 178
33.39297 195
33.41308 172
33.4332 196
33.45331 200
33.47343 197
33.49354 202
33.51365 185
33.53377 175
33.55388 181
33.57399 185
33.59411 189
33.61422 189
33.63434 213
33.65445 191
33.67456 222
33.69468 248
33.71479 262
33.7349 260
33.75502 260
33.77513 279
33.79524 328
33.81536 334
33.83547 339
33.85559 314
33.8757 315
33.89581 332
33.91593 279
33.93604 253
33.95615 226
33.97627 214
33.99638 231
34.0165 225
34.03661 227
34.05672 212
34.07684 209
34.09695 236
34.11706 253
34.13718 293
34.15729 258
34.17741 275
34.19752 281
34.21763 303
34.23775 313
34.25786 300
34.27797 288
34.29809 315
34.3182 291
34.33831 271
34.35843 286
34.37854 266
34.39866 276
34.41877 289
34.43888 290
34.459 296
34.47911 295
34.49922 273
34.51934 253
34.53945 292
34.55957 255
34.57968 283
34.59979 288
34.61991 288
34.64002 256
34.66013 269
34.68025 275
34.70036 233
34.72047 264
34.74059 293
34.7607 266
34.78082 276
34.80093 240
34.82104 264
34.84116 281
34.86127 283
34.88138 298
34.9015 306
34.92161 312
34.94173 309
34.96184 313
34.98195 297
35.00207 327
35.02218 334
35.04229 296
35.06241 323
35.08252 303
35.10264 320
35.12275 339
35.14286 314
35.16298 300
35.18309 362
35.2032 382
35.22332 431
35.24343 437
35.26354 432
35.28366 470
35.30377 443
35.32389 474
35.344 425
35.36411 429
35.38423 410
35.40434 424
35.42445 381
35.44457 389
35.46468 363
35.4848 348
35.50491 314
35.52502 326
35.54514 337
35.56525 378
35.58536 325
35.60548 313
35.62559 355
35.64571 318
35.66582 345
35.68593 301
35.70605 326
35.72616 287
35.74627 276
35.76639 279
35.7865 272
35.80661 251
35.82673 229
35.84684 258
35.86696 273
35.88707 253
35.90718 249
35.9273 265
35.94741 301
35.96752 270
35.98764 245
36.00775 256
36.02787 271
36.04798 292
36.06809 304
36.08821 305
36.10832 286
36.12843 326
36.14855 329
36.16866 344
36.18878 335
36.20889 347
36.229 369
36.24912 354
36.26923 387
36.28934 387
36.30946 401
36.32957 380
36.34968 456
36.3698 477
36.38991 566
36.41003 650
36.43014 721
36.45025 927
36.47037 1097
36.49048 1337
36.51059 1584
36.53071 1707
36.55082 1747
36.57094 1512
36.59105 1176
36.61116 1026
36.63128 898
36.65139 819
36.6715 632
36.69162 493
36.71173 378
36.73184 313
36.75196 314
36.77207 305
36.79219 304
36.8123 266
36.83241 299
36.85253 249
36.87264 294
36.89275 276
36.91287 315
36.93298 290
36.9531 282
36.97321 340
36.99332 324
37.01344 322
37.03355 313
37.05366 345
37.07378 305
37.09389 317
37.11401 291
37.13412 304
37.15423 269
37.17435 246
37.19446 251
37.21457 240
37.23469 249
37.2548 262
37.27491 265
37.29503 245
37.31514 232
37.33526 262
37.35537 248
37.37548 253
37.3956 273
37.41571 274
37.43582 250
37.45594 265
37.47605 255
37.49617 270
37.51628 304
37.53639 266
37.55651 274
37.57662 319
37.59673 303
37.61685 278
37.63696 299
37.65708 288
37.67719 269
37.6973 289
37.71742 266
37.73753 235
37.75764 253
37.77776 236
37.79787 238
37.81798 248
37.8381 199
37.85821 209
37.87833 200
37.89844 248
37.91855 189
37.93867 175
37.95878 194
37.97889 212
37.99901 218
38.01912 198
38.03924 218
38.05935 203
38.07946 182
38.09958 214
38.11969 219
38.1398 229
38.15992 190
38.18003 196
38.20015 192
38.22026 212
38.24037 204
38.26049 208
38.2806 211
38.30071 195
38.32083 211
38.34094 248
38.36105 242
38.38117 235
38.40128 253
38.4214 268
38.44151 263
38.46162 267
38.48174 266
38.50185 284
38.52196 269
38.54208 292
38.56219 242
38.58231 263
38.60242 247
38.62253 262
38.64265 230
38.66276 234
38.68287 248
38.70299 224
38.7231 249
38.74321 219
38.76333 210
38.78344 209
38.80356 256
38.82367 206
38.84378 210
38.8639 211
38.88401 218
38.90412 238
38.92424 232
38.94435 260
38.96447 272
38.98458 250
39.00469 248
39.02481 253
39.04492 293
39.06503 300
39.08515 314
39.10526 315
39.12538 339
39.14549 316
39.1656 300
39.18572 322
39.20583 335
39.22594 358
39.24606 371
39.26617 398
39.28628 436
39.3064 437
39.32651 560
39.34663 726
39.36674 803
39.38685 1034
39.40697 1244
39.42708 1428
39.44719 1547
39.46731 1585
39.48742 1419
39.50754 1140
39.52765 992
39.54776 908
39.56788 843
39.58799 778
39.6081 545
39.62822 463
39.64833 359
39.66845 304
39.68856 277
39.70867 259
39.72879 285
39.7489 258
39.76901 225
39.78913 226
39.80924 207
39.82935 199
39.84947 230
39.86958 192
39.8897 220
39.90981 222
39.92992 232
39.95004 214
39.97015 212
39.99026 238
40.01038 248
40.03049 247
40.05061 275
40.07072 282
40.09083 299
40.11095 295
40.13106 358
40.15117 411
40.17129 470
40.1914 520
40.21152 556
40.23163 783
40.25174 745
40.27186 879
40.29197 881
40.31208 743
40.3322 680
40.35231 592
40.37242 543
40.39254 517
40.41265 437
40.43277 352
40.45288 312
40.47299 255
40.49311 255
40.51322 245
40.53333 216
40.55345 229
40.57356 220
40.59368 210
40.61379 212
40.6339 216
40.65402 219
40.67413 219
40.69424 218
40.71436 240
40.73447 202
40.75458 242
40.7747 233
40.79481 231
40.81493 245
40.83504 257
40.85515 211
40.87527 219
40.89538 233
40.91549 209
40.93561 214
40.95572 219
40.97584 205
40.99595 223
41.01606 205
41.03618 204
41.05629 220
41.0764 218
41.09652 174
41.11663 191
41.13675 223
41.15686 212
41.17697 196
41.19709 214
41.2172 228
41.23731 216
41.25743 234
41.27754 210
41.29765 214
41.31777 205
41.33788 226
41.358 198
41.37811 214
41.39822 236
41.41834 189
41.43845 226
41.45856 222
41.47868 225
41.49879 206
41.51891 217
41.53902 223
41.55913 229
41.57925 236
41.59936 229
41.61947 244
41.63959 256
41.6597 277
41.67982 286
41.69993 295
41.72004 316
41.74016 342
41.76027 321
41.78038 352
41.8005 340
41.82061 338
41.84072 305
41.86084 319
41.88095 322
41.90107 308
41.92118 265
41.94129 277
41.96141 249
41.98152 254
42.00163 231
42.02175 250
42.04186 216
42.06198 227
42.08209 260
42.1022 244
42.12232 285
42.14243 256
42.16254 279
42.18266 280
42.20277 321
42.22289 354
42.243 381
42.26311 444
42.28323 514
42.30334 543
42.32345 616
42.34357 741
42.36368 808
42.38379 925
42.40391 1088
42.42402 1164
42.44414 1097
42.46425 1063
42.48436 924
42.50448 773
42.52459 671
42.5447 689
42.56482 634
42.58493 533
42.60505 401
42.62516 331
42.64527 301
42.66539 300
42.6855 264
42.70561 237
42.72573 277
42.74584 299
42.76595 282
42.78607 312
42.80618 280
42.8263 323
42.84641 282
42.86652 315
42.88664 296
42.90675 312
42.92686 322
42.94698 307
42.96709 277
42.98721 310
43.00732 265
43.02743 263
43.04755 234
43.06766 247
43.08777 255
43.10789 244
43.128 258
43.14812 233
43.16823 244
43.18834 216
43.20846 208
43.22857 235
43.24868 205
43.2688 194
43.28891 212
43.30902 198
43.32914 215
43.34925 186
43.36937 196
43.38948 202
43.40959 174
43.42971 190
43.44982 191
43.46993 199
43.49005 199
43.51016 222
43.53028 163
43.55039 201
43.5705 201
43.59062 206
43.61073 215
43.63084 191
43.65096 197
43.67107 192
43.69119 182
43.7113 203
43.73141 189
43.75153 176
43.77164 164
43.79175 186
43.81187 174
43.83198 178
43.85209 204
43.87221 175
43.89232 183
43.91244 197
43.93255 173
43.95266 196
43.97278 182
43.99289 188
44.013 187
44.03312 192
44.05323 208
44.07335 175
44.09346 166
44.11357 189
44.13369 211
44.1538 207
44.17391 203
44.19403 192
44.21414 182
44.23426 196
44.25437 192
44.27448 209
44.2946 166
44.31471 190
44.33482 180
44.35494 192
44.37505 186
44.39516 176
44.41528 194
44.43539 182
44.45551 184
44.47562 162
44.49573 171
44.51585 179
44.53596 191
44.55607 187
44.57619 164
44.5963 201
44.61642 198
44.63653 208
44.65664 186
44.67676 196
44.69687 206
44.71698 196
44.7371 198
44.75721 186
44.77732 230
44.79744 200
44.81755 243
44.83767 241
44.85778 242
44.87789 250
44.89801 191
44.91812 184
44.93823 216
44.95835 207
44.97846 207
44.99858 216
45.01869 220
45.0388 236
45.05892 217
45.07903 224
45.09914 216
45.11926 233
45.13937 204
45.15949 202
45.1796 211
45.19971 231
45.21983 203
45.23994 213
45.26005 235
45.28017 205
45.30028 229
45.32039 219
45.34051 218
45.36062 217
45.38074 239
45.40085 224
45.42096 220
45.44108 248
45.46119 282
45.4813 262
45.50142 282
45.52153 282
45.54165 273
45.56176 273
45.58187 320
45.60199 343
45.6221 388
45.64221 427
45.66233 503
45.68244 561
45.70256 653
45.72267 661
45.74278 728
45.7629 841
45.78301 874
45.80312 803
45.82324 695
45.84335 605
45.86346 484
45.88358 498
45.90369 502
45.92381 456
45.94392 367
45.96403 308
45.98415 244
46.00426 246
46.02437 247
46.04449 233
46.0646 227
46.08472 204
46.10483 229
46.12494 237
46.14506 202
46.16517 210
46.18528 225
46.2054 210
46.22551 185
46.24563 224
46.26574 223
46.28585 187
46.30597 211
46.32608 182
46.34619 184
46.36631 164
46.38642 183
46.40653 179
46.42665 183
46.44676 168
46.46688 186
46.48699 201
46.5071 193
46.52722 194
46.54733 179
46.56744 191
46.58756 175
46.60767 196
46.62779 200
46.6479 182
46.66801 182
46.68813 202
46.70824 169
46.72835 199
46.74847 202
46.76858 188
46.78869 205
46.80881 211
46.82892 228
46.84904 208
46.86915 224
46.88926 221
46.90938 192
46.92949 208
46.9496 204
46.96972 210
46.98983 214
47.00995 203
47.03006 211
47.05017 215
47.07029 215
47.0904 200
47.11051 215
47.13063 219
47.15074 193
47.17086 210
47.19097 226
47.21108 215
47.2312 172
47.25131 187
47.27142 182
47.29154 229
47.31165 215
47.33176 197
47.35188 205
47.37199 221
47.39211 220
47.41222 233
47.43233 250
47.45245 258
47.47256 250
47.49267 285
47.51279 285
47.5329 259
47.55302 234
47.57313 233
47.59324 224
47.61336 228
47.63347 210
47.65358 216
47.6737 191
47.69381 198
47.71393 192
47.73404 201
47.75415 182
47.77427 180
47.79438 178
47.81449 155
47.83461 197
47.85472 187
47.87483 184
47.89495 181
47.91506 193
47.93518 177
47.95529 156
47.9754 166
47.99552 170
48.01563 170
48.03574 168
48.05586 165
48.07597 199
48.09609 194
48.1162 178
48.13631 174
48.15643 188
48.17654 210
48.19665 197
48.21677 219
48.23688 230
48.257 197
48.27711 255
48.29722 277
48.31734 222
48.33745 241
48.35756 227
48.37768 232
48.39779 221
48.4179 229
48.43802 237
48.45813 206
48.47825 216
48.49836 206
48.51847 215
48.53859 187
48.5587 193
48.57881 232
48.59893 186
48.61904 205
48.63916 171
48.65927 194
48.67938 184
48.6995 212
48.71961 203
48.73972 217
48.75984 233
48.77995 201
48.80006 221
48.82018 220
48.84029 220
48.86041 217
48.88052 250
48.90063 214
48.92075 255
48.94086 239
48.96097 233
48.98109 259
49.0012 258
49.02132 267
49.04143 292
49.06154 288
49.08166 283
49.10177 290
49.12188 290
49.142 313
49.16211 298
49.18223 334
49.20234 301
49.22245 278
49.24257 243
49.26268 260
49.28279 265
49.30291 267
49.32302 219
49.34313 239
49.36325 218
49.38336 227
49.40348 212
49.42359 211
49.4437 225
49.46382 212
49.48393 217
49.50404 206
49.52416 205
49.54427 219
49.56439 210
49.5845 238
49.60461 271
49.62473 261
49.64484 292
49.66495 296
49.68507 319
49.70518 354
49.7253 366
49.74541 376
49.76552 415
49.78564 453
49.80575 428
49.82586 456
49.84598 475
49.86609 547
49.8862 583
49.90632 614
49.92643 675
49.94655 702
49.96666 793
49.98677 882
50.00689 1111
50.027 1357
50.04711 1684
50.06723 1832
50.08734 2043
50.10746 2303
50.12757 2357
50.14768 2235
50.1678 1782
50.18791 1511
50.20802 1334
50.22814 1305
50.24825 1282
50.26837 1204
50.28848 978
50.30859 716
50.32871 513
50.34882 386
50.36893 362
50.38905 304
50.40916 313
50.42927 346
50.44939 359
50.4695 338
50.48962 350
50.50973 366
50.52984 369
50.54996 396
50.57007 391
50.59018 404
50.6103 360
50.63041 397
50.65053 339
50.67064 420
50.69075 396
50.71087 415
50.73098 356
50.75109 342
50.77121 306
50.79132 301
50.81143 290
50.83155 283
50.85166 288
50.87178 264
50.89189 228
50.912 239
50.93212 206
50.95223 240
50.97234 220
50.99246 229
51.01257 198
51.03269 234
51.0528 218
51.07291 218
51.09303 218
51.11314 244
51.13325 226
51.15337 220
51.17348 285
51.1936 248
51.21371 283
51.23382 315
51.25394 335
51.27405 381
51.29416 368
51.31428 354
51.33439 355
51.3545 327
51.37462 307
51.39473 295
51.41485 266
51.43496 276
51.45507 276
51.47519 245
51.4953 241
51.51541 195
51.53553 188
51.55564 198
51.57576 171
51.59587 173
51.61598 178
51.6361 175
51.65621 169
51.67632 183
51.69644 182
51.71655 179
51.73667 161
51.75678 155
51.77689 184
51.79701 197
51.81712 142
51.83723 159
51.85735 171
51.87746 177
51.89757 189
51.91769 174
51.9378 157
51.95792 173
51.97803 171
51.99814 184
52.01826 158
52.03837 160
52.05848 205
52.0786 151
52.09871 174
52.11883 187
52.13894 189
52.15905 162
52.17917 178
52.19928 185
52.21939 195
52.23951 202
52.25962 195
52.27974 208
52.29985 186
52.31996 170
52.34008 203
52.36019 180
52.3803 219
52.40042 216
52.42053 200
52.44064 199
52.46076 208
52.48087 216
52.50099 188
52.5211 203
52.54121 215
52.56133 205
52.58144 219
52.60155 240
52.62167 190
52.64178 232
52.6619 211
52.68201 209
52.70212 231
52.72224 216
52.74235 229
52.76246 245
52.78258 216
52.80269 178
52.8228 235
52.84292 225
52.86303 244
52.88315 214
52.90326 209
52.92337 201
52.94349 205
52.9636 218
52.98371 208
53.00383 240
53.02394 218
53.04406 224
53.06417 227
53.08428 223
53.1044 235
53.12451 211
53.14462 215
53.16474 234
53.18485 221
53.20497 228
53.22508 241
53.24519 196
53.26531 205
53.28542 211
53.30553 218
53.32565 212
53.34576 180
53.36587 169
53.38599 191
53.4061 213
53.42622 195
53.44633 197
53.46644 160
53.48656 171
53.50667 160
53.52678 180
53.5469 200
53.56701 177
53.58713 180
53.60724 204
53.62735 192
53.64747 213
53.66758 177
53.68769 209
53.70781 173
53.72792 223
53.74804 196
53.76815 202
53.78826 211
53.80838 195
53.82849 197
53.8486 203
53.86872 196
53.88883 208
53.90894 201
53.92906 182
53.94917 202
53.96929 212
53.9894 225
54.00951 207
54.02963 197
54.04974 195
54.06985 207
54.08997 221
54.11008 207
54.1302 205
54.15031 209
54.17042 192
54.19054 210
54.21065 251
54.23076 193
54.25088 239
54.27099 224
54.29111 221
54.31122 238
54.33133 239
54.35145 222
54.37156 231
54.39167 233
54.41179 214
54.4319 223
54.45201 222
54.47213 218
54.49224 246
54.51236 228
54.53247 237
54.55258 229
54.5727 219
54.59281 232
54.61292 267
54.63304 265
54.65315 275
54.67327 328
54.69338 336
54.71349 371
54.73361 396
54.75372 468
54.77383 541
54.79395 637
54.81406 694
54.83417 780
54.85429 802
54.8744 804
54.89452 660
54.91463 586
54.93474 500
54.95486 491
54.97497 466
54.99508 474
55.0152 460
55.03531 449
55.05543 318
55.07554 299
55.09565 282
55.11577 283
55.13588 254
55.15599 286
55.17611 306
55.19622 330
55.21634 345
55.23645 398
55.25656 452
55.27668 456
55.29679 461
55.3169 450
55.33702 442
55.35713 394
55.37724 349
55.39736 304
55.41747 320
55.43759 307
55.4577 306
55.47781 326
55.49793 265
55.51804 264
55.53815 201
55.55827 227
55.57838 187
55.5985 214
55.61861 207
55.63872 203
55.65884 196
55.67895 188
55.69906 198
55.71918 149
55.73929 175
55.75941 153
55.77952 174
55.79963 188
55.81975 183
55.83986 178
55.85997 189
55.88009 189
55.9002 183
55.92031 213
55.94043 162
55.96054 168
55.98066 174
56.00077 187
56.02088 195
56.041 175
56.06111 167
56.08122 177
56.10134 188
56.12145 178
56.14157 160
56.16168 155
56.18179 168
56.20191 171
56.22202 161
56.24213 152
56.26225 160
56.28236 180
56.30248 171
56.32259 150
56.3427 172
56.36282 169
56.38293 177
56.40304 176
56.42316 143
56.44327 170
56.46338 174
56.4835 150
56.50361 163
56.52373 175
56.54384 147
56.56395 174
56.58407 163
56.60418 171
56.62429 187
56.64441 179
56.66452 176
56.68464 186
56.70475 175
56.72486 165
56.74498 222
56.76509 159
56.7852 165
56.80532 189
56.82543 179
56.84554 175
56.86566 177
56.88577 166
56.90589 165
56.926 174
56.94611 150
56.96623 183
56.98634 170
57.00645 164
57.02657 167
57.04668 173
57.0668 193
57.08691 175
57.10702 190
57.12714 176
57.14725 168
57.16736 177
57.18748 196
57.20759 201
57.22771 203
57.24782 204
57.26793 193
57.28805 170
57.30816 187
57.32827 222
57.34839 229
57.3685 221
57.38861 222
57.40873 205
57.42884 210
57.44896 193
57.46907 215
57.48918 206
57.5093 223
57.52941 189
57.54952 197
57.56964 198
57.58975 184
57.60987 193
57.62998 182
57.65009 181
57.67021 158
57.69032 187
57.71043 159
57.73055 186
57.75066 145
57.77078 151
57.79089 158
57.811 181
57.83112 160
57.85123 158
57.87134 155
57.89146 171
57.91157 172
57.93168 168
57.9518 161
57.97191 166
57.99203 163
58.01214 189
58.03225 192
58.05237 167
58.07248 163
58.09259 160
58.11271 183
58.13282 174
58.15294 174
58.17305 169
58.19316 155
58.21328 155
58.23339 177
58.2535 173
58.27362 153
58.29373 185
58.31385 183
58.33396 208
58.35407 209
58.37419 197
58.3943 170
58.41441 209
58.43453 206
58.45464 191
58.47475 212
58.49487 210
58.51498 213
58.5351 207
58.55521 201
58.57532 208
58.59544 220
58.61555 229
58.63566 214
58.65578 237
58.67589 199
58.69601 209
58.71612 193
58.73623 208
58.75635 199
58.77646 204
58.79657 192
58.81669 187
58.8368 218
58.85691 163
58.87703 178
58.89714 181
58.91726 175
58.93737 161
58.95748 186
58.9776 171
58.99771 180
59.01782 157
59.03794 169
59.05805 190
59.07817 173
59.09828 156
59.11839 165
59.13851 175
59.15862 177
59.17873 178
59.19885 190
59.21896 172
59.23908 173
59.25919 178
59.2793 188
59.29942 172
59.31953 176
59.33964 192
59.35976 207
59.37987 187
59.39998 205
59.4201 211
59.44021 190
59.46033 202
59.48044 189
59.50055 236
59.52067 245
59.54078 234
59.56089 252
59.58101 241
59.60112 254
59.62124 288
59.64135 295
59.66146 303
59.68158 363
59.70169 363
59.7218 399
59.74192 418
59.76203 520
59.78215 576
59.80226 683
59.82237 837
59.84249 923
59.8626 1126
59.88271 1244
59.90283 1457
59.92294 1502
59.94305 1454
59.96317 1359
59.98328 1164
60.0034 888
60.02351 743
60.04362 795
60.06374 812
60.08385 859
60.10396 809
60.12408 771
60.14419 580
60.16431 465
60.18442 359
60.20453 305
60.22465 281
60.24476 260
60.26487 267
60.28499 258
60.3051 244
60.32522 233
60.34533 224
60.36544 238
60.38556 222
60.40567 204
60.42578 220
60.4459 191
60.46601 208
60.48612 196
60.50624 210
60.52635 195
60.54647 200
60.56658 184
60.58669 185
60.60681 199
60.62692 190
60.64703 167
60.66715 183
60.68726 202
60.70738 200
60.72749 181
60.7476 183
60.76772 211
60.78783 177
60.80794 198
60.82806 189
60.84817 192
60.86828 179
60.8884 194
60.90851 190
60.92863 186
60.94874 160
60.96885 193
60.98897 185
61.00908 199
61.02919 181
61.04931 196
61.06942 203
61.08954 218
61.10965 181
61.12976 214
61.14988 196
61.16999 210
61.1901 196
61.21022 205
61.23033 193
61.25045 175
61.27056 197
61.29067 214
61.31079 192
61.3309 197
61.35101 190
61.37113 188
61.39124 189
61.41135 171
61.43147 182
61.45158 177
61.4717 184
61.49181 177
61.51192 195
61.53204 181
61.55215 196
61.57226 201
61.59238 196
61.61249 179
61.63261 213
61.65272 198
61.67283 212
61.69295 211
61.71306 233
61.73317 220
61.75329 212
61.7734 232
61.79352 240
61.81363 210
61.83374 222
61.85386 204
61.87397 213
61.89408 188
61.9142 214
61.93431 203
61.95442 210
61.97454 203
61.99465 220
62.01477 195
62.03488 233
62.05499 208
62.07511 201
62.09522 236
62.11533 201
62.13545 231
62.15556 207
62.17568 219
62.19579 187
62.2159 195
62.23602 201
62.25613 210
62.27624 206
62.29636 195
62.31647 212
62.33659 221
62.3567 216
62.37681 183
62.39693 172
62.41704 188
62.43715 167
62.45727 206
62.47738 185
62.49749 180
62.51761 161
62.53772 190
62.55784 169
62.57795 186
62.59806 174
62.61818 198
62.63829 191
62.6584 200
62.67852 206
62.69863 197
62.71875 183
62.73886 174
62.75897 175
62.77909 187
62.7992 206
62.81931 206
62.83943 198
62.85954 203
62.87965 200
62.89977 192
62.91988 221
62.94 203
62.96011 186
62.98022 220
63.00034 193
63.02045 202
63.04056 179
63.06068 212
63.08079 216
63.10091 224
63.12102 175
63.14113 197
63.16125 191
63.18136 194
63.20147 203
63.22159 165
63.2417 177
63.26182 214
63.28193 196
63.30204 196
63.32216 186
63.34227 198
63.36238 185
63.3825 209
63.40261 195
63.42272 183
63.44284 196
63.46295 201
63.48307 213
63.50318 218
63.52329 190
63.54341 223
63.56352 184
63.58363 210
63.60375 223
63.62386 231
63.64398 231
63.66409 233
63.6842 258
63.70432 233
63.72443 269
63.74454 270
63.76466 290
63.78477 297
63.80489 272
63.825 292
63.84511 284
63.86523 315
63.88534 300
63.90545 354
63.92557 413
63.94568 403
63.96579 428
63.98591 431
64.00602 433
64.02614 412
64.04625 386
64.06636 333
64.08648 312
64.10659 319
64.1267 277
64.14682 293
64.16693 283
64.18705 297
64.20716 270
64.22727 246
64.24739 239
64.2675 203
64.28761 186
64.30773 189
64.32784 194
64.34796 194
64.36807 195
64.38818 183
64.4083 164
64.42841 159
64.44852 160
64.46864 162
64.48875 162
64.50886 154
64.52898 158
64.54909 147
64.56921 178
64.58932 168
64.60943 175
64.62955 147
64.64966 160
64.66977 189
64.68989 158
64.71 182
64.73012 164
64.75023 166
64.77034 160
64.79046 156
64.81057 168
64.83068 184
64.8508 153
64.87091 174
64.89102 177
64.91114 189
64.93125 167
64.95137 168
64.97148 208
64.99159 182
65.01171 189
65.03182 181
65.05193 184
65.07205 205
65.09216 179
65.11228 199
65.13239 177
65.1525 201
65.17262 200
65.19273 198
65.21284 198
65.23296 201
65.25307 179
65.27319 225
65.2933 208
65.31341 201
65.33353 222
65.35364 195
65.37375 209
65.39387 190
65.41398 224
65.43409 225
65.45421 213
65.47432 194
65.49444 214
65.51455 208
65.53466 200
65.55478 177
65.57489 182
65.595 187
65.61512 194
65.63523 197
65.65535 224
65.67546 192
65.69557 202
65.71569 194
65.7358 229
65.75591 231
65.77603 185
65.79614 208
65.81626 233
65.83637 155
65.85648 180
65.8766 179
65.89671 182
65.91682 194
65.93694 191
65.95705 184
65.97716 188
65.99728 165
66.01739 188
66.03751 180
66.05762 171
66.07773 183
66.09785 189
66.11796 176
66.13807 187
66.15819 169
66.1783 175
66.19842 198
66.21853 196
66.23864 208
66.25876 185
66.27887 176
66.29898 186
66.3191 195
66.33921 203
66.35933 189
66.37944 199
66.39955 180
66.41967 182
66.43978 191
66.45989 168
66.48001 171
66.50012 168
66.52023 188
66.54035 177
66.56046 180
66.58058 175
66.60069 173
66.6208 173
66.64092 175
66.66103 178
66.68114 172
66.70126 174
66.72137 164
66.74149 175
66.7616 161
66.78171 171
66.80183 192
66.82194 186
66.84205 205
66.86217 174
66.88228 172
66.90239 183
66.92251 175
66.94262 200
66.96274 187
66.98285 180
67.00296 189
67.02308 174
67.04319 205
67.0633 214
67.08342 197
67.10353 195
67.12365 212
67.14376 198
67.16387 215
67.18399 174
67.2041 191
67.22421 196
67.24433 211
67.26444 198
67.28456 211
67.30467 211
67.32478 198
67.3449 227
67.36501 205
67.38512 207
67.40524 270
67.42535 232
67.44546 244
67.46558 271
67.48569 296
67.50581 304
67.52592 345
67.54603 409
67.56615 453
67.58626 497
67.60637 534
67.62649 673
67.6466 784
67.66672 801
67.68683 910
67.70694 927
67.72706 891
67.74717 867
67.76728 770
67.7874 612
67.80751 598
67.82763 535
67.84774 641
67.86785 660
67.88797 689
67.90808 706
67.92819 711
67.94831 709
67.96842 669
67.98853 728
68.00865 780
68.02876 825
68.04888 945
68.06899 1032
68.0891 1087
68.10922 1204
68.12933 1186
68.14944 1096
68.16956 994
68.18967 948
68.20979 1005
68.2299 958
68.25001 1009
68.27013 1154
68.29024 1148
68.31035 1080
68.33047 954
68.35058 790
68.3707 643
68.39081 574
68.41092 526
68.43104 533
68.45115 480
68.47126 516
68.49138 453
68.51149 400
68.5316 348
68.55172 308
68.57183 248
68.59195 261
68.61206 249
68.63217 185
68.65229 232
68.6724 204
68.69251 225
68.71263 207
68.73274 199
68.75286 192
68.77297 172
68.79308 213
68.8132 197
68.83331 192
68.85342 192
68.87354 181
68.89365 170
68.91376 197
68.93388 202
68.95399 185
68.97411 175
68.99422 180
69.01433 162
69.03445 165
69.05456 179
69.07467 222
69.09479 176
69.1149 199
69.13502 228
69.15513 193
69.17524 213
69.19536 202
69.21547 215
69.23558 201
69.2557 215
69.27581 196
69.29593 195
69.31604 199
69.33615 212
69.35627 223
69.37638 236
69.39649 217
69.41661 211
69.43672 197
69.45683 202
69.47695 178
69.49706 180
69.51718 187
69.53729 183
69.5574 210
69.57752 181
69.59763 198
69.61774 185
69.63786 172
69.65797 183
69.67809 170
69.6982 198
69.71831 217
69.73843 203
69.75854 213
69.77865 217
69.79877 207
69.81888 198
69.839 203
69.85911 193
69.87922 189
69.89934 189
69.91945 190
69.93956 209
69.95968 197
69.97979 197
69.9999 177
70.02002 184
70.04013 181
70.06025 172
70.08036 160
70.10047 157
70.12059 155
70.1407 150
70.16081 158
70.18093 150
70.20104 155
70.22116 145
70.24127 156
70.26138 161
70.2815 148
70.30161 153
70.32172 143
70.34184 138
70.36195 171
70.38207 131
70.40218 168
70.42229 148
70.44241 153
70.46252 141
70.48263 146
70.50275 137
70.52286 185
70.54297 164
70.56309 142
70.5832 155
70.60332 167
70.62343 139
70.64354 141
70.66366 156
70.68377 186
70.70388 171
70.724 160
70.74411 173
70.76423 182
70.78434 166
70.80445 182
70.82457 146
70.84468 170
70.86479 164
70.88491 140
70.90502 165
70.92513 166
70.94525 160
70.96536 188
70.98548 167
71.00559 171
71.0257 190
71.04582 165
71.06593 165
71.08604 172
71.10616 165
71.12627 187
71.14639 186
71.1665 161
71.18661 179
71.20673 168
71.22684 171
71.24695 178
71.26707 172
71.28718 179
71.3073 194
71.32741 181
71.34752 207
71.36764 186
71.38775 166
71.40786 147
71.42798 182
71.44809 186
71.4682 159
71.48832 167
71.50843 192
71.52855 165
71.54866 162
71.56877 171
71.58889 163
71.609 164
71.62911 155
71.64923 160
71.66934 142
71.68946 151
71.70957 167
71.72968 157
71.7498 142
71.76991 170
71.79002 159
71.81014 171
71.83025 144
71.85037 139
71.87048 170
71.89059 153
71.91071 153
71.93082 147
71.95093 150
71.97105 173
71.99116 139
72.01127 164
72.03139 175
72.0515 170
72.07162 156
72.09173 148
72.11184 158
72.13196 167
72.15207 145
72.17218 168
72.1923 171
72.21241 163
72.23253 155
72.25264 153
72.27275 169
72.29287 159
72.31298 165
72.33309 162
72.35321 173
72.37332 159
72.39344 149
72.41355 164
72.43366 163
72.45378 165
72.47389 149
72.494 147
72.51412 159
72.53423 151
72.55434 171
72.57446 159
72.59457 128
72.61469 168
72.6348 141
72.65491 158
72.67503 153
72.69514 166
72.71525 143
72.73537 140
72.75548 174
72.7756 151
72.79571 161
72.81582 158
72.83594 163
72.85605 151
72.87616 176
72.89628 166
72.91639 158
72.9365 165
72.95662 144
72.97673 180
72.99685 184
73.01696 174
73.03707 172
73.05719 169
73.0773 186
73.09741 195
73.11753 204
73.13764 194
73.15776 192
73.17787 201
73.19798 201
73.2181 220
73.23821 212
73.25832 235
73.27844 255
73.29855 288
73.31867 308
73.33878 333
73.35889 305
73.37901 345
73.39912 392
73.41923 409
73.43935 421
73.45946 377
73.47957 382
73.49969 313
73.5198 254
73.53992 262
73.56003 271
73.58014 286
73.60026 288
73.62037 266
73.64048 277
73.6606 284
73.68071 279
73.70083 217
73.72094 203
73.74105 198
73.76117 195
73.78128 192
73.80139 221
73.82151 182
73.84162 205
73.86174 183
73.88185 194
73.90196 185
73.92208 190
73.94219 163
73.9623 172
73.98242 165
74.00253 164
74.02264 160
74.04276 167
74.06287 171
74.08299 163
74.1031 164
74.12321 164
74.14333 182
74.16344 154
74.18355 180
74.20367 183
74.22378 178
74.2439 157
74.26401 166
74.28412 149
74.30424 152
74.32435 155
74.34446 171
74.36458 164
74.38469 158
74.40481 143
74.42492 173
74.44503 165
74.46515 176
74.48526 180
74.50537 166
74.52549 170
74.5456 174
74.56571 172
74.58583 184
74.60594 176
74.62606 177
74.64617 164
74.66628 162
74.6864 188
74.70651 168
74.72662 192
74.74674 166
74.76685 181
74.78697 188
74.80708 184
74.82719 199
74.84731 173
74.86742 172
74.88753 152
74.90765 181
74.92776 170
74.94787 166
74.96799 175
74.9881 172
75.00822 167
