3.00117 21379
3.02128 20191
3.0414 19823
3.06151 19670
3.08162 18953
3.10174 18182
3.12185 17756
3.14197 17362
3.16208 16626
3.18219 16347
3.20231 16223
3.22242 15188
3.24253 14882
3.26265 14451
3.28276 13875
3.30288 13854
3.32299 13069
3.3431 12530
3.36322 12361
3.38333 12136
3.40344 12002
3.42356 10990
3.44367 10872
3.46379 10486
3.4839 10200
3.50401 9887
3.52413 9470
3.54424 9335
3.56435 8759
3.58447 8283
3.60458 8238
3.62469 7746
3.64481 7709
3.66492 7307
3.68504 6907
3.70515 6850
3.72526 6585
3.74538 6300
3.76549 5951
3.7856 5772
3.80572 5702
3.82583 5248
3.84595 5034
3.86606 5078
3.88617 4754
3.90629 4645
3.9264 4159
3.94651 4048
3.96663 3975
3.98674 3726
4.00686 3765
4.02697 3376
4.04708 3368
4.0672 3243
4.08731 3075
4.10742 3143
4.12754 2755
4.14765 2764
4.16776 2688
4.18788 2513
4.20799 2428
4.22811 2220
4.24822 2310
4.26833 2266
4.28845 2085
4.30856 2098
4.32867 1817
4.34879 1910
4.3689 1860
4.38902 1730
4.40913 1751
4.42924 1659
4.44936 1724
4.46947 1654
4.48958 1556
4.5097 1633
4.52981 1456
4.54992 1505
4.57004 1455
4.59015 1423
4.61027 1377
4.63038 1263
4.65049 1362
4.67061 1338
4.69072 1256
4.71083 1219
4.73095 1172
4.75106 1162
4.77118 1084
4.79129 1120
4.8114 1089
4.83152 1059
4.85163 984
4.87174 1054
4.89186 1014
4.91197 980
4.93209 1008
4.9522 908
4.97231 993
4.99243 949
5.01254 902
5.03265 894
5.05277 867
5.07288 873
5.09299 944
5.11311 837
5.13322 755
5.15334 775
5.17345 805
5.19356 746
5.21368 682
5.23379 772
5.2539 721
5.27402 691
5.29413 721
5.31425 678
5.33436 703
5.35447 641
5.37459 647
5.3947 688
5.41481 625
5.43493 568
5.45504 647
5.47516 615
5.49527 592
5.51538 600
5.5355 510
5.55561 553
5.57572 551
5.59584 561
5.61595 505
5.63606 563
5.65618 520
5.67629 450
5.69641 551
5.71652 497
5.73663 527
5.75675 507
5.77686 473
5.79697 482
5.81709 483
5.8372 463
5.85732 459
5.87743 455
5.89754 472
5.91766 444
5.93777 439
5.95788 500
5.978 434
5.99811 439
6.01823 405
6.03834 450
6.05845 437
6.07857 417
6.09868 469
6.11879 442
6.13891 417
6.15902 429
6.17913 445
6.19925 402
6.21936 470
6.23948 407
6.25959 429
6.2797 418
6.29982 433
6.31993 392
6.34004 418
6.36016 404
6.38027 368
6.40039 380
6.4205 375
6.44061 397
6.46073 381
6.48084 363
6.50095 411
6.52107 358
6.54118 380
6.56129 426
6.58141 356
6.60152 397
6.62164 428
6.64175 391
6.66186 369
6.68198 398
6.70209 381
6.7222 370
6.74232 427
6.76243 391
6.78255 401
6.80266 376
6.82277 363
6.84289 349
6.863 377
6.88311 407
6.90323 384
6.92334 384
6.94346 410
6.96357 383
6.98368 357
7.0038 356
7.02391 343
7.04402 359
7.06414 370
7.08425 432
7.10436 388
7.12448 387
7.14459 458
7.16471 385
7.18482 436
7.20493 405
7.22505 413
7.24516 429
7.26527 435
7.28539 409
7.3055 430
7.32562 413
7.34573 415
7.36584 413
7.38596 455
7.40607 436
7.42618 443
7.4463 399
7.46641 433
7.48653 438
7.50664 420
7.52675 395
7.54687 421
7.56698 423
7.58709 403
7.60721 400
7.62732 385
7.64743 388
7.66755 399
7.68766 398
7.70778 371
7.72789 370
7.748 351
7.76812 357
7.78823 370
7.80834 362
7.82846 359
7.84857 383
7.86869 353
7.8888 403
7.90891 427
7.92903 380
7.94914 373
7.96925 353
7.98937 351
8.00948 390
8.0296 339
8.04971 385
8.06982 374
8.08994 362
8.11005 385
8.13016 376
8.15028 391
8.17039 373
8.1905 388
8.21062 361
8.23073 341
8.25085 396
8.27096 367
8.29107 386
8.31119 369
8.3313 387
8.35141 328
8.37153 355
8.39164 352
8.41176 363
8.43187 410
8.45198 333
8.4721 355
8.49221 379
8.51232 381
8.53244 362
8.55255 366
8.57266 377
8.59278 374
8.61289 384
8.63301 383
8.65312 358
8.67323 370
8.69335 367
8.71346 394
8.73357 377
8.75369 383
8.7738 396
8.79392 424
8.81403 375
8.83414 396
8.85426 360
8.87437 380
8.89448 365
8.9146 370
8.93471 354
8.95483 392
8.97494 373
8.99505 361
9.01517 352
9.03528 366
9.05539 383
9.07551 355
9.09562 340
9.11573 362
9.13585 378
9.15596 407
9.17608 360
9.19619 329
9.2163 382
9.23642 359
9.25653 396
9.27664 386
9.29676 366
9.31687 365
9.33699 362
9.3571 346
9.37721 386
9.39733 349
9.41744 372
9.43755 354
9.45767 343
9.47778 389
9.4979 348
9.51801 356
9.53812 361
9.55824 388
9.57835 342
9.59846 338
9.61858 312
9.63869 337
9.6588 356
9.67892 344
9.69903 349
9.71915 375
9.73926 375
9.75937 392
9.77949 313
9.7996 335
9.81971 350
9.83983 313
9.85994 380
9.88006 329
9.90017 356
9.92028 388
9.9404 343
9.96051 334
9.98062 334
10.00074 328
10.02085 368
10.04097 340
10.06108 342
10.08119 369
10.10131 345
10.12142 356
10.14153 345
10.16165 350
10.18176 372
10.20187 376
10.22199 358
10.2421 367
10.26222 374
10.28233 341
10.30244 314
10.32256 383
10.34267 315
10.36278 385
10.3829 326
10.40301 327
10.42313 323
10.44324 340
10.46335 328
10.48347 336
10.50358 398
10.52369 343
10.54381 338
10.56392 367
10.58403 374
10.60415 323
10.62426 339
10.64438 299
10.66449 340
10.6846 364
10.70472 383
10.72483 382
10.74494 392
10.76506 367
10.78517 392
10.80529 352
10.8254 389
10.84551 392
10.86563 344
10.88574 350
10.90585 379
10.92597 380
10.94608 410
10.9662 402
10.98631 373
11.00642 360
11.02654 397
11.04665 404
11.06676 415
11.08688 383
11.10699 402
11.1271 392
11.14722 401
11.16733 393
11.18745 383
11.20756 385
11.22767 366
11.24779 360
11.2679 419
11.28801 375
11.30813 379
11.32824 365
11.34836 428
11.36847 419
11.38858 417
11.4087 401
11.42881 379
11.44892 402
11.46904 391
11.48915 428
11.50927 403
11.52938 417
11.54949 444
11.56961 428
11.58972 434
11.60983 425
11.62995 458
11.65006 409
11.67017 448
11.69029 452
11.7104 461
11.73052 440
11.75063 478
11.77074 503
11.79086 480
11.81097 455
11.83108 515
11.8512 556
11.87131 522
11.89143 571
11.91154 564
11.93165 579
11.95177 575
11.97188 598
11.99199 604
12.01211 663
12.03222 587
12.05234 608
12.07245 692
12.09256 703
12.11268 746
12.13279 774
12.1529 803
12.17302 762
12.19313 806
12.21324 843
12.23336 846
12.25347 857
12.27359 846
12.2937 859
12.31381 854
12.33393 861
12.35404 769
12.37415 771
12.39427 731
12.41438 725
12.4345 646
12.45461 697
12.47472 643
12.49484 626
12.51495 577
12.53506 536
12.55518 527
12.57529 512
12.5954 471
12.61552 490
12.63563 461
12.65575 440
12.67586 456
12.69597 420
12.71609 432
12.7362 423
12.75631 375
12.77643 402
12.79654 387
12.81666 394
12.83677 355
12.85688 387
12.877 371
12.89711 339
12.91722 382
12.93734 410
12.95745 409
12.97757 366
12.99768 350
13.01779 384
13.03791 374
13.05802 415
13.07813 336
13.09825 380
13.11836 361
13.13847 367
13.15859 361
13.1787 350
13.19882 372
13.21893 332
13.23904 307
13.25916 334
13.27927 310
13.29938 298
13.3195 321
13.33961 355
13.35973 340
13.37984 339
13.39995 337
13.42007 299
13.44018 318
13.46029 339
13.48041 326
13.50052 371
13.52064 328
13.54075 367
13.56086 371
13.58098 380
13.60109 345
13.6212 384
13.64132 354
13.66143 363
13.68154 322
13.70166 361
13.72177 303
13.74189 296
13.762 306
13.78211 323
13.80223 300
13.82234 289
13.84245 304
13.86257 304
13.88268 326
13.9028 282
13.92291 312
13.94302 268
13.96314 303
13.98325 309
14.00336 335
14.02348 287
14.04359 310
14.06371 296
14.08382 317
14.10393 292
14.12405 335
14.14416 316
14.16427 298
14.18439 292
14.2045 239
14.22461 284
14.24473 268
14.26484 290
14.28496 298
14.30507 301
14.32518 297
14.3453 297
14.36541 276
14.38552 268
14.40564 310
14.42575 293
14.44587 315
14.46598 301
14.48609 289
14.50621 317
14.52632 311
14.54643 321
14.56655 304
14.58666 274
14.60677 298
14.62689 288
14.647 297
14.66712 285
14.68723 301
14.70734 277
14.72746 296
14.74757 314
14.76768 314
14.7878 323
14.80791 316
14.82803 284
14.84814 323
14.86825 303
14.88837 338
14.90848 341
14.92859 286
14.94871 322
14.96882 285
14.98894 314
15.00905 314
15.02916 272
15.04928 312
15.06939 310
15.0895 301
15.10962 313
15.12973 283
15.14984 304
15.16996 313
15.19007 308
15.21019 290
15.2303 322
15.25041 318
15.27053 308
15.29064 327
15.31075 303
15.33087 312
15.35098 293
15.3711 294
15.39121 313
15.41132 276
15.43144 287
15.45155 301
15.47166 308
15.49178 313
15.51189 327
15.53201 294
15.55212 273
15.57223 288
15.59235 309
15.61246 300
15.63257 325
15.65269 321
15.6728 315
15.69291 295
15.71303 291
15.73314 274
15.75326 296
15.77337 300
15.79348 275
15.8136 283
15.83371 299
15.85382 293
15.87394 278
15.89405 271
15.91417 252
15.93428 307
15.95439 300
15.97451 303
15.99462 261
16.01473 305
16.03485 318
16.05496 265
16.07508 267
16.09519 284
16.1153 293
16.13542 298
16.15553 266
16.17564 315
16.19576 274
16.21587 275
16.23598 299
16.2561 304
16.27621 314
16.29633 272
16.31644 297
16.33655 257
16.35667 276
16.37678 283
16.39689 269
16.41701 312
16.43712 319
16.45724 282
16.47735 281
16.49746 277
16.51758 293
16.53769 246
16.5578 282
16.57792 329
16.59803 262
16.61814 266
16.63826 315
16.65837 311
16.67849 286
16.6986 273
16.71871 262
16.73883 266
16.75894 280
16.77905 277
16.79917 271
16.81928 280
16.8394 300
16.85951 256
16.87962 287
16.89974 315
16.91985 309
16.93996 252
16.96008 266
16.98019 290
17.00031 266
17.02042 290
17.04053 276
17.06065 300
17.08076 290
17.10087 287
17.12099 283
17.1411 263
17.16121 244
17.18133 290
17.20144 269
17.22156 294
17.24167 305
17.26178 286
17.2819 270
17.30201 276
17.32212 263
17.34224 272
17.36235 274
17.38247 321
17.40258 273
17.42269 276
17.44281 297
17.46292 292
17.48303 315
17.50315 286
17.52326 270
17.54338 302
17.56349 305
17.5836 299
17.60372 270
17.62383 296
17.64394 285
17.66406 300
17.68417 312
17.70428 301
17.7244 286
17.74451 263
17.76463 323
17.78474 296
17.80485 289
17.82497 287
17.84508 294
17.86519 309
17.88531 328
17.90542 318
17.92554 302
17.94565 290
17.96576 318
17.98588 302
18.00599 316
18.0261 282
18.04622 305
18.06633 316
18.08645 307
18.10656 312
18.12667 288
18.14679 361
18.1669 328
18.18701 354
18.20713 372
18.22724 389
18.24735 399
18.26747 373
18.28758 379
18.3077 345
18.32781 346
18.34792 340
18.36804 316
18.38815 334
18.40826 313
18.42838 328
18.44849 321
18.46861 311
18.48872 309
18.50883 286
18.52895 313
18.54906 299
18.56917 334
18.58929 292
18.6094 305
18.62951 315
18.64963 271
18.66974 296
18.68986 297
18.70997 311
18.73008 315
18.7502 301
18.77031 295
18.79042 287
18.81054 297
18.83065 278
18.85077 321
18.87088 326
18.89099 312
18.91111 316
18.93122 310
18.95133 314
18.97145 322
18.99156 328
19.01168 317
19.03179 320
19.0519 331
19.07202 321
19.09213 334
19.11224 284
19.13236 304
19.15247 310
19.17258 335
19.1927 356
19.21281 353
19.23293 369
19.25304 377
19.27315 355
19.29327 370
19.31338 396
19.33349 333
19.35361 350
19.37372 333
19.39384 340
19.41395 341
19.43406 360
19.45418 383
19.47429 363
19.4944 341
19.51452 364
19.53463 351
19.55475 397
19.57486 432
19.59497 418
19.61509 439
19.6352 430
19.65531 455
19.67543 503
19.69554 540
19.71565 594
19.73577 583
19.75588 654
19.776 766
19.79611 739
19.81622 773
19.83634 807
19.85645 813
19.87656 862
19.89668 798
19.91679 811
19.93691 817
19.95702 720
19.97713 738
19.99725 749
20.01736 692
20.03747 729
20.05759 741
20.0777 702
20.09782 691
20.11793 695
20.13804 756
20.15816 699
20.17827 710
20.19838 731
20.2185 762
20.23861 752
20.25872 756
20.27884 704
20.29895 746
20.31907 753
20.33918 758
20.35929 748
20.37941 791
20.39952 673
20.41963 725
20.43975 747
20.45986 748
20.47998 817
20.50009 702
20.5202 722
20.54032 801
20.56043 737
20.58054 799
20.60066 813
20.62077 910
20.64088 942
20.661 1128
20.68111 1150
20.70123 1400
20.72134 1775
20.74145 2091
20.76157 2548
20.78168 2989
20.80179 3550
20.82191 3669
20.84202 3537
20.86214 3077
20.88225 2497
20.90236 1935
20.92248 1615
20.94259 1325
20.9627 1224
20.98282 1117
21.00293 1131
21.02305 1044
21.04316 1008
21.06327 980
21.08339 879
21.1035 817
21.12361 789
21.14373 737
21.16384 729
21.18395 666
21.20407 762
21.22418 716
21.2443 649
21.26441 720
21.28452 692
21.30464 683
21.32475 634
21.34486 646
21.36498 654
21.38509 675
21.40521 629
21.42532 585
21.44543 654
21.46555 612
21.48566 601
21.50577 625
21.52589 640
21.546 587
21.56612 611
21.58623 593
21.60634 578
21.62646 561
21.64657 606
21.66668 586
21.6868 600
21.70691 543
21.72702 602
21.74714 556
21.76725 541
21.78737 578
21.80748 557
21.82759 553
21.84771 535
21.86782 559
21.88793 514
21.90805 564
21.92816 536
21.94828 523
21.96839 478
21.9885 528
22.00862 529
22.02873 529
22.04884 460
22.06896 485
22.08907 515
22.10919 519
22.1293 503
22.14941 527
22.16953 500
22.18964 563
22.20975 561
22.22987 561
22.24998 591
22.27009 522
22.29021 514
22.31032 502
22.33044 529
22.35055 533
22.37066 487
22.39078 487
22.41089 486
22.431 472
22.45112 504
22.47123 484
22.49135 466
22.51146 486
22.53157 467
22.55169 469
22.5718 477
22.59191 472
22.61203 495
22.63214 495
22.65225 522
22.67237 470
22.69248 489
22.7126 432
22.73271 467
22.75282 465
22.77294 459
22.79305 454
22.81316 448
22.83328 498
22.85339 435
22.87351 428
22.89362 452
22.91373 476
22.93385 506
22.95396 511
22.97407 477
22.99419 539
23.0143 495
23.03442 552
23.05453 610
23.07464 568
23.09476 616
23.11487 602
23.13498 610
23.1551 610
23.17521 589
23.19532 542
23.21544 556
23.23555 531
23.25567 468
23.27578 475
23.29589 463
23.31601 451
23.33612 466
23.35623 439
23.37635 454
23.39646 399
23.41658 427
23.43669 471
23.4568 435
23.47692 467
23.49703 445
23.51714 439
23.53726 407
23.55737 440
23.57749 428
23.5976 475
23.61771 440
23.63783 439
23.65794 490
23.67805 442
23.69817 436
23.71828 464
23.73839 454
23.75851 502
23.77862 505
23.79874 504
23.81885 467
23.83896 535
23.85908 568
23.87919 559
23.8993 569
23.91942 595
23.93953 629
23.95965 677
23.97976 655
23.99987 659
24.01999 619
24.0401 555
24.06021 552
24.08033 499
24.10044 509
24.12056 498
24.14067 483
24.16078 530
24.1809 536
24.20101 550
24.22112 518
24.24124 521
24.26135 587
24.28146 555
24.30158 599
24.32169 539
24.34181 571
24.36192 556
24.38203 561
24.40215 586
24.42226 554
24.44237 594
24.46249 594
24.4826 567
24.50272 554
24.52283 611
24.54294 553
24.56306 620
24.58317 630
24.60328 695
24.6234 696
24.64351 685
24.66362 731
24.68374 751
24.70385 740
24.72397 757
24.74408 762
24.76419 744
24.78431 774
24.80442 804
24.82453 760
24.84465 767
24.86476 805
24.88488 809
24.90499 825
24.9251 741
24.94522 735
24.96533 747
24.98544 683
25.00556 707
25.02567 643
25.04579 641
25.0659 668
25.08601 634
25.10613 612
25.12624 651
25.14635 607
25.16647 605
25.18658 610
25.20669 623
25.22681 603
25.24692 617
25.26704 600
25.28715 588
25.30726 564
25.32738 644
25.34749 545
25.3676 574
25.38772 630
25.40783 612
25.42795 650
25.44806 668
25.46817 674
25.48829 719
25.5084 677
25.52851 690
25.54863 687
25.56874 698
25.58886 696
25.60897 657
25.62908 677
25.6492 673
25.66931 661
25.68942 613
25.70954 558
25.72965 592
25.74976 543
25.76988 551
25.78999 592
25.81011 549
25.83022 558
25.85033 589
25.87045 535
25.89056 551
25.91067 526
25.93079 586
25.9509 559
25.97102 576
25.99113 562
26.01124 556
26.03136 586
26.05147 567
26.07158 631
26.0917 636
26.11181 661
26.13193 659
26.15204 717
26.17215 709
26.19227 764
26.21238 774
26.23249 819
26.25261 862
26.27272 966
26.29283 1097
26.31295 1207
26.33306 1376
26.35318 1485
26.37329 1640
26.3934 2009
26.41352 2358
26.43363 2777
26.45374 3689
26.47386 4538
26.49397 5957
26.51409 7756
26.5342 9858
26.55431 12052
26.57443 13481
26.59454 14250
26.61465 13600
26.63477 12110
26.65488 9741
26.67499 7479
26.69511 5428
26.71522 3677
26.73534 2369
26.75545 1736
26.77556 1292
26.79568 1169
26.81579 1043
26.8359 980
26.85602 939
26.87613 885
26.89625 887
26.91636 875
26.93647 849
26.95659 940
26.9767 860
26.99681 931
27.01693 879
27.03704 891
27.05716 831
27.07727 809
27.09738 770
27.1175 712
27.13761 588
27.15772 633
27.17784 650
27.19795 630
27.21806 641
27.23818 659
27.25829 664
27.27841 794
27.29852 850
27.31863 978
27.33875 1019
27.35886 1078
27.37897 1195
27.39909 1146
27.4192 1119
27.43932 1106
27.45943 1054
27.47954 865
27.49966 899
27.51977 770
27.53988 614
27.56 558
27.58011 513
27.60023 484
27.62034 453
27.64045 457
27.66057 467
27.68068 448
27.70079 458
27.72091 430
27.74102 447
27.76113 450
27.78125 377
27.80136 407
27.82148 377
27.84159 378
27.8617 412
27.88182 448
27.90193 368
27.92204 435
27.94216 397
27.96227 368
27.98239 404
28.0025 398
28.02261 399
28.04273 371
28.06284 362
28.08295 398
28.10307 381
28.12318 402
28.1433 368
28.16341 383
28.18352 362
28.20364 378
28.22375 383
28.24386 401
28.26398 391
28.28409 401
28.3042 421
28.32432 373
28.34443 386
28.36455 361
28.38466 377
28.40477 335
28.42489 363
28.445 364
28.46511 394
28.48523 358
28.50534 355
28.52546 369
28.54557 381
28.56568 369
28.5858 388
28.60591 347
28.62602 352
28.64614 353
28.66625 377
28.68636 372
28.70648 361
28.72659 343
28.74671 374
28.76682 349
28.78693 376
28.80705 374
28.82716 400
28.84727 371
28.86739 382
28.8875 345
28.90762 342
28.92773 398
28.94784 338
28.96796 350
28.98807 369
29.00818 368
29.0283 363
29.04841 404
29.06853 371
29.08864 401
29.10875 372
29.12887 350
29.14898 351
29.16909 369
29.18921 351
29.20932 352
29.22943 353
29.24955 371
29.26966 388
29.28978 377
29.30989 401
29.33 401
29.35012 475
29.37023 477
29.39034 488
29.41046 490
29.43057 445
29.45069 447
29.4708 427
29.49091 402
29.51103 410
29.53114 375
29.55125 385
29.57137 364
29.59148 346
29.6116 354
29.63171 390
29.65182 317
29.67194 355
29.69205 355
29.71216 345
29.73228 342
29.75239 385
29.7725 377
29.79262 364
29.81273 349
29.83285 349
29.85296 336
29.87307 383
29.89319 371
29.9133 344
29.93341 368
29.95353 366
29.97364 378
29.99376 399
30.01387 369
30.03398 417
30.0541 396
30.07421 430
30.09432 484
30.11444 470
30.13455 506
30.15467 473
30.17478 459
30.19489 523
30.21501 528
30.23512 444
30.25523 434
30.27535 447
30.29546 424
30.31557 395
30.33569 392
30.3558 393
30.37592 355
30.39603 374
30.41614 374
30.43626 343
30.45637 316
30.47648 325
30.4966 340
30.51671 317
30.53683 373
30.55694 396
30.57705 333
30.59717 395
30.61728 403
30.63739 469
30.65751 449
30.67762 435
30.69773 422
30.71785 465
30.73796 446
30.75808 489
30.77819 397
30.7983 438
30.81842 428
30.83853 430
30.85864 391
30.87876 401
30.89887 399
30.91899 347
30.9391 340
30.95921 348
30.97933 359
30.99944 312
31.01955 341
31.03967 356
31.05978 330
31.0799 320
31.10001 322
31.12012 332
31.14024 361
31.16035 331
31.18046 313
31.20058 304
31.22069 299
31.2408 340
31.26092 296
31.28103 325
31.30115 310
31.32126 326
31.34137 290
31.36149 335
31.3816 334
31.40171 307
31.42183 293
31.44194 312
31.46206 292
31.48217 303
31.50228 298
31.5224 321
31.54251 327
31.56262 313
31.58274 320
31.60285 313
31.62297 324
31.64308 298
31.66319 334
31.68331 323
31.70342 326
31.72353 305
31.74365 310
31.76376 316
31.78387 321
31.80399 279
31.8241 311
31.84422 301
31.86433 328
31.88444 342
31.90456 302
31.92467 339
31.94478 331
31.9649 322
31.98501 318
32.00513 337
32.02524 327
32.04535 309
32.06547 353
32.08558 344
32.10569 335
32.12581 374
32.14592 371
32.16604 338
32.18615 325
32.20626 326
32.22638 350
32.24649 346
32.2666 362
32.28672 354
32.30683 345
32.32694 373
32.34706 356
32.36717 377
32.38729 386
32.4074 394
32.42751 396
32.44763 348
32.46774 369
32.48785 368
32.50797 375
32.52808 354
32.5482 338
32.56831 336
32.58842 355
32.60854 318
32.62865 321
32.64876 329
32.66888 295
32.68899 345
32.7091 337
32.72922 319
32.74933 315
32.76945 347
32.78956 330
32.80967 326
32.82979 356
32.8499 337
32.87001 352
32.89013 354
32.91024 335
32.93036 334
32.95047 335
32.97058 336
32.9907 387
33.01081 348
33.03092 348
33.05104 364
33.07115 325
33.09127 315
33.11138 335
33.13149 359
33.15161 319
33.17172 336
33.19183 315
33.21195 361
33.23206 326
33.25217 353
33.27229 333
33.2924 355
33.31252 330
33.33263 357
33.35274 359
33.37286 366
33.39297 292
33.41308 325
33.4332 369
33.45331 365
33.47343 347
33.49354 335
33.51365 310
33.53377 317
33.55388 365
33.57399 349
33.59411 365
33.61422 346
33.63434 335
33.65445 353
33.67456 347
33.69468 373
33.71479 331
33.7349 317
33.75502 338
33.77513 340
33.79524 349
33.81536 329
33.83547 337
33.85559 340
33.8757 370
33.89581 343
33.91593 353
33.93604 374
33.95615 375
33.97627 393
33.99638 390
34.0165 385
34.03661 393
34.05672 422
34.07684 451
34.09695 458
34.11706 462
34.13718 508
34.15729 515
34.17741 466
34.19752 458
34.21763 450
34.23775 420
34.25786 426
34.27797 427
34.29809 441
34.3182 447
34.33831 401
34.35843 367
34.37854 379
34.39866 369
34.41877 374
34.43888 439
34.459 397
34.47911 371
34.49922 417
34.51934 397
34.53945 393
34.55957 451
34.57968 419
34.59979 488
34.61991 460
34.64002 425
34.66013 462
34.68025 476
34.70036 491
34.72047 515
34.74059 495
34.7607 531
34.78082 558
34.80093 542
34.82104 543
34.84116 580
34.86127 574
34.88138 587
34.9015 585
34.92161 589
34.94173 554
34.96184 586
34.98195 568
35.00207 568
35.02218 601
35.04229 568
35.06241 574
35.08252 576
35.10264 503
35.12275 565
35.14286 539
35.16298 537
35.18309 508
35.2032 528
35.22332 537
35.24343 530
35.26354 512
35.28366 513
35.30377 528
35.32389 576
35.344 535
35.36411 532
35.38423 565
35.40434 549
35.42445 521
35.44457 560
35.46468 571
35.4848 553
35.50491 601
35.52502 541
35.54514 575
35.56525 556
35.58536 561
35.60548 541
35.62559 532
35.64571 543
35.66582 496
35.68593 491
35.70605 519
35.72616 520
35.74627 518
35.76639 520
35.7865 568
35.80661 561
35.82673 538
35.84684 541
35.86696 598
35.88707 585
35.90718 592
35.9273 558
35.94741 563
35.96752 528
35.98764 508
36.00775 541
36.02787 507
36.04798 489
36.06809 530
36.08821 466
36.10832 529
36.12843 485
36.14855 500
36.16866 452
36.18878 482
36.20889 448
36.229 464
36.24912 485
36.26923 523
36.28934 529
36.30946 566
36.32957 573
36.34968 614
36.3698 676
36.38991 829
36.41003 926
36.43014 1000
36.45025 1138
36.47037 1294
36.49048 1216
36.51059 1247
36.53071 1138
36.55082 1013
36.57094 951
36.59105 860
36.61116 699
36.63128 653
36.65139 538
36.6715 543
36.69162 499
36.71173 477
36.73184 461
36.75196 490
36.77207 492
36.79219 466
36.8123 502
36.83241 450
36.85253 497
36.87264 492
36.89275 514
36.91287 502
36.93298 498
36.9531 497
36.97321 458
36.99332 485
37.01344 486
37.03355 460
37.05366 462
37.07378 461
37.09389 414
37.11401 444
37.13412 456
37.15423 436
37.17435 466
37.19446 425
37.21457 434
37.23469 418
37.2548 453
37.27491 455
37.29503 427
37.31514 461
37.33526 466
37.35537 428
37.37548 463
37.3956 452
37.41571 449
37.43582 456
37.45594 468
37.47605 457
37.49617 477
37.51628 464
37.53639 463
37.55651 460
37.57662 452
37.59673 464
37.61685 470
37.63696 495
37.65708 488
37.67719 500
37.6973 482
37.71742 470
37.73753 509
37.75764 453
37.77776 449
37.79787 441
37.81798 455
37.8381 460
37.85821 478
37.87833 450
37.89844 447
37.91855 414
37.93867 435
37.95878 451
37.97889 414
37.99901 475
38.01912 430
38.03924 461
38.05935 522
38.07946 476
38.09958 502
38.11969 498
38.1398 493
38.15992 527
38.18003 496
38.20015 534
38.22026 574
38.24037 584
38.26049 562
38.2806 624
38.30071 584
38.32083 599
38.34094 589
38.36105 603
38.38117 580
38.40128 588
38.4214 612
38.44151 618
38.46162 631
38.48174 544
38.50185 592
38.52196 567
38.54208 585
38.56219 550
38.58231 504
38.60242 526
38.62253 464
38.64265 498
38.66276 478
38.68287 502
38.70299 436
38.7231 442
38.74321 430
38.76333 490
38.78344 444
38.80356 437
38.82367 446
38.84378 441
38.8639 438
38.88401 406
38.90412 433
38.92424 444
38.94435 422
38.96447 434
38.98458 447
39.00469 426
39.02481 485
39.04492 473
39.06503 455
39.08515 507
39.10526 504
39.12538 557
39.14549 496
39.1656 511
39.18572 564
39.20583 536
39.22594 602
39.24606 632
39.26617 631
39.28628 701
39.3064 765
39.32651 859
39.34663 907
39.36674 1068
39.38685 1203
39.40697 1181
39.42708 1208
39.44719 1143
39.46731 989
39.48742 857
39.50754 871
39.52765 763
39.54776 663
39.56788 549
39.58799 470
39.6081 445
39.62822 447
39.64833 410
39.66845 421
39.68856 401
39.70867 358
39.72879 363
39.7489 370
39.76901 391
39.78913 370
39.80924 349
39.82935 323
39.84947 363
39.86958 387
39.8897 369
39.90981 370
39.92992 403
39.95004 385
39.97015 421
39.99026 407
40.01038 452
40.03049 465
40.05061 426
40.07072 408
40.09083 495
40.11095 440
40.13106 558
40.15117 638
40.17129 662
40.1914 696
40.21152 738
40.23163 720
40.25174 706
40.27186 690
40.29197 678
40.31208 583
40.3322 603
40.35231 554
40.37242 493
40.39254 492
40.41265 388
40.43277 432
40.45288 431
40.47299 398
40.49311 389
40.51322 412
40.53333 357
40.55345 378
40.57356 377
40.59368 364
40.61379 383
40.6339 372
40.65402 380
40.67413 347
40.69424 389
40.71436 346
40.73447 368
40.75458 365
40.7747 360
40.79481 368
40.81493 370
40.83504 361
40.85515 351
40.87527 363
40.89538 361
40.91549 377
40.93561 365
40.95572 331
40.97584 348
40.99595 361
41.01606 360
41.03618 371
41.05629 371
41.0764 365
41.09652 377
41.11663 335
41.13675 356
41.15686 352
41.17697 381
41.19709 359
41.2172 361
41.23731 367
41.25743 372
41.27754 358
41.29765 381
41.31777 383
41.33788 372
41.358 356
41.37811 364
41.39822 389
41.41834 358
41.43845 376
41.45856 378
41.47868 375
41.49879 372
41.51891 376
41.53902 392
41.55913 410
41.57925 374
41.59936 370
41.61947 404
41.63959 402
41.6597 415
41.67982 416
41.69993 459
41.72004 477
41.74016 514
41.76027 532
41.78038 497
41.8005 467
41.82061 424
41.84072 439
41.86084 434
41.88095 389
41.90107 340
41.92118 346
41.94129 380
41.96141 341
41.98152 343
42.00163 351
42.02175 324
42.04186 316
42.06198 371
42.08209 328
42.1022 362
42.12232 361
42.14243 363
42.16254 380
42.18266 386
42.20277 358
42.22289 402
42.243 461
42.26311 544
42.28323 518
42.30334 590
42.32345 651
42.34357 756
42.36368 825
42.38379 857
42.40391 823
42.42402 792
42.44414 760
42.46425 732
42.48436 636
42.50448 567
42.52459 574
42.5447 459
42.56482 464
42.58493 383
42.60505 383
42.62516 414
42.64527 338
42.66539 361
42.6855 340
42.70561 333
42.72573 350
42.74584 335
42.76595 293
42.78607 341
42.80618 339
42.8263 301
42.84641 324
42.86652 302
42.88664 289
42.90675 272
42.92686 294
42.94698 287
42.96709 282
42.98721 296
43.00732 320
43.02743 324
43.04755 311
43.06766 312
43.08777 318
43.10789 278
43.128 334
43.14812 298
43.16823 309
43.18834 298
43.20846 310
43.22857 314
43.24868 293
43.2688 285
43.28891 289
43.30902 309
43.32914 316
43.34925 314
43.36937 286
43.38948 309
43.40959 286
43.42971 291
43.44982 314
43.46993 280
43.49005 327
43.51016 306
43.53028 305
43.55039 283
43.5705 298
43.59062 325
43.61073 290
43.63084 290
43.65096 330
43.67107 300
43.69119 293
43.7113 260
43.73141 276
43.75153 309
43.77164 293
43.79175 292
43.81187 287
43.83198 249
43.85209 288
43.87221 264
43.89232 294
43.91244 287
43.93255 318
43.95266 254
43.97278 285
43.99289 294
44.013 316
44.03312 298
44.05323 311
44.07335 302
44.09346 311
44.11357 309
44.13369 313
44.1538 310
44.17391 323
44.19403 337
44.21414 304
44.23426 309
44.25437 297
44.27448 321
44.2946 318
44.31471 315
44.33482 279
44.35494 338
44.37505 308
44.39516 262
44.41528 337
44.43539 305
44.45551 298
44.47562 301
44.49573 310
44.51585 303
44.53596 293
44.55607 317
44.57619 332
44.5963 327
44.61642 324
44.63653 325
44.65664 313
44.67676 295
44.69687 288
44.71698 323
44.7371 287
44.75721 311
44.77732 322
44.79744 308
44.81755 332
44.83767 328
44.85778 294
44.87789 340
44.89801 305
44.91812 307
44.93823 350
44.95835 335
44.97846 302
44.99858 312
45.01869 321
45.0388 352
45.05892 365
45.07903 337
45.09914 324
45.11926 338
45.13937 319
45.15949 333
45.1796 298
45.19971 375
45.21983 360
45.23994 343
45.26005 357
45.28017 354
45.30028 388
45.32039 352
45.34051 358
45.36062 381
45.38074 396
45.40085 363
45.42096 429
45.44108 393
45.46119 397
45.4813 399
45.50142 406
45.52153 423
45.54165 450
45.56176 434
45.58187 486
45.60199 508
45.6221 519
45.64221 570
45.66233 605
45.68244 651
45.70256 653
45.72267 729
45.74278 684
45.7629 676
45.78301 624
45.80312 618
45.82324 540
45.84335 546
45.86346 486
45.88358 458
45.90369 466
45.92381 398
45.94392 367
45.96403 339
45.98415 324
46.00426 364
46.02437 338
46.04449 315
46.0646 314
46.08472 329
46.10483 320
46.12494 354
46.14506 332
46.16517 382
46.18528 370
46.2054 320
46.22551 336
46.24563 334
46.26574 306
46.28585 308
46.30597 307
46.32608 355
46.34619 315
46.36631 297
46.38642 341
46.40653 315
46.42665 320
46.44676 302
46.46688 308
46.48699 284
46.5071 314
46.52722 294
46.54733 306
46.56744 301
46.58756 354
46.60767 318
46.62779 308
46.6479 316
46.66801 331
46.68813 283
46.70824 329
46.72835 319
46.74847 314
46.76858 276
46.78869 326
46.80881 337
46.82892 323
46.84904 313
46.86915 314
46.88926 302
46.90938 316
46.92949 337
46.9496 323
46.96972 311
46.98983 334
47.00995 333
47.03006 346
47.05017 346
47.07029 341
47.0904 337
47.11051 336
47.13063 324
47.15074 333
47.17086 374
47.19097 366
47.21108 347
47.2312 339
47.25131 337
47.27142 340
47.29154 307
47.31165 348
47.33176 350
47.35188 315
47.37199 333
47.39211 351
47.41222 344
47.43233 339
47.45245 333
47.47256 337
47.49267 320
47.51279 297
47.5329 322
47.55302 324
47.57313 359
47.59324 304
47.61336 322
47.63347 321
47.65358 313
47.6737 314
47.69381 311
47.71393 315
47.73404 335
47.75415 349
47.77427 335
47.79438 344
47.81449 325
47.83461 327
47.85472 326
47.87483 313
47.89495 332
47.91506 292
47.93518 329
47.95529 332
47.9754 316
47.99552 333
48.01563 330
48.03574 355
48.05586 303
48.07597 303
48.09609 320
48.1162 298
48.13631 311
48.15643 317
48.17654 343
48.19665 330
48.21677 313
48.23688 273
48.257 289
48.27711 323
48.29722 286
48.31734 304
48.33745 316
48.35756 329
48.37768 300
48.39779 322
48.4179 311
48.43802 292
48.45813 289
48.47825 293
48.49836 305
48.51847 315
48.53859 327
48.5587 313
48.57881 285
48.59893 293
48.61904 324
48.63916 327
48.65927 298
48.67938 294
48.6995 315
48.71961 330
48.73972 322
48.75984 312
48.77995 345
48.80006 315
48.82018 311
48.84029 311
48.86041 326
48.88052 333
48.90063 330
48.92075 341
48.94086 332
48.96097 338
48.98109 318
49.0012 346
49.02132 319
49.04143 294
49.06154 305
49.08166 326
49.10177 322
49.12188 337
49.142 349
49.16211 332
49.18223 296
49.20234 315
49.22245 323
49.24257 303
49.26268 354
49.28279 328
49.30291 335
49.32302 313
49.34313 269
49.36325 307
49.38336 315
49.40348 332
49.42359 313
49.4437 305
49.46382 299
49.48393 299
49.50404 289
49.52416 354
49.54427 360
49.56439 311
49.5845 347
49.60461 302
49.62473 358
49.64484 359
49.66495 334
49.68507 366
49.70518 363
49.7253 390
49.74541 364
49.76552 387
49.78564 381
49.80575 425
49.82586 498
49.84598 485
49.86609 540
49.8862 561
49.90632 662
49.92643 714
49.94655 785
49.96666 945
49.98677 1098
50.00689 1216
50.027 1369
50.04711 1502
50.06723 1567
50.08734 1593
50.10746 1511
50.12757 1324
50.14768 1208
50.1678 1101
50.18791 992
50.20802 910
50.22814 891
50.24825 776
50.26837 664
50.28848 563
50.30859 513
50.32871 415
50.34882 453
50.36893 432
50.38905 430
50.40916 434
50.42927 424
50.44939 454
50.4695 464
50.48962 441
50.50973 477
50.52984 463
50.54996 433
50.57007 399
50.59018 397
50.6103 453
50.63041 404
50.65053 388
50.67064 358
50.69075 356
50.71087 383
50.73098 351
50.75109 377
50.77121 360
50.79132 346
50.81143 350
50.83155 343
50.85166 338
50.87178 373
50.89189 333
50.912 314
50.93212 356
50.95223 329
50.97234 314
50.99246 353
51.01257 294
51.03269 321
51.0528 335
51.07291 314
51.09303 307
51.11314 312
51.13325 297
51.15337 288
51.17348 304
51.1936 280
51.21371 302
51.23382 305
51.25394 299
51.27405 282
51.29416 295
51.31428 279
51.33439 300
51.3545 307
51.37462 283
51.39473 270
51.41485 312
51.43496 247
51.45507 284
51.47519 270
51.4953 274
51.51541 275
51.53553 296
51.55564 252
51.57576 286
51.59587 281
51.61598 287
51.6361 301
51.65621 262
51.67632 262
51.69644 272
51.71655 263
51.73667 296
51.75678 278
51.77689 283
51.79701 289
51.81712 277
51.83723 276
51.85735 298
51.87746 282
51.89757 288
51.91769 254
51.9378 304
51.95792 280
51.97803 264
51.99814 264
52.01826 267
52.03837 258
52.05848 290
52.0786 260
52.09871 265
52.11883 270
52.13894 259
52.15905 275
52.17917 270
52.19928 291
52.21939 259
52.23951 265
52.25962 298
52.27974 294
52.29985 318
52.31996 281
52.34008 278
52.36019 305
52.3803 284
52.40042 259
52.42053 289
52.44064 310
52.46076 299
52.48087 296
52.50099 318
52.5211 298
52.54121 276
52.56133 298
52.58144 298
52.60155 305
52.62167 281
52.64178 295
52.6619 284
52.68201 280
52.70212 259
52.72224 307
52.74235 304
52.76246 299
52.78258 284
52.80269 319
52.8228 321
52.84292 317
52.86303 273
52.88315 272
52.90326 302
52.92337 287
52.94349 279
52.9636 279
52.98371 275
53.00383 303
53.02394 285
53.04406 277
53.06417 312
53.08428 282
53.1044 314
53.12451 280
53.14462 309
53.16474 295
53.18485 328
53.20497 308
53.22508 271
53.24519 334
53.26531 341
53.28542 314
53.30553 300
53.32565 296
53.34576 315
53.36587 321
53.38599 315
53.4061 317
53.42622 299
53.44633 285
53.46644 307
53.48656 322
53.50667 299
53.52678 286
53.5469 332
53.56701 311
53.58713 328
53.60724 328
53.62735 350
53.64747 351
53.66758 338
53.68769 348
53.70781 334
53.72792 342
53.74804 330
53.76815 344
53.78826 364
53.80838 355
53.82849 365
53.8486 331
53.86872 352
53.88883 361
53.90894 352
53.92906 372
53.94917 377
53.96929 360
53.9894 340
54.00951 301
54.02963 347
54.04974 368
54.06985 382
54.08997 365
54.11008 380
54.1302 340
54.15031 346
54.17042 367
54.19054 382
54.21065 395
54.23076 363
54.25088 386
54.27099 393
54.29111 415
54.31122 343
54.33133 386
54.35145 382
54.37156 395
54.39167 429
54.41179 392
54.4319 408
54.45201 380
54.47213 418
54.49224 414
54.51236 407
54.53247 427
54.55258 411
54.5727 385
54.59281 427
54.61292 448
54.63304 433
54.65315 474
54.67327 533
54.69338 565
54.71349 614
54.73361 664
54.75372 711
54.77383 718
54.79395 780
54.81406 741
54.83417 766
54.85429 665
54.8744 665
54.89452 616
54.91463 553
54.93474 604
54.95486 607
54.97497 583
54.99508 518
55.0152 503
55.03531 472
55.05543 446
55.07554 438
55.09565 494
55.11577 483
55.13588 453
55.15599 473
55.17611 520
55.19622 491
55.21634 567
55.23645 601
55.25656 547
55.27668 547
55.29679 535
55.3169 506
55.33702 494
55.35713 502
55.37724 481
55.39736 479
55.41747 437
55.43759 432
55.4577 426
55.47781 440
55.49793 385
55.51804 357
55.53815 420
55.55827 362
55.57838 370
55.5985 346
55.61861 340
55.63872 368
55.65884 336
55.67895 365
55.69906 324
55.71918 352
55.73929 327
55.75941 360
55.77952 364
55.79963 357
55.81975 353
55.83986 288
55.85997 327
55.88009 327
55.9002 365
55.92031 322
55.94043 298
55.96054 319
55.98066 326
56.00077 318
56.02088 338
56.041 309
56.06111 315
56.08122 305
56.10134 320
56.12145 329
56.14157 357
56.16168 325
56.18179 310
56.20191 334
56.22202 334
56.24213 326
56.26225 320
56.28236 313
56.30248 324
56.32259 332
56.3427 341
56.36282 321
56.38293 285
56.40304 336
56.42316 342
56.44327 338
56.46338 334
56.4835 355
56.50361 334
56.52373 325
56.54384 312
56.56395 358
56.58407 323
56.60418 344
56.62429 344
56.64441 328
56.66452 334
56.68464 368
56.70475 347
56.72486 326
56.74498 342
56.76509 294
56.7852 341
56.80532 323
56.82543 323
56.84554 326
56.86566 331
56.88577 319
56.90589 299
56.926 342
56.94611 335
56.96623 327
56.98634 298
57.00645 322
57.02657 315
57.04668 296
57.0668 312
57.08691 317
57.10702 298
57.12714 325
57.14725 289
57.16736 301
57.18748 325
57.20759 317
57.22771 305
57.24782 346
57.26793 304
57.28805 317
57.30816 298
57.32827 349
57.34839 314
57.3685 321
57.38861 313
57.40873 329
57.42884 286
57.44896 301
57.46907 319
57.48918 304
57.5093 274
57.52941 303
57.54952 325
57.56964 288
57.58975 312
57.60987 272
57.62998 306
57.65009 300
57.67021 307
57.69032 279
57.71043 272
57.73055 276
57.75066 306
57.77078 298
57.79089 297
57.811 284
57.83112 323
57.85123 266
57.87134 276
57.89146 292
57.91157 256
57.93168 289
57.9518 289
57.97191 257
57.99203 308
58.01214 294
58.03225 299
58.05237 318
58.07248 257
58.09259 300
58.11271 307
58.13282 301
58.15294 315
58.17305 284
58.19316 291
58.21328 286
58.23339 277
58.2535 317
58.27362 275
58.29373 290
58.31385 284
58.33396 256
58.35407 297
58.37419 315
58.3943 317
58.41441 305
58.43453 295
58.45464 303
58.47475 330
58.49487 286
58.51498 297
58.5351 306
58.55521 313
58.57532 291
58.59544 282
58.61555 264
58.63566 286
58.65578 286
58.67589 318
58.69601 297
58.71612 346
58.73623 284
58.75635 330
58.77646 271
58.79657 312
58.81669 289
58.8368 291
58.85691 272
58.87703 274
58.89714 287
58.91726 308
58.93737 263
58.95748 299
58.9776 288
58.99771 286
59.01782 307
59.03794 303
59.05805 284
59.07817 275
59.09828 288
59.11839 301
59.13851 280
59.15862 282
59.17873 319
59.19885 311
59.21896 303
59.23908 325
59.25919 316
59.2793 314
59.29942 327
59.31953 328
59.33964 324
59.35976 303
59.37987 315
59.39998 328
59.4201 323
59.44021 316
59.46033 342
59.48044 337
59.50055 345
59.52067 365
59.54078 365
59.56089 368
59.58101 409
59.60112 403
59.62124 428
59.64135 442
59.66146 428
59.68158 466
59.70169 500
59.7218 567
59.74192 570
59.76203 660
59.78215 768
59.80226 856
59.82237 920
59.84249 1026
59.8626 1108
59.88271 1057
59.90283 1151
59.92294 1019
59.94305 916
59.96317 817
59.98328 789
60.0034 805
60.02351 762
60.04362 750
60.06374 693
60.08385 640
60.10396 603
60.12408 495
60.14419 438
60.16431 415
60.18442 387
60.20453 369
60.22465 355
60.24476 329
60.26487 345
60.28499 343
60.3051 353
60.32522 325
60.34533 360
60.36544 313
60.38556 342
60.40567 322
60.42578 318
60.4459 334
60.46601 301
60.48612 321
60.50624 314
60.52635 293
60.54647 328
60.56658 314
60.58669 323
60.60681 327
60.62692 314
60.64703 303
60.66715 281
60.68726 303
60.70738 295
60.72749 280
60.7476 255
60.76772 278
60.78783 312
60.80794 312
60.82806 300
60.84817 322
60.86828 306
60.8884 311
60.90851 278
60.92863 297
60.94874 286
60.96885 310
60.98897 321
61.00908 323
61.02919 312
61.04931 299
61.06942 331
61.08954 340
61.10965 301
61.12976 320
61.14988 300
61.16999 316
61.1901 318
61.21022 319
61.23033 321
61.25045 296
61.27056 327
61.29067 282
61.31079 321
61.3309 317
61.35101 286
61.37113 283
61.39124 296
61.41135 293
61.43147 302
61.45158 294
61.4717 299
61.49181 300
61.51192 302
61.53204 295
61.55215 260
61.57226 313
61.59238 290
61.61249 331
61.63261 302
61.65272 321
61.67283 320
61.69295 284
61.71306 296
61.73317 331
61.75329 299
61.7734 325
61.79352 329
61.81363 331
61.83374 317
61.85386 341
61.87397 344
61.89408 351
61.9142 334
61.93431 367
61.95442 347
61.97454 352
61.99465 382
62.01477 380
62.03488 360
62.05499 428
62.07511 391
62.09522 418
62.11533 406
62.13545 443
62.15556 443
62.17568 479
62.19579 472
62.2159 435
62.23602 467
62.25613 487
62.27624 471
62.29636 501
62.31647 468
62.33659 466
62.3567 454
62.37681 430
62.39693 397
62.41704 436
62.43715 393
62.45727 381
62.47738 416
62.49749 358
62.51761 382
62.53772 398
62.55784 399
62.57795 379
62.59806 364
62.61818 355
62.63829 366
62.6584 345
62.67852 333
62.69863 348
62.71875 331
62.73886 350
62.75897 345
62.77909 335
62.7992 301
62.81931 325
62.83943 288
62.85954 291
62.87965 328
62.89977 338
62.91988 357
62.94 327
62.96011 335
62.98022 306
63.00034 343
63.02045 330
63.04056 340
63.06068 293
63.08079 307
63.10091 314
63.12102 335
63.14113 343
63.16125 311
63.18136 326
63.20147 299
63.22159 319
63.2417 357
63.26182 317
63.28193 344
63.30204 315
63.32216 288
63.34227 305
63.36238 346
63.3825 305
63.40261 313
63.42272 307
63.44284 297
63.46295 325
63.48307 306
63.50318 282
63.52329 310
63.54341 294
63.56352 302
63.58363 315
63.60375 297
63.62386 357
63.64398 306
63.66409 309
63.6842 313
63.70432 344
63.72443 351
63.74454 365
63.76466 377
63.78477 355
63.80489 412
63.825 387
63.84511 401
63.86523 421
63.88534 450
63.90545 453
63.92557 487
63.94568 458
63.96579 500
63.98591 428
64.00602 427
64.02614 429
64.04625 409
64.06636 379
64.08648 359
64.10659 376
64.1267 377
64.14682 368
64.16693 360
64.18705 383
64.20716 336
64.22727 311
64.24739 289
64.2675 275
64.28761 287
64.30773 309
64.32784 292
64.34796 279
64.36807 292
64.38818 296
64.4083 284
64.42841 271
64.44852 253
64.46864 284
64.48875 279
64.50886 300
64.52898 263
64.54909 287
64.56921 261
64.58932 282
64.60943 278
64.62955 265
64.64966 284
64.66977 308
64.68989 276
64.71 280
64.73012 274
64.75023 263
64.77034 267
64.79046 283
64.81057 262
64.83068 265
64.8508 276
64.87091 280
64.89102 263
64.91114 284
64.93125 277
64.95137 294
64.97148 247
64.99159 270
65.01171 262
65.03182 293
65.05193 288
65.07205 293
65.09216 284
65.11228 325
65.13239 289
65.1525 287
65.17262 305
65.19273 284
65.21284 285
65.23296 282
65.25307 280
65.27319 293
65.2933 268
65.31341 287
65.33353 269
65.35364 250
65.37375 293
65.39387 269
65.41398 269
65.43409 285
65.45421 291
65.47432 289
65.49444 276
65.51455 262
65.53466 272
65.55478 293
65.57489 283
65.595 271
65.61512 295
65.63523 295
65.65535 287
65.67546 298
65.69557 308
65.71569 285
65.7358 300
65.75591 266
65.77603 262
65.79614 279
65.81626 287
65.83637 292
65.85648 298
65.8766 260
65.89671 310
65.91682 295
65.93694 284
65.95705 274
65.97716 253
65.99728 263
66.01739 273
66.03751 298
66.05762 296
66.07773 297
66.09785 262
66.11796 271
66.13807 268
66.15819 283
66.1783 278
66.19842 255
66.21853 310
66.23864 258
66.25876 300
66.27887 262
66.29898 302
66.3191 280
66.33921 289
66.35933 283
66.37944 262
66.39955 282
66.41967 276
66.43978 285
66.45989 281
66.48001 279
66.50012 285
66.52023 281
66.54035 287
66.56046 267
66.58058 268
66.60069 256
66.6208 286
66.64092 282
66.66103 285
66.68114 273
66.70126 260
66.72137 272
66.74149 301
66.7616 276
66.78171 292
66.80183 265
66.82194 237
66.84205 280
66.86217 300
66.88228 266
66.90239 287
66.92251 286
66.94262 267
66.96274 303
66.98285 309
67.00296 298
67.02308 273
67.04319 270
67.0633 286
67.08342 278
67.10353 308
67.12365 314
67.14376 312
67.16387 275
67.18399 309
67.2041 298
67.22421 295
67.24433 317
67.26444 284
67.28456 331
67.30467 302
67.32478 328
67.3449 323
67.36501 309
67.38512 354
67.40524 355
67.42535 353
67.44546 394
67.46558 388
67.48569 399
67.50581 448
67.52592 460
67.54603 509
67.56615 531
67.58626 575
67.60637 699
67.62649 730
67.6466 731
67.66672 726
67.68683 722
67.70694 684
67.72706 665
67.74717 626
67.76728 564
67.7874 591
67.80751 568
67.82763 575
67.84774 596
67.86785 616
67.88797 633
67.90808 647
67.92819 663
67.94831 636
67.96842 666
67.98853 756
68.00865 746
68.02876 852
68.04888 868
68.06899 900
68.0891 932
68.10922 903
68.12933 814
68.14944 857
68.16956 790
68.18967 805
68.20979 872
68.2299 887
68.25001 838
68.27013 810
68.29024 752
68.31035 669
68.33047 606
68.35058 544
68.3707 486
68.39081 487
68.41092 491
68.43104 507
68.45115 445
68.47126 415
68.49138 409
68.51149 375
68.5316 356
68.55172 332
68.57183 328
68.59195 305
68.61206 296
68.63217 326
68.65229 291
68.6724 289
68.69251 294
68.71263 297
68.73274 307
68.75286 280
68.77297 271
68.79308 280
68.8132 262
68.83331 280
68.85342 287
68.87354 290
68.89365 279
68.91376 271
68.93388 291
68.95399 269
68.97411 317
68.99422 257
69.01433 254
69.03445 261
69.05456 258
69.07467 260
69.09479 272
69.1149 261
69.13502 244
69.15513 241
69.17524 252
69.19536 276
69.21547 271
69.23558 237
69.2557 248
69.27581 268
69.29593 278
69.31604 296
69.33615 251
69.35627 251
69.37638 242
69.39649 274
69.41661 286
69.43672 244
69.45683 306
69.47695 239
69.49706 273
69.51718 240
69.53729 271
69.5574 242
69.57752 258
69.59763 297
69.61774 264
69.63786 243
69.65797 263
69.67809 255
69.6982 247
69.71831 254
69.73843 260
69.75854 255
69.77865 262
69.79877 280
69.81888 273
69.839 268
69.85911 271
69.87922 261
69.89934 259
69.91945 281
69.93956 277
69.95968 233
69.97979 289
69.9999 258
70.02002 273
70.04013 267
70.06025 278
70.08036 258
70.10047 249
70.12059 262
70.1407 272
70.16081 276
70.18093 264
70.20104 246
70.22116 256
70.24127 266
70.26138 279
70.2815 268
70.30161 239
70.32172 284
70.34184 283
70.36195 282
70.38207 242
70.40218 273
70.42229 294
70.44241 319
70.46252 267
70.48263 257
70.50275 260
70.52286 263
70.54297 253
70.56309 236
70.5832 259
70.60332 269
70.62343 252
70.64354 249
70.66366 235
70.68377 243
70.70388 268
70.724 246
70.74411 263
70.76423 282
70.78434 266
70.80445 234
70.82457 279
70.84468 239
70.86479 292
70.88491 280
70.90502 282
70.92513 253
70.94525 278
70.96536 280
70.98548 245
71.00559 261
71.0257 267
71.04582 264
71.06593 263
71.08604 263
71.10616 272
71.12627 262
71.14639 241
71.1665 267
71.18661 248
71.20673 266
71.22684 279
71.24695 236
71.26707 275
71.28718 251
71.3073 290
71.32741 263
71.34752 268
71.36764 281
71.38775 228
71.40786 268
71.42798 290
71.44809 290
71.4682 258
71.48832 247
71.50843 287
71.52855 286
71.54866 285
71.56877 273
71.58889 254
71.609 276
71.62911 259
71.64923 254
71.66934 244
71.68946 293
71.70957 251
71.72968 251
71.7498 272
71.76991 289
71.79002 261
71.81014 281
71.83025 283
71.85037 284
71.87048 248
71.89059 282
71.91071 258
71.93082 273
71.95093 264
71.97105 302
71.99116 251
72.01127 288
72.03139 296
72.0515 259
72.07162 282
72.09173 284
72.11184 293
72.13196 277
72.15207 304
72.17218 289
72.1923 276
72.21241 270
72.23253 298
72.25264 257
72.27275 281
72.29287 268
72.31298 270
72.33309 263
72.35321 265
72.37332 252
72.39344 259
72.41355 280
72.43366 292
72.45378 280
72.47389 278
72.494 262
72.51412 299
72.53423 280
72.55434 245
72.57446 253
72.59457 254
72.61469 262
72.6348 280
72.65491 258
72.67503 260
72.69514 254
72.71525 244
72.73537 254
72.75548 287
72.7756 255
72.79571 248
72.81582 276
72.83594 307
72.85605 282
72.87616 265
72.89628 262
72.91639 281
72.9365 294
72.95662 276
72.97673 263
72.99685 280
73.01696 289
73.03707 313
73.05719 309
73.0773 301
73.09741 327
73.11753 275
73.13764 279
73.15776 328
73.17787 279
73.19798 318
73.2181 338
73.23821 349
73.25832 384
73.27844 360
73.29855 419
73.31867 374
73.33878 428
73.35889 436
73.37901 435
73.39912 395
73.41923 436
73.43935 419
73.45946 382
73.47957 385
73.49969 344
73.5198 349
73.53992 357
73.56003 371
73.58014 360
73.60026 355
73.62037 329
73.64048 361
73.6606 355
73.68071 307
73.70083 325
73.72094 348
73.74105 305
73.76117 320
73.78128 290
73.80139 293
73.82151 303
73.84162 296
73.86174 303
73.88185 280
73.90196 256
73.92208 245
73.94219 279
73.9623 254
73.98242 265
74.00253 280
74.02264 248
74.04276 241
74.06287 268
74.08299 259
74.1031 250
74.12321 263
74.14333 256
74.16344 257
74.18355 258
74.20367 236
74.22378 261
74.2439 262
74.26401 262
74.28412 265
74.30424 266
74.32435 261
74.34446 253
74.36458 285
74.38469 265
74.40481 237
74.42492 257
74.44503 252
74.46515 255
74.48526 246
74.50537 276
74.52549 280
74.5456 244
74.56571 243
74.58583 237
74.60594 290
74.62606 244
74.64617 284
74.66628 288
74.6864 291
74.70651 279
74.72662 266
74.74674 274
74.76685 273
74.78697 265
74.80708 242
74.82719 259
74.84731 255
74.86742 263
74.88753 283
74.90765 277
74.92776 297
74.94787 252
74.96799 279
74.9881 289
75.00822 286
