3.00117 18999
3.02128 18225
3.0414 17874
3.06151 17230
3.08162 16961
3.10174 16291
3.12185 15705
3.14197 15530
3.16208 14843
3.18219 14757
3.20231 13744
3.22242 13370
3.24253 13386
3.26265 12787
3.28276 12728
3.30288 11774
3.32299 11660
3.3431 11253
3.36322 10749
3.38333 10529
3.40344 10024
3.42356 9583
3.44367 9491
3.46379 9031
3.4839 8816
3.50401 8422
3.52413 7996
3.54424 7935
3.56435 7524
3.58447 7275
3.60458 6924
3.62469 6542
3.64481 6597
3.66492 6011
3.68504 6131
3.70515 5724
3.72526 5370
3.74538 5409
3.76549 4828
3.7856 4888
3.80572 4412
3.82583 4200
3.84595 4237
3.86606 3901
3.88617 3866
3.90629 3452
3.9264 3466
3.94651 3293
3.96663 3137
3.98674 3035
4.00686 2749
4.02697 2673
4.04708 2662
4.0672 2490
4.08731 2512
4.10742 2210
4.12754 2128
4.14765 2104
4.16776 1984
4.18788 1914
4.20799 1794
4.22811 1725
4.24822 1725
4.26833 1630
4.28845 1652
4.30856 1511
4.32867 1461
4.34879 1434
4.3689 1403
4.38902 1442
4.40913 1255
4.42924 1282
4.44936 1244
4.46947 1225
4.48958 1197
4.5097 1187
4.52981 1190
4.54992 1081
4.57004 1062
4.59015 1044
4.61027 963
4.63038 968
4.65049 1001
4.67061 1013
4.69072 894
4.71083 890
4.73095 861
4.75106 863
4.77118 827
4.79129 832
4.8114 809
4.83152 786
4.85163 744
4.87174 776
4.89186 717
4.91197 694
4.93209 706
4.9522 705
4.97231 646
4.99243 584
5.01254 608
5.03265 568
5.05277 638
5.07288 607
5.09299 527
5.11311 569
5.13322 527
5.15334 533
5.17345 507
5.19356 441
5.21368 477
5.23379 466
5.2539 465
5.27402 458
5.29413 411
5.31425 461
5.33436 404
5.35447 400
5.37459 433
5.3947 360
5.41481 382
5.43493 373
5.45504 356
5.47516 378
5.49527 326
5.51538 311
5.5355 346
5.55561 315
5.57572 315
5.59584 269
5.61595 301
5.63606 303
5.65618 288
5.67629 283
5.69641 266
5.71652 286
5.73663 255
5.75675 240
5.77686 276
5.79697 242
5.81709 259
5.8372 280
5.85732 239
5.87743 219
5.89754 209
5.91766 247
5.93777 212
5.95788 225
5.978 241
5.99811 233
6.01823 241
6.03834 226
6.05845 237
6.07857 195
6.09868 191
6.11879 201
6.13891 211
6.15902 201
6.17913 204
6.19925 201
6.21936 188
6.23948 186
6.25959 206
6.2797 186
6.29982 194
6.31993 178
6.34004 188
6.36016 207
6.38027 194
6.40039 171
6.4205 198
6.44061 177
6.46073 203
6.48084 187
6.50095 211
6.52107 188
6.54118 203
6.56129 201
6.58141 192
6.60152 205
6.62164 174
6.64175 178
6.66186 183
6.68198 181
6.70209 172
6.7222 194
6.74232 189
6.76243 188
6.78255 187
6.80266 168
6.82277 198
6.84289 176
6.863 182
6.88311 164
6.90323 166
6.92334 194
6.94346 207
6.96357 155
6.98368 211
7.0038 176
7.02391 184
7.04402 183
7.06414 178
7.08425 159
7.10436 191
7.12448 178
7.14459 171
7.16471 192
7.18482 193
7.20493 188
7.22505 179
7.24516 205
7.26527 182
7.28539 168
7.3055 175
7.32562 206
7.34573 222
7.36584 167
7.38596 190
7.40607 203
7.42618 211
7.4463 199
7.46641 177
7.48653 230
7.50664 188
7.52675 212
7.54687 209
7.56698 213
7.58709 207
7.60721 192
7.62732 205
7.64743 192
7.66755 219
7.68766 182
7.70778 223
7.72789 200
7.748 171
7.76812 197
7.78823 200
7.80834 206
7.82846 215
7.84857 218
7.86869 181
7.8888 187
7.90891 215
7.92903 232
7.94914 217
7.96925 196
7.98937 205
8.00948 203
8.0296 223
8.04971 238
8.06982 218
8.08994 212
8.11005 183
8.13016 218
8.15028 217
8.17039 207
8.1905 213
8.21062 210
8.23073 234
8.25085 228
8.27096 209
8.29107 225
8.31119 225
8.3313 213
8.35141 203
8.37153 263
8.39164 222
8.41176 232
8.43187 195
8.45198 204
8.4721 214
8.49221 204
8.51232 218
8.53244 209
8.55255 215
8.57266 217
8.59278 208
8.61289 235
8.63301 248
8.65312 208
8.67323 214
8.69335 235
8.71346 229
8.73357 229
8.75369 223
8.7738 236
8.79392 197
8.81403 251
8.83414 236
8.85426 210
8.87437 230
8.89448 209
8.9146 210
8.93471 206
8.95483 222
8.97494 239
8.99505 217
9.01517 221
9.03528 205
9.05539 213
9.07551 186
9.09562 207
9.11573 230
9.13585 201
9.15596 195
9.17608 241
9.19619 205
9.2163 224
9.23642 225
9.25653 267
9.27664 209
9.29676 236
9.31687 213
9.33699 217
9.3571 211
9.37721 197
9.39733 207
9.41744 234
9.43755 214
9.45767 213
9.47778 188
9.4979 214
9.51801 237
9.53812 226
9.55824 231
9.57835 228
9.59846 231
9.61858 222
9.63869 208
9.6588 196
9.67892 189
9.69903 206
9.71915 191
9.73926 207
9.75937 218
9.77949 229
9.7996 223
9.81971 243
9.83983 240
9.85994 223
9.88006 241
9.90017 242
9.92028 234
9.9404 220
9.96051 232
9.98062 205
10.00074 216
10.02085 218
10.04097 237
10.06108 200
10.08119 204
10.10131 203
10.12142 208
10.14153 206
10.16165 217
10.18176 224
10.20187 227
10.22199 213
10.2421 223
10.26222 218
10.28233 222
10.30244 258
10.32256 203
10.34267 199
10.36278 224
10.3829 252
10.40301 221
10.42313 239
10.44324 209
10.46335 240
10.48347 227
10.50358 219
10.52369 211
10.54381 229
10.56392 212
10.58403 230
10.60415 225
10.62426 203
10.64438 224
10.66449 195
10.6846 224
10.70472 226
10.72483 234
10.74494 218
10.76506 217
10.78517 244
10.80529 240
10.8254 240
10.84551 217
10.86563 187
10.88574 238
10.90585 221
10.92597 235
10.94608 221
10.9662 222
10.98631 222
11.00642 212
11.02654 196
11.04665 214
11.06676 201
11.08688 228
11.10699 219
11.1271 225
11.14722 208
11.16733 205
11.18745 240
11.20756 218
11.22767 231
11.24779 249
11.2679 204
11.28801 234
11.30813 223
11.32824 198
11.34836 201
11.36847 221
11.38858 234
11.4087 256
11.42881 205
11.44892 211
11.46904 192
11.48915 207
11.50927 205
11.52938 186
11.54949 187
11.56961 203
11.58972 238
11.60983 200
11.62995 222
11.65006 193
11.67017 219
11.69029 219
11.7104 195
11.73052 205
11.75063 216
11.77074 249
11.79086 186
11.81097 222
11.83108 195
11.8512 199
11.87131 230
11.89143 230
11.91154 233
11.93165 210
11.95177 214
11.97188 217
11.99199 249
12.01211 216
12.03222 228
12.05234 239
12.07245 223
12.09256 203
12.11268 187
12.13279 211
12.1529 188
12.17302 230
12.19313 218
12.21324 200
12.23336 206
12.25347 208
12.27359 201
12.2937 238
12.31381 233
12.33393 243
12.35404 211
12.37415 195
12.39427 192
12.41438 219
12.4345 218
12.45461 219
12.47472 209
12.49484 239
12.51495 245
12.53506 235
12.55518 206
12.57529 192
12.5954 187
12.61552 180
12.63563 207
12.65575 210
12.67586 183
12.69597 179
12.71609 189
12.7362 220
12.75631 199
12.77643 183
12.79654 168
12.81666 213
12.83677 202
12.85688 243
12.877 197
12.89711 186
12.91722 187
12.93734 194
12.95745 218
12.97757 184
12.99768 177
13.01779 217
13.03791 190
13.05802 247
13.07813 175
13.09825 206
13.11836 215
13.13847 224
13.15859 216
13.1787 208
13.19882 216
13.21893 206
13.23904 194
13.25916 215
13.27927 213
13.29938 218
13.3195 212
13.33961 191
13.35973 195
13.37984 193
13.39995 194
13.42007 202
13.44018 200
13.46029 194
13.48041 189
13.50052 175
13.52064 211
13.54075 187
13.56086 216
13.58098 225
13.60109 205
13.6212 224
13.64132 196
13.66143 185
13.68154 203
13.70166 170
13.72177 205
13.74189 199
13.762 217
13.78211 193
13.80223 203
13.82234 180
13.84245 181
13.86257 187
13.88268 190
13.9028 193
13.92291 175
13.94302 202
13.96314 200
13.98325 227
14.00336 195
14.02348 184
14.04359 164
14.06371 179
14.08382 170
14.10393 209
14.12405 189
14.14416 172
14.16427 181
14.18439 173
14.2045 178
14.22461 179
14.24473 168
14.26484 181
14.28496 207
14.30507 184
14.32518 187
14.3453 147
14.36541 190
14.38552 170
14.40564 158
14.42575 171
14.44587 167
14.46598 153
14.48609 165
14.50621 190
14.52632 180
14.54643 161
14.56655 162
14.58666 180
14.60677 198
14.62689 202
14.647 168
14.66712 167
14.68723 190
14.70734 155
14.72746 181
14.74757 182
14.76768 164
14.7878 163
14.80791 158
14.82803 164
14.84814 188
14.86825 170
14.88837 173
14.90848 194
14.92859 183
14.94871 190
14.96882 192
14.98894 175
15.00905 203
15.02916 174
15.04928 183
15.06939 154
15.0895 165
15.10962 174
15.12973 184
15.14984 156
15.16996 183
15.19007 194
15.21019 165
15.2303 179
15.25041 175
15.27053 182
15.29064 182
15.31075 173
15.33087 162
15.35098 158
15.3711 171
15.39121 170
15.41132 158
15.43144 160
15.45155 183
15.47166 187
15.49178 178
15.51189 191
15.53201 170
15.55212 169
15.57223 167
15.59235 147
15.61246 152
15.63257 153
15.65269 182
15.6728 167
15.69291 175
15.71303 166
15.73314 176
15.75326 166
15.77337 161
15.79348 168
15.8136 161
15.83371 167
15.85382 175
15.87394 178
15.89405 190
15.91417 152
15.93428 162
15.95439 163
15.97451 176
15.99462 178
16.01473 166
16.03485 186
16.05496 189
16.07508 162
16.09519 161
16.1153 175
16.13542 176
16.15553 142
16.17564 157
16.19576 174
16.21587 150
16.23598 150
16.2561 148
16.27621 157
16.29633 140
16.31644 181
16.33655 171
16.35667 168
16.37678 188
16.39689 175
16.41701 181
16.43712 163
16.45724 170
16.47735 161
16.49746 158
16.51758 152
16.53769 165
16.5578 165
16.57792 163
16.59803 187
16.61814 165
16.63826 176
16.65837 167
16.67849 160
16.6986 180
16.71871 181
16.73883 172
16.75894 183
16.77905 163
16.79917 185
16.81928 170
16.8394 154
16.85951 161
16.87962 165
16.89974 173
16.91985 166
16.93996 154
16.96008 158
16.98019 162
17.00031 165
17.02042 173
17.04053 171
17.06065 157
17.08076 173
17.10087 177
17.12099 167
17.1411 159
17.16121 159
17.18133 178
17.20144 157
17.22156 166
17.24167 158
17.26178 184
17.2819 153
17.30201 168
17.32212 178
17.34224 184
17.36235 154
17.38247 153
17.40258 167
17.42269 173
17.44281 160
17.46292 169
17.48303 147
17.50315 147
17.52326 163
17.54338 155
17.56349 159
17.5836 171
17.60372 187
17.62383 169
17.64394 167
17.66406 170
17.68417 174
17.70428 177
17.7244 170
17.74451 181
17.76463 161
17.78474 169
17.80485 184
17.82497 185
17.84508 142
17.86519 160
17.88531 155
17.90542 163
17.92554 191
17.94565 178
17.96576 175
17.98588 153
18.00599 158
18.0261 169
18.04622 144
18.06633 158
18.08645 159
18.10656 152
18.12667 176
18.14679 190
18.1669 180
18.18701 167
18.20713 172
18.22724 185
18.24735 164
18.26747 147
18.28758 152
18.3077 178
18.32781 173
18.34792 163
18.36804 175
18.38815 146
18.40826 162
18.42838 192
18.44849 174
18.46861 169
18.48872 176
18.50883 158
18.52895 183
18.54906 178
18.56917 171
18.58929 198
18.6094 174
18.62951 173
18.64963 142
18.66974 158
18.68986 159
18.70997 174
18.73008 160
18.7502 172
18.77031 204
18.79042 208
18.81054 185
18.83065 160
18.85077 190
18.87088 172
18.89099 169
18.91111 170
18.93122 172
18.95133 180
18.97145 171
18.99156 179
19.01168 150
19.03179 151
19.0519 149
19.07202 160
19.09213 156
19.11224 172
19.13236 175
19.15247 167
19.17258 188
19.1927 188
19.21281 142
19.23293 208
19.25304 172
19.27315 157
19.29327 199
19.31338 161
19.33349 201
19.35361 144
19.37372 175
19.39384 179
19.41395 165
19.43406 204
19.45418 160
19.47429 184
19.4944 189
19.51452 175
19.53463 180
19.55475 198
19.57486 169
19.59497 186
19.61509 211
19.6352 202
19.65531 199
19.67543 206
19.69554 206
19.71565 212
19.73577 220
19.75588 204
19.776 235
19.79611 224
19.81622 245
19.83634 246
19.85645 248
19.87656 212
19.89668 238
19.91679 244
19.93691 219
19.95702 218
19.97713 212
19.99725 238
20.01736 245
20.03747 250
20.05759 222
20.0777 258
20.09782 274
20.11793 248
20.13804 267
20.15816 258
20.17827 298
20.19838 240
20.2185 267
20.23861 245
20.25872 248
20.27884 266
20.29895 257
20.31907 281
20.33918 280
20.35929 304
20.37941 262
20.39952 308
20.41963 329
20.43975 337
20.45986 370
20.47998 353
20.50009 382
20.5202 403
20.54032 406
20.56043 398
20.58054 444
20.60066 510
20.62077 605
20.64088 676
20.661 838
20.68111 1139
20.70123 1489
20.72134 2062
20.74145 2959
20.76157 4155
20.78168 5419
20.80179 6761
20.82191 7910
20.84202 8518
20.86214 8083
20.88225 6770
20.90236 4938
20.92248 3372
20.94259 2192
20.9627 1332
20.98282 808
21.00293 693
21.02305 600
21.04316 551
21.06327 482
21.08339 424
21.1035 391
21.12361 401
21.14373 374
21.16384 348
21.18395 344
21.20407 345
21.22418 303
21.2443 284
21.26441 293
21.28452 287
21.30464 296
21.32475 282
21.34486 257
21.36498 265
21.38509 271
21.40521 273
21.42532 225
21.44543 264
21.46555 201
21.48566 251
21.50577 206
21.52589 215
21.546 252
21.56612 244
21.58623 248
21.60634 228
21.62646 201
21.64657 223
21.66668 210
21.6868 239
21.70691 225
21.72702 239
21.74714 244
21.76725 251
21.78737 249
21.80748 241
21.82759 213
21.84771 183
21.86782 242
21.88793 211
21.90805 220
21.92816 239
21.94828 227
21.96839 213
21.9885 239
22.00862 235
22.02873 219
22.04884 236
22.06896 233
22.08907 217
22.10919 217
22.1293 214
22.14941 233
22.16953 226
22.18964 238
22.20975 208
22.22987 199
22.24998 231
22.27009 242
22.29021 240
22.31032 216
22.33044 220
22.35055 211
22.37066 233
22.39078 203
22.41089 206
22.431 189
22.45112 209
22.47123 224
22.49135 223
22.51146 222
22.53157 203
22.55169 228
22.5718 236
22.59191 177
22.61203 236
22.63214 213
22.65225 211
22.67237 205
22.69248 222
22.7126 238
22.73271 231
22.75282 195
22.77294 199
22.79305 214
22.81316 192
22.83328 197
22.85339 225
22.87351 181
22.89362 219
22.91373 214
22.93385 222
22.95396 192
22.97407 184
22.99419 204
23.0143 226
23.03442 204
23.05453 207
23.07464 207
23.09476 211
23.11487 203
23.13498 218
23.1551 202
23.17521 239
23.19532 205
23.21544 247
23.23555 233
23.25567 219
23.27578 227
23.29589 225
23.31601 217
23.33612 213
23.35623 200
23.37635 200
23.39646 207
23.41658 226
23.43669 214
23.4568 190
23.47692 258
23.49703 216
23.51714 227
23.53726 245
23.55737 232
23.57749 233
23.5976 217
23.61771 237
23.63783 210
23.65794 229
23.67805 219
23.69817 215
23.71828 241
23.73839 220
23.75851 255
23.77862 195
23.79874 200
23.81885 201
23.83896 217
23.85908 261
23.87919 246
23.8993 289
23.91942 282
23.93953 281
23.95965 294
23.97976 295
23.99987 293
24.01999 308
24.0401 272
24.06021 239
24.08033 250
24.10044 227
24.12056 215
24.14067 200
24.16078 209
24.1809 200
24.20101 193
24.22112 219
24.24124 204
24.26135 209
24.28146 201
24.30158 194
24.32169 202
24.34181 225
24.36192 220
24.38203 206
24.40215 196
24.42226 186
24.44237 224
24.46249 189
24.4826 205
24.50272 188
24.52283 197
24.54294 204
24.56306 213
24.58317 192
24.60328 221
24.6234 232
24.64351 217
24.66362 200
24.68374 221
24.70385 202
24.72397 226
24.74408 219
24.76419 175
24.78431 204
24.80442 209
24.82453 207
24.84465 216
24.86476 202
24.88488 190
24.90499 201
24.9251 216
24.94522 218
24.96533 214
24.98544 214
25.00556 192
25.02567 206
25.04579 198
25.0659 214
25.08601 218
25.10613 221
25.12624 219
25.14635 199
25.16647 210
25.18658 231
25.20669 220
25.22681 238
25.24692 261
25.26704 237
25.28715 223
25.30726 210
25.32738 240
25.34749 240
25.3676 234
25.38772 225
25.40783 273
25.42795 232
25.44806 245
25.46817 250
25.48829 224
25.5084 284
25.52851 295
25.54863 299
25.56874 320
25.58886 332
25.60897 311
25.62908 331
25.6492 369
25.66931 364
25.68942 431
25.70954 406
25.72965 422
25.74976 441
25.76988 449
25.78999 415
25.81011 442
25.83022 425
25.85033 390
25.87045 443
25.89056 470
25.91067 488
25.93079 461
25.9509 459
25.97102 504
25.99113 525
26.01124 516
26.03136 567
26.05147 546
26.07158 579
26.0917 599
26.11181 657
26.13193 716
26.15204 675
26.17215 792
26.19227 886
26.21238 906
26.23249 983
26.25261 1052
26.27272 1162
26.29283 1226
26.31295 1305
26.33306 1447
26.35318 1726
26.37329 1987
26.3934 2400
26.41352 2994
26.43363 3951
26.45374 5260
26.47386 7235
26.49397 10164
26.51409 13847
26.5342 19115
26.55431 24973
26.57443 31285
26.59454 35718
26.61465 38490
26.63477 37161
26.65488 31738
26.67499 24480
26.69511 18415
26.71522 12869
26.73534 8304
26.75545 4747
26.77556 2891
26.79568 2141
26.81579 1798
26.8359 1532
26.85602 1385
26.87613 1262
26.89625 1126
26.91636 1042
26.93647 958
26.95659 898
26.9767 831
26.99681 775
27.01693 659
27.03704 688
27.05716 617
27.07727 546
27.09738 560
27.1175 544
27.13761 524
27.15772 478
27.17784 527
27.19795 462
27.21806 476
27.23818 451
27.25829 493
27.27841 423
27.29852 433
27.31863 447
27.33875 444
27.35886 482
27.37897 468
27.39909 483
27.4192 464
27.43932 513
27.45943 509
27.47954 482
27.49966 470
27.51977 491
27.53988 450
27.56 407
27.58011 370
27.60023 383
27.62034 347
27.64045 319
27.66057 327
27.68068 318
27.70079 372
27.72091 335
27.74102 324
27.76113 343
27.78125 294
27.80136 295
27.82148 303
27.84159 294
27.8617 309
27.88182 327
27.90193 274
27.92204 335
27.94216 298
27.96227 307
27.98239 289
28.0025 286
28.02261 302
28.04273 311
28.06284 273
28.08295 296
28.10307 268
28.12318 245
28.1433 266
28.16341 292
28.18352 269
28.20364 247
28.22375 290
28.24386 256
28.26398 235
28.28409 259
28.3042 277
28.32432 248
28.34443 237
28.36455 258
28.38466 242
28.40477 261
28.42489 247
28.445 266
28.46511 242
28.48523 249
28.50534 253
28.52546 240
28.54557 239
28.56568 245
28.5858 246
28.60591 247
28.62602 235
28.64614 234
28.66625 241
28.68636 220
28.70648 212
28.72659 251
28.74671 250
28.76682 225
28.78693 231
28.80705 208
28.82716 237
28.84727 208
28.86739 220
28.8875 278
28.90762 228
28.92773 220
28.94784 212
28.96796 237
28.98807 203
29.00818 238
29.0283 225
29.04841 223
29.06853 204
29.08864 221
29.10875 215
29.12887 237
29.14898 226
29.16909 242
29.18921 236
29.20932 243
29.22943 225
29.24955 221
29.26966 209
29.28978 218
29.30989 246
29.33 222
29.35012 197
29.37023 209
29.39034 243
29.41046 222
29.43057 232
29.45069 217
29.4708 206
29.49091 232
29.51103 213
29.53114 189
29.55125 212
29.57137 227
29.59148 208
29.6116 230
29.63171 210
29.65182 233
29.67194 230
29.69205 214
29.71216 244
29.73228 204
29.75239 229
29.7725 221
29.79262 195
29.81273 204
29.83285 226
29.85296 207
29.87307 211
29.89319 238
29.9133 229
29.93341 226
29.95353 204
29.97364 209
29.99376 227
30.01387 229
30.03398 228
30.0541 224
30.07421 215
30.09432 221
30.11444 228
30.13455 231
30.15467 228
30.17478 222
30.19489 200
30.21501 224
30.23512 227
30.25523 186
30.27535 214
30.29546 221
30.31557 207
30.33569 189
30.3558 172
30.37592 234
30.39603 218
30.41614 209
30.43626 209
30.45637 182
30.47648 199
30.4966 176
30.51671 194
30.53683 192
30.55694 225
30.57705 196
30.59717 197
30.61728 209
30.63739 240
30.65751 213
30.67762 208
30.69773 223
30.71785 213
30.73796 247
30.75808 190
30.77819 231
30.7983 220
30.81842 203
30.83853 225
30.85864 229
30.87876 171
30.89887 215
30.91899 193
30.9391 182
30.95921 167
30.97933 173
30.99944 167
31.01955 172
31.03967 212
31.05978 201
31.0799 148
31.10001 189
31.12012 186
31.14024 177
31.16035 188
31.18046 193
31.20058 192
31.22069 174
31.2408 173
31.26092 168
31.28103 173
31.30115 176
31.32126 200
31.34137 197
31.36149 173
31.3816 155
31.40171 192
31.42183 174
31.44194 160
31.46206 162
31.48217 171
31.50228 167
31.5224 140
31.54251 152
31.56262 163
31.58274 173
31.60285 167
31.62297 169
31.64308 168
31.66319 149
31.68331 136
31.70342 176
31.72353 184
31.74365 134
31.76376 153
31.78387 147
31.80399 161
31.8241 204
31.84422 139
31.86433 179
31.88444 171
31.90456 206
31.92467 154
31.94478 175
31.9649 167
31.98501 160
32.00513 147
32.02524 154
32.04535 178
32.06547 166
32.08558 174
32.10569 174
32.12581 196
32.14592 156
32.16604 163
32.18615 174
32.20626 166
32.22638 147
32.24649 192
32.2666 174
32.28672 164
32.30683 172
32.32694 152
32.34706 176
32.36717 150
32.38729 164
32.4074 154
32.42751 164
32.44763 164
32.46774 175
32.48785 139
32.50797 182
32.52808 130
32.5482 169
32.56831 143
32.58842 144
32.60854 158
32.62865 139
32.64876 157
32.66888 154
32.68899 152
32.7091 140
32.72922 159
32.74933 156
32.76945 160
32.78956 164
32.80967 160
32.82979 141
32.8499 146
32.87001 142
32.89013 143
32.91024 168
32.93036 147
32.95047 156
32.97058 130
32.9907 156
33.01081 165
33.03092 139
33.05104 154
33.07115 139
33.09127 127
33.11138 178
33.13149 158
33.15161 150
33.17172 173
33.19183 169
33.21195 136
33.23206 164
33.25217 154
33.27229 145
33.2924 162
33.31252 157
33.33263 149
33.35274 180
33.37286 143
33.39297 150
33.41308 139
33.4332 146
33.45331 152
33.47343 164
33.49354 147
33.51365 147
33.53377 122
33.55388 155
33.57399 152
33.59411 137
33.61422 183
33.63434 150
33.65445 158
33.67456 152
33.69468 147
33.71479 153
33.7349 128
33.75502 143
33.77513 158
33.79524 139
33.81536 137
33.83547 134
33.85559 153
33.8757 138
33.89581 146
33.91593 147
33.93604 146
33.95615 160
33.97627 150
33.99638 131
34.0165 158
34.03661 142
34.05672 164
34.07684 153
34.09695 147
34.11706 177
34.13718 164
34.15729 137
34.17741 159
34.19752 174
34.21763 189
34.23775 147
34.25786 164
34.27797 158
34.29809 142
34.3182 165
34.33831 162
34.35843 172
34.37854 183
34.39866 184
34.41877 168
34.43888 146
34.459 156
34.47911 183
34.49922 136
34.51934 174
34.53945 154
34.55957 152
34.57968 166
34.59979 193
34.61991 191
34.64002 165
34.66013 175
34.68025 184
34.70036 161
34.72047 182
34.74059 172
34.7607 202
34.78082 167
34.80093 181
34.82104 176
34.84116 190
34.86127 181
34.88138 183
34.9015 178
34.92161 173
34.94173 194
34.96184 173
34.98195 209
35.00207 180
35.02218 173
35.04229 163
35.06241 157
35.08252 189
35.10264 180
35.12275 181
35.14286 158
35.16298 162
35.18309 159
35.2032 186
35.22332 166
35.24343 173
35.26354 163
35.28366 189
35.30377 184
35.32389 192
35.344 149
35.36411 208
35.38423 187
35.40434 186
35.42445 172
35.44457 199
35.46468 188
35.4848 203
35.50491 183
35.52502 189
35.54514 186
35.56525 198
35.58536 192
35.60548 181
35.62559 180
35.64571 183
35.66582 182
35.68593 171
35.70605 165
35.72616 178
35.74627 180
35.76639 156
35.7865 189
35.80661 151
35.82673 163
35.84684 190
35.86696 191
35.88707 186
35.90718 171
35.9273 189
35.94741 183
35.96752 181
35.98764 180
36.00775 235
36.02787 184
36.04798 205
36.06809 195
36.08821 196
36.10832 206
36.12843 201
36.14855 220
36.16866 244
36.18878 233
36.20889 281
36.229 252
36.24912 322
36.26923 324
36.28934 378
36.30946 406
36.32957 522
36.34968 645
36.3698 773
36.38991 941
36.41003 1203
36.43014 1590
36.45025 1914
36.47037 2248
36.49048 2446
36.51059 2597
36.53071 2501
36.55082 2205
36.57094 1837
36.59105 1477
36.61116 1280
36.63128 1089
36.65139 807
36.6715 606
36.69162 387
36.71173 305
36.73184 288
36.75196 261
36.77207 244
36.79219 253
36.8123 212
36.83241 204
36.85253 204
36.87264 187
36.89275 226
36.91287 207
36.93298 184
36.9531 197
36.97321 179
36.99332 202
37.01344 173
37.03355 162
37.05366 162
37.07378 146
37.09389 180
37.11401 168
37.13412 175
37.15423 152
37.17435 164
37.19446 153
37.21457 166
37.23469 168
37.2548 153
37.27491 138
37.29503 182
37.31514 198
37.33526 181
37.35537 176
37.37548 153
37.3956 172
37.41571 176
37.43582 165
37.45594 149
37.47605 170
37.49617 174
37.51628 168
37.53639 173
37.55651 171
37.57662 165
37.59673 164
37.61685 153
37.63696 149
37.65708 157
37.67719 163
37.6973 161
37.71742 158
37.73753 168
37.75764 150
37.77776 167
37.79787 162
37.81798 157
37.8381 171
37.85821 159
37.87833 150
37.89844 158
37.91855 167
37.93867 163
37.95878 149
37.97889 156
37.99901 156
38.01912 158
38.03924 164
38.05935 146
38.07946 156
38.09958 152
38.11969 163
38.1398 162
38.15992 160
38.18003 172
38.20015 165
38.22026 182
38.24037 166
38.26049 159
38.2806 145
38.30071 159
38.32083 168
38.34094 157
38.36105 148
38.38117 156
38.40128 184
38.4214 137
38.44151 168
38.46162 161
38.48174 180
38.50185 164
38.52196 154
38.54208 155
38.56219 163
38.58231 185
38.60242 136
38.62253 149
38.64265 189
38.66276 162
38.68287 194
38.70299 148
38.7231 159
38.74321 179
38.76333 164
38.78344 183
38.80356 164
38.82367 184
38.84378 155
38.8639 167
38.88401 184
38.90412 190
38.92424 168
38.94435 185
38.96447 187
38.98458 198
39.00469 191
39.02481 210
39.04492 186
39.06503 245
39.08515 227
39.10526 239
39.12538 226
39.14549 256
39.1656 276
39.18572 326
39.20583 378
39.22594 388
39.24606 496
39.26617 555
39.28628 738
39.3064 864
39.32651 1100
39.34663 1414
39.36674 1649
39.38685 2022
39.40697 2180
39.42708 2379
39.44719 2393
39.46731 2138
39.48742 1794
39.50754 1498
39.52765 1331
39.54776 1181
39.56788 958
39.58799 676
39.6081 443
39.62822 371
39.64833 315
39.66845 249
39.68856 288
39.70867 236
39.72879 232
39.7489 240
39.76901 236
39.78913 210
39.80924 228
39.82935 246
39.84947 201
39.86958 199
39.8897 224
39.90981 199
39.92992 217
39.95004 208
39.97015 231
39.99026 224
40.01038 248
40.03049 269
40.05061 282
40.07072 327
40.09083 363
40.11095 442
40.13106 584
40.15117 646
40.17129 777
40.1914 970
40.21152 1008
40.23163 1248
40.25174 1281
40.27186 1168
40.29197 1153
40.31208 924
40.3322 736
40.35231 681
40.37242 653
40.39254 574
40.41265 392
40.43277 331
40.45288 256
40.47299 256
40.49311 200
40.51322 192
40.53333 198
40.55345 184
40.57356 176
40.59368 197
40.61379 184
40.6339 164
40.65402 163
40.67413 143
40.69424 179
40.71436 156
40.73447 155
40.75458 163
40.7747 142
40.79481 163
40.81493 157
40.83504 161
40.85515 162
40.87527 169
40.89538 131
40.91549 172
40.93561 179
40.95572 143
40.97584 171
40.99595 169
41.01606 155
41.03618 173
41.05629 175
41.0764 192
41.09652 166
41.11663 159
41.13675 137
41.15686 168
41.17697 150
41.19709 176
41.2172 179
41.23731 183
41.25743 165
41.27754 156
41.29765 178
41.31777 167
41.33788 167
41.358 188
41.37811 177
41.39822 156
41.41834 169
41.43845 166
41.45856 161
41.47868 151
41.49879 135
41.51891 166
41.53902 147
41.55913 163
41.57925 169
41.59936 160
41.61947 154
41.63959 204
41.6597 175
41.67982 186
41.69993 192
41.72004 157
41.74016 199
41.76027 192
41.78038 185
41.8005 196
41.82061 185
41.84072 186
41.86084 181
41.88095 177
41.90107 195
41.92118 194
41.94129 163
41.96141 211
41.98152 179
42.00163 216
42.02175 198
42.04186 214
42.06198 229
42.08209 208
42.1022 208
42.12232 239
42.14243 262
42.16254 246
42.18266 293
42.20277 367
42.22289 396
42.243 498
42.26311 592
42.28323 669
42.30334 866
42.32345 1027
42.34357 1221
42.36368 1427
42.38379 1645
42.40391 1768
42.42402 1696
42.44414 1543
42.46425 1373
42.48436 1156
42.50448 1020
42.52459 940
42.5447 810
42.56482 676
42.58493 435
42.60505 331
42.62516 260
42.64527 241
42.66539 237
42.6855 209
42.70561 191
42.72573 199
42.74584 204
42.76595 190
42.78607 189
42.80618 177
42.8263 184
42.84641 179
42.86652 150
42.88664 188
42.90675 168
42.92686 163
42.94698 172
42.96709 167
42.98721 155
43.00732 138
43.02743 153
43.04755 153
43.06766 158
43.08777 140
43.10789 143
43.128 171
43.14812 153
43.16823 177
43.18834 149
43.20846 159
43.22857 138
43.24868 156
43.2688 145
43.28891 145
43.30902 154
43.32914 124
43.34925 159
43.36937 151
43.38948 165
43.40959 128
43.42971 148
43.44982 138
43.46993 137
43.49005 135
43.51016 155
43.53028 128
43.55039 165
43.5705 128
43.59062 122
43.61073 168
43.63084 161
43.65096 153
43.67107 151
43.69119 138
43.7113 144
43.73141 159
43.75153 141
43.77164 169
43.79175 154
43.81187 161
43.83198 142
43.85209 161
43.87221 132
43.89232 129
43.91244 137
43.93255 140
43.95266 139
43.97278 171
43.99289 148
44.013 147
44.03312 142
44.05323 149
44.07335 149
44.09346 152
44.11357 131
44.13369 154
44.1538 147
44.17391 123
44.19403 138
44.21414 143
44.23426 147
44.25437 148
44.27448 125
44.2946 147
44.31471 179
44.33482 132
44.35494 129
44.37505 144
44.39516 138
44.41528 147
44.43539 127
44.45551 145
44.47562 177
44.49573 147
44.51585 147
44.53596 143
44.55607 142
44.57619 138
44.5963 159
44.61642 140
44.63653 143
44.65664 148
44.67676 139
44.69687 144
44.71698 157
44.7371 152
44.75721 153
44.77732 143
44.79744 145
44.81755 141
44.83767 163
44.85778 145
44.87789 158
44.89801 144
44.91812 175
44.93823 163
44.95835 157
44.97846 167
44.99858 134
45.01869 175
45.0388 164
45.05892 142
45.07903 143
45.09914 158
45.11926 155
45.13937 164
45.15949 151
45.1796 149
45.19971 164
45.21983 146
45.23994 174
45.26005 175
45.28017 171
45.30028 153
45.32039 170
45.34051 178
45.36062 185
45.38074 205
45.40085 190
45.42096 183
45.44108 202
45.46119 215
45.4813 216
45.50142 227
45.52153 258
45.54165 298
45.56176 287
45.58187 364
45.60199 409
45.6221 517
45.64221 580
45.66233 689
45.68244 822
45.70256 945
45.72267 1049
45.74278 1131
45.7629 1125
45.78301 1066
45.80312 945
45.82324 795
45.84335 772
45.86346 624
45.88358 621
45.90369 562
45.92381 420
45.94392 312
45.96403 246
45.98415 234
46.00426 190
46.02437 184
46.04449 173
46.0646 164
46.08472 171
46.10483 157
46.12494 161
46.14506 157
46.16517 154
46.18528 129
46.2054 137
46.22551 140
46.24563 152
46.26574 133
46.28585 161
46.30597 153
46.32608 151
46.34619 137
46.36631 152
46.38642 123
46.40653 147
46.42665 136
46.44676 147
46.46688 147
46.48699 135
46.5071 138
46.52722 139
46.54733 125
46.56744 146
46.58756 139
46.60767 137
46.62779 119
46.6479 124
46.66801 142
46.68813 127
46.70824 114
46.72835 140
46.74847 132
46.76858 125
46.78869 132
46.80881 137
46.82892 154
46.84904 150
46.86915 154
46.88926 121
46.90938 115
46.92949 144
46.9496 130
46.96972 145
46.98983 146
47.00995 123
47.03006 129
47.05017 130
47.07029 125
47.0904 151
47.11051 156
47.13063 131
47.15074 154
47.17086 116
47.19097 163
47.21108 143
47.2312 135
47.25131 159
47.27142 140
47.29154 117
47.31165 133
47.33176 152
47.35188 129
47.37199 131
47.39211 154
47.41222 145
47.43233 151
47.45245 138
47.47256 164
47.49267 157
47.51279 147
47.5329 159
47.55302 141
47.57313 137
47.59324 132
47.61336 132
47.63347 127
47.65358 142
47.6737 134
47.69381 136
47.71393 146
47.73404 126
47.75415 122
47.77427 128
47.79438 134
47.81449 107
47.83461 130
47.85472 116
47.87483 135
47.89495 138
47.91506 140
47.93518 125
47.95529 131
47.9754 122
47.99552 140
48.01563 128
48.03574 136
48.05586 124
48.07597 122
48.09609 142
48.1162 126
48.13631 134
48.15643 124
48.17654 151
48.19665 117
48.21677 145
48.23688 124
48.257 136
48.27711 141
48.29722 147
48.31734 145
48.33745 143
48.35756 138
48.37768 145
48.39779 135
48.4179 144
48.43802 135
48.45813 130
48.47825 140
48.49836 156
48.51847 135
48.53859 140
48.5587 147
48.57881 142
48.59893 153
48.61904 174
48.63916 144
48.65927 141
48.67938 151
48.6995 148
48.71961 134
48.73972 134
48.75984 152
48.77995 149
48.80006 153
48.82018 139
48.84029 156
48.86041 165
48.88052 155
48.90063 146
48.92075 155
48.94086 133
48.96097 152
48.98109 162
49.0012 159
49.02132 142
49.04143 165
49.06154 153
49.08166 152
49.10177 164
49.12188 160
49.142 164
49.16211 156
49.18223 138
49.20234 153
49.22245 173
49.24257 152
49.26268 178
49.28279 161
49.30291 167
49.32302 164
49.34313 168
49.36325 167
49.38336 166
49.40348 180
49.42359 158
49.4437 179
49.46382 167
49.48393 170
49.50404 176
49.52416 183
49.54427 177
49.56439 207
49.5845 168
49.60461 191
49.62473 206
49.64484 236
49.66495 238
49.68507 261
49.70518 297
49.7253 283
49.74541 307
49.76552 362
49.78564 361
49.80575 400
49.82586 416
49.84598 499
49.86609 559
49.8862 698
49.90632 849
49.92643 1038
49.94655 1242
49.96666 1449
49.98677 1805
50.00689 2132
50.027 2685
50.04711 3194
50.06723 3535
50.08734 3791
50.10746 3667
50.12757 3500
50.14768 3056
50.1678 2450
50.18791 2122
50.20802 2030
50.22814 1892
50.24825 1802
50.26837 1470
50.28848 1083
50.30859 698
50.32871 499
50.34882 421
50.36893 335
50.38905 342
50.40916 317
50.42927 298
50.44939 291
50.4695 266
50.48962 303
50.50973 276
50.52984 285
50.54996 267
50.57007 304
50.59018 268
50.6103 290
50.63041 240
50.65053 257
50.67064 240
50.69075 265
50.71087 209
50.73098 240
50.75109 176
50.77121 204
50.79132 162
50.81143 178
50.83155 163
50.85166 167
50.87178 176
50.89189 140
50.912 161
50.93212 172
50.95223 142
50.97234 124
50.99246 145
51.01257 148
51.03269 149
51.0528 138
51.07291 147
51.09303 136
51.11314 154
51.13325 138
51.15337 142
51.17348 141
51.1936 124
51.21371 136
51.23382 139
51.25394 122
51.27405 130
51.29416 131
51.31428 123
51.33439 112
51.3545 142
51.37462 129
51.39473 140
51.41485 135
51.43496 139
51.45507 114
51.47519 108
51.4953 135
51.51541 142
51.53553 151
51.55564 121
51.57576 137
51.59587 130
51.61598 131
51.6361 128
51.65621 119
51.67632 146
51.69644 144
51.71655 126
51.73667 120
51.75678 129
51.77689 142
51.79701 124
51.81712 134
51.83723 124
51.85735 139
51.87746 129
51.89757 136
51.91769 120
51.9378 124
51.95792 144
51.97803 142
51.99814 118
52.01826 131
52.03837 128
52.05848 136
52.0786 130
52.09871 141
52.11883 137
52.13894 126
52.15905 120
52.17917 149
52.19928 141
52.21939 133
52.23951 112
52.25962 134
52.27974 116
52.29985 124
52.31996 125
52.34008 108
52.36019 116
52.3803 116
52.40042 165
52.42053 131
52.44064 136
52.46076 122
52.48087 138
52.50099 118
52.5211 120
52.54121 131
52.56133 135
52.58144 143
52.60155 119
52.62167 125
52.64178 133
52.6619 118
52.68201 125
52.70212 125
52.72224 126
52.74235 122
52.76246 123
52.78258 124
52.80269 161
52.8228 127
52.84292 145
52.86303 141
52.88315 126
52.90326 136
52.92337 118
52.94349 140
52.9636 132
52.98371 135
53.00383 127
53.02394 143
53.04406 143
53.06417 143
53.08428 145
53.1044 103
53.12451 125
53.14462 134
53.16474 147
53.18485 126
53.20497 143
53.22508 133
53.24519 135
53.26531 167
53.28542 147
53.30553 130
53.32565 117
53.34576 163
53.36587 160
53.38599 145
53.4061 145
53.42622 136
53.44633 173
53.46644 166
53.48656 139
53.50667 144
53.52678 144
53.5469 124
53.56701 137
53.58713 153
53.60724 126
53.62735 181
53.64747 122
53.66758 154
53.68769 145
53.70781 125
53.72792 137
53.74804 131
53.76815 129
53.78826 135
53.80838 115
53.82849 142
53.8486 137
53.86872 128
53.88883 135
53.90894 144
53.92906 156
53.94917 147
53.96929 144
53.9894 127
54.00951 141
54.02963 135
54.04974 151
54.06985 142
54.08997 151
54.11008 134
54.1302 148
54.15031 155
54.17042 133
54.19054 143
54.21065 125
54.23076 139
54.25088 166
54.27099 178
54.29111 161
54.31122 148
54.33133 158
54.35145 155
54.37156 190
54.39167 156
54.41179 181
54.4319 168
54.45201 188
54.47213 200
54.49224 234
54.51236 212
54.53247 224
54.55258 216
54.5727 211
54.59281 262
54.61292 310
54.63304 330
54.65315 372
54.67327 478
54.69338 540
54.71349 607
54.73361 740
54.75372 826
54.77383 902
54.79395 1083
54.81406 1144
54.83417 1215
54.85429 1079
54.8744 980
54.89452 833
54.91463 743
54.93474 698
54.95486 693
54.97497 696
54.99508 655
55.0152 574
55.03531 486
55.05543 352
55.07554 321
55.09565 311
55.11577 315
55.13588 309
55.15599 358
55.17611 387
55.19622 422
55.21634 490
55.23645 517
55.25656 576
55.27668 602
55.29679 602
55.3169 529
55.33702 454
55.35713 411
55.37724 351
55.39736 398
55.41747 388
55.43759 355
55.4577 311
55.47781 282
55.49793 259
55.51804 196
55.53815 180
55.55827 161
55.57838 158
55.5985 200
55.61861 184
55.63872 148
55.65884 143
55.67895 134
55.69906 135
55.71918 124
55.73929 140
55.75941 155
55.77952 132
55.79963 141
55.81975 144
55.83986 137
55.85997 133
55.88009 140
55.9002 146
55.92031 112
55.94043 142
55.96054 116
55.98066 116
56.00077 138
56.02088 148
56.041 131
56.06111 127
56.08122 115
56.10134 127
56.12145 135
56.14157 113
56.16168 138
56.18179 132
56.20191 132
56.22202 116
56.24213 113
56.26225 136
56.28236 138
56.30248 142
56.32259 130
56.3427 123
56.36282 151
56.38293 121
56.40304 116
56.42316 137
56.44327 106
56.46338 142
56.4835 115
56.50361 124
56.52373 117
56.54384 121
56.56395 121
56.58407 124
56.60418 130
56.62429 130
56.64441 139
56.66452 133
56.68464 137
56.70475 121
56.72486 130
56.74498 145
56.76509 125
56.7852 140
56.80532 119
56.82543 136
56.84554 118
56.86566 126
56.88577 139
56.90589 128
56.926 112
56.94611 130
56.96623 133
56.98634 136
57.00645 116
57.02657 140
57.04668 140
57.0668 159
57.08691 158
57.10702 166
57.12714 189
57.14725 182
57.16736 184
57.18748 196
57.20759 182
57.22771 168
57.24782 151
57.26793 147
57.28805 175
57.30816 157
57.32827 139
57.34839 149
57.3685 158
57.38861 137
57.40873 131
57.42884 131
57.44896 133
57.46907 129
57.48918 133
57.5093 135
57.52941 106
57.54952 136
57.56964 127
57.58975 121
57.60987 130
57.62998 126
57.65009 134
57.67021 131
57.69032 136
57.71043 137
57.73055 131
57.75066 117
57.77078 119
57.79089 134
57.811 125
57.83112 133
57.85123 94
57.87134 138
57.89146 140
57.91157 123
57.93168 131
57.9518 138
57.97191 133
57.99203 123
58.01214 121
58.03225 162
58.05237 128
58.07248 135
58.09259 116
58.11271 132
58.13282 122
58.15294 125
58.17305 134
58.19316 126
58.21328 124
58.23339 139
58.2535 134
58.27362 108
58.29373 135
58.31385 123
58.33396 121
58.35407 123
58.37419 139
58.3943 150
58.41441 120
58.43453 130
58.45464 139
58.47475 129
58.49487 145
58.51498 132
58.5351 129
58.55521 136
58.57532 136
58.59544 122
58.61555 145
58.63566 153
58.65578 163
58.67589 133
58.69601 153
58.71612 176
58.73623 125
58.75635 149
58.77646 138
58.79657 142
58.81669 135
58.8368 120
58.85691 117
58.87703 142
58.89714 123
58.91726 133
58.93737 131
58.95748 139
58.9776 139
58.99771 110
59.01782 149
59.03794 133
59.05805 151
59.07817 139
59.09828 137
59.11839 136
59.13851 164
59.15862 135
59.17873 137
59.19885 149
59.21896 159
59.23908 161
59.25919 134
59.2793 162
59.29942 155
59.31953 170
59.33964 182
59.35976 174
59.37987 170
59.39998 179
59.4201 164
59.44021 196
59.46033 182
59.48044 198
59.50055 227
59.52067 231
59.54078 264
59.56089 273
59.58101 277
59.60112 283
59.62124 359
59.64135 371
59.66146 439
59.68158 467
59.70169 546
59.7218 675
59.74192 817
59.76203 908
59.78215 1103
59.80226 1329
59.82237 1589
59.84249 1933
59.8626 2059
59.88271 2390
59.90283 2561
59.92294 2424
59.94305 2252
59.96317 1914
59.98328 1557
60.0034 1331
60.02351 1339
60.04362 1268
60.06374 1299
60.08385 1199
60.10396 1170
60.12408 930
60.14419 661
60.16431 471
60.18442 344
60.20453 290
60.22465 246
60.24476 252
60.26487 208
60.28499 208
60.3051 213
60.32522 210
60.34533 179
60.36544 176
60.38556 181
60.40567 153
60.42578 172
60.4459 167
60.46601 168
60.48612 149
60.50624 146
60.52635 152
60.54647 152
60.56658 162
60.58669 131
60.60681 135
60.62692 130
60.64703 162
60.66715 143
60.68726 147
60.70738 146
60.72749 146
60.7476 145
60.76772 134
60.78783 171
60.80794 144
60.82806 150
60.84817 145
60.86828 135
60.8884 129
60.90851 158
60.92863 148
60.94874 126
60.96885 102
60.98897 159
61.00908 155
61.02919 144
61.04931 138
61.06942 153
61.08954 151
61.10965 137
61.12976 128
61.14988 132
61.16999 142
61.1901 136
61.21022 115
61.23033 134
61.25045 139
61.27056 146
61.29067 139
61.31079 135
61.3309 154
61.35101 117
61.37113 128
61.39124 139
61.41135 128
61.43147 123
61.45158 165
61.4717 149
61.49181 136
61.51192 125
61.53204 126
61.55215 138
61.57226 159
61.59238 150
61.61249 147
61.63261 131
61.65272 143
61.67283 118
61.69295 152
61.71306 123
61.73317 137
61.75329 125
61.7734 118
61.79352 132
61.81363 128
61.83374 128
61.85386 155
61.87397 146
61.89408 130
61.9142 133
61.93431 122
61.95442 130
61.97454 124
61.99465 130
62.01477 156
62.03488 133
62.05499 137
62.07511 139
62.09522 138
62.11533 151
62.13545 127
62.15556 139
62.17568 139
62.19579 129
62.2159 148
62.23602 133
62.25613 142
62.27624 117
62.29636 140
62.31647 122
62.33659 105
62.3567 146
62.37681 154
62.39693 121
62.41704 115
62.43715 128
62.45727 133
62.47738 143
62.49749 131
62.51761 170
62.53772 143
62.55784 144
62.57795 151
62.59806 124
62.61818 124
62.63829 115
62.6584 149
62.67852 144
62.69863 108
62.71875 132
62.73886 131
62.75897 145
62.77909 129
62.7992 131
62.81931 130
62.83943 143
62.85954 121
62.87965 142
62.89977 119
62.91988 130
62.94 130
62.96011 122
62.98022 132
63.00034 122
63.02045 133
63.04056 126
63.06068 114
63.08079 117
63.10091 131
63.12102 138
63.14113 132
63.16125 135
63.18136 135
63.20147 135
63.22159 126
63.2417 127
63.26182 119
63.28193 141
63.30204 121
63.32216 139
63.34227 120
63.36238 132
63.3825 114
63.40261 142
63.42272 141
63.44284 120
63.46295 115
63.48307 125
63.50318 120
63.52329 134
63.54341 113
63.56352 125
63.58363 160
63.60375 158
63.62386 141
63.64398 159
63.66409 180
63.6842 141
63.70432 152
63.72443 196
63.74454 183
63.76466 201
63.78477 181
63.80489 260
63.825 258
63.84511 274
63.86523 291
63.88534 351
63.90545 395
63.92557 455
63.94568 508
63.96579 587
63.98591 572
64.00602 545
64.02614 468
64.04625 414
64.06636 366
64.08648 346
64.10659 305
64.1267 306
64.14682 378
64.16693 318
64.18705 286
64.20716 306
64.22727 219
64.24739 196
64.2675 159
64.28761 162
64.30773 147
64.32784 152
64.34796 139
64.36807 121
64.38818 121
64.4083 143
64.42841 139
64.44852 128
64.46864 115
64.48875 123
64.50886 119
64.52898 126
64.54909 112
64.56921 114
64.58932 128
64.60943 116
64.62955 125
64.64966 129
64.66977 156
64.68989 115
64.71 95
64.73012 124
64.75023 124
64.77034 120
64.79046 112
64.81057 116
64.83068 129
64.8508 141
64.87091 107
64.89102 125
64.91114 120
64.93125 119
64.95137 120
64.97148 133
64.99159 125
65.01171 116
65.03182 141
65.05193 116
65.07205 115
65.09216 137
65.11228 130
65.13239 131
65.1525 127
65.17262 136
65.19273 114
65.21284 147
65.23296 145
65.25307 128
65.27319 107
65.2933 130
65.31341 121
65.33353 137
65.35364 133
65.37375 158
65.39387 119
65.41398 149
65.43409 144
65.45421 140
65.47432 158
65.49444 143
65.51455 141
65.53466 163
65.55478 149
65.57489 146
65.595 177
65.61512 172
65.63523 182
65.65535 200
65.67546 217
65.69557 214
65.71569 231
65.7358 244
65.75591 219
65.77603 213
65.79614 186
65.81626 195
65.83637 175
65.85648 183
65.8766 184
65.89671 186
65.91682 193
65.93694 193
65.95705 159
65.97716 168
65.99728 151
66.01739 149
66.03751 161
66.05762 127
66.07773 153
66.09785 122
66.11796 130
66.13807 160
66.15819 113
66.1783 137
66.19842 138
66.21853 137
66.23864 144
66.25876 138
66.27887 136
66.29898 130
66.3191 135
66.33921 157
66.35933 130
66.37944 136
66.39955 139
66.41967 147
66.43978 148
66.45989 129
66.48001 134
66.50012 144
66.52023 128
66.54035 133
66.56046 146
66.58058 156
66.60069 129
66.6208 129
66.64092 121
66.66103 144
66.68114 140
66.70126 141
66.72137 127
66.74149 146
66.7616 141
66.78171 128
66.80183 162
66.82194 159
66.84205 163
66.86217 142
66.88228 142
66.90239 151
66.92251 142
66.94262 156
66.96274 144
66.98285 168
67.00296 157
67.02308 162
67.04319 155
67.0633 161
67.08342 160
67.10353 164
67.12365 189
67.14376 177
67.16387 163
67.18399 166
67.2041 195
67.22421 188
67.24433 206
67.26444 178
67.28456 243
67.30467 207
67.32478 237
67.3449 257
67.36501 208
67.38512 267
67.40524 297
67.42535 313
67.44546 315
67.46558 404
67.48569 410
67.50581 485
67.52592 572
67.54603 638
67.56615 740
67.58626 888
67.60637 1048
67.62649 1231
67.6466 1362
67.66672 1523
67.68683 1577
67.70694 1538
67.72706 1392
67.74717 1266
67.76728 1045
67.7874 915
67.80751 953
67.82763 1013
67.84774 1065
67.86785 1132
67.88797 1152
67.90808 1230
67.92819 1120
67.94831 1196
67.96842 1188
67.98853 1279
68.00865 1416
68.02876 1572
68.04888 1851
68.06899 1991
68.0891 2138
68.10922 2131
68.12933 2024
68.14944 1809
68.16956 1653
68.18967 1629
68.20979 1771
68.2299 1806
68.25001 1932
68.27013 1855
68.29024 1781
68.31035 1587
68.33047 1304
68.35058 1077
68.3707 912
68.39081 779
68.41092 762
68.43104 727
68.45115 743
68.47126 673
68.49138 593
68.51149 466
68.5316 409
68.55172 326
68.57183 256
68.59195 245
68.61206 209
68.63217 205
68.65229 208
68.6724 194
68.69251 192
68.71263 201
68.73274 198
68.75286 188
68.77297 182
68.79308 166
68.8132 158
68.83331 147
68.85342 160
68.87354 163
68.89365 145
68.91376 154
68.93388 172
68.95399 164
68.97411 143
68.99422 156
69.01433 137
69.03445 146
69.05456 141
69.07467 157
69.09479 139
69.1149 155
69.13502 141
69.15513 160
69.17524 141
69.19536 146
69.21547 171
69.23558 131
69.2557 141
69.27581 141
69.29593 133
69.31604 146
69.33615 147
69.35627 145
69.37638 133
69.39649 123
69.41661 124
69.43672 133
69.45683 107
69.47695 140
69.49706 119
69.51718 159
69.53729 131
69.5574 126
69.57752 132
69.59763 117
69.61774 133
69.63786 150
69.65797 118
69.67809 143
69.6982 135
69.71831 127
69.73843 131
69.75854 132
69.77865 117
69.79877 143
69.81888 135
69.839 135
69.85911 133
69.87922 140
69.89934 143
69.91945 129
69.93956 102
69.95968 118
69.97979 138
69.9999 136
70.02002 136
70.04013 133
70.06025 122
70.08036 122
70.10047 117
70.12059 102
70.1407 133
70.16081 125
70.18093 144
70.20104 123
70.22116 125
70.24127 136
70.26138 112
70.2815 137
70.30161 137
70.32172 112
70.34184 117
70.36195 135
70.38207 128
70.40218 121
70.42229 105
70.44241 108
70.46252 115
70.48263 127
70.50275 119
70.52286 131
70.54297 108
70.56309 127
70.5832 125
70.60332 138
70.62343 133
70.64354 111
70.66366 121
70.68377 134
70.70388 136
70.724 124
70.74411 118
70.76423 122
70.78434 119
70.80445 121
70.82457 103
70.84468 125
70.86479 120
70.88491 112
70.90502 110
70.92513 129
70.94525 131
70.96536 129
70.98548 116
71.00559 104
71.0257 119
71.04582 128
71.06593 114
71.08604 135
71.10616 124
71.12627 130
71.14639 112
71.1665 145
71.18661 116
71.20673 103
71.22684 116
71.24695 118
71.26707 132
71.28718 125
71.3073 126
71.32741 102
71.34752 123
71.36764 107
71.38775 122
71.40786 122
71.42798 110
71.44809 121
71.4682 121
71.48832 115
71.50843 128
71.52855 138
71.54866 125
71.56877 112
71.58889 114
71.609 105
71.62911 115
71.64923 115
71.66934 110
71.68946 127
71.70957 115
71.72968 124
71.7498 121
71.76991 124
71.79002 119
71.81014 119
71.83025 132
71.85037 141
71.87048 109
71.89059 120
71.91071 121
71.93082 137
71.95093 113
71.97105 134
71.99116 125
72.01127 133
72.03139 106
72.0515 121
72.07162 128
72.09173 115
72.11184 106
72.13196 116
72.15207 131
72.17218 140
72.1923 129
72.21241 112
72.23253 122
72.25264 132
72.27275 133
72.29287 135
72.31298 139
72.33309 146
72.35321 124
72.37332 122
72.39344 150
72.41355 114
72.43366 128
72.45378 112
72.47389 135
72.494 123
72.51412 116
72.53423 139
72.55434 105
72.57446 108
72.59457 141
72.61469 145
72.6348 130
72.65491 116
72.67503 134
72.69514 130
72.71525 130
72.73537 128
72.75548 140
72.7756 112
72.79571 126
72.81582 134
72.83594 131
72.85605 117
72.87616 129
72.89628 119
72.91639 141
72.9365 137
72.95662 136
72.97673 147
72.99685 128
73.01696 139
73.03707 158
73.05719 157
73.0773 149
73.09741 166
73.11753 175
73.13764 160
73.15776 147
73.17787 189
73.19798 198
73.2181 247
73.23821 244
73.25832 266
73.27844 309
73.29855 346
73.31867 410
73.33878 453
73.35889 480
73.37901 567
73.39912 561
73.41923 631
73.43935 579
73.45946 512
73.47957 420
73.49969 356
73.5198 278
73.53992 308
73.56003 314
73.58014 352
73.60026 385
73.62037 376
73.64048 377
73.6606 313
73.68071 261
73.70083 238
73.72094 220
73.74105 184
73.76117 152
73.78128 128
73.80139 123
73.82151 141
73.84162 151
73.86174 149
73.88185 142
73.90196 134
73.92208 109
73.94219 134
73.9623 113
73.98242 123
74.00253 127
74.02264 125
74.04276 140
74.06287 121
74.08299 119
74.1031 111
74.12321 122
74.14333 114
74.16344 127
74.18355 100
74.20367 124
74.22378 96
74.2439 138
74.26401 117
74.28412 125
74.30424 119
74.32435 119
74.34446 121
74.36458 122
74.38469 107
74.40481 118
74.42492 126
74.44503 143
74.46515 120
74.48526 115
74.50537 137
74.52549 115
74.5456 116
74.56571 122
74.58583 117
74.60594 120
74.62606 109
74.64617 123
74.66628 124
74.6864 129
74.70651 140
74.72662 119
74.74674 120
74.76685 128
74.78697 125
74.80708 128
74.82719 113
74.84731 143
74.86742 107
74.88753 131
74.90765 125
74.92776 139
74.94787 132
74.96799 134
74.9881 128
75.00822 136
