3.00117 20630
3.02128 20292
3.0414 19742
3.06151 19117
3.08162 18751
3.10174 18087
3.12185 17568
3.14197 17257
3.16208 16827
3.18219 16484
3.20231 15476
3.22242 15247
3.24253 14829
3.26265 14479
3.28276 13982
3.30288 13655
3.32299 13096
3.3431 12439
3.36322 12419
3.38333 12137
3.40344 11807
3.42356 11380
3.44367 10776
3.46379 10498
3.4839 10186
3.50401 9821
3.52413 9555
3.54424 9106
3.56435 8794
3.58447 8848
3.60458 8298
3.62469 8255
3.64481 7419
3.66492 7432
3.68504 7224
3.70515 6936
3.72526 6700
3.74538 6284
3.76549 6130
3.7856 6015
3.80572 5627
3.82583 5504
3.84595 5370
3.86606 5213
3.88617 4930
3.90629 4767
3.9264 4366
3.94651 4212
3.96663 4336
3.98674 4175
4.00686 3843
4.02697 3767
4.04708 3479
4.0672 3476
4.08731 3432
4.10742 3178
4.12754 3104
4.14765 3036
4.16776 2792
4.18788 2915
4.20799 2648
4.22811 2641
4.24822 2488
4.26833 2529
4.28845 2550
4.30856 2256
4.32867 2412
4.34879 2217
4.3689 2304
4.38902 2330
4.40913 2085
4.42924 2086
4.44936 2044
4.46947 2076
4.48958 2087
4.5097 1902
4.52981 1884
4.54992 1909
4.57004 1851
4.59015 1965
4.61027 1792
4.63038 1771
4.65049 1720
4.67061 1723
4.69072 1754
4.71083 1558
4.73095 1651
4.75106 1690
4.77118 1706
4.79129 1611
4.8114 1557
4.83152 1588
4.85163 1552
4.87174 1572
4.89186 1584
4.91197 1468
4.93209 1522
4.9522 1527
4.97231 1477
4.99243 1525
5.01254 1402
5.03265 1444
5.05277 1481
5.07288 1330
5.09299 1516
5.11311 1339
5.13322 1416
5.15334 1332
5.17345 1445
5.19356 1372
5.21368 1398
5.23379 1328
5.2539 1412
5.27402 1378
5.29413 1285
5.31425 1380
5.33436 1259
5.35447 1395
5.37459 1359
5.3947 1351
5.41481 1315
5.43493 1292
5.45504 1356
5.47516 1299
5.49527 1295
5.51538 1265
5.5355 1380
5.55561 1301
5.57572 1295
5.59584 1367
5.61595 1344
5.63606 1381
5.65618 1327
5.67629 1311
5.69641 1335
5.71652 1328
5.73663 1260
5.75675 1353
5.77686 1375
5.79697 1353
5.81709 1362
5.8372 1342
5.85732 1416
5.87743 1394
5.89754 1358
5.91766 1339
5.93777 1274
5.95788 1337
5.978 1320
5.99811 1393
6.01823 1316
6.03834 1246
6.05845 1240
6.07857 1282
6.09868 1309
6.11879 1173
6.13891 1244
6.15902 1308
6.17913 1278
6.19925 1155
6.21936 1243
6.23948 1218
6.25959 1174
6.2797 1202
6.29982 1131
6.31993 1119
6.34004 1098
6.36016 1033
6.38027 1052
6.40039 1108
6.4205 1055
6.44061 1042
6.46073 1015
6.48084 999
6.50095 1042
6.52107 994
6.54118 964
6.56129 978
6.58141 946
6.60152 985
6.62164 913
6.64175 894
6.66186 850
6.68198 866
6.70209 850
6.7222 955
6.74232 882
6.76243 807
6.78255 814
6.80266 835
6.82277 880
6.84289 825
6.863 866
6.88311 792
6.90323 791
6.92334 818
6.94346 789
6.96357 788
6.98368 706
7.0038 769
7.02391 746
7.04402 764
7.06414 761
7.08425 763
7.10436 689
7.12448 703
7.14459 711
7.16471 686
7.18482 718
7.20493 698
7.22505 724
7.24516 692
7.26527 677
7.28539 743
7.3055 707
7.32562 713
7.34573 646
7.36584 714
7.38596 687
7.40607 690
7.42618 665
7.4463 623
7.46641 684
7.48653 620
7.50664 644
7.52675 677
7.54687 634
7.56698 673
7.58709 634
7.60721 729
7.62732 686
7.64743 612
7.66755 663
7.68766 682
7.70778 691
7.72789 602
7.748 603
7.76812 663
7.78823 644
7.80834 597
7.82846 606
7.84857 594
7.86869 580
7.8888 597
7.90891 646
7.92903 629
7.94914 610
7.96925 639
7.98937 677
8.00948 594
8.0296 585
8.04971 570
8.06982 579
8.08994 566
8.11005 605
8.13016 604
8.15028 545
8.17039 609
8.1905 601
8.21062 571
8.23073 597
8.25085 551
8.27096 574
8.29107 581
8.31119 524
8.3313 561
8.35141 587
8.37153 552
8.39164 598
8.41176 579
8.43187 533
8.45198 607
8.4721 552
8.49221 594
8.51232 602
8.53244 574
8.55255 585
8.57266 582
8.59278 560
8.61289 546
8.63301 572
8.65312 589
8.67323 569
8.69335 549
8.71346 558
8.73357 568
8.75369 512
8.7738 561
8.79392 552
8.81403 564
8.83414 533
8.85426 551
8.87437 530
8.89448 533
8.9146 573
8.93471 557
8.95483 512
8.97494 582
8.99505 568
9.01517 555
9.03528 531
9.05539 551
9.07551 551
9.09562 530
9.11573 555
9.13585 523
9.15596 561
9.17608 507
9.19619 562
9.2163 484
9.23642 531
9.25653 554
9.27664 506
9.29676 537
9.31687 540
9.33699 526
9.3571 519
9.37721 569
9.39733 551
9.41744 548
9.43755 523
9.45767 499
9.47778 526
9.4979 481
9.51801 556
9.53812 536
9.55824 503
9.57835 532
9.59846 529
9.61858 579
9.63869 523
9.6588 526
9.67892 556
9.69903 510
9.71915 548
9.73926 533
9.75937 491
9.77949 560
9.7996 506
9.81971 528
9.83983 595
9.85994 478
9.88006 467
9.90017 471
9.92028 522
9.9404 482
9.96051 576
9.98062 556
10.00074 523
10.02085 521
10.04097 541
10.06108 514
10.08119 519
10.10131 458
10.12142 516
10.14153 509
10.16165 515
10.18176 496
10.20187 506
10.22199 469
10.2421 507
10.26222 513
10.28233 490
10.30244 486
10.32256 502
10.34267 525
10.36278 510
10.3829 446
10.40301 517
10.42313 474
10.44324 541
10.46335 522
10.48347 502
10.50358 480
10.52369 495
10.54381 504
10.56392 515
10.58403 464
10.60415 466
10.62426 528
10.64438 482
10.66449 551
10.6846 520
10.70472 484
10.72483 558
10.74494 503
10.76506 512
10.78517 523
10.80529 539
10.8254 524
10.84551 525
10.86563 538
10.88574 510
10.90585 550
10.92597 504
10.94608 554
10.9662 497
10.98631 547
11.00642 514
11.02654 499
11.04665 513
11.06676 517
11.08688 488
11.10699 506
11.1271 495
11.14722 530
11.16733 488
11.18745 519
11.20756 487
11.22767 488
11.24779 480
11.2679 515
11.28801 508
11.30813 499
11.32824 525
11.34836 533
11.36847 524
11.38858 546
11.4087 554
11.42881 507
11.44892 509
11.46904 495
11.48915 512
11.50927 528
11.52938 576
11.54949 515
11.56961 523
11.58972 529
11.60983 515
11.62995 520
11.65006 516
11.67017 479
11.69029 510
11.7104 484
11.73052 507
11.75063 502
11.77074 494
11.79086 462
11.81097 480
11.83108 554
11.8512 496
11.87131 539
11.89143 450
11.91154 461
11.93165 531
11.95177 506
11.97188 501
11.99199 471
12.01211 525
12.03222 578
12.05234 528
12.07245 538
12.09256 506
12.11268 492
12.13279 495
12.1529 512
12.17302 495
12.19313 531
12.21324 533
12.23336 529
12.25347 447
12.27359 467
12.2937 535
12.31381 500
12.33393 477
12.35404 510
12.37415 465
12.39427 489
12.41438 466
12.4345 488
12.45461 488
12.47472 435
12.49484 528
12.51495 505
12.53506 481
12.55518 438
12.57529 457
12.5954 483
12.61552 472
12.63563 451
12.65575 472
12.67586 418
12.69597 477
12.71609 479
12.7362 478
12.75631 485
12.77643 511
12.79654 441
12.81666 486
12.83677 446
12.85688 444
12.877 450
12.89711 471
12.91722 471
12.93734 457
12.95745 489
12.97757 462
12.99768 464
13.01779 455
13.03791 443
13.05802 448
13.07813 427
13.09825 492
13.11836 441
13.13847 480
13.15859 495
13.1787 517
13.19882 500
13.21893 460
13.23904 499
13.25916 490
13.27927 492
13.29938 530
13.3195 476
13.33961 447
13.35973 453
13.37984 494
13.39995 433
13.42007 467
13.44018 486
13.46029 499
13.48041 488
13.50052 488
13.52064 486
13.54075 482
13.56086 504
13.58098 508
13.60109 511
13.6212 536
13.64132 541
13.66143 523
13.68154 480
13.70166 510
13.72177 505
13.74189 496
13.762 497
13.78211 441
13.80223 510
13.82234 458
13.84245 484
13.86257 424
13.88268 452
13.9028 474
13.92291 475
13.94302 452
13.96314 434
13.98325 453
14.00336 479
14.02348 437
14.04359 431
14.06371 454
14.08382 444
14.10393 456
14.12405 444
14.14416 448
14.16427 470
14.18439 473
14.2045 458
14.22461 475
14.24473 430
14.26484 456
14.28496 416
14.30507 430
14.32518 457
14.3453 426
14.36541 460
14.38552 433
14.40564 411
14.42575 454
14.44587 417
14.46598 468
14.48609 489
14.50621 495
14.52632 462
14.54643 446
14.56655 415
14.58666 435
14.60677 401
14.62689 452
14.647 470
14.66712 422
14.68723 404
14.70734 451
14.72746 446
14.74757 457
14.76768 423
14.7878 419
14.80791 472
14.82803 500
14.84814 413
14.86825 427
14.88837 456
14.90848 435
14.92859 466
14.94871 444
14.96882 457
14.98894 502
15.00905 479
15.02916 487
15.04928 490
15.06939 481
15.0895 494
15.10962 462
15.12973 463
15.14984 482
15.16996 459
15.19007 464
15.21019 473
15.2303 419
15.25041 403
15.27053 448
15.29064 470
15.31075 408
15.33087 449
15.35098 481
15.3711 420
15.39121 414
15.41132 452
15.43144 452
15.45155 435
15.47166 457
15.49178 460
15.51189 454
15.53201 488
15.55212 445
15.57223 439
15.59235 444
15.61246 453
15.63257 510
15.65269 417
15.6728 444
15.69291 442
15.71303 433
15.73314 455
15.75326 433
15.77337 458
15.79348 431
15.8136 473
15.83371 454
15.85382 453
15.87394 429
15.89405 415
15.91417 475
15.93428 436
15.95439 465
15.97451 419
15.99462 457
16.01473 439
16.03485 458
16.05496 450
16.07508 441
16.09519 442
16.1153 482
16.13542 437
16.15553 441
16.17564 414
16.19576 460
16.21587 424
16.23598 440
16.2561 478
16.27621 460
16.29633 452
16.31644 469
16.33655 424
16.35667 439
16.37678 428
16.39689 478
16.41701 451
16.43712 401
16.45724 456
16.47735 423
16.49746 450
16.51758 467
16.53769 443
16.5578 444
16.57792 434
16.59803 473
16.61814 424
16.63826 429
16.65837 430
16.67849 464
16.6986 451
16.71871 434
16.73883 447
16.75894 480
16.77905 466
16.79917 479
16.81928 436
16.8394 485
16.85951 494
16.87962 484
16.89974 448
16.91985 457
16.93996 469
16.96008 478
16.98019 479
17.00031 457
17.02042 435
17.04053 424
17.06065 427
17.08076 470
17.10087 441
17.12099 494
17.1411 481
17.16121 482
17.18133 469
17.20144 466
17.22156 449
17.24167 458
17.26178 483
17.2819 444
17.30201 442
17.32212 467
17.34224 431
17.36235 481
17.38247 479
17.40258 485
17.42269 457
17.44281 475
17.46292 471
17.48303 490
17.50315 500
17.52326 476
17.54338 490
17.56349 449
17.5836 487
17.60372 465
17.62383 493
17.64394 482
17.66406 462
17.68417 459
17.70428 476
17.7244 477
17.74451 463
17.76463 464
17.78474 475
17.80485 475
17.82497 495
17.84508 457
17.86519 455
17.88531 487
17.90542 390
17.92554 460
17.94565 466
17.96576 438
17.98588 489
18.00599 470
18.0261 450
18.04622 448
18.06633 497
18.08645 512
18.10656 462
18.12667 478
18.14679 450
18.1669 494
18.18701 504
18.20713 445
18.22724 455
18.24735 442
18.26747 503
18.28758 487
18.3077 497
18.32781 531
18.34792 486
18.36804 446
18.38815 416
18.40826 483
18.42838 505
18.44849 465
18.46861 468
18.48872 463
18.50883 433
18.52895 458
18.54906 464
18.56917 476
18.58929 460
18.6094 461
18.62951 438
18.64963 503
18.66974 500
18.68986 510
18.70997 440
18.73008 471
18.7502 507
18.77031 474
18.79042 434
18.81054 461
18.83065 531
18.85077 510
18.87088 525
18.89099 538
18.91111 506
18.93122 487
18.95133 526
18.97145 535
18.99156 477
19.01168 502
19.03179 496
19.0519 491
19.07202 480
19.09213 496
19.11224 546
19.13236 556
19.15247 547
19.17258 532
19.1927 547
19.21281 580
19.23293 612
19.25304 614
19.27315 596
19.29327 642
19.31338 640
19.33349 626
19.35361 682
19.37372 662
19.39384 666
19.41395 732
19.43406 666
19.45418 710
19.47429 684
19.4944 717
19.51452 772
19.53463 743
19.55475 795
19.57486 789
19.59497 745
19.61509 812
19.6352 817
19.65531 826
19.67543 819
19.69554 861
19.71565 828
19.73577 837
19.75588 865
19.776 925
19.79611 870
19.81622 888
19.83634 846
19.85645 933
19.87656 887
19.89668 921
19.91679 898
19.93691 844
19.95702 871
19.97713 801
19.99725 804
20.01736 814
20.03747 814
20.05759 775
20.0777 806
20.09782 788
20.11793 837
20.13804 781
20.15816 748
20.17827 799
20.19838 737
20.2185 776
20.23861 779
20.25872 738
20.27884 749
20.29895 762
20.31907 730
20.33918 723
20.35929 722
20.37941 685
20.39952 726
20.41963 728
20.43975 747
20.45986 768
20.47998 688
20.50009 720
20.5202 694
20.54032 686
20.56043 714
20.58054 726
20.60066 708
20.62077 679
20.64088 719
20.661 685
20.68111 699
20.70123 698
20.72134 718
20.74145 734
20.76157 778
20.78168 802
20.80179 794
20.82191 823
20.84202 874
20.86214 871
20.88225 873
20.90236 866
20.92248 846
20.94259 828
20.9627 842
20.98282 778
21.00293 747
21.02305 732
21.04316 661
21.06327 659
21.08339 680
21.1035 666
21.12361 626
21.14373 693
21.16384 687
21.18395 682
21.20407 635
21.22418 611
21.2443 669
21.26441 667
21.28452 666
21.30464 660
21.32475 694
21.34486 588
21.36498 665
21.38509 615
21.40521 686
21.42532 628
21.44543 625
21.46555 635
21.48566 623
21.50577 659
21.52589 650
21.546 673
21.56612 665
21.58623 640
21.60634 623
21.62646 690
21.64657 635
21.66668 608
21.6868 669
21.70691 644
21.72702 685
21.74714 642
21.76725 650
21.78737 731
21.80748 708
21.82759 728
21.84771 767
21.86782 773
21.88793 857
21.90805 861
21.92816 826
21.94828 847
21.96839 773
21.9885 740
22.00862 692
22.02873 633
22.04884 688
22.06896 638
22.08907 645
22.10919 576
22.1293 616
22.14941 630
22.16953 621
22.18964 607
22.20975 647
22.22987 632
22.24998 606
22.27009 625
22.29021 632
22.31032 635
22.33044 648
22.35055 658
22.37066 677
22.39078 597
22.41089 707
22.431 609
22.45112 704
22.47123 712
22.49135 635
22.51146 609
22.53157 647
22.55169 629
22.5718 616
22.59191 613
22.61203 672
22.63214 618
22.65225 657
22.67237 648
22.69248 627
22.7126 676
22.73271 658
22.75282 664
22.77294 631
22.79305 672
22.81316 657
22.83328 660
22.85339 637
22.87351 633
22.89362 663
22.91373 596
22.93385 650
22.95396 650
22.97407 588
22.99419 564
23.0143 620
23.03442 594
23.05453 614
23.07464 675
23.09476 545
23.11487 612
23.13498 591
23.1551 599
23.17521 622
23.19532 659
23.21544 648
23.23555 670
23.25567 699
23.27578 683
23.29589 711
23.31601 676
23.33612 680
23.35623 781
23.37635 809
23.39646 837
23.41658 824
23.43669 810
23.4568 845
23.47692 806
23.49703 860
23.51714 847
23.53726 857
23.55737 876
23.57749 844
23.5976 867
23.61771 909
23.63783 809
23.65794 810
23.67805 744
23.69817 727
23.71828 702
23.73839 626
23.75851 649
23.77862 689
23.79874 693
23.81885 637
23.83896 664
23.85908 624
23.87919 655
23.8993 622
23.91942 671
23.93953 649
23.95965 666
23.97976 671
23.99987 675
24.01999 722
24.0401 677
24.06021 674
24.08033 683
24.10044 683
24.12056 619
24.14067 620
24.16078 626
24.1809 615
24.20101 649
24.22112 642
24.24124 622
24.26135 726
24.28146 719
24.30158 666
24.32169 717
24.34181 705
24.36192 701
24.38203 705
24.40215 677
24.42226 670
24.44237 685
24.46249 712
24.4826 694
24.50272 709
24.52283 693
24.54294 704
24.56306 662
24.58317 679
24.60328 693
24.6234 608
24.64351 619
24.66362 700
24.68374 604
24.70385 638
24.72397 645
24.74408 615
24.76419 599
24.78431 635
24.80442 645
24.82453 628
24.84465 598
24.86476 670
24.88488 641
24.90499 644
24.9251 605
24.94522 596
24.96533 647
24.98544 711
25.00556 632
25.02567 652
25.04579 619
25.0659 597
25.08601 689
25.10613 659
25.12624 639
25.14635 646
25.16647 645
25.18658 597
25.20669 645
25.22681 636
25.24692 618
25.26704 633
25.28715 692
25.30726 612
25.32738 655
25.34749 669
25.3676 655
25.38772 646
25.40783 642
25.42795 658
25.44806 610
25.46817 644
25.48829 701
25.5084 741
25.52851 741
25.54863 705
25.56874 786
25.58886 728
25.60897 775
25.62908 776
25.6492 755
25.66931 775
25.68942 746
25.70954 743
25.72965 755
25.74976 728
25.76988 733
25.78999 695
25.81011 668
25.83022 677
25.85033 645
25.87045 637
25.89056 586
25.91067 679
25.93079 621
25.9509 610
25.97102 557
25.99113 574
26.01124 576
26.03136 618
26.05147 575
26.07158 664
26.0917 619
26.11181 599
26.13193 575
26.15204 594
26.17215 627
26.19227 635
26.21238 632
26.23249 594
26.25261 654
26.27272 658
26.29283 644
26.31295 651
26.33306 676
26.35318 704
26.37329 645
26.3934 726
26.41352 699
26.43363 717
26.45374 688
26.47386 805
26.49397 808
26.51409 872
26.5342 964
26.55431 995
26.57443 1071
26.59454 1078
26.61465 1164
26.63477 1068
26.65488 1014
26.67499 917
26.69511 992
26.71522 929
26.73534 888
26.75545 837
26.77556 836
26.79568 778
26.81579 814
26.8359 767
26.85602 815
26.87613 713
26.89625 721
26.91636 677
26.93647 700
26.95659 719
26.9767 746
26.99681 734
27.01693 782
27.03704 782
27.05716 762
27.07727 753
27.09738 756
27.1175 812
27.13761 771
27.15772 770
27.17784 741
27.19795 807
27.21806 767
27.23818 740
27.25829 755
27.27841 764
27.29852 776
27.31863 789
27.33875 849
27.35886 881
27.37897 885
27.39909 952
27.4192 853
27.43932 881
27.45943 987
27.47954 973
27.49966 1045
27.51977 1071
27.53988 1121
27.56 1061
27.58011 1176
27.60023 1094
27.62034 1100
27.64045 1144
27.66057 1156
27.68068 1133
27.70079 1200
27.72091 1081
27.74102 1088
27.76113 1045
27.78125 994
27.80136 971
27.82148 910
27.84159 873
27.8617 861
27.88182 919
27.90193 871
27.92204 905
27.94216 939
27.96227 886
27.98239 881
28.0025 804
28.02261 727
28.04273 699
28.06284 704
28.08295 692
28.10307 668
28.12318 632
28.1433 585
28.16341 609
28.18352 609
28.20364 593
28.22375 618
28.24386 658
28.26398 655
28.28409 675
28.3042 700
28.32432 645
28.34443 693
28.36455 666
28.38466 656
28.40477 615
28.42489 605
28.445 597
28.46511 571
28.48523 568
28.50534 556
28.52546 606
28.54557 543
28.56568 596
28.5858 590
28.60591 597
28.62602 544
28.64614 583
28.66625 565
28.68636 540
28.70648 610
28.72659 557
28.74671 495
28.76682 532
28.78693 542
28.80705 535
28.82716 558
28.84727 521
28.86739 528
28.8875 576
28.90762 546
28.92773 531
28.94784 547
28.96796 591
28.98807 519
29.00818 575
29.0283 546
29.04841 500
29.06853 551
29.08864 590
29.10875 580
29.12887 559
29.14898 559
29.16909 538
29.18921 601
29.20932 574
29.22943 531
29.24955 497
29.26966 552
29.28978 560
29.30989 626
29.33 550
29.35012 614
29.37023 584
29.39034 592
29.41046 616
29.43057 590
29.45069 609
29.4708 633
29.49091 616
29.51103 684
29.53114 594
29.55125 774
29.57137 702
29.59148 707
29.6116 776
29.63171 806
29.65182 772
29.67194 832
29.69205 859
29.71216 875
29.73228 866
29.75239 854
29.7725 827
29.79262 822
29.81273 807
29.83285 765
29.85296 689
29.87307 683
29.89319 690
29.9133 676
29.93341 642
29.95353 726
29.97364 715
29.99376 698
30.01387 682
30.03398 701
30.0541 704
30.07421 684
30.09432 689
30.11444 712
30.13455 671
30.15467 744
30.17478 737
30.19489 768
30.21501 745
30.23512 789
30.25523 710
30.27535 708
30.29546 728
30.31557 733
30.33569 709
30.3558 696
30.37592 680
30.39603 654
30.41614 640
30.43626 684
30.45637 658
30.47648 620
30.4966 648
30.51671 606
30.53683 644
30.55694 675
30.57705 615
30.59717 691
30.61728 650
30.63739 679
30.65751 641
30.67762 641
30.69773 687
30.71785 647
30.73796 676
30.75808 638
30.77819 623
30.7983 665
30.81842 653
30.83853 611
30.85864 598
30.87876 585
30.89887 600
30.91899 553
30.9391 556
30.95921 571
30.97933 532
30.99944 529
31.01955 543
31.03967 524
31.05978 559
31.0799 551
31.10001 529
31.12012 557
31.14024 519
31.16035 508
31.18046 529
31.20058 532
31.22069 527
31.2408 530
31.26092 542
31.28103 601
31.30115 549
31.32126 564
31.34137 603
31.36149 554
31.3816 568
31.40171 537
31.42183 582
31.44194 547
31.46206 527
31.48217 557
31.50228 563
31.5224 532
31.54251 506
31.56262 490
31.58274 510
31.60285 545
31.62297 579
31.64308 483
31.66319 565
31.68331 573
31.70342 527
31.72353 553
31.74365 569
31.76376 490
31.78387 512
31.80399 544
31.8241 551
31.84422 545
31.86433 548
31.88444 541
31.90456 543
31.92467 536
31.94478 535
31.9649 596
31.98501 490
32.00513 531
32.02524 577
32.04535 513
32.06547 529
32.08558 472
32.10569 513
32.12581 514
32.14592 521
32.16604 508
32.18615 545
32.20626 546
32.22638 542
32.24649 546
32.2666 564
32.28672 565
32.30683 582
32.32694 578
32.34706 548
32.36717 523
32.38729 557
32.4074 554
32.42751 547
32.44763 549
32.46774 517
32.48785 489
32.50797 526
32.52808 508
32.5482 556
32.56831 590
32.58842 587
32.60854 551
32.62865 561
32.64876 552
32.66888 539
32.68899 589
32.7091 554
32.72922 566
32.74933 591
32.76945 617
32.78956 640
32.80967 554
32.82979 642
32.8499 547
32.87001 651
32.89013 624
32.91024 658
32.93036 606
32.95047 606
32.97058 629
32.9907 629
33.01081 657
33.03092 616
33.05104 588
33.07115 622
33.09127 611
33.11138 597
33.13149 605
33.15161 528
33.17172 517
33.19183 540
33.21195 522
33.23206 464
33.25217 523
33.27229 501
33.2924 520
33.31252 517
33.33263 494
33.35274 488
33.37286 463
33.39297 514
33.41308 525
33.4332 491
33.45331 572
33.47343 507
33.49354 501
33.51365 496
33.53377 478
33.55388 504
33.57399 519
33.59411 539
33.61422 487
33.63434 483
33.65445 519
33.67456 544
33.69468 530
33.71479 500
33.7349 555
33.75502 494
33.77513 504
33.79524 499
33.81536 524
33.83547 511
33.85559 529
33.8757 559
33.89581 577
33.91593 498
33.93604 524
33.95615 579
33.97627 550
33.99638 560
34.0165 566
34.03661 554
34.05672 536
34.07684 555
34.09695 580
34.11706 618
34.13718 618
34.15729 595
34.17741 646
34.19752 634
34.21763 634
34.23775 633
34.25786 655
34.27797 731
34.29809 608
34.3182 691
34.33831 710
34.35843 659
34.37854 698
34.39866 656
34.41877 657
34.43888 652
34.459 698
34.47911 688
34.49922 691
34.51934 723
34.53945 699
34.55957 725
34.57968 763
34.59979 735
34.61991 739
34.64002 790
34.66013 747
34.68025 728
34.70036 739
34.72047 724
34.74059 850
34.7607 811
34.78082 766
34.80093 790
34.82104 759
34.84116 827
34.86127 792
34.88138 738
34.9015 821
34.92161 767
34.94173 767
34.96184 819
34.98195 813
35.00207 722
35.02218 720
35.04229 701
35.06241 758
35.08252 721
35.10264 741
35.12275 776
35.14286 769
35.16298 749
35.18309 812
35.2032 803
35.22332 850
35.24343 863
35.26354 838
35.28366 875
35.30377 871
35.32389 909
35.344 980
35.36411 1132
35.38423 1041
35.40434 1178
35.42445 1106
35.44457 1170
35.46468 1135
35.4848 1201
35.50491 1194
35.52502 1149
35.54514 1106
35.56525 1069
35.58536 1008
35.60548 1053
35.62559 964
35.64571 882
35.66582 876
35.68593 960
35.70605 864
35.72616 742
35.74627 801
35.76639 756
35.7865 715
35.80661 722
35.82673 719
35.84684 751
35.86696 714
35.88707 684
35.90718 661
35.9273 671
35.94741 659
35.96752 656
35.98764 641
36.00775 671
36.02787 667
36.04798 644
36.06809 615
36.08821 646
36.10832 650
36.12843 651
36.14855 565
36.16866 616
36.18878 613
36.20889 608
36.229 611
36.24912 592
36.26923 613
36.28934 617
36.30946 631
36.32957 656
36.34968 641
36.3698 613
36.38991 685
36.41003 652
36.43014 642
36.45025 667
36.47037 628
36.49048 664
36.51059 663
36.53071 628
36.55082 626
36.57094 629
36.59105 598
36.61116 639
36.63128 699
36.65139 573
36.6715 632
36.69162 616
36.71173 631
36.73184 597
36.75196 561
36.77207 596
36.79219 595
36.8123 581
36.83241 609
36.85253 580
36.87264 601
36.89275 617
36.91287 591
36.93298 626
36.9531 591
36.97321 632
36.99332 642
37.01344 619
37.03355 640
37.05366 600
37.07378 621
37.09389 588
37.11401 586
37.13412 578
37.15423 630
37.17435 614
37.19446 591
37.21457 609
37.23469 625
37.2548 584
37.27491 613
37.29503 611
37.31514 594
37.33526 600
37.35537 604
37.37548 562
37.3956 592
37.41571 640
37.43582 594
37.45594 602
37.47605 570
37.49617 578
37.51628 604
37.53639 649
37.55651 606
37.57662 614
37.59673 610
37.61685 609
37.63696 558
37.65708 567
37.67719 612
37.6973 621
37.71742 611
37.73753 598
37.75764 598
37.77776 580
37.79787 583
37.81798 588
37.8381 569
37.85821 575
37.87833 557
37.89844 578
37.91855 530
37.93867 515
37.95878 533
37.97889 567
37.99901 596
38.01912 551
38.03924 536
38.05935 565
38.07946 617
38.09958 597
38.11969 543
38.1398 556
38.15992 541
38.18003 566
38.20015 567
38.22026 573
38.24037 565
38.26049 551
38.2806 550
38.30071 521
38.32083 547
38.34094 547
38.36105 596
38.38117 562
38.40128 567
38.4214 538
38.44151 565
38.46162 517
38.48174 522
38.50185 544
38.52196 579
38.54208 563
38.56219 537
38.58231 555
38.60242 555
38.62253 573
38.64265 585
38.66276 549
38.68287 568
38.70299 504
38.7231 511
38.74321 558
38.76333 578
38.78344 543
38.80356 576
38.82367 516
38.84378 533
38.8639 543
38.88401 584
38.90412 561
38.92424 513
38.94435 565
38.96447 571
38.98458 555
39.00469 522
39.02481 564
39.04492 534
39.06503 505
39.08515 559
39.10526 520
39.12538 576
39.14549 545
39.1656 531
39.18572 547
39.20583 536
39.22594 556
39.24606 557
39.26617 546
39.28628 601
39.3064 523
39.32651 565
39.34663 623
39.36674 594
39.38685 539
39.40697 570
39.42708 569
39.44719 553
39.46731 559
39.48742 561
39.50754 567
39.52765 556
39.54776 531
39.56788 578
39.58799 550
39.6081 510
39.62822 563
39.64833 526
39.66845 531
39.68856 489
39.70867 515
39.72879 514
39.7489 527
39.76901 494
39.78913 527
39.80924 557
39.82935 529
39.84947 524
39.86958 514
39.8897 542
39.90981 519
39.92992 507
39.95004 532
39.97015 500
39.99026 522
40.01038 523
40.03049 514
40.05061 546
40.07072 538
40.09083 504
40.11095 505
40.13106 521
40.15117 501
40.17129 550
40.1914 532
40.21152 528
40.23163 554
40.25174 540
40.27186 555
40.29197 557
40.31208 503
40.3322 563
40.35231 523
40.37242 576
40.39254 586
40.41265 572
40.43277 542
40.45288 540
40.47299 536
40.49311 607
40.51322 583
40.53333 552
40.55345 574
40.57356 569
40.59368 576
40.61379 584
40.6339 588
40.65402 567
40.67413 560
40.69424 617
40.71436 554
40.73447 581
40.75458 538
40.7747 572
40.79481 564
40.81493 525
40.83504 516
40.85515 554
40.87527 585
40.89538 517
40.91549 533
40.93561 543
40.95572 554
40.97584 569
40.99595 518
41.01606 524
41.03618 490
41.05629 500
41.0764 521
41.09652 499
41.11663 493
41.13675 468
41.15686 537
41.17697 540
41.19709 560
41.2172 481
41.23731 480
41.25743 497
41.27754 520
41.29765 492
41.31777 522
41.33788 562
41.358 512
41.37811 595
41.39822 549
41.41834 553
41.43845 554
41.45856 539
41.47868 543
41.49879 523
41.51891 552
41.53902 576
41.55913 542
41.57925 516
41.59936 570
41.61947 563
41.63959 570
41.6597 503
41.67982 525
41.69993 533
41.72004 552
41.74016 493
41.76027 527
41.78038 526
41.8005 510
41.82061 538
41.84072 529
41.86084 522
41.88095 538
41.90107 581
41.92118 511
41.94129 514
41.96141 519
41.98152 559
42.00163 521
42.02175 536
42.04186 514
42.06198 568
42.08209 553
42.1022 535
42.12232 576
42.14243 552
42.16254 562
42.18266 576
42.20277 532
42.22289 567
42.243 569
42.26311 569
42.28323 571
42.30334 545
42.32345 595
42.34357 574
42.36368 546
42.38379 580
42.40391 601
42.42402 563
42.44414 531
42.46425 569
42.48436 540
42.50448 569
42.52459 579
42.5447 581
42.56482 533
42.58493 542
42.60505 526
42.62516 547
42.64527 534
42.66539 498
42.6855 560
42.70561 500
42.72573 529
42.74584 512
42.76595 539
42.78607 564
42.80618 514
42.8263 544
42.84641 530
42.86652 579
42.88664 526
42.90675 560
42.92686 524
42.94698 524
42.96709 550
42.98721 526
43.00732 528
43.02743 594
43.04755 542
43.06766 550
43.08777 517
43.10789 555
43.128 523
43.14812 521
43.16823 559
43.18834 522
43.20846 544
43.22857 522
43.24868 534
43.2688 509
43.28891 510
43.30902 508
43.32914 471
43.34925 543
43.36937 479
43.38948 538
43.40959 507
43.42971 465
43.44982 520
43.46993 478
43.49005 482
43.51016 481
43.53028 485
43.55039 473
43.5705 520
43.59062 505
43.61073 536
43.63084 503
43.65096 488
43.67107 488
43.69119 520
43.7113 527
43.73141 462
43.75153 448
43.77164 522
43.79175 497
43.81187 478
43.83198 502
43.85209 454
43.87221 481
43.89232 466
43.91244 516
43.93255 484
43.95266 535
43.97278 471
43.99289 501
44.013 479
44.03312 486
44.05323 459
44.07335 464
44.09346 481
44.11357 478
44.13369 506
44.1538 495
44.17391 506
44.19403 491
44.21414 499
44.23426 502
44.25437 504
44.27448 493
44.2946 499
44.31471 502
44.33482 522
44.35494 495
44.37505 510
44.39516 495
44.41528 519
44.43539 474
44.45551 493
44.47562 479
44.49573 491
44.51585 531
44.53596 485
44.55607 505
44.57619 508
44.5963 513
44.61642 513
44.63653 482
44.65664 498
44.67676 482
44.69687 519
44.71698 511
44.7371 522
44.75721 510
44.77732 498
44.79744 524
44.81755 528
44.83767 490
44.85778 514
44.87789 507
44.89801 489
44.91812 511
44.93823 513
44.95835 503
44.97846 494
44.99858 490
45.01869 484
45.0388 489
45.05892 493
45.07903 495
45.09914 467
45.11926 489
45.13937 551
45.15949 462
45.1796 528
45.19971 468
45.21983 545
45.23994 537
45.26005 464
45.28017 438
45.30028 530
45.32039 456
45.34051 500
45.36062 500
45.38074 474
45.40085 508
45.42096 486
45.44108 499
45.46119 542
45.4813 486
45.50142 425
45.52153 486
45.54165 485
45.56176 509
45.58187 479
45.60199 473
45.6221 460
45.64221 453
45.66233 525
45.68244 509
45.70256 442
45.72267 480
45.74278 465
45.7629 535
45.78301 455
45.80312 486
45.82324 508
45.84335 453
45.86346 457
45.88358 500
45.90369 495
45.92381 482
45.94392 497
45.96403 498
45.98415 480
46.00426 485
46.02437 537
46.04449 449
46.0646 511
46.08472 485
46.10483 479
46.12494 496
46.14506 421
46.16517 492
46.18528 463
46.2054 501
46.22551 487
46.24563 482
46.26574 461
46.28585 494
46.30597 440
46.32608 454
46.34619 493
46.36631 504
46.38642 482
46.40653 456
46.42665 468
46.44676 455
46.46688 461
46.48699 472
46.5071 473
46.52722 476
46.54733 499
46.56744 499
46.58756 489
46.60767 511
46.62779 495
46.6479 463
46.66801 496
46.68813 480
46.70824 513
46.72835 493
46.74847 468
46.76858 488
46.78869 482
46.80881 476
46.82892 482
46.84904 486
46.86915 505
46.88926 536
46.90938 455
46.92949 482
46.9496 471
46.96972 483
46.98983 508
47.00995 495
47.03006 493
47.05017 465
47.07029 462
47.0904 473
47.11051 496
47.13063 496
47.15074 483
47.17086 460
47.19097 484
47.21108 497
47.2312 438
47.25131 502
47.27142 456
47.29154 422
47.31165 444
47.33176 465
47.35188 432
47.37199 462
47.39211 469
47.41222 467
47.43233 441
47.45245 467
47.47256 474
47.49267 456
47.51279 442
47.5329 475
47.55302 446
47.57313 464
47.59324 448
47.61336 481
47.63347 448
47.65358 468
47.6737 463
47.69381 445
47.71393 466
47.73404 469
47.75415 460
47.77427 474
47.79438 428
47.81449 477
47.83461 464
47.85472 431
47.87483 471
47.89495 438
47.91506 448
47.93518 460
47.95529 467
47.9754 448
47.99552 462
48.01563 470
48.03574 483
48.05586 471
48.07597 429
48.09609 443
48.1162 436
48.13631 456
48.15643 445
48.17654 453
48.19665 476
48.21677 474
48.23688 511
48.257 466
48.27711 473
48.29722 438
48.31734 490
48.33745 485
48.35756 454
48.37768 463
48.39779 467
48.4179 461
48.43802 426
48.45813 467
48.47825 426
48.49836 477
48.51847 459
48.53859 431
48.5587 427
48.57881 480
48.59893 460
48.61904 455
48.63916 474
48.65927 465
48.67938 469
48.6995 444
48.71961 470
48.73972 449
48.75984 501
48.77995 461
48.80006 442
48.82018 469
48.84029 495
48.86041 455
48.88052 508
48.90063 446
48.92075 485
48.94086 465
48.96097 507
48.98109 488
49.0012 482
49.02132 512
49.04143 512
49.06154 508
49.08166 562
49.10177 494
49.12188 490
49.142 506
49.16211 545
49.18223 512
49.20234 504
49.22245 544
49.24257 536
49.26268 518
49.28279 476
49.30291 502
49.32302 490
49.34313 547
49.36325 514
49.38336 502
49.40348 515
49.42359 497
49.4437 501
49.46382 497
49.48393 486
49.50404 486
49.52416 522
49.54427 504
49.56439 499
49.5845 484
49.60461 499
49.62473 499
49.64484 491
49.66495 511
49.68507 515
49.70518 503
49.7253 480
49.74541 480
49.76552 462
49.78564 457
49.80575 460
49.82586 454
49.84598 476
49.86609 452
49.8862 458
49.90632 503
49.92643 481
49.94655 477
49.96666 511
49.98677 464
50.00689 495
50.027 485
50.04711 525
50.06723 424
50.08734 515
50.10746 518
50.12757 477
50.14768 470
50.1678 488
50.18791 499
50.20802 520
50.22814 489
50.24825 495
50.26837 491
50.28848 481
50.30859 455
50.32871 442
50.34882 456
50.36893 456
50.38905 467
50.40916 456
50.42927 475
50.44939 516
50.4695 477
50.48962 497
50.50973 503
50.52984 523
50.54996 470
50.57007 511
50.59018 496
50.6103 531
50.63041 524
50.65053 481
50.67064 528
50.69075 523
50.71087 561
50.73098 529
50.75109 547
50.77121 548
50.79132 494
50.81143 527
50.83155 523
50.85166 537
50.87178 494
50.89189 491
50.912 490
50.93212 500
50.95223 484
50.97234 469
50.99246 491
51.01257 495
51.03269 516
51.0528 513
51.07291 456
51.09303 479
51.11314 476
51.13325 478
51.15337 463
51.17348 470
51.1936 469
51.21371 488
51.23382 464
51.25394 487
51.27405 457
51.29416 480
51.31428 505
51.33439 513
51.3545 460
51.37462 519
51.39473 457
51.41485 495
51.43496 494
51.45507 514
51.47519 448
51.4953 457
51.51541 462
51.53553 459
51.55564 457
51.57576 432
51.59587 441
51.61598 441
51.6361 418
51.65621 453
51.67632 451
51.69644 398
51.71655 412
51.73667 428
51.75678 441
51.77689 441
51.79701 497
51.81712 449
51.83723 438
51.85735 445
51.87746 440
51.89757 481
51.91769 441
51.9378 450
51.95792 456
51.97803 447
51.99814 449
52.01826 462
52.03837 497
52.05848 428
52.0786 438
52.09871 488
52.11883 465
52.13894 425
52.15905 458
52.17917 454
52.19928 491
52.21939 475
52.23951 444
52.25962 479
52.27974 459
52.29985 464
52.31996 455
52.34008 442
52.36019 473
52.3803 458
52.40042 465
52.42053 513
52.44064 465
52.46076 403
52.48087 479
52.50099 485
52.5211 441
52.54121 442
52.56133 454
52.58144 418
52.60155 485
52.62167 440
52.64178 467
52.6619 489
52.68201 504
52.70212 485
52.72224 460
52.74235 470
52.76246 458
52.78258 450
52.80269 435
52.8228 482
52.84292 476
52.86303 479
52.88315 485
52.90326 476
52.92337 476
52.94349 437
52.9636 492
52.98371 468
53.00383 485
53.02394 451
53.04406 473
53.06417 516
53.08428 493
53.1044 499
53.12451 544
53.14462 543
53.16474 497
53.18485 487
53.20497 506
53.22508 528
53.24519 536
53.26531 553
53.28542 514
53.30553 589
53.32565 541
53.34576 541
53.36587 544
53.38599 515
53.4061 537
53.42622 540
53.44633 529
53.46644 538
53.48656 549
53.50667 562
53.52678 537
53.5469 531
53.56701 515
53.58713 510
53.60724 519
53.62735 566
53.64747 545
53.66758 549
53.68769 542
53.70781 504
53.72792 488
53.74804 547
53.76815 575
53.78826 574
53.80838 523
53.82849 543
53.8486 565
53.86872 582
53.88883 512
53.90894 532
53.92906 560
53.94917 504
53.96929 525
53.9894 525
54.00951 512
54.02963 523
54.04974 513
54.06985 511
54.08997 508
54.11008 516
54.1302 512
54.15031 498
54.17042 482
54.19054 508
54.21065 496
54.23076 541
54.25088 509
54.27099 470
54.29111 500
54.31122 495
54.33133 503
54.35145 514
54.37156 491
54.39167 477
54.41179 534
54.4319 509
54.45201 499
54.47213 523
54.49224 482
54.51236 515
54.53247 514
54.55258 457
54.5727 541
54.59281 528
54.61292 497
54.63304 509
54.65315 486
54.67327 480
54.69338 509
54.71349 497
54.73361 515
54.75372 544
54.77383 525
54.79395 523
54.81406 488
54.83417 502
54.85429 510
54.8744 527
54.89452 471
54.91463 488
54.93474 531
54.95486 531
54.97497 477
54.99508 521
55.0152 525
55.03531 455
55.05543 487
55.07554 479
55.09565 505
55.11577 495
55.13588 521
55.15599 505
55.17611 469
55.19622 500
55.21634 441
55.23645 483
55.25656 463
55.27668 474
55.29679 518
55.3169 494
55.33702 506
55.35713 483
55.37724 492
55.39736 466
55.41747 477
55.43759 490
55.4577 483
55.47781 525
55.49793 513
55.51804 499
55.53815 505
55.55827 488
55.57838 496
55.5985 503
55.61861 496
55.63872 489
55.65884 476
55.67895 486
55.69906 458
55.71918 498
55.73929 485
55.75941 427
55.77952 424
55.79963 488
55.81975 517
55.83986 467
55.85997 463
55.88009 471
55.9002 491
55.92031 479
55.94043 494
55.96054 497
55.98066 495
56.00077 488
56.02088 473
56.041 462
56.06111 498
56.08122 504
56.10134 495
56.12145 468
56.14157 510
56.16168 484
56.18179 525
56.20191 472
56.22202 532
56.24213 464
56.26225 508
56.28236 532
56.30248 543
56.32259 524
56.3427 443
56.36282 460
56.38293 487
56.40304 548
56.42316 511
56.44327 491
56.46338 492
56.4835 508
56.50361 475
56.52373 504
56.54384 506
56.56395 502
56.58407 520
56.60418 541
56.62429 524
56.64441 455
56.66452 505
56.68464 493
56.70475 510
56.72486 504
56.74498 498
56.76509 484
56.7852 476
56.80532 486
56.82543 521
56.84554 487
56.86566 505
56.88577 492
56.90589 526
56.926 471
56.94611 518
56.96623 496
56.98634 474
57.00645 488
57.02657 512
57.04668 503
57.0668 538
57.08691 541
57.10702 485
57.12714 521
57.14725 527
57.16736 525
57.18748 535
57.20759 500
57.22771 510
57.24782 500
57.26793 498
57.28805 547
57.30816 504
57.32827 488
57.34839 475
57.3685 466
57.38861 466
57.40873 488
57.42884 484
57.44896 463
57.46907 456
57.48918 487
57.5093 451
57.52941 477
57.54952 503
57.56964 435
57.58975 431
57.60987 456
57.62998 455
57.65009 421
57.67021 469
57.69032 420
57.71043 466
57.73055 447
57.75066 450
57.77078 425
57.79089 491
57.811 449
57.83112 478
57.85123 478
57.87134 431
57.89146 492
57.91157 419
57.93168 435
57.9518 467
57.97191 464
57.99203 444
58.01214 441
58.03225 463
58.05237 436
58.07248 431
58.09259 466
58.11271 482
58.13282 429
58.15294 426
58.17305 441
58.19316 469
58.21328 440
58.23339 454
58.2535 432
58.27362 481
58.29373 469
58.31385 439
58.33396 417
58.35407 441
58.37419 417
58.3943 451
58.41441 501
58.43453 467
58.45464 418
58.47475 441
58.49487 477
58.51498 435
58.5351 433
58.55521 435
58.57532 450
58.59544 451
58.61555 441
58.63566 435
58.65578 437
58.67589 455
58.69601 502
58.71612 489
58.73623 454
58.75635 461
58.77646 472
58.79657 413
58.81669 432
58.8368 438
58.85691 468
58.87703 461
58.89714 487
58.91726 445
58.93737 411
58.95748 459
58.9776 447
58.99771 439
59.01782 430
59.03794 422
59.05805 476
59.07817 487
59.09828 447
59.11839 442
59.13851 479
59.15862 465
59.17873 474
59.19885 501
59.21896 452
59.23908 420
59.25919 474
59.2793 445
59.29942 439
59.31953 464
59.33964 437
59.35976 459
59.37987 443
59.39998 435
59.4201 434
59.44021 463
59.46033 440
59.48044 437
59.50055 406
59.52067 406
59.54078 418
59.56089 459
59.58101 429
59.60112 462
59.62124 445
59.64135 445
59.66146 450
59.68158 477
59.70169 461
59.7218 467
59.74192 462
59.76203 473
59.78215 451
59.80226 489
59.82237 500
59.84249 454
59.8626 530
59.88271 481
59.90283 510
59.92294 474
59.94305 480
59.96317 476
59.98328 496
60.0034 480
60.02351 478
60.04362 487
60.06374 479
60.08385 501
60.10396 506
60.12408 514
60.14419 474
60.16431 504
60.18442 476
60.20453 498
60.22465 495
60.24476 495
60.26487 503
60.28499 488
60.3051 503
60.32522 517
60.34533 500
60.36544 479
60.38556 494
60.40567 499
60.42578 465
60.4459 492
60.46601 524
60.48612 503
60.50624 490
60.52635 518
60.54647 486
60.56658 496
60.58669 515
60.60681 522
60.62692 523
60.64703 512
60.66715 471
60.68726 501
60.70738 547
60.72749 473
60.7476 508
60.76772 507
60.78783 515
60.80794 533
60.82806 545
60.84817 522
60.86828 501
60.8884 515
60.90851 474
60.92863 513
60.94874 494
60.96885 460
60.98897 484
61.00908 526
61.02919 470
61.04931 491
61.06942 521
61.08954 513
61.10965 535
61.12976 511
61.14988 526
61.16999 504
61.1901 525
61.21022 534
61.23033 523
61.25045 484
61.27056 539
61.29067 579
61.31079 548
61.3309 558
61.35101 522
61.37113 539
61.39124 539
61.41135 548
61.43147 547
61.45158 581
61.4717 538
61.49181 544
61.51192 525
61.53204 524
61.55215 565
61.57226 551
61.59238 509
61.61249 538
61.63261 563
61.65272 576
61.67283 563
61.69295 522
61.71306 535
61.73317 570
61.75329 527
61.7734 522
61.79352 545
61.81363 508
61.83374 535
61.85386 518
61.87397 563
61.89408 579
61.9142 540
61.93431 566
61.95442 581
61.97454 611
61.99465 551
62.01477 580
62.03488 576
62.05499 563
62.07511 605
62.09522 593
62.11533 561
62.13545 569
62.15556 545
62.17568 582
62.19579 607
62.2159 528
62.23602 592
62.25613 580
62.27624 594
62.29636 588
62.31647 542
62.33659 601
62.3567 558
62.37681 539
62.39693 567
62.41704 585
62.43715 557
62.45727 575
62.47738 564
62.49749 572
62.51761 549
62.53772 528
62.55784 528
62.57795 545
62.59806 529
62.61818 555
62.63829 541
62.6584 553
62.67852 572
62.69863 561
62.71875 547
62.73886 531
62.75897 582
62.77909 558
62.7992 523
62.81931 498
62.83943 550
62.85954 516
62.87965 516
62.89977 524
62.91988 518
62.94 522
62.96011 511
62.98022 464
63.00034 489
63.02045 496
63.04056 494
63.06068 522
63.08079 474
63.10091 514
63.12102 479
63.14113 479
63.16125 466
63.18136 428
63.20147 454
63.22159 475
63.2417 454
63.26182 481
63.28193 488
63.30204 451
63.32216 467
63.34227 490
63.36238 470
63.3825 448
63.40261 468
63.42272 436
63.44284 470
63.46295 458
63.48307 483
63.50318 449
63.52329 438
63.54341 487
63.56352 498
63.58363 499
63.60375 486
63.62386 480
63.64398 507
63.66409 511
63.6842 509
63.70432 477
63.72443 471
63.74454 482
63.76466 481
63.78477 505
63.80489 478
63.825 495
63.84511 465
63.86523 483
63.88534 484
63.90545 498
63.92557 456
63.94568 436
63.96579 477
63.98591 479
64.00602 428
64.02614 451
64.04625 462
64.06636 463
64.08648 423
64.10659 425
64.1267 457
64.14682 444
64.16693 441
64.18705 428
64.20716 469
64.22727 442
64.24739 476
64.2675 439
64.28761 474
64.30773 423
64.32784 428
64.34796 453
64.36807 445
64.38818 438
64.4083 474
64.42841 423
64.44852 416
64.46864 469
64.48875 463
64.50886 388
64.52898 459
64.54909 485
64.56921 438
64.58932 427
64.60943 442
64.62955 410
64.64966 456
64.66977 455
64.68989 450
64.71 456
64.73012 436
64.75023 487
64.77034 450
64.79046 451
64.81057 459
64.83068 445
64.8508 448
64.87091 440
64.89102 462
64.91114 474
64.93125 451
64.95137 427
64.97148 449
64.99159 448
65.01171 455
65.03182 411
65.05193 429
65.07205 428
65.09216 425
65.11228 450
65.13239 472
65.1525 395
65.17262 414
65.19273 444
65.21284 432
65.23296 416
65.25307 402
65.27319 408
65.2933 437
65.31341 447
65.33353 424
65.35364 386
65.37375 410
65.39387 435
65.41398 418
65.43409 434
65.45421 431
65.47432 445
65.49444 423
65.51455 421
65.53466 411
65.55478 419
65.57489 447
65.595 450
65.61512 465
65.63523 448
65.65535 424
65.67546 481
65.69557 429
65.71569 436
65.7358 455
65.75591 406
65.77603 439
65.79614 417
65.81626 387
65.83637 460
65.85648 452
65.8766 416
65.89671 457
65.91682 411
65.93694 429
65.95705 438
65.97716 430
65.99728 426
66.01739 414
66.03751 427
66.05762 435
66.07773 412
66.09785 434
66.11796 468
66.13807 440
66.15819 386
66.1783 416
66.19842 418
66.21853 457
66.23864 433
66.25876 438
66.27887 427
66.29898 432
66.3191 425
66.33921 421
66.35933 428
66.37944 411
66.39955 415
66.41967 425
66.43978 387
66.45989 404
66.48001 428
66.50012 394
66.52023 444
66.54035 420
66.56046 451
66.58058 430
66.60069 409
66.6208 418
66.64092 429
66.66103 425
66.68114 431
66.70126 396
66.72137 420
66.74149 402
66.7616 420
66.78171 456
66.80183 405
66.82194 425
66.84205 432
66.86217 439
66.88228 438
66.90239 394
66.92251 423
66.94262 426
66.96274 427
66.98285 437
67.00296 412
67.02308 432
67.04319 450
67.0633 415
67.08342 431
67.10353 424
67.12365 412
67.14376 401
67.16387 479
67.18399 416
67.2041 411
67.22421 439
67.24433 409
67.26444 395
67.28456 401
67.30467 441
67.32478 377
67.3449 427
67.36501 471
67.38512 421
67.40524 449
67.42535 461
67.44546 447
67.46558 445
67.48569 414
67.50581 394
67.52592 438
67.54603 442
67.56615 460
67.58626 420
67.60637 479
67.62649 451
67.6466 457
67.66672 440
67.68683 443
67.70694 448
67.72706 475
67.74717 431
67.76728 432
67.7874 459
67.80751 439
67.82763 438
67.84774 428
67.86785 443
67.88797 436
67.90808 456
67.92819 470
67.94831 449
67.96842 447
67.98853 448
68.00865 457
68.02876 449
68.04888 424
68.06899 433
68.0891 441
68.10922 425
68.12933 433
68.14944 459
68.16956 440
68.18967 422
68.20979 463
68.2299 447
68.25001 469
68.27013 426
68.29024 434
68.31035 426
68.33047 430
68.35058 424
68.3707 445
68.39081 458
68.41092 427
68.43104 429
68.45115 451
68.47126 369
68.49138 430
68.51149 442
68.5316 440
68.55172 414
68.57183 416
68.59195 406
68.61206 422
68.63217 413
68.65229 397
68.6724 433
68.69251 398
68.71263 386
68.73274 431
68.75286 400
68.77297 472
68.79308 431
68.8132 426
68.83331 410
68.85342 426
68.87354 457
68.89365 408
68.91376 423
68.93388 411
68.95399 449
68.97411 432
68.99422 421
69.01433 431
69.03445 426
69.05456 441
69.07467 414
69.09479 413
69.1149 437
69.13502 443
69.15513 443
69.17524 440
69.19536 416
69.21547 405
69.23558 433
69.2557 434
69.27581 422
69.29593 384
69.31604 426
69.33615 387
69.35627 433
69.37638 461
69.39649 438
69.41661 429
69.43672 438
69.45683 415
69.47695 409
69.49706 422
69.51718 424
69.53729 432
69.5574 425
69.57752 396
69.59763 452
69.61774 451
69.63786 403
69.65797 422
69.67809 389
69.6982 424
69.71831 421
69.73843 391
69.75854 443
69.77865 395
69.79877 452
69.81888 400
69.839 408
69.85911 433
69.87922 449
69.89934 399
69.91945 428
69.93956 438
69.95968 425
69.97979 424
69.9999 412
70.02002 422
70.04013 425
70.06025 455
70.08036 433
70.10047 432
70.12059 410
70.1407 390
70.16081 404
70.18093 410
70.20104 433
70.22116 396
70.24127 431
70.26138 442
70.2815 400
70.30161 423
70.32172 405
70.34184 443
70.36195 398
70.38207 446
70.40218 422
70.42229 425
70.44241 397
70.46252 425
70.48263 405
70.50275 441
70.52286 402
70.54297 385
70.56309 420
70.5832 387
70.60332 458
70.62343 392
70.64354 407
70.66366 418
70.68377 400
70.70388 365
70.724 387
70.74411 395
70.76423 414
70.78434 417
70.80445 417
70.82457 411
70.84468 399
70.86479 414
70.88491 406
70.90502 431
70.92513 410
70.94525 420
70.96536 418
70.98548 425
71.00559 440
71.0257 441
71.04582 409
71.06593 444
71.08604 441
71.10616 393
71.12627 435
71.14639 416
71.1665 439
71.18661 456
71.20673 412
71.22684 453
71.24695 425
71.26707 469
71.28718 397
71.3073 455
71.32741 456
71.34752 441
71.36764 432
71.38775 439
71.40786 448
71.42798 467
71.44809 407
71.4682 417
71.48832 407
71.50843 435
71.52855 413
71.54866 448
71.56877 473
71.58889 381
71.609 465
71.62911 439
71.64923 417
71.66934 443
71.68946 430
71.70957 445
71.72968 413
71.7498 472
71.76991 459
71.79002 427
71.81014 446
71.83025 443
71.85037 397
71.87048 453
71.89059 413
71.91071 468
71.93082 459
71.95093 452
71.97105 448
71.99116 423
72.01127 438
72.03139 438
72.0515 446
72.07162 398
72.09173 443
72.11184 420
72.13196 466
72.15207 426
72.17218 470
72.1923 415
72.21241 448
72.23253 437
72.25264 409
72.27275 423
72.29287 387
72.31298 436
72.33309 427
72.35321 452
72.37332 415
72.39344 389
72.41355 449
72.43366 420
72.45378 455
72.47389 414
72.494 425
72.51412 421
72.53423 457
72.55434 433
72.57446 464
72.59457 420
72.61469 409
72.6348 467
72.65491 429
72.67503 469
72.69514 436
72.71525 451
72.73537 432
72.75548 432
72.7756 416
72.79571 447
72.81582 457
72.83594 456
72.85605 417
72.87616 441
72.89628 441
72.91639 445
72.9365 460
72.95662 513
72.97673 436
72.99685 452
73.01696 458
73.03707 435
73.05719 463
73.0773 466
73.09741 439
73.11753 462
73.13764 445
73.15776 428
73.17787 460
73.19798 395
73.2181 420
73.23821 460
73.25832 456
73.27844 411
73.29855 465
73.31867 454
73.33878 433
73.35889 436
73.37901 419
73.39912 470
73.41923 428
73.43935 436
73.45946 455
73.47957 445
73.49969 426
73.5198 435
73.53992 451
73.56003 454
73.58014 415
73.60026 417
73.62037 424
73.64048 411
73.6606 439
73.68071 431
73.70083 403
73.72094 435
73.74105 422
73.76117 473
73.78128 461
73.80139 435
73.82151 419
73.84162 457
73.86174 413
73.88185 415
73.90196 457
73.92208 424
73.94219 439
73.9623 407
73.98242 457
74.00253 438
74.02264 444
74.04276 428
74.06287 440
74.08299 430
74.1031 428
74.12321 412
74.14333 408
74.16344 447
74.18355 466
74.20367 429
74.22378 457
74.2439 437
74.26401 435
74.28412 466
74.30424 440
74.32435 394
74.34446 398
74.36458 408
74.38469 402
74.40481 438
74.42492 429
74.44503 415
74.46515 397
74.48526 413
74.50537 439
74.52549 434
74.5456 428
74.56571 424
74.58583 421
74.60594 427
74.62606 415
74.64617 433
74.66628 410
74.6864 390
74.70651 406
74.72662 448
74.74674 402
74.76685 414
74.78697 445
74.80708 462
74.82719 436
74.84731 457
74.86742 402
74.88753 399
74.90765 439
74.92776 444
74.94787 428
74.96799 460
74.9881 454
75.00822 417
