3.00117 17892
3.02128 17323
3.0414 16786
3.06151 16569
3.08162 15844
3.10174 15712
3.12185 15071
3.14197 14789
3.16208 14485
3.18219 13715
3.20231 13218
3.22242 13099
3.24253 12751
3.26265 12550
3.28276 11784
3.30288 11613
3.32299 11163
3.3431 10834
3.36322 10584
3.38333 10008
3.40344 9667
3.42356 9366
3.44367 9185
3.46379 8851
3.4839 8571
3.50401 8131
3.52413 7802
3.54424 7664
3.56435 7419
3.58447 7140
3.60458 6841
3.62469 6617
3.64481 6318
3.66492 6177
3.68504 5951
3.70515 5708
3.72526 5301
3.74538 4999
3.76549 4941
3.7856 4695
3.80572 4546
3.82583 4330
3.84595 4310
3.86606 4185
3.88617 3790
3.90629 3665
3.9264 3394
3.94651 3262
3.96663 3260
3.98674 2967
4.00686 2953
4.02697 2718
4.04708 2603
4.0672 2703
4.08731 2482
4.10742 2446
4.12754 2174
4.14765 2123
4.16776 2135
4.18788 2012
4.20799 1874
4.22811 1834
4.24822 1803
4.26833 1739
4.28845 1694
4.30856 1560
4.32867 1549
4.34879 1560
4.3689 1545
4.38902 1388
4.40913 1399
4.42924 1388
4.44936 1271
4.46947 1244
4.48958 1258
4.5097 1290
4.52981 1252
4.54992 1167
4.57004 1184
4.59015 1171
4.61027 1126
4.63038 1087
4.65049 1056
4.67061 1143
4.69072 1088
4.71083 974
4.73095 914
4.75106 883
4.77118 962
4.79129 970
4.8114 910
4.83152 891
4.85163 853
4.87174 838
4.89186 840
4.91197 774
4.93209 745
4.9522 710
4.97231 754
4.99243 805
5.01254 733
5.03265 705
5.05277 701
5.07288 685
5.09299 667
5.11311 658
5.13322 682
5.15334 597
5.17345 666
5.19356 628
5.21368 585
5.23379 574
5.2539 572
5.27402 590
5.29413 569
5.31425 541
5.33436 605
5.35447 511
5.37459 506
5.3947 586
5.41481 460
5.43493 506
5.45504 487
5.47516 482
5.49527 448
5.51538 421
5.5355 465
5.55561 428
5.57572 432
5.59584 375
5.61595 413
5.63606 381
5.65618 393
5.67629 409
5.69641 366
5.71652 389
5.73663 374
5.75675 370
5.77686 366
5.79697 385
5.81709 397
5.8372 349
5.85732 324
5.87743 338
5.89754 356
5.91766 347
5.93777 365
5.95788 352
5.978 346
5.99811 292
6.01823 327
6.03834 358
6.05845 351
6.07857 329
6.09868 303
6.11879 310
6.13891 286
6.15902 307
6.17913 325
6.19925 319
6.21936 278
6.23948 300
6.25959 305
6.2797 315
6.29982 301
6.31993 310
6.34004 282
6.36016 314
6.38027 295
6.40039 325
6.4205 295
6.44061 290
6.46073 312
6.48084 301
6.50095 263
6.52107 264
6.54118 254
6.56129 263
6.58141 244
6.60152 288
6.62164 277
6.64175 267
6.66186 276
6.68198 258
6.70209 267
6.7222 252
6.74232 285
6.76243 286
6.78255 273
6.80266 241
6.82277 265
6.84289 287
6.863 285
6.88311 300
6.90323 285
6.92334 227
6.94346 269
6.96357 226
6.98368 293
7.0038 253
7.02391 261
7.04402 262
7.06414 283
7.08425 267
7.10436 271
7.12448 244
7.14459 266
7.16471 300
7.18482 281
7.20493 279
7.22505 244
7.24516 269
7.26527 252
7.28539 259
7.3055 290
7.32562 261
7.34573 293
7.36584 245
7.38596 291
7.40607 236
7.42618 291
7.4463 331
7.46641 275
7.48653 255
7.50664 271
7.52675 261
7.54687 243
7.56698 226
7.58709 238
7.60721 258
7.62732 266
7.64743 254
7.66755 257
7.68766 287
7.70778 267
7.72789 252
7.748 293
7.76812 268
7.78823 264
7.80834 253
7.82846 269
7.84857 264
7.86869 295
7.8888 249
7.90891 253
7.92903 245
7.94914 285
7.96925 305
7.98937 255
8.00948 252
8.0296 283
8.04971 283
8.06982 263
8.08994 259
8.11005 265
8.13016 275
8.15028 288
8.17039 250
8.1905 281
8.21062 283
8.23073 262
8.25085 295
8.27096 277
8.29107 283
8.31119 286
8.3313 302
8.35141 254
8.37153 279
8.39164 271
8.41176 256
8.43187 260
8.45198 281
8.4721 292
8.49221 273
8.51232 232
8.53244 255
8.55255 272
8.57266 275
8.59278 282
8.61289 282
8.63301 296
8.65312 285
8.67323 255
8.69335 284
8.71346 293
8.73357 278
8.75369 314
8.7738 258
8.79392 316
8.81403 299
8.83414 297
8.85426 290
8.87437 284
8.89448 330
8.9146 284
8.93471 282
8.95483 314
8.97494 289
8.99505 271
9.01517 245
9.03528 255
9.05539 255
9.07551 268
9.09562 249
9.11573 248
9.13585 243
9.15596 256
9.17608 262
9.19619 281
9.2163 278
9.23642 255
9.25653 277
9.27664 264
9.29676 293
9.31687 241
9.33699 233
9.3571 264
9.37721 230
9.39733 289
9.41744 269
9.43755 260
9.45767 248
9.47778 270
9.4979 264
9.51801 267
9.53812 251
9.55824 265
9.57835 265
9.59846 263
9.61858 222
9.63869 229
9.6588 243
9.67892 278
9.69903 257
9.71915 240
9.73926 245
9.75937 257
9.77949 207
9.7996 273
9.81971 250
9.83983 239
9.85994 215
9.88006 237
9.90017 256
9.92028 278
9.9404 272
9.96051 258
9.98062 282
10.00074 263
10.02085 262
10.04097 278
10.06108 272
10.08119 273
10.10131 229
10.12142 276
10.14153 251
10.16165 252
10.18176 265
10.20187 261
10.22199 257
10.2421 246
10.26222 247
10.28233 279
10.30244 244
10.32256 278
10.34267 236
10.36278 275
10.3829 248
10.40301 250
10.42313 251
10.44324 248
10.46335 267
10.48347 270
10.50358 231
10.52369 253
10.54381 262
10.56392 247
10.58403 256
10.60415 247
10.62426 237
10.64438 244
10.66449 252
10.6846 279
10.70472 277
10.72483 289
10.74494 257
10.76506 270
10.78517 245
10.80529 241
10.8254 255
10.84551 256
10.86563 236
10.88574 251
10.90585 246
10.92597 244
10.94608 226
10.9662 260
10.98631 260
11.00642 268
11.02654 244
11.04665 230
11.06676 236
11.08688 215
11.10699 252
11.1271 229
11.14722 265
11.16733 229
11.18745 231
11.20756 270
11.22767 257
11.24779 280
11.2679 260
11.28801 264
11.30813 234
11.32824 239
11.34836 250
11.36847 238
11.38858 253
11.4087 253
11.42881 241
11.44892 231
11.46904 248
11.48915 258
11.50927 274
11.52938 260
11.54949 245
11.56961 294
11.58972 239
11.60983 222
11.62995 227
11.65006 247
11.67017 235
11.69029 255
11.7104 226
11.73052 216
11.75063 240
11.77074 236
11.79086 266
11.81097 250
11.83108 241
11.8512 250
11.87131 239
11.89143 279
11.91154 246
11.93165 244
11.95177 254
11.97188 240
11.99199 219
12.01211 239
12.03222 255
12.05234 252
12.07245 266
12.09256 233
12.11268 256
12.13279 288
12.1529 249
12.17302 239
12.19313 214
12.21324 236
12.23336 262
12.25347 247
12.27359 254
12.2937 265
12.31381 263
12.33393 238
12.35404 270
12.37415 250
12.39427 263
12.41438 199
12.4345 240
12.45461 251
12.47472 241
12.49484 244
12.51495 260
12.53506 236
12.55518 247
12.57529 280
12.5954 245
12.61552 244
12.63563 214
12.65575 207
12.67586 249
12.69597 240
12.71609 254
12.7362 231
12.75631 238
12.77643 242
12.79654 229
12.81666 219
12.83677 211
12.85688 244
12.877 242
12.89711 254
12.91722 219
12.93734 242
12.95745 235
12.97757 241
12.99768 234
13.01779 237
13.03791 206
13.05802 239
13.07813 245
13.09825 248
13.11836 297
13.13847 240
13.15859 260
13.1787 257
13.19882 276
13.21893 238
13.23904 245
13.25916 259
13.27927 237
13.29938 234
13.3195 213
13.33961 252
13.35973 249
13.37984 253
13.39995 232
13.42007 242
13.44018 230
13.46029 255
13.48041 249
13.50052 234
13.52064 248
13.54075 278
13.56086 269
13.58098 274
13.60109 299
13.6212 292
13.64132 292
13.66143 321
13.68154 284
13.70166 282
13.72177 235
13.74189 243
13.762 248
13.78211 237
13.80223 248
13.82234 236
13.84245 250
13.86257 249
13.88268 226
13.9028 224
13.92291 230
13.94302 214
13.96314 222
13.98325 220
14.00336 217
14.02348 233
14.04359 261
14.06371 216
14.08382 193
14.10393 196
14.12405 217
14.14416 218
14.16427 230
14.18439 209
14.2045 201
14.22461 215
14.24473 218
14.26484 228
14.28496 250
14.30507 206
14.32518 224
14.3453 237
14.36541 228
14.38552 194
14.40564 218
14.42575 231
14.44587 212
14.46598 225
14.48609 221
14.50621 203
14.52632 250
14.54643 219
14.56655 227
14.58666 193
14.60677 215
14.62689 224
14.647 220
14.66712 192
14.68723 190
14.70734 194
14.72746 227
14.74757 224
14.76768 195
14.7878 220
14.80791 192
14.82803 243
14.84814 241
14.86825 244
14.88837 243
14.90848 250
14.92859 236
14.94871 227
14.96882 270
14.98894 256
15.00905 227
15.02916 245
15.04928 255
15.06939 265
15.0895 241
15.10962 249
15.12973 241
15.14984 219
15.16996 269
15.19007 232
15.21019 226
15.2303 220
15.25041 217
15.27053 202
15.29064 193
15.31075 220
15.33087 200
15.35098 216
15.3711 199
15.39121 209
15.41132 219
15.43144 201
15.45155 204
15.47166 192
15.49178 193
15.51189 203
15.53201 214
15.55212 191
15.57223 201
15.59235 211
15.61246 212
15.63257 171
15.65269 218
15.6728 222
15.69291 198
15.71303 233
15.73314 209
15.75326 192
15.77337 210
15.79348 201
15.8136 214
15.83371 174
15.85382 205
15.87394 210
15.89405 193
15.91417 210
15.93428 237
15.95439 216
15.97451 207
15.99462 230
16.01473 206
16.03485 212
16.05496 199
16.07508 192
16.09519 196
16.1153 198
16.13542 213
16.15553 220
16.17564 195
16.19576 232
16.21587 182
16.23598 196
16.2561 188
16.27621 207
16.29633 193
16.31644 197
16.33655 184
16.35667 198
16.37678 195
16.39689 197
16.41701 188
16.43712 214
16.45724 202
16.47735 202
16.49746 173
16.51758 222
16.53769 226
16.5578 206
16.57792 196
16.59803 196
16.61814 180
16.63826 214
16.65837 202
16.67849 192
16.6986 179
16.71871 238
16.73883 204
16.75894 199
16.77905 203
16.79917 218
16.81928 236
16.8394 177
16.85951 201
16.87962 167
16.89974 212
16.91985 224
16.93996 179
16.96008 190
16.98019 198
17.00031 215
17.02042 199
17.04053 194
17.06065 203
17.08076 205
17.10087 204
17.12099 201
17.1411 205
17.16121 199
17.18133 176
17.20144 203
17.22156 215
17.24167 198
17.26178 217
17.2819 183
17.30201 225
17.32212 166
17.34224 211
17.36235 193
17.38247 207
17.40258 208
17.42269 214
17.44281 163
17.46292 194
17.48303 197
17.50315 229
17.52326 206
17.54338 224
17.56349 181
17.5836 213
17.60372 171
17.62383 204
17.64394 215
17.66406 184
17.68417 201
17.70428 173
17.7244 186
17.74451 213
17.76463 221
17.78474 223
17.80485 215
17.82497 226
17.84508 211
17.86519 194
17.88531 191
17.90542 219
17.92554 204
17.94565 192
17.96576 200
17.98588 209
18.00599 179
18.0261 192
18.04622 197
18.06633 214
18.08645 198
18.10656 217
18.12667 214
18.14679 208
18.1669 199
18.18701 196
18.20713 191
18.22724 199
18.24735 207
18.26747 186
18.28758 218
18.3077 199
18.32781 193
18.34792 193
18.36804 205
18.38815 208
18.40826 185
18.42838 214
18.44849 201
18.46861 226
18.48872 183
18.50883 187
18.52895 172
18.54906 186
18.56917 192
18.58929 215
18.6094 206
18.62951 212
18.64963 203
18.66974 205
18.68986 202
18.70997 183
18.73008 187
18.7502 194
18.77031 191
18.79042 247
18.81054 226
18.83065 198
18.85077 208
18.87088 186
18.89099 190
18.91111 192
18.93122 199
18.95133 223
18.97145 211
18.99156 233
19.01168 223
19.03179 191
19.0519 213
19.07202 210
19.09213 184
19.11224 226
19.13236 222
19.15247 221
19.17258 238
19.1927 190
19.21281 244
19.23293 228
19.25304 256
19.27315 241
19.29327 210
19.31338 239
19.33349 189
19.35361 246
19.37372 236
19.39384 247
19.41395 239
19.43406 234
19.45418 253
19.47429 256
19.4944 276
19.51452 242
19.53463 238
19.55475 264
19.57486 272
19.59497 283
19.61509 294
19.6352 281
19.65531 246
19.67543 337
19.69554 300
19.71565 304
19.73577 332
19.75588 331
19.776 314
19.79611 369
19.81622 317
19.83634 319
19.85645 313
19.87656 321
19.89668 325
19.91679 325
19.93691 308
19.95702 314
19.97713 315
19.99725 319
20.01736 320
20.03747 300
20.05759 318
20.0777 346
20.09782 321
20.11793 337
20.13804 287
20.15816 296
20.17827 308
20.19838 291
20.2185 331
20.23861 374
20.25872 345
20.27884 352
20.29895 346
20.31907 344
20.33918 352
20.35929 345
20.37941 337
20.39952 367
20.41963 354
20.43975 341
20.45986 358
20.47998 362
20.50009 382
20.5202 423
20.54032 448
20.56043 425
20.58054 454
20.60066 473
20.62077 571
20.64088 615
20.661 782
20.68111 967
20.70123 1312
20.72134 1818
20.74145 2387
20.76157 3300
20.78168 4231
20.80179 5200
20.82191 5660
20.84202 5709
20.86214 5171
20.88225 4342
20.90236 3241
20.92248 2302
20.94259 1687
20.9627 1250
20.98282 1027
21.00293 917
21.02305 794
21.04316 754
21.06327 605
21.08339 584
21.1035 513
21.12361 457
21.14373 392
21.16384 403
21.18395 367
21.20407 341
21.22418 332
21.2443 340
21.26441 336
21.28452 361
21.30464 325
21.32475 321
21.34486 320
21.36498 314
21.38509 312
21.40521 288
21.42532 315
21.44543 289
21.46555 281
21.48566 294
21.50577 264
21.52589 288
21.546 286
21.56612 301
21.58623 311
21.60634 288
21.62646 275
21.64657 318
21.66668 289
21.6868 314
21.70691 265
21.72702 257
21.74714 291
21.76725 249
21.78737 275
21.80748 267
21.82759 261
21.84771 254
21.86782 249
21.88793 273
21.90805 297
21.92816 310
21.94828 300
21.96839 300
21.9885 313
22.00862 338
22.02873 271
22.04884 267
22.06896 292
22.08907 308
22.10919 286
22.1293 268
22.14941 303
22.16953 288
22.18964 295
22.20975 303
22.22987 303
22.24998 299
22.27009 349
22.29021 362
22.31032 351
22.33044 338
22.35055 338
22.37066 360
22.39078 369
22.41089 326
22.431 329
22.45112 329
22.47123 345
22.49135 318
22.51146 333
22.53157 299
22.55169 320
22.5718 290
22.59191 305
22.61203 313
22.63214 264
22.65225 282
22.67237 282
22.69248 254
22.7126 261
22.73271 268
22.75282 282
22.77294 249
22.79305 286
22.81316 244
22.83328 274
22.85339 243
22.87351 284
22.89362 264
22.91373 285
22.93385 284
22.95396 304
22.97407 302
22.99419 302
23.0143 334
23.03442 354
23.05453 333
23.07464 316
23.09476 332
23.11487 369
23.13498 337
23.1551 363
23.17521 437
23.19532 411
23.21544 412
23.23555 373
23.25567 407
23.27578 374
23.29589 381
23.31601 382
23.33612 378
23.35623 322
23.37635 335
23.39646 336
23.41658 392
23.43669 340
23.4568 398
23.47692 395
23.49703 405
23.51714 369
23.53726 421
23.55737 381
23.57749 362
23.5976 387
23.61771 334
23.63783 384
23.65794 364
23.67805 369
23.69817 374
23.71828 361
23.73839 344
23.75851 328
23.77862 393
23.79874 352
23.81885 355
23.83896 404
23.85908 368
23.87919 421
23.8993 408
23.91942 425
23.93953 485
23.95965 420
23.97976 415
23.99987 409
24.01999 380
24.0401 356
24.06021 347
24.08033 313
24.10044 303
24.12056 313
24.14067 311
24.16078 318
24.1809 334
24.20101 333
24.22112 356
24.24124 321
24.26135 321
24.28146 339
24.30158 325
24.32169 334
24.34181 328
24.36192 314
24.38203 325
24.40215 303
24.42226 335
24.44237 267
24.46249 294
24.4826 263
24.50272 290
24.52283 358
24.54294 287
24.56306 305
24.58317 290
24.60328 288
24.6234 312
24.64351 287
24.66362 331
24.68374 294
24.70385 335
24.72397 344
24.74408 317
24.76419 273
24.78431 302
24.80442 305
24.82453 280
24.84465 331
24.86476 299
24.88488 293
24.90499 299
24.9251 308
24.94522 276
24.96533 296
24.98544 300
25.00556 284
25.02567 263
25.04579 276
25.0659 299
25.08601 293
25.10613 284
25.12624 298
25.14635 289
25.16647 257
25.18658 296
25.20669 297
25.22681 259
25.24692 293
25.26704 297
25.28715 312
25.30726 312
25.32738 317
25.34749 332
25.3676 316
25.38772 321
25.40783 375
25.42795 455
25.44806 422
25.46817 476
25.48829 541
25.5084 539
25.52851 619
25.54863 622
25.56874 623
25.58886 672
25.60897 619
25.62908 618
25.6492 568
25.66931 581
25.68942 542
25.70954 505
25.72965 469
25.74976 427
25.76988 453
25.78999 455
25.81011 445
25.83022 412
25.85033 421
25.87045 395
25.89056 454
25.91067 435
25.93079 421
25.9509 446
25.97102 427
25.99113 471
26.01124 446
26.03136 493
26.05147 500
26.07158 536
26.0917 561
26.11181 562
26.13193 604
26.15204 608
26.17215 697
26.19227 731
26.21238 816
26.23249 861
26.25261 849
26.27272 916
26.29283 1000
26.31295 1115
26.33306 1288
26.35318 1485
26.37329 1692
26.3934 2044
26.41352 2547
26.43363 3329
26.45374 4500
26.47386 5997
26.49397 8536
26.51409 11539
26.5342 15361
26.55431 19114
26.57443 22461
26.59454 25130
26.61465 25472
26.63477 23846
26.65488 19609
26.67499 15019
26.69511 11169
26.71522 7461
26.73534 4896
26.75545 3006
26.77556 1937
26.79568 1610
26.81579 1306
26.8359 1271
26.85602 1249
26.87613 1122
26.89625 1072
26.91636 1067
26.93647 1022
26.95659 1063
26.9767 1024
26.99681 1001
27.01693 990
27.03704 950
27.05716 940
27.07727 923
27.09738 854
27.1175 763
27.13761 759
27.15772 727
27.17784 626
27.19795 615
27.21806 628
27.23818 644
27.25829 698
27.27841 659
27.29852 819
27.31863 827
27.33875 877
27.35886 958
27.37897 1033
27.39909 1213
27.4192 1235
27.43932 1182
27.45943 1137
27.47954 1182
27.49966 1111
27.51977 1030
27.53988 828
27.56 711
27.58011 625
27.60023 577
27.62034 501
27.64045 443
27.66057 414
27.68068 457
27.70079 443
27.72091 448
27.74102 428
27.76113 441
27.78125 411
27.80136 463
27.82148 414
27.84159 464
27.8617 459
27.88182 461
27.90193 394
27.92204 427
27.94216 443
27.96227 400
27.98239 367
28.0025 392
28.02261 322
28.04273 308
28.06284 319
28.08295 310
28.10307 329
28.12318 345
28.1433 326
28.16341 322
28.18352 333
28.20364 323
28.22375 307
28.24386 311
28.26398 309
28.28409 310
28.3042 317
28.32432 333
28.34443 272
28.36455 263
28.38466 261
28.40477 272
28.42489 290
28.445 319
28.46511 252
28.48523 304
28.50534 276
28.52546 299
28.54557 301
28.56568 281
28.5858 262
28.60591 295
28.62602 276
28.64614 260
28.66625 255
28.68636 257
28.70648 257
28.72659 282
28.74671 272
28.76682 235
28.78693 284
28.80705 253
28.82716 265
28.84727 265
28.86739 279
28.8875 231
28.90762 280
28.92773 254
28.94784 248
28.96796 260
28.98807 271
29.00818 253
29.0283 261
29.04841 273
29.06853 254
29.08864 285
29.10875 265
29.12887 257
29.14898 254
29.16909 276
29.18921 304
29.20932 275
29.22943 257
29.24955 296
29.26966 302
29.28978 311
29.30989 285
29.33 321
29.35012 312
29.37023 311
29.39034 339
29.41046 327
29.43057 356
29.45069 347
29.4708 346
29.49091 377
29.51103 394
29.53114 360
29.55125 343
29.57137 322
29.59148 346
29.6116 302
29.63171 310
29.65182 287
29.67194 330
29.69205 323
29.71216 298
29.73228 303
29.75239 319
29.7725 330
29.79262 348
29.81273 325
29.83285 330
29.85296 378
29.87307 320
29.89319 352
29.9133 347
29.93341 365
29.95353 324
29.97364 355
29.99376 330
30.01387 349
30.03398 358
30.0541 406
30.07421 393
30.09432 372
30.11444 352
30.13455 381
30.15467 434
30.17478 361
30.19489 394
30.21501 364
30.23512 349
30.25523 351
30.27535 309
30.29546 292
30.31557 307
30.33569 260
30.3558 275
30.37592 285
30.39603 289
30.41614 284
30.43626 303
30.45637 261
30.47648 291
30.4966 247
30.51671 269
30.53683 312
30.55694 287
30.57705 303
30.59717 300
30.61728 347
30.63739 407
30.65751 394
30.67762 384
30.69773 383
30.71785 450
30.73796 472
30.75808 459
30.77819 427
30.7983 424
30.81842 391
30.83853 405
30.85864 388
30.87876 321
30.89887 332
30.91899 301
30.9391 286
30.95921 280
30.97933 238
30.99944 275
31.01955 216
31.03967 275
31.05978 231
31.0799 253
31.10001 248
31.12012 217
31.14024 231
31.16035 257
31.18046 251
31.20058 203
31.22069 209
31.2408 230
31.26092 255
31.28103 227
31.30115 212
31.32126 215
31.34137 231
31.36149 232
31.3816 206
31.40171 234
31.42183 229
31.44194 198
31.46206 220
31.48217 192
31.50228 220
31.5224 229
31.54251 250
31.56262 224
31.58274 226
31.60285 249
31.62297 216
31.64308 215
31.66319 211
31.68331 229
31.70342 219
31.72353 200
31.74365 210
31.76376 232
31.78387 180
31.80399 220
31.8241 213
31.84422 220
31.86433 205
31.88444 264
31.90456 232
31.92467 240
31.94478 239
31.9649 259
31.98501 236
32.00513 254
32.02524 253
32.04535 266
32.06547 249
32.08558 269
32.10569 301
32.12581 263
32.14592 270
32.16604 274
32.18615 270
32.20626 304
32.22638 283
32.24649 299
32.2666 296
32.28672 301
32.30683 277
32.32694 279
32.34706 292
32.36717 282
32.38729 293
32.4074 290
32.42751 290
32.44763 277
32.46774 273
32.48785 287
32.50797 271
32.52808 246
32.5482 247
32.56831 240
32.58842 255
32.60854 241
32.62865 222
32.64876 226
32.66888 220
32.68899 240
32.7091 211
32.72922 227
32.74933 230
32.76945 231
32.78956 232
32.80967 235
32.82979 216
32.8499 207
32.87001 232
32.89013 211
32.91024 245
32.93036 228
32.95047 238
32.97058 238
32.9907 246
33.01081 234
33.03092 258
33.05104 216
33.07115 247
33.09127 218
33.11138 229
33.13149 203
33.15161 217
33.17172 255
33.19183 214
33.21195 247
33.23206 249
33.25217 249
33.27229 237
33.2924 237
33.31252 231
33.33263 235
33.35274 215
33.37286 210
33.39297 243
33.41308 232
33.4332 222
33.45331 238
33.47343 240
33.49354 218
33.51365 234
33.53377 235
33.55388 237
33.57399 225
33.59411 211
33.61422 198
33.63434 239
33.65445 233
33.67456 205
33.69468 216
33.71479 172
33.7349 253
33.75502 214
33.77513 230
33.79524 206
33.81536 214
33.83547 197
33.85559 210
33.8757 197
33.89581 207
33.91593 210
33.93604 221
33.95615 227
33.97627 236
33.99638 256
34.0165 233
34.03661 273
34.05672 246
34.07684 255
34.09695 286
34.11706 321
34.13718 296
34.15729 314
34.17741 310
34.19752 306
34.21763 344
34.23775 330
34.25786 314
34.27797 313
34.29809 301
34.3182 326
34.33831 287
34.35843 308
34.37854 317
34.39866 301
34.41877 311
34.43888 297
34.459 285
34.47911 311
34.49922 315
34.51934 315
34.53945 289
34.55957 315
34.57968 338
34.59979 315
34.61991 335
34.64002 325
34.66013 315
34.68025 316
34.70036 359
34.72047 322
34.74059 322
34.7607 356
34.78082 331
34.80093 329
34.82104 356
34.84116 328
34.86127 371
34.88138 371
34.9015 384
34.92161 359
34.94173 345
34.96184 316
34.98195 309
35.00207 352
35.02218 351
35.04229 369
35.06241 320
35.08252 279
35.10264 332
35.12275 300
35.14286 323
35.16298 345
35.18309 311
35.2032 303
35.22332 344
35.24343 316
35.26354 322
35.28366 306
35.30377 347
35.32389 309
35.344 336
35.36411 294
35.38423 288
35.40434 305
35.42445 332
35.44457 328
35.46468 339
35.4848 329
35.50491 333
35.52502 331
35.54514 318
35.56525 330
35.58536 324
35.60548 299
35.62559 304
35.64571 300
35.66582 301
35.68593 290
35.70605 293
35.72616 282
35.74627 275
35.76639 290
35.7865 287
35.80661 304
35.82673 286
35.84684 280
35.86696 312
35.88707 264
35.90718 266
35.9273 253
35.94741 240
35.96752 266
35.98764 236
36.00775 237
36.02787 264
36.04798 278
36.06809 268
36.08821 262
36.10832 292
36.12843 276
36.14855 311
36.16866 276
36.18878 293
36.20889 304
36.229 285
36.24912 293
36.26923 374
36.28934 381
36.30946 421
36.32957 525
36.34968 608
36.3698 704
36.38991 880
36.41003 1086
36.43014 1315
36.45025 1569
36.47037 1811
36.49048 1836
36.51059 1913
36.53071 1721
36.55082 1515
36.57094 1369
36.59105 1142
36.61116 1019
36.63128 817
36.65139 650
36.6715 507
36.69162 372
36.71173 351
36.73184 337
36.75196 341
36.77207 283
36.79219 310
36.8123 304
36.83241 346
36.85253 288
36.87264 319
36.89275 302
36.91287 271
36.93298 301
36.9531 283
36.97321 283
36.99332 300
37.01344 290
37.03355 256
37.05366 273
37.07378 267
37.09389 251
37.11401 282
37.13412 244
37.15423 243
37.17435 261
37.19446 241
37.21457 256
37.23469 264
37.2548 246
37.27491 266
37.29503 239
37.31514 268
37.33526 219
37.35537 223
37.37548 245
37.3956 232
37.41571 242
37.43582 253
37.45594 223
37.47605 253
37.49617 234
37.51628 247
37.53639 228
37.55651 238
37.57662 227
37.59673 238
37.61685 240
37.63696 210
37.65708 236
37.67719 233
37.6973 251
37.71742 224
37.73753 246
37.75764 244
37.77776 239
37.79787 222
37.81798 236
37.8381 209
37.85821 219
37.87833 238
37.89844 225
37.91855 225
37.93867 241
37.95878 229
37.97889 232
37.99901 218
38.01912 196
38.03924 201
38.05935 220
38.07946 211
38.09958 229
38.11969 220
38.1398 221
38.15992 219
38.18003 227
38.20015 206
38.22026 240
38.24037 224
38.26049 208
38.2806 222
38.30071 230
38.32083 196
38.34094 197
38.36105 236
38.38117 247
38.40128 248
38.4214 241
38.44151 261
38.46162 236
38.48174 291
38.50185 250
38.52196 245
38.54208 252
38.56219 300
38.58231 259
38.60242 265
38.62253 240
38.64265 270
38.66276 244
38.68287 223
38.70299 231
38.7231 219
38.74321 229
38.76333 240
38.78344 226
38.80356 233
38.82367 222
38.84378 203
38.8639 222
38.88401 206
38.90412 224
38.92424 221
38.94435 223
38.96447 235
38.98458 222
39.00469 245
39.02481 268
39.04492 222
39.06503 281
39.08515 252
39.10526 282
39.12538 258
39.14549 303
39.1656 281
39.18572 339
39.20583 343
39.22594 431
39.24606 455
39.26617 474
39.28628 640
39.3064 768
39.32651 927
39.34663 1111
39.36674 1383
39.38685 1534
39.40697 1676
39.42708 1743
39.44719 1671
39.46731 1516
39.48742 1268
39.50754 1093
39.52765 927
39.54776 785
39.56788 632
39.58799 516
39.6081 391
39.62822 321
39.64833 262
39.66845 295
39.68856 266
39.70867 239
39.72879 250
39.7489 280
39.76901 223
39.78913 247
39.80924 242
39.82935 239
39.84947 227
39.86958 237
39.8897 243
39.90981 207
39.92992 288
39.95004 262
39.97015 268
39.99026 280
40.01038 302
40.03049 305
40.05061 288
40.07072 347
40.09083 409
40.11095 440
40.13106 494
40.15117 602
40.17129 700
40.1914 808
40.21152 866
40.23163 948
40.25174 931
40.27186 933
40.29197 859
40.31208 685
40.3322 636
40.35231 607
40.37242 471
40.39254 409
40.41265 369
40.43277 301
40.45288 266
40.47299 253
40.49311 263
40.51322 231
40.53333 235
40.55345 208
40.57356 242
40.59368 235
40.61379 244
40.6339 227
40.65402 212
40.67413 231
40.69424 251
40.71436 233
40.73447 234
40.75458 233
40.7747 228
40.79481 191
40.81493 211
40.83504 219
40.85515 231
40.87527 220
40.89538 203
40.91549 198
40.93561 236
40.95572 199
40.97584 211
40.99595 226
41.01606 227
41.03618 231
41.05629 194
41.0764 234
41.09652 219
41.11663 239
41.13675 238
41.15686 221
41.17697 256
41.19709 224
41.2172 212
41.23731 225
41.25743 227
41.27754 243
41.29765 213
41.31777 243
41.33788 226
41.358 228
41.37811 234
41.39822 229
41.41834 262
41.43845 244
41.45856 250
41.47868 252
41.49879 244
41.51891 248
41.53902 268
41.55913 259
41.57925 268
41.59936 269
41.61947 273
41.63959 312
41.6597 356
41.67982 351
41.69993 376
41.72004 355
41.74016 367
41.76027 392
41.78038 381
41.8005 387
41.82061 369
41.84072 339
41.86084 319
41.88095 276
41.90107 290
41.92118 263
41.94129 252
41.96141 247
41.98152 254
42.00163 267
42.02175 251
42.04186 248
42.06198 270
42.08209 266
42.1022 280
42.12232 290
42.14243 292
42.16254 304
42.18266 347
42.20277 327
42.22289 425
42.243 447
42.26311 565
42.28323 637
42.30334 697
42.32345 886
42.34357 1021
42.36368 1231
42.38379 1234
42.40391 1268
42.42402 1218
42.44414 1098
42.46425 968
42.48436 903
42.50448 754
42.52459 668
42.5447 617
42.56482 513
42.58493 417
42.60505 356
42.62516 288
42.64527 306
42.66539 261
42.6855 292
42.70561 269
42.72573 269
42.74584 234
42.76595 227
42.78607 220
42.80618 237
42.8263 234
42.84641 225
42.86652 214
42.88664 203
42.90675 214
42.92686 208
42.94698 192
42.96709 228
42.98721 222
43.00732 214
43.02743 197
43.04755 208
43.06766 208
43.08777 197
43.10789 207
43.128 202
43.14812 198
43.16823 213
43.18834 188
43.20846 198
43.22857 216
43.24868 191
43.2688 213
43.28891 220
43.30902 188
43.32914 205
43.34925 213
43.36937 221
43.38948 251
43.40959 194
43.42971 225
43.44982 209
43.46993 213
43.49005 178
43.51016 208
43.53028 250
43.55039 213
43.5705 238
43.59062 250
43.61073 204
43.63084 221
43.65096 191
43.67107 205
43.69119 207
43.7113 207
43.73141 210
43.75153 188
43.77164 199
43.79175 215
43.81187 201
43.83198 189
43.85209 208
43.87221 208
43.89232 194
43.91244 222
43.93255 221
43.95266 234
43.97278 235
43.99289 202
44.013 209
44.03312 187
44.05323 224
44.07335 206
44.09346 241
44.11357 204
44.13369 197
44.1538 201
44.17391 173
44.19403 217
44.21414 195
44.23426 218
44.25437 228
44.27448 207
44.2946 186
44.31471 194
44.33482 184
44.35494 206
44.37505 192
44.39516 241
44.41528 215
44.43539 201
44.45551 214
44.47562 195
44.49573 192
44.51585 203
44.53596 185
44.55607 211
44.57619 184
44.5963 225
44.61642 202
44.63653 188
44.65664 188
44.67676 217
44.69687 211
44.71698 231
44.7371 196
44.75721 189
44.77732 207
44.79744 189
44.81755 188
44.83767 194
44.85778 200
44.87789 204
44.89801 200
44.91812 202
44.93823 198
44.95835 211
44.97846 210
44.99858 210
45.01869 219
45.0388 189
45.05892 202
45.07903 206
45.09914 234
45.11926 181
45.13937 220
45.15949 193
45.1796 213
45.19971 216
45.21983 212
45.23994 219
45.26005 223
45.28017 184
45.30028 227
45.32039 201
45.34051 201
45.36062 220
45.38074 238
45.40085 256
45.42096 258
45.44108 250
45.46119 265
45.4813 284
45.50142 299
45.52153 283
45.54165 304
45.56176 404
45.58187 395
45.60199 443
45.6221 510
45.64221 507
45.66233 636
45.68244 714
45.70256 855
45.72267 915
45.74278 956
45.7629 925
45.78301 817
45.80312 718
45.82324 646
45.84335 566
45.86346 554
45.88358 532
45.90369 451
45.92381 407
45.94392 329
45.96403 287
45.98415 278
46.00426 238
46.02437 216
46.04449 235
46.0646 204
46.08472 233
46.10483 216
46.12494 217
46.14506 194
46.16517 224
46.18528 197
46.2054 217
46.22551 226
46.24563 221
46.26574 211
46.28585 202
46.30597 182
46.32608 204
46.34619 178
46.36631 203
46.38642 201
46.40653 197
46.42665 176
46.44676 186
46.46688 184
46.48699 184
46.5071 199
46.52722 204
46.54733 190
46.56744 192
46.58756 196
46.60767 164
46.62779 192
46.6479 191
46.66801 212
46.68813 204
46.70824 210
46.72835 157
46.74847 188
46.76858 178
46.78869 173
46.80881 203
46.82892 198
46.84904 213
46.86915 191
46.88926 224
46.90938 199
46.92949 232
46.9496 180
46.96972 214
46.98983 210
47.00995 245
47.03006 246
47.05017 249
47.07029 228
47.0904 251
47.11051 262
47.13063 247
47.15074 239
47.17086 231
47.19097 225
47.21108 234
47.2312 212
47.25131 220
47.27142 217
47.29154 215
47.31165 210
47.33176 207
47.35188 200
47.37199 194
47.39211 244
47.41222 199
47.43233 217
47.45245 221
47.47256 210
47.49267 199
47.51279 220
47.5329 211
47.55302 181
47.57313 197
47.59324 190
47.61336 193
47.63347 209
47.65358 209
47.6737 182
47.69381 201
47.71393 189
47.73404 197
47.75415 190
47.77427 207
47.79438 201
47.81449 192
47.83461 175
47.85472 183
47.87483 199
47.89495 203
47.91506 171
47.93518 171
47.95529 176
47.9754 164
47.99552 205
48.01563 195
48.03574 173
48.05586 195
48.07597 195
48.09609 223
48.1162 175
48.13631 186
48.15643 183
48.17654 179
48.19665 199
48.21677 187
48.23688 171
48.257 173
48.27711 186
48.29722 190
48.31734 167
48.33745 189
48.35756 164
48.37768 214
48.39779 190
48.4179 165
48.43802 196
48.45813 185
48.47825 178
48.49836 190
48.51847 197
48.53859 199
48.5587 191
48.57881 197
48.59893 212
48.61904 202
48.63916 206
48.65927 182
48.67938 203
48.6995 213
48.71961 235
48.73972 220
48.75984 224
48.77995 237
48.80006 216
48.82018 225
48.84029 222
48.86041 222
48.88052 236
48.90063 228
48.92075 238
48.94086 238
48.96097 265
48.98109 212
49.0012 249
49.02132 245
49.04143 241
49.06154 239
49.08166 199
49.10177 221
49.12188 261
49.142 207
49.16211 227
49.18223 217
49.20234 218
49.22245 228
49.24257 206
49.26268 222
49.28279 201
49.30291 217
49.32302 164
49.34313 223
49.36325 203
49.38336 204
49.40348 240
49.42359 218
49.4437 215
49.46382 243
49.48393 209
49.50404 197
49.52416 203
49.54427 212
49.56439 253
49.5845 212
49.60461 262
49.62473 239
49.64484 254
49.66495 260
49.68507 285
49.70518 291
49.7253 288
49.74541 324
49.76552 317
49.78564 357
49.80575 378
49.82586 404
49.84598 453
49.86609 536
49.8862 575
49.90632 701
49.92643 834
49.94655 1012
49.96666 1245
49.98677 1497
50.00689 1796
50.027 2154
50.04711 2531
50.06723 2589
50.08734 2750
50.10746 2701
50.12757 2398
50.14768 2089
50.1678 1782
50.18791 1528
50.20802 1524
50.22814 1395
50.24825 1238
50.26837 1031
50.28848 718
50.30859 572
50.32871 414
50.34882 423
50.36893 363
50.38905 377
50.40916 359
50.42927 383
50.44939 399
50.4695 402
50.48962 441
50.50973 425
50.52984 448
50.54996 428
50.57007 408
50.59018 424
50.6103 390
50.63041 381
50.65053 416
50.67064 342
50.69075 336
50.71087 310
50.73098 314
50.75109 326
50.77121 301
50.79132 274
50.81143 268
50.83155 262
50.85166 265
50.87178 286
50.89189 233
50.912 257
50.93212 249
50.95223 254
50.97234 230
50.99246 217
51.01257 245
51.03269 224
51.0528 232
51.07291 250
51.09303 196
51.11314 241
51.13325 201
51.15337 223
51.17348 222
51.1936 181
51.21371 200
51.23382 204
51.25394 178
51.27405 178
51.29416 184
51.31428 206
51.33439 180
51.3545 181
51.37462 187
51.39473 175
51.41485 181
51.43496 168
51.45507 167
51.47519 186
51.4953 190
51.51541 189
51.53553 185
51.55564 211
51.57576 197
51.59587 181
51.61598 154
51.6361 180
51.65621 175
51.67632 175
51.69644 184
51.71655 209
51.73667 192
51.75678 190
51.77689 165
51.79701 201
51.81712 182
51.83723 172
51.85735 192
51.87746 178
51.89757 175
51.91769 184
51.9378 172
51.95792 179
51.97803 162
51.99814 153
52.01826 192
52.03837 175
52.05848 168
52.0786 182
52.09871 163
52.11883 200
52.13894 178
52.15905 212
52.17917 177
52.19928 180
52.21939 168
52.23951 175
52.25962 175
52.27974 199
52.29985 155
52.31996 187
52.34008 201
52.36019 192
52.3803 204
52.40042 161
52.42053 201
52.44064 198
52.46076 189
52.48087 180
52.50099 209
52.5211 190
52.54121 189
52.56133 188
52.58144 181
52.60155 190
52.62167 216
52.64178 202
52.6619 186
52.68201 178
52.70212 211
52.72224 202
52.74235 206
52.76246 172
52.78258 184
52.80269 187
52.8228 214
52.84292 219
52.86303 203
52.88315 201
52.90326 211
52.92337 181
52.94349 214
52.9636 193
52.98371 168
53.00383 183
53.02394 204
53.04406 212
53.06417 187
53.08428 182
53.1044 194
53.12451 195
53.14462 215
53.16474 199
53.18485 210
53.20497 170
53.22508 190
53.24519 191
53.26531 195
53.28542 204
53.30553 195
53.32565 214
53.34576 246
53.36587 219
53.38599 198
53.4061 199
53.42622 240
53.44633 215
53.46644 219
53.48656 195
53.50667 194
53.52678 209
53.5469 215
53.56701 207
53.58713 211
53.60724 200
53.62735 209
53.64747 190
53.66758 197
53.68769 199
53.70781 219
53.72792 193
53.74804 211
53.76815 170
53.78826 215
53.80838 200
53.82849 201
53.8486 221
53.86872 225
53.88883 234
53.90894 219
53.92906 227
53.94917 225
53.96929 206
53.9894 226
54.00951 197
54.02963 230
54.04974 239
54.06985 234
54.08997 237
54.11008 208
54.1302 221
54.15031 221
54.17042 211
54.19054 211
54.21065 230
54.23076 227
54.25088 224
54.27099 226
54.29111 219
54.31122 233
54.33133 208
54.35145 209
54.37156 246
54.39167 222
54.41179 237
54.4319 220
54.45201 241
54.47213 233
54.49224 204
54.51236 266
54.53247 223
54.55258 256
54.5727 269
54.59281 285
54.61292 303
54.63304 340
54.65315 349
54.67327 451
54.69338 507
54.71349 547
54.73361 672
54.75372 769
54.77383 792
54.79395 854
54.81406 884
54.83417 848
54.85429 831
54.8744 697
54.89452 669
54.91463 641
54.93474 604
54.95486 579
54.97497 567
54.99508 445
55.0152 462
55.03531 384
55.05543 336
55.07554 317
55.09565 311
55.11577 333
55.13588 349
55.15599 387
55.17611 371
55.19622 364
55.21634 480
55.23645 475
55.25656 486
55.27668 470
55.29679 478
55.3169 434
55.33702 438
55.35713 399
55.37724 350
55.39736 358
55.41747 366
55.43759 340
55.4577 319
55.47781 292
55.49793 287
55.51804 252
55.53815 250
55.55827 221
55.57838 208
55.5985 205
55.61861 225
55.63872 210
55.65884 198
55.67895 204
55.69906 196
55.71918 210
55.73929 215
55.75941 211
55.77952 218
55.79963 174
55.81975 208
55.83986 194
55.85997 193
55.88009 191
55.9002 189
55.92031 170
55.94043 199
55.96054 185
55.98066 186
56.00077 193
56.02088 194
56.041 180
56.06111 184
56.08122 170
56.10134 190
56.12145 191
56.14157 168
56.16168 170
56.18179 193
56.20191 206
56.22202 201
56.24213 189
56.26225 175
56.28236 191
56.30248 176
56.32259 195
56.3427 188
56.36282 183
56.38293 214
56.40304 157
56.42316 176
56.44327 176
56.46338 192
56.4835 156
56.50361 185
56.52373 208
56.54384 220
56.56395 184
56.58407 179
56.60418 195
56.62429 177
56.64441 191
56.66452 195
56.68464 213
56.70475 189
56.72486 225
56.74498 206
56.76509 186
56.7852 159
56.80532 210
56.82543 167
56.84554 203
56.86566 178
56.88577 150
56.90589 185
56.926 173
56.94611 209
56.96623 199
56.98634 189
57.00645 213
57.02657 205
57.04668 200
57.0668 216
57.08691 216
57.10702 227
57.12714 248
57.14725 239
57.16736 241
57.18748 226
57.20759 206
57.22771 246
57.24782 207
57.26793 215
57.28805 194
57.30816 216
57.32827 212
57.34839 209
57.3685 223
57.38861 195
57.40873 200
57.42884 193
57.44896 201
57.46907 189
57.48918 184
57.5093 181
57.52941 185
57.54952 203
57.56964 191
57.58975 197
57.60987 197
57.62998 196
57.65009 196
57.67021 167
57.69032 179
57.71043 177
57.73055 171
57.75066 179
57.77078 203
57.79089 177
57.811 198
57.83112 195
57.85123 188
57.87134 176
57.89146 170
57.91157 191
57.93168 172
57.9518 190
57.97191 188
57.99203 189
58.01214 178
58.03225 193
58.05237 173
58.07248 161
58.09259 189
58.11271 191
58.13282 172
58.15294 175
58.17305 180
58.19316 181
58.21328 189
58.23339 193
58.2535 167
58.27362 176
58.29373 186
58.31385 200
58.33396 198
58.35407 197
58.37419 182
58.3943 175
58.41441 194
58.43453 185
58.45464 199
58.47475 199
58.49487 209
58.51498 214
58.5351 202
58.55521 192
58.57532 223
58.59544 195
58.61555 196
58.63566 227
58.65578 185
58.67589 211
58.69601 210
58.71612 204
58.73623 202
58.75635 202
58.77646 203
58.79657 182
58.81669 180
58.8368 169
58.85691 214
58.87703 181
58.89714 200
58.91726 182
58.93737 178
58.95748 177
58.9776 191
58.99771 205
59.01782 185
59.03794 189
59.05805 199
59.07817 182
59.09828 183
59.11839 188
59.13851 190
59.15862 198
59.17873 205
59.19885 212
59.21896 237
59.23908 202
59.25919 202
59.2793 176
59.29942 211
59.31953 223
59.33964 205
59.35976 200
59.37987 200
59.39998 221
59.4201 233
59.44021 260
59.46033 231
59.48044 238
59.50055 245
59.52067 235
59.54078 250
59.56089 280
59.58101 287
59.60112 314
59.62124 328
59.64135 354
59.66146 405
59.68158 414
59.70169 521
59.7218 551
59.74192 658
59.76203 797
59.78215 904
59.80226 1135
59.82237 1325
59.84249 1464
59.8626 1694
59.88271 1768
59.90283 1720
59.92294 1658
59.94305 1485
59.96317 1203
59.98328 1075
60.0034 988
60.02351 994
60.04362 1004
60.06374 972
60.08385 877
60.10396 792
60.12408 612
60.14419 480
60.16431 394
60.18442 319
60.20453 313
60.22465 268
60.24476 265
60.26487 247
60.28499 227
60.3051 243
60.32522 221
60.34533 241
60.36544 225
60.38556 230
60.40567 212
60.42578 197
60.4459 223
60.46601 230
60.48612 182
60.50624 209
60.52635 194
60.54647 198
60.56658 223
60.58669 191
60.60681 199
60.62692 188
60.64703 167
60.66715 192
60.68726 195
60.70738 176
60.72749 181
60.7476 218
60.76772 188
60.78783 192
60.80794 204
60.82806 205
60.84817 213
60.86828 207
60.8884 207
60.90851 196
60.92863 216
60.94874 192
60.96885 207
60.98897 198
61.00908 183
61.02919 215
61.04931 219
61.06942 212
61.08954 216
61.10965 230
61.12976 212
61.14988 232
61.16999 216
61.1901 221
61.21022 221
61.23033 217
61.25045 198
61.27056 238
61.29067 216
61.31079 214
61.3309 219
61.35101 199
61.37113 216
61.39124 174
61.41135 203
61.43147 210
61.45158 223
61.4717 201
61.49181 231
61.51192 218
61.53204 204
61.55215 209
61.57226 222
61.59238 220
61.61249 220
61.63261 186
61.65272 236
61.67283 231
61.69295 230
61.71306 199
61.73317 223
61.75329 214
61.7734 225
61.79352 212
61.81363 224
61.83374 224
61.85386 193
61.87397 240
61.89408 199
61.9142 229
61.93431 221
61.95442 191
61.97454 198
61.99465 201
62.01477 225
62.03488 220
62.05499 197
62.07511 234
62.09522 224
62.11533 204
62.13545 201
62.15556 228
62.17568 217
62.19579 206
62.2159 214
62.23602 177
62.25613 239
62.27624 206
62.29636 210
62.31647 205
62.33659 218
62.3567 225
62.37681 211
62.39693 231
62.41704 202
62.43715 219
62.45727 203
62.47738 166
62.49749 180
62.51761 209
62.53772 194
62.55784 191
62.57795 216
62.59806 204
62.61818 197
62.63829 218
62.6584 212
62.67852 194
62.69863 199
62.71875 206
62.73886 218
62.75897 165
62.77909 219
62.7992 237
62.81931 212
62.83943 200
62.85954 206
62.87965 202
62.89977 232
62.91988 183
62.94 189
62.96011 182
62.98022 201
63.00034 206
63.02045 209
63.04056 199
63.06068 203
63.08079 218
63.10091 188
63.12102 213
63.14113 207
63.16125 195
63.18136 192
63.20147 188
63.22159 176
63.2417 199
63.26182 202
63.28193 179
63.30204 196
63.32216 189
63.34227 176
63.36238 200
63.3825 180
63.40261 200
63.42272 168
63.44284 176
63.46295 190
63.48307 182
63.50318 189
63.52329 171
63.54341 214
63.56352 198
63.58363 218
63.60375 212
63.62386 200
63.64398 229
63.66409 222
63.6842 266
63.70432 212
63.72443 225
63.74454 247
63.76466 298
63.78477 251
63.80489 276
63.825 309
63.84511 332
63.86523 358
63.88534 420
63.90545 461
63.92557 438
63.94568 480
63.96579 503
63.98591 497
64.00602 468
64.02614 417
64.04625 370
64.06636 358
64.08648 355
64.10659 352
64.1267 376
64.14682 356
64.16693 328
64.18705 304
64.20716 312
64.22727 272
64.24739 226
64.2675 216
64.28761 213
64.30773 228
64.32784 203
64.34796 187
64.36807 166
64.38818 195
64.4083 189
64.42841 189
64.44852 189
64.46864 187
64.48875 203
64.50886 196
64.52898 189
64.54909 159
64.56921 203
64.58932 183
64.60943 168
64.62955 178
64.64966 188
64.66977 181
64.68989 194
64.71 209
64.73012 183
64.75023 193
64.77034 190
64.79046 192
64.81057 175
64.83068 183
64.8508 183
64.87091 201
64.89102 188
64.91114 184
64.93125 187
64.95137 194
64.97148 190
64.99159 204
65.01171 186
65.03182 182
65.05193 196
65.07205 202
65.09216 206
65.11228 218
65.13239 218
65.1525 208
65.17262 232
65.19273 212
65.21284 207
65.23296 216
65.25307 215
65.27319 219
65.2933 210
65.31341 224
65.33353 198
65.35364 183
65.37375 207
65.39387 201
65.41398 210
65.43409 225
65.45421 203
65.47432 187
65.49444 199
65.51455 188
65.53466 203
65.55478 206
65.57489 202
65.595 213
65.61512 195
65.63523 233
65.65535 206
65.67546 243
65.69557 248
65.71569 249
65.7358 266
65.75591 229
65.77603 231
65.79614 217
65.81626 196
65.83637 211
65.85648 202
65.8766 207
65.89671 207
65.91682 203
65.93694 219
65.95705 181
65.97716 210
65.99728 208
66.01739 186
66.03751 184
66.05762 167
66.07773 195
66.09785 233
66.11796 200
66.13807 204
66.15819 202
66.1783 195
66.19842 206
66.21853 203
66.23864 214
66.25876 198
66.27887 205
66.29898 187
66.3191 191
66.33921 211
66.35933 188
66.37944 198
66.39955 192
66.41967 185
66.43978 208
66.45989 157
66.48001 201
66.50012 185
66.52023 221
66.54035 194
66.56046 202
66.58058 185
66.60069 197
66.6208 204
66.64092 176
66.66103 179
66.68114 177
66.70126 162
66.72137 207
66.74149 183
66.7616 175
66.78171 179
66.80183 213
66.82194 189
66.84205 186
66.86217 162
66.88228 174
66.90239 180
66.92251 203
66.94262 179
66.96274 192
66.98285 178
67.00296 196
67.02308 211
67.04319 201
67.0633 212
67.08342 203
67.10353 227
67.12365 198
67.14376 226
67.16387 190
67.18399 234
67.2041 206
67.22421 220
67.24433 201
67.26444 231
67.28456 219
67.30467 226
67.32478 243
67.3449 249
67.36501 273
67.38512 263
67.40524 269
67.42535 309
67.44546 324
67.46558 361
67.48569 389
67.50581 449
67.52592 512
67.54603 597
67.56615 623
67.58626 712
67.60637 850
67.62649 942
67.6466 995
67.66672 1094
67.68683 1043
67.70694 1033
67.72706 944
67.74717 826
67.76728 732
67.7874 704
67.80751 761
67.82763 767
67.84774 812
67.86785 812
67.88797 844
67.90808 827
67.92819 793
67.94831 815
67.96842 875
67.98853 993
68.00865 1202
68.02876 1333
68.04888 1294
68.06899 1425
68.0891 1482
68.10922 1396
68.12933 1343
68.14944 1295
68.16956 1220
68.18967 1218
68.20979 1355
68.2299 1392
68.25001 1386
68.27013 1379
68.29024 1173
68.31035 1021
68.33047 879
68.35058 745
68.3707 663
68.39081 612
68.41092 589
68.43104 576
68.45115 522
68.47126 517
68.49138 440
68.51149 369
68.5316 297
68.55172 275
68.57183 259
68.59195 249
68.61206 216
68.63217 216
68.65229 211
68.6724 224
68.69251 209
68.71263 189
68.73274 191
68.75286 209
68.77297 222
68.79308 189
68.8132 207
68.83331 168
68.85342 164
68.87354 213
68.89365 185
68.91376 163
68.93388 197
68.95399 163
68.97411 189
68.99422 191
69.01433 212
69.03445 162
69.05456 157
69.07467 160
69.09479 191
69.1149 169
69.13502 183
69.15513 194
69.17524 187
69.19536 174
69.21547 175
69.23558 178
69.2557 161
69.27581 166
69.29593 172
69.31604 155
69.33615 172
69.35627 159
69.37638 168
69.39649 176
69.41661 169
69.43672 183
69.45683 169
69.47695 170
69.49706 162
69.51718 187
69.53729 173
69.5574 188
69.57752 163
69.59763 167
69.61774 172
69.63786 141
69.65797 175
69.67809 154
69.6982 186
69.71831 160
69.73843 165
69.75854 200
69.77865 181
69.79877 169
69.81888 165
69.839 178
69.85911 165
69.87922 169
69.89934 179
69.91945 164
69.93956 189
69.95968 180
69.97979 153
69.9999 164
70.02002 168
70.04013 183
70.06025 193
70.08036 178
70.10047 170
70.12059 171
70.1407 171
70.16081 160
70.18093 173
70.20104 167
70.22116 172
70.24127 176
70.26138 163
70.2815 210
70.30161 172
70.32172 162
70.34184 169
70.36195 160
70.38207 170
70.40218 171
70.42229 198
70.44241 188
70.46252 177
70.48263 185
70.50275 173
70.52286 186
70.54297 173
70.56309 174
70.5832 170
70.60332 159
70.62343 177
70.64354 187
70.66366 159
70.68377 170
70.70388 163
70.724 163
70.74411 187
70.76423 172
70.78434 193
70.80445 156
70.82457 153
70.84468 157
70.86479 176
70.88491 171
70.90502 163
70.92513 162
70.94525 173
70.96536 151
70.98548 150
71.00559 157
71.0257 144
71.04582 167
71.06593 168
71.08604 172
71.10616 147
71.12627 147
71.14639 143
71.1665 168
71.18661 154
71.20673 156
71.22684 168
71.24695 167
71.26707 158
71.28718 147
71.3073 157
71.32741 156
71.34752 165
71.36764 166
71.38775 161
71.40786 170
71.42798 176
71.44809 185
71.4682 176
71.48832 183
71.50843 171
71.52855 164
71.54866 200
71.56877 160
71.58889 165
71.609 196
71.62911 191
71.64923 179
71.66934 187
71.68946 204
71.70957 215
71.72968 186
71.7498 178
71.76991 168
71.79002 169
71.81014 188
71.83025 189
71.85037 196
71.87048 178
71.89059 188
71.91071 170
71.93082 184
71.95093 184
71.97105 195
71.99116 183
72.01127 189
72.03139 172
72.0515 191
72.07162 175
72.09173 197
72.11184 174
72.13196 204
72.15207 168
72.17218 183
72.1923 180
72.21241 200
72.23253 176
72.25264 181
72.27275 195
72.29287 168
72.31298 187
72.33309 174
72.35321 177
72.37332 179
72.39344 182
72.41355 189
72.43366 193
72.45378 178
72.47389 174
72.494 177
72.51412 179
72.53423 174
72.55434 191
72.57446 164
72.59457 180
72.61469 166
72.6348 202
72.65491 175
72.67503 188
72.69514 187
72.71525 165
72.73537 172
72.75548 169
72.7756 185
72.79571 185
72.81582 159
72.83594 183
72.85605 189
72.87616 195
72.89628 182
72.91639 191
72.9365 216
72.95662 221
72.97673 206
72.99685 196
73.01696 209
73.03707 219
73.05719 218
73.0773 199
73.09741 194
73.11753 227
73.13764 224
73.15776 231
73.17787 240
73.19798 272
73.2181 276
73.23821 299
73.25832 294
73.27844 327
73.29855 370
73.31867 410
73.33878 402
73.35889 463
73.37901 495
73.39912 467
73.41923 450
73.43935 487
73.45946 444
73.47957 368
73.49969 355
73.5198 312
73.53992 343
73.56003 346
73.58014 362
73.60026 376
73.62037 375
73.64048 348
73.6606 303
73.68071 274
73.70083 262
73.72094 218
73.74105 206
73.76117 195
73.78128 177
73.80139 195
73.82151 184
73.84162 198
73.86174 191
73.88185 186
73.90196 171
73.92208 199
73.94219 168
73.9623 201
73.98242 190
74.00253 213
74.02264 177
74.04276 173
74.06287 177
74.08299 166
74.1031 161
74.12321 204
74.14333 197
74.16344 165
74.18355 170
74.20367 156
74.22378 188
74.2439 183
74.26401 175
74.28412 184
74.30424 193
74.32435 182
74.34446 208
74.36458 164
74.38469 173
74.40481 181
74.42492 194
74.44503 191
74.46515 167
74.48526 193
74.50537 177
74.52549 192
74.5456 186
74.56571 159
74.58583 188
74.60594 194
74.62606 180
74.64617 193
74.66628 185
74.6864 173
74.70651 192
74.72662 157
74.74674 192
74.76685 174
74.78697 191
74.80708 156
74.82719 181
74.84731 214
74.86742 177
74.88753 168
74.90765 186
74.92776 178
74.94787 187
74.96799 196
74.9881 175
75.00822 191
