3.00117 20806
3.02128 20911
3.0414 19899
3.06151 19938
3.08162 18791
3.10174 18509
3.12185 17912
3.14197 17478
3.16208 17239
3.18219 16393
3.20231 15911
3.22242 15226
3.24253 14931
3.26265 14988
3.28276 14223
3.30288 13595
3.32299 13322
3.3431 12875
3.36322 12382
3.38333 12007
3.40344 11892
3.42356 11477
3.44367 10987
3.46379 10589
3.4839 10047
3.50401 9822
3.52413 9496
3.54424 9233
3.56435 9025
3.58447 8745
3.60458 8309
3.62469 8052
3.64481 7695
3.66492 7439
3.68504 7190
3.70515 7034
3.72526 6614
3.74538 6330
3.76549 6134
3.7856 5840
3.80572 5645
3.82583 5377
3.84595 5247
3.86606 5107
3.88617 4757
3.90629 4475
3.9264 4272
3.94651 4176
3.96663 4114
3.98674 3833
4.00686 3857
4.02697 3526
4.04708 3331
4.0672 3307
4.08731 3123
4.10742 3078
4.12754 2785
4.14765 2787
4.16776 2727
4.18788 2532
4.20799 2535
4.22811 2262
4.24822 2234
4.26833 2244
4.28845 2093
4.30856 2076
4.32867 1989
4.34879 1918
4.3689 1996
4.38902 1984
4.40913 1858
4.42924 1700
4.44936 1657
4.46947 1704
4.48958 1593
4.5097 1684
4.52981 1530
4.54992 1442
4.57004 1513
4.59015 1547
4.61027 1435
4.63038 1370
4.65049 1443
4.67061 1362
4.69072 1383
4.71083 1190
4.73095 1302
4.75106 1229
4.77118 1256
4.79129 1228
4.8114 1116
4.83152 1128
4.85163 1039
4.87174 1062
4.89186 1081
4.91197 999
4.93209 1052
4.9522 942
4.97231 969
4.99243 981
5.01254 955
5.03265 1003
5.05277 872
5.07288 931
5.09299 904
5.11311 849
5.13322 880
5.15334 848
5.17345 856
5.19356 904
5.21368 811
5.23379 854
5.2539 786
5.27402 745
5.29413 760
5.31425 682
5.33436 727
5.35447 763
5.37459 743
5.3947 751
5.41481 719
5.43493 716
5.45504 687
5.47516 674
5.49527 666
5.51538 592
5.5355 649
5.55561 617
5.57572 671
5.59584 599
5.61595 618
5.63606 605
5.65618 571
5.67629 603
5.69641 554
5.71652 571
5.73663 581
5.75675 610
5.77686 555
5.79697 530
5.81709 515
5.8372 497
5.85732 564
5.87743 484
5.89754 555
5.91766 532
5.93777 504
5.95788 546
5.978 496
5.99811 532
6.01823 495
6.03834 554
6.05845 497
6.07857 506
6.09868 555
6.11879 503
6.13891 519
6.15902 499
6.17913 529
6.19925 513
6.21936 477
6.23948 536
6.25959 528
6.2797 539
6.29982 520
6.31993 512
6.34004 461
6.36016 488
6.38027 476
6.40039 497
6.4205 501
6.44061 504
6.46073 475
6.48084 466
6.50095 484
6.52107 467
6.54118 474
6.56129 445
6.58141 421
6.60152 495
6.62164 431
6.64175 457
6.66186 479
6.68198 459
6.70209 452
6.7222 494
6.74232 458
6.76243 441
6.78255 486
6.80266 492
6.82277 519
6.84289 481
6.863 485
6.88311 478
6.90323 506
6.92334 467
6.94346 505
6.96357 519
6.98368 540
7.0038 508
7.02391 497
7.04402 463
7.06414 559
7.08425 498
7.10436 518
7.12448 529
7.14459 537
7.16471 525
7.18482 507
7.20493 498
7.22505 490
7.24516 503
7.26527 499
7.28539 490
7.3055 497
7.32562 451
7.34573 534
7.36584 485
7.38596 444
7.40607 501
7.42618 486
7.4463 486
7.46641 499
7.48653 454
7.50664 510
7.52675 480
7.54687 477
7.56698 471
7.58709 503
7.60721 459
7.62732 495
7.64743 471
7.66755 456
7.68766 483
7.70778 404
7.72789 445
7.748 462
7.76812 442
7.78823 480
7.80834 486
7.82846 421
7.84857 453
7.86869 462
7.8888 443
7.90891 473
7.92903 479
7.94914 476
7.96925 431
7.98937 417
8.00948 467
8.0296 473
8.04971 453
8.06982 468
8.08994 474
8.11005 439
8.13016 453
8.15028 447
8.17039 433
8.1905 458
8.21062 453
8.23073 463
8.25085 436
8.27096 491
8.29107 421
8.31119 450
8.3313 451
8.35141 437
8.37153 421
8.39164 470
8.41176 421
8.43187 434
8.45198 445
8.4721 489
8.49221 448
8.51232 445
8.53244 486
8.55255 451
8.57266 449
8.59278 441
8.61289 436
8.63301 480
8.65312 469
8.67323 476
8.69335 467
8.71346 434
8.73357 460
8.75369 400
8.7738 457
8.79392 470
8.81403 466
8.83414 429
8.85426 467
8.87437 456
8.89448 468
8.9146 478
8.93471 425
8.95483 439
8.97494 461
8.99505 460
9.01517 452
9.03528 454
9.05539 453
9.07551 453
9.09562 449
9.11573 447
9.13585 435
9.15596 479
9.17608 435
9.19619 445
9.2163 447
9.23642 441
9.25653 435
9.27664 446
9.29676 426
9.31687 431
9.33699 428
9.3571 425
9.37721 430
9.39733 446
9.41744 476
9.43755 469
9.45767 440
9.47778 449
9.4979 450
9.51801 451
9.53812 444
9.55824 437
9.57835 391
9.59846 440
9.61858 413
9.63869 445
9.6588 405
9.67892 430
9.69903 429
9.71915 408
9.73926 439
9.75937 469
9.77949 460
9.7996 422
9.81971 462
9.83983 465
9.85994 453
9.88006 442
9.90017 456
9.92028 427
9.9404 488
9.96051 477
9.98062 459
10.00074 473
10.02085 458
10.04097 425
10.06108 423
10.08119 442
10.10131 427
10.12142 439
10.14153 430
10.16165 418
10.18176 417
10.20187 464
10.22199 439
10.2421 426
10.26222 468
10.28233 481
10.30244 457
10.32256 434
10.34267 493
10.36278 489
10.3829 446
10.40301 439
10.42313 433
10.44324 472
10.46335 478
10.48347 445
10.50358 474
10.52369 448
10.54381 440
10.56392 452
10.58403 423
10.60415 414
10.62426 453
10.64438 414
10.66449 447
10.6846 451
10.70472 452
10.72483 448
10.74494 469
10.76506 452
10.78517 450
10.80529 452
10.8254 496
10.84551 462
10.86563 463
10.88574 473
10.90585 463
10.92597 493
10.94608 441
10.9662 441
10.98631 446
11.00642 437
11.02654 461
11.04665 462
11.06676 481
11.08688 419
11.10699 455
11.1271 477
11.14722 442
11.16733 461
11.18745 465
11.20756 442
11.22767 491
11.24779 467
11.2679 498
11.28801 482
11.30813 489
11.32824 504
11.34836 482
11.36847 470
11.38858 459
11.4087 477
11.42881 434
11.44892 510
11.46904 489
11.48915 504
11.50927 466
11.52938 503
11.54949 513
11.56961 530
11.58972 506
11.60983 513
11.62995 561
11.65006 522
11.67017 543
11.69029 504
11.7104 558
11.73052 597
11.75063 528
11.77074 580
11.79086 559
11.81097 626
11.83108 617
11.8512 602
11.87131 561
11.89143 711
11.91154 628
11.93165 639
11.95177 679
11.97188 682
11.99199 716
12.01211 741
12.03222 832
12.05234 828
12.07245 856
12.09256 892
12.11268 927
12.13279 948
12.1529 941
12.17302 1032
12.19313 1095
12.21324 1219
12.23336 1087
12.25347 1133
12.27359 1147
12.2937 1107
12.31381 1080
12.33393 1154
12.35404 1131
12.37415 996
12.39427 929
12.41438 918
12.4345 867
12.45461 803
12.47472 737
12.49484 656
12.51495 656
12.53506 707
12.55518 621
12.57529 644
12.5954 574
12.61552 574
12.63563 578
12.65575 559
12.67586 521
12.69597 545
12.71609 522
12.7362 500
12.75631 487
12.77643 466
12.79654 519
12.81666 518
12.83677 522
12.85688 462
12.877 466
12.89711 510
12.91722 467
12.93734 420
12.95745 468
12.97757 426
12.99768 463
13.01779 472
13.03791 434
13.05802 457
13.07813 424
13.09825 452
13.11836 400
13.13847 448
13.15859 460
13.1787 441
13.19882 455
13.21893 458
13.23904 406
13.25916 448
13.27927 412
13.29938 457
13.3195 405
13.33961 460
13.35973 413
13.37984 390
13.39995 384
13.42007 412
13.44018 431
13.46029 417
13.48041 439
13.50052 404
13.52064 469
13.54075 459
13.56086 451
13.58098 403
13.60109 437
13.6212 420
13.64132 471
13.66143 401
13.68154 443
13.70166 398
13.72177 436
13.74189 441
13.762 467
13.78211 435
13.80223 461
13.82234 419
13.84245 429
13.86257 421
13.88268 413
13.9028 401
13.92291 390
13.94302 416
13.96314 413
13.98325 389
14.00336 414
14.02348 413
14.04359 367
14.06371 445
14.08382 403
14.10393 400
14.12405 410
14.14416 456
14.16427 410
14.18439 407
14.2045 428
14.22461 410
14.24473 457
14.26484 401
14.28496 425
14.30507 411
14.32518 380
14.3453 423
14.36541 390
14.38552 395
14.40564 410
14.42575 386
14.44587 407
14.46598 424
14.48609 405
14.50621 404
14.52632 403
14.54643 406
14.56655 404
14.58666 391
14.60677 403
14.62689 418
14.647 391
14.66712 379
14.68723 391
14.70734 390
14.72746 381
14.74757 399
14.76768 433
14.7878 371
14.80791 419
14.82803 416
14.84814 401
14.86825 403
14.88837 413
14.90848 430
14.92859 395
14.94871 420
14.96882 396
14.98894 404
15.00905 382
15.02916 378
15.04928 411
15.06939 425
15.0895 393
15.10962 394
15.12973 383
15.14984 411
15.16996 422
15.19007 370
15.21019 379
15.2303 406
15.25041 413
15.27053 373
15.29064 410
15.31075 384
15.33087 413
15.35098 398
15.3711 428
15.39121 435
15.41132 392
15.43144 421
15.45155 417
15.47166 442
15.49178 423
15.51189 380
15.53201 408
15.55212 452
15.57223 434
15.59235 430
15.61246 399
15.63257 399
15.65269 411
15.6728 387
15.69291 406
15.71303 392
15.73314 406
15.75326 391
15.77337 397
15.79348 403
15.8136 388
15.83371 398
15.85382 416
15.87394 381
15.89405 419
15.91417 400
15.93428 423
15.95439 409
15.97451 384
15.99462 412
16.01473 444
16.03485 413
16.05496 394
16.07508 409
16.09519 430
16.1153 413
16.13542 365
16.15553 454
16.17564 373
16.19576 418
16.21587 407
16.23598 416
16.2561 375
16.27621 398
16.29633 398
16.31644 391
16.33655 383
16.35667 392
16.37678 383
16.39689 398
16.41701 388
16.43712 406
16.45724 400
16.47735 383
16.49746 402
16.51758 387
16.53769 396
16.5578 385
16.57792 378
16.59803 438
16.61814 374
16.63826 400
16.65837 401
16.67849 402
16.6986 403
16.71871 429
16.73883 410
16.75894 435
16.77905 435
16.79917 397
16.81928 369
16.8394 389
16.85951 442
16.87962 370
16.89974 457
16.91985 428
16.93996 379
16.96008 373
16.98019 383
17.00031 396
17.02042 408
17.04053 410
17.06065 387
17.08076 443
17.10087 423
17.12099 423
17.1411 404
17.16121 376
17.18133 366
17.20144 377
17.22156 426
17.24167 415
17.26178 410
17.2819 389
17.30201 417
17.32212 409
17.34224 404
17.36235 403
17.38247 427
17.40258 419
17.42269 420
17.44281 442
17.46292 459
17.48303 443
17.50315 417
17.52326 414
17.54338 459
17.56349 387
17.5836 450
17.60372 405
17.62383 451
17.64394 409
17.66406 419
17.68417 438
17.70428 473
17.7244 452
17.74451 464
17.76463 418
17.78474 427
17.80485 463
17.82497 467
17.84508 454
17.86519 502
17.88531 464
17.90542 480
17.92554 464
17.94565 470
17.96576 493
17.98588 479
18.00599 528
18.0261 562
18.04622 604
18.06633 655
18.08645 709
18.10656 863
18.12667 994
18.14679 1071
18.1669 1218
18.18701 1465
18.20713 1522
18.22724 1725
18.24735 1565
18.26747 1541
18.28758 1377
18.3077 1146
18.32781 940
18.34792 854
18.36804 643
18.38815 687
18.40826 585
18.42838 544
18.44849 505
18.46861 541
18.48872 463
18.50883 452
18.52895 511
18.54906 482
18.56917 494
18.58929 462
18.6094 455
18.62951 453
18.64963 448
18.66974 450
18.68986 469
18.70997 463
18.73008 411
18.7502 435
18.77031 427
18.79042 416
18.81054 455
18.83065 423
18.85077 368
18.87088 436
18.89099 408
18.91111 392
18.93122 451
18.95133 438
18.97145 411
18.99156 409
19.01168 403
19.03179 473
19.0519 462
19.07202 469
19.09213 447
19.11224 482
19.13236 455
19.15247 433
19.17258 455
19.1927 502
19.21281 435
19.23293 454
19.25304 444
19.27315 468
19.29327 454
19.31338 462
19.33349 486
19.35361 470
19.37372 493
19.39384 465
19.41395 463
19.43406 507
19.45418 503
19.47429 482
19.4944 467
19.51452 470
19.53463 448
19.55475 506
19.57486 525
19.59497 531
19.61509 571
19.6352 546
19.65531 603
19.67543 643
19.69554 689
19.71565 710
19.73577 781
19.75588 846
19.776 836
19.79611 856
19.81622 865
19.83634 901
19.85645 913
19.87656 889
19.89668 874
19.91679 865
19.93691 893
19.95702 837
19.97713 873
19.99725 888
20.01736 875
20.03747 818
20.05759 885
20.0777 927
20.09782 947
20.11793 935
20.13804 1101
20.15816 1129
20.17827 1094
20.19838 1271
20.2185 1273
20.23861 1190
20.25872 1219
20.27884 1158
20.29895 1083
20.31907 1051
20.33918 1062
20.35929 1059
20.37941 1007
20.39952 959
20.41963 1061
20.43975 1025
20.45986 1114
20.47998 977
20.50009 1019
20.5202 979
20.54032 1034
20.56043 939
20.58054 1000
20.60066 1043
20.62077 999
20.64088 1161
20.661 1259
20.68111 1515
20.70123 1783
20.72134 2102
20.74145 2408
20.76157 2693
20.78168 2804
20.80179 2807
20.82191 2496
20.84202 2125
20.86214 1747
20.88225 1492
20.90236 1210
20.92248 1114
20.94259 978
20.9627 917
20.98282 954
21.00293 897
21.02305 852
21.04316 832
21.06327 848
21.08339 898
21.1035 827
21.12361 836
21.14373 883
21.16384 865
21.18395 816
21.20407 848
21.22418 866
21.2443 846
21.26441 837
21.28452 805
21.30464 835
21.32475 881
21.34486 825
21.36498 857
21.38509 833
21.40521 798
21.42532 779
21.44543 796
21.46555 754
21.48566 742
21.50577 746
21.52589 760
21.546 732
21.56612 728
21.58623 691
21.60634 701
21.62646 679
21.64657 724
21.66668 730
21.6868 652
21.70691 742
21.72702 709
21.74714 706
21.76725 659
21.78737 616
21.80748 668
21.82759 694
21.84771 674
21.86782 617
21.88793 657
21.90805 628
21.92816 693
21.94828 625
21.96839 626
21.9885 644
22.00862 593
22.02873 616
22.04884 608
22.06896 610
22.08907 591
22.10919 601
22.1293 568
22.14941 598
22.16953 638
22.18964 620
22.20975 652
22.22987 661
22.24998 607
22.27009 611
22.29021 627
22.31032 613
22.33044 627
22.35055 582
22.37066 631
22.39078 652
22.41089 579
22.431 625
22.45112 630
22.47123 584
22.49135 627
22.51146 594
22.53157 565
22.55169 584
22.5718 622
22.59191 571
22.61203 571
22.63214 619
22.65225 565
22.67237 603
22.69248 512
22.7126 561
22.73271 610
22.75282 573
22.77294 540
22.79305 558
22.81316 557
22.83328 564
22.85339 549
22.87351 526
22.89362 564
22.91373 560
22.93385 570
22.95396 554
22.97407 563
22.99419 558
23.0143 583
23.03442 541
23.05453 513
23.07464 552
23.09476 580
23.11487 575
23.13498 515
23.1551 573
23.17521 537
23.19532 534
23.21544 586
23.23555 566
23.25567 532
23.27578 540
23.29589 532
23.31601 584
23.33612 507
23.35623 589
23.37635 573
23.39646 559
23.41658 517
23.43669 604
23.4568 530
23.47692 567
23.49703 584
23.51714 569
23.53726 558
23.55737 601
23.57749 558
23.5976 586
23.61771 568
23.63783 566
23.65794 522
23.67805 569
23.69817 571
23.71828 509
23.73839 598
23.75851 593
23.77862 582
23.79874 585
23.81885 540
23.83896 574
23.85908 557
23.87919 574
23.8993 568
23.91942 577
23.93953 602
23.95965 653
23.97976 609
23.99987 643
24.01999 639
24.0401 653
24.06021 613
24.08033 586
24.10044 568
24.12056 643
24.14067 593
24.16078 630
24.1809 633
24.20101 591
24.22112 605
24.24124 647
24.26135 636
24.28146 604
24.30158 657
24.32169 671
24.34181 723
24.36192 642
24.38203 672
24.40215 653
24.42226 669
24.44237 692
24.46249 665
24.4826 719
24.50272 744
24.52283 711
24.54294 701
24.56306 759
24.58317 828
24.60328 820
24.6234 904
24.64351 920
24.66362 897
24.68374 952
24.70385 948
24.72397 947
24.74408 1032
24.76419 953
24.78431 945
24.80442 1038
24.82453 1027
24.84465 961
24.86476 993
24.88488 949
24.90499 927
24.9251 966
24.94522 946
24.96533 892
24.98544 841
25.00556 853
25.02567 803
25.04579 799
25.0659 776
25.08601 821
25.10613 770
25.12624 806
25.14635 694
25.16647 745
25.18658 753
25.20669 729
25.22681 733
25.24692 689
25.26704 678
25.28715 647
25.30726 652
25.32738 580
25.34749 639
25.3676 637
25.38772 631
25.40783 618
25.42795 655
25.44806 622
25.46817 594
25.48829 616
25.5084 617
25.52851 671
25.54863 710
25.56874 636
25.58886 696
25.60897 670
25.62908 673
25.6492 638
25.66931 644
25.68942 553
25.70954 610
25.72965 623
25.74976 588
25.76988 616
25.78999 624
25.81011 635
25.83022 630
25.85033 623
25.87045 630
25.89056 590
25.91067 654
25.93079 621
25.9509 631
25.97102 622
25.99113 628
26.01124 631
26.03136 686
26.05147 626
26.07158 689
26.0917 664
26.11181 656
26.13193 738
26.15204 716
26.17215 720
26.19227 794
26.21238 831
26.23249 859
26.25261 895
26.27272 968
26.29283 1022
26.31295 1053
26.33306 1248
26.35318 1363
26.37329 1601
26.3934 1892
26.41352 2424
26.43363 3033
26.45374 3965
26.47386 5250
26.49397 6915
26.51409 8471
26.5342 9721
26.55431 10303
26.57443 10001
26.59454 8909
26.61465 7523
26.63477 5940
26.65488 4426
26.67499 3207
26.69511 2334
26.71522 1731
26.73534 1395
26.75545 1236
26.77556 1086
26.79568 977
26.81579 1054
26.8359 951
26.85602 870
26.87613 871
26.89625 820
26.91636 790
26.93647 785
26.95659 789
26.9767 817
26.99681 742
27.01693 677
27.03704 722
27.05716 636
27.07727 626
27.09738 562
27.1175 594
27.13761 565
27.15772 543
27.17784 535
27.19795 576
27.21806 602
27.23818 544
27.25829 521
27.27841 547
27.29852 586
27.31863 592
27.33875 606
27.35886 676
27.37897 678
27.39909 668
27.4192 618
27.43932 660
27.45943 652
27.47954 604
27.49966 611
27.51977 618
27.53988 565
27.56 559
27.58011 512
27.60023 501
27.62034 519
27.64045 501
27.66057 559
27.68068 522
27.70079 506
27.72091 580
27.74102 552
27.76113 515
27.78125 525
27.80136 552
27.82148 574
27.84159 551
27.8617 580
27.88182 529
27.90193 555
27.92204 548
27.94216 556
27.96227 539
27.98239 581
28.0025 541
28.02261 524
28.04273 549
28.06284 534
28.08295 513
28.10307 468
28.12318 488
28.1433 487
28.16341 493
28.18352 524
28.20364 477
28.22375 516
28.24386 467
28.26398 466
28.28409 495
28.3042 465
28.32432 460
28.34443 460
28.36455 491
28.38466 524
28.40477 487
28.42489 453
28.445 495
28.46511 468
28.48523 523
28.50534 520
28.52546 497
28.54557 517
28.56568 508
28.5858 560
28.60591 473
28.62602 526
28.64614 475
28.66625 536
28.68636 470
28.70648 446
28.72659 505
28.74671 487
28.76682 533
28.78693 477
28.80705 471
28.82716 508
28.84727 465
28.86739 460
28.8875 478
28.90762 421
28.92773 428
28.94784 468
28.96796 441
28.98807 433
29.00818 431
29.0283 458
29.04841 451
29.06853 476
29.08864 466
29.10875 455
29.12887 380
29.14898 424
29.16909 430
29.18921 466
29.20932 489
29.22943 483
29.24955 457
29.26966 453
29.28978 487
29.30989 465
29.33 416
29.35012 453
29.37023 412
29.39034 457
29.41046 477
29.43057 507
29.45069 487
29.4708 478
29.49091 429
29.51103 448
29.53114 492
29.55125 467
29.57137 474
29.59148 434
29.6116 478
29.63171 491
29.65182 488
29.67194 494
29.69205 468
29.71216 501
29.73228 464
29.75239 486
29.7725 471
29.79262 461
29.81273 498
29.83285 482
29.85296 464
29.87307 469
29.89319 469
29.9133 455
29.93341 484
29.95353 458
29.97364 497
29.99376 429
30.01387 470
30.03398 486
30.0541 467
30.07421 448
30.09432 443
30.11444 452
30.13455 484
30.15467 478
30.17478 458
30.19489 457
30.21501 494
30.23512 485
30.25523 428
30.27535 457
30.29546 446
30.31557 448
30.33569 460
30.3558 463
30.37592 437
30.39603 460
30.41614 439
30.43626 448
30.45637 462
30.47648 448
30.4966 484
30.51671 523
30.53683 431
30.55694 459
30.57705 421
30.59717 456
30.61728 453
30.63739 461
30.65751 475
30.67762 458
30.69773 467
30.71785 475
30.73796 454
30.75808 453
30.77819 489
30.7983 463
30.81842 465
30.83853 445
30.85864 458
30.87876 443
30.89887 445
30.91899 438
30.9391 446
30.95921 450
30.97933 456
30.99944 407
31.01955 406
31.03967 449
31.05978 449
31.0799 451
31.10001 443
31.12012 438
31.14024 454
31.16035 413
31.18046 423
31.20058 443
31.22069 428
31.2408 433
31.26092 457
31.28103 435
31.30115 439
31.32126 447
31.34137 440
31.36149 446
31.3816 456
31.40171 457
31.42183 439
31.44194 403
31.46206 417
31.48217 432
31.50228 419
31.5224 438
31.54251 426
31.56262 437
31.58274 444
31.60285 415
31.62297 441
31.64308 442
31.66319 423
31.68331 403
31.70342 451
31.72353 423
31.74365 429
31.76376 492
31.78387 408
31.80399 460
31.8241 435
31.84422 431
31.86433 471
31.88444 441
31.90456 430
31.92467 463
31.94478 473
31.9649 432
31.98501 458
32.00513 470
32.02524 440
32.04535 434
32.06547 433
32.08558 447
32.10569 412
32.12581 443
32.14592 465
32.16604 478
32.18615 464
32.20626 498
32.22638 436
32.24649 469
32.2666 464
32.28672 469
32.30683 515
32.32694 464
32.34706 436
32.36717 477
32.38729 435
32.4074 441
32.42751 488
32.44763 458
32.46774 516
32.48785 431
32.50797 503
32.52808 461
32.5482 498
32.56831 456
32.58842 437
32.60854 473
32.62865 491
32.64876 461
32.66888 484
32.68899 455
32.7091 463
32.72922 507
32.74933 538
32.76945 488
32.78956 510
32.80967 518
32.82979 550
32.8499 531
32.87001 520
32.89013 528
32.91024 550
32.93036 557
32.95047 586
32.97058 520
32.9907 604
33.01081 575
33.03092 589
33.05104 593
33.07115 555
33.09127 613
33.11138 591
33.13149 608
33.15161 570
33.17172 604
33.19183 569
33.21195 516
33.23206 529
33.25217 623
33.27229 524
33.2924 564
33.31252 614
33.33263 525
33.35274 566
33.37286 540
33.39297 524
33.41308 534
33.4332 518
33.45331 498
33.47343 544
33.49354 514
33.51365 514
33.53377 516
33.55388 503
33.57399 488
33.59411 521
33.61422 532
33.63434 490
33.65445 516
33.67456 504
33.69468 523
33.71479 457
33.7349 483
33.75502 560
33.77513 526
33.79524 507
33.81536 488
33.83547 487
33.85559 462
33.8757 529
33.89581 498
33.91593 485
33.93604 461
33.95615 498
33.97627 510
33.99638 489
34.0165 478
34.03661 502
34.05672 492
34.07684 477
34.09695 448
34.11706 485
34.13718 464
34.15729 469
34.17741 477
34.19752 480
34.21763 491
34.23775 480
34.25786 470
34.27797 500
34.29809 487
34.3182 490
34.33831 486
34.35843 526
34.37854 452
34.39866 474
34.41877 475
34.43888 545
34.459 517
34.47911 517
34.49922 486
34.51934 482
34.53945 519
34.55957 510
34.57968 511
34.59979 530
34.61991 587
34.64002 542
34.66013 603
34.68025 560
34.70036 669
34.72047 653
34.74059 640
34.7607 615
34.78082 727
34.80093 664
34.82104 696
34.84116 700
34.86127 745
34.88138 699
34.9015 738
34.92161 717
34.94173 732
34.96184 701
34.98195 666
35.00207 640
35.02218 693
35.04229 678
35.06241 685
35.08252 623
35.10264 652
35.12275 667
35.14286 635
35.16298 627
35.18309 647
35.2032 668
35.22332 680
35.24343 650
35.26354 675
35.28366 663
35.30377 686
35.32389 680
35.344 717
35.36411 782
35.38423 680
35.40434 729
35.42445 707
35.44457 745
35.46468 761
35.4848 791
35.50491 692
35.52502 733
35.54514 727
35.56525 728
35.58536 757
35.60548 728
35.62559 761
35.64571 773
35.66582 777
35.68593 762
35.70605 746
35.72616 775
35.74627 747
35.76639 774
35.7865 749
35.80661 798
35.82673 812
35.84684 799
35.86696 749
35.88707 719
35.90718 750
35.9273 738
35.94741 741
35.96752 680
35.98764 720
36.00775 686
36.02787 671
36.04798 672
36.06809 632
36.08821 594
36.10832 669
36.12843 637
36.14855 630
36.16866 645
36.18878 634
36.20889 636
36.229 647
36.24912 655
36.26923 678
36.28934 746
36.30946 752
36.32957 808
36.34968 902
36.3698 969
36.38991 1004
36.41003 1139
36.43014 1212
36.45025 1312
36.47037 1296
36.49048 1223
36.51059 1175
36.53071 1102
36.55082 1031
36.57094 961
36.59105 829
36.61116 827
36.63128 741
36.65139 660
36.6715 675
36.69162 641
36.71173 631
36.73184 629
36.75196 563
36.77207 621
36.79219 562
36.8123 585
36.83241 580
36.85253 649
36.87264 575
36.89275 596
36.91287 596
36.93298 639
36.9531 643
36.97321 603
36.99332 620
37.01344 641
37.03355 622
37.05366 663
37.07378 601
37.09389 654
37.11401 626
37.13412 591
37.15423 602
37.17435 575
37.19446 596
37.21457 614
37.23469 562
37.2548 588
37.27491 585
37.29503 615
37.31514 607
37.33526 606
37.35537 623
37.37548 578
37.3956 617
37.41571 611
37.43582 609
37.45594 667
37.47605 646
37.49617 694
37.51628 709
37.53639 673
37.55651 702
37.57662 763
37.59673 696
37.61685 682
37.63696 721
37.65708 724
37.67719 689
37.6973 649
37.71742 641
37.73753 654
37.75764 649
37.77776 595
37.79787 635
37.81798 589
37.8381 599
37.85821 618
37.87833 610
37.89844 551
37.91855 577
37.93867 587
37.95878 592
37.97889 635
37.99901 583
38.01912 628
38.03924 628
38.05935 603
38.07946 638
38.09958 671
38.11969 680
38.1398 672
38.15992 727
38.18003 686
38.20015 699
38.22026 702
38.24037 710
38.26049 676
38.2806 752
38.30071 685
38.32083 718
38.34094 772
38.36105 740
38.38117 731
38.40128 714
38.4214 709
38.44151 695
38.46162 718
38.48174 661
38.50185 708
38.52196 681
38.54208 679
38.56219 638
38.58231 671
38.60242 631
38.62253 626
38.64265 614
38.66276 633
38.68287 598
38.70299 548
38.7231 581
38.74321 589
38.76333 591
38.78344 553
38.80356 574
38.82367 622
38.84378 546
38.8639 616
38.88401 601
38.90412 618
38.92424 635
38.94435 594
38.96447 610
38.98458 623
39.00469 582
39.02481 630
39.04492 642
39.06503 661
39.08515 636
39.10526 654
39.12538 691
39.14549 664
39.1656 651
39.18572 769
39.20583 740
39.22594 756
39.24606 740
39.26617 843
39.28628 916
39.3064 1023
39.32651 1046
39.34663 1083
39.36674 1184
39.38685 1043
39.40697 1064
39.42708 1000
39.44719 927
39.46731 877
39.48742 753
39.50754 724
39.52765 687
39.54776 571
39.56788 582
39.58799 541
39.6081 504
39.62822 570
39.64833 526
39.66845 521
39.68856 486
39.70867 508
39.72879 535
39.7489 545
39.76901 512
39.78913 534
39.80924 512
39.82935 508
39.84947 460
39.86958 504
39.8897 563
39.90981 529
39.92992 496
39.95004 588
39.97015 555
39.99026 585
40.01038 576
40.03049 596
40.05061 594
40.07072 629
40.09083 622
40.11095 705
40.13106 692
40.15117 765
40.17129 798
40.1914 786
40.21152 793
40.23163 742
40.25174 679
40.27186 716
40.29197 663
40.31208 666
40.3322 565
40.35231 554
40.37242 560
40.39254 518
40.41265 502
40.43277 531
40.45288 527
40.47299 496
40.49311 490
40.51322 546
40.53333 495
40.55345 582
40.57356 475
40.59368 502
40.61379 526
40.6339 548
40.65402 485
40.67413 520
40.69424 512
40.71436 531
40.73447 504
40.75458 500
40.7747 512
40.79481 516
40.81493 492
40.83504 529
40.85515 498
40.87527 525
40.89538 507
40.91549 526
40.93561 541
40.95572 505
40.97584 547
40.99595 537
41.01606 506
41.03618 548
41.05629 533
41.0764 511
41.09652 493
41.11663 539
41.13675 519
41.15686 490
41.17697 506
41.19709 466
41.2172 483
41.23731 500
41.25743 511
41.27754 498
41.29765 533
41.31777 538
41.33788 511
41.358 519
41.37811 518
41.39822 489
41.41834 519
41.43845 498
41.45856 533
41.47868 547
41.49879 512
41.51891 544
41.53902 528
41.55913 514
41.57925 564
41.59936 593
41.61947 549
41.63959 585
41.6597 545
41.67982 534
41.69993 542
41.72004 546
41.74016 522
41.76027 459
41.78038 483
41.8005 482
41.82061 501
41.84072 479
41.86084 469
41.88095 468
41.90107 498
41.92118 466
41.94129 422
41.96141 438
41.98152 485
42.00163 433
42.02175 474
42.04186 423
42.06198 454
42.08209 454
42.1022 451
42.12232 466
42.14243 472
42.16254 479
42.18266 530
42.20277 489
42.22289 569
42.243 592
42.26311 618
42.28323 708
42.30334 755
42.32345 826
42.34357 865
42.36368 861
42.38379 782
42.40391 799
42.42402 702
42.44414 648
42.46425 648
42.48436 573
42.50448 597
42.52459 588
42.5447 483
42.56482 485
42.58493 464
42.60505 480
42.62516 430
42.64527 408
42.66539 459
42.6855 431
42.70561 418
42.72573 425
42.74584 423
42.76595 422
42.78607 418
42.80618 395
42.8263 395
42.84641 439
42.86652 419
42.88664 425
42.90675 424
42.92686 407
42.94698 439
42.96709 420
42.98721 409
43.00732 399
43.02743 422
43.04755 434
43.06766 402
43.08777 455
43.10789 418
43.128 397
43.14812 424
43.16823 438
43.18834 413
43.20846 424
43.22857 428
43.24868 450
43.2688 438
43.28891 412
43.30902 435
43.32914 420
43.34925 417
43.36937 413
43.38948 398
43.40959 422
43.42971 477
43.44982 452
43.46993 445
43.49005 435
43.51016 426
43.53028 398
43.55039 454
43.5705 409
43.59062 455
43.61073 425
43.63084 406
43.65096 412
43.67107 425
43.69119 421
43.7113 408
43.73141 436
43.75153 477
43.77164 440
43.79175 421
43.81187 471
43.83198 424
43.85209 398
43.87221 466
43.89232 434
43.91244 487
43.93255 430
43.95266 488
43.97278 492
43.99289 479
44.013 491
44.03312 530
44.05323 541
44.07335 511
44.09346 545
44.11357 502
44.13369 514
44.1538 506
44.17391 499
44.19403 489
44.21414 466
44.23426 513
44.25437 474
44.27448 491
44.2946 499
44.31471 415
44.33482 437
44.35494 468
44.37505 431
44.39516 485
44.41528 467
44.43539 447
44.45551 429
44.47562 439
44.49573 482
44.51585 434
44.53596 422
44.55607 448
44.57619 420
44.5963 454
44.61642 437
44.63653 453
44.65664 445
44.67676 457
44.69687 413
44.71698 474
44.7371 451
44.75721 442
44.77732 413
44.79744 438
44.81755 437
44.83767 425
44.85778 457
44.87789 442
44.89801 405
44.91812 445
44.93823 467
44.95835 447
44.97846 489
44.99858 500
45.01869 480
45.0388 455
45.05892 477
45.07903 472
45.09914 496
45.11926 517
45.13937 542
45.15949 521
45.1796 548
45.19971 548
45.21983 532
45.23994 554
45.26005 540
45.28017 586
45.30028 577
45.32039 561
45.34051 584
45.36062 585
45.38074 605
45.40085 597
45.42096 608
45.44108 595
45.46119 563
45.4813 568
45.50142 580
45.52153 608
45.54165 561
45.56176 574
45.58187 605
45.60199 648
45.6221 644
45.64221 659
45.66233 733
45.68244 754
45.70256 748
45.72267 689
45.74278 706
45.7629 650
45.78301 603
45.80312 610
45.82324 645
45.84335 558
45.86346 558
45.88358 528
45.90369 502
45.92381 506
45.94392 470
45.96403 462
45.98415 464
46.00426 467
46.02437 459
46.04449 448
46.0646 457
46.08472 428
46.10483 461
46.12494 476
46.14506 433
46.16517 432
46.18528 455
46.2054 501
46.22551 491
46.24563 469
46.26574 492
46.28585 429
46.30597 448
46.32608 428
46.34619 466
46.36631 424
46.38642 452
46.40653 438
46.42665 438
46.44676 432
46.46688 443
46.48699 436
46.5071 466
46.52722 451
46.54733 451
46.56744 454
46.58756 429
46.60767 418
46.62779 437
46.6479 431
46.66801 433
46.68813 430
46.70824 454
46.72835 485
46.74847 447
46.76858 440
46.78869 431
46.80881 475
46.82892 463
46.84904 452
46.86915 492
46.88926 460
46.90938 456
46.92949 471
46.9496 451
46.96972 469
46.98983 476
47.00995 464
47.03006 465
47.05017 433
47.07029 495
47.0904 468
47.11051 472
47.13063 456
47.15074 467
47.17086 500
47.19097 431
47.21108 503
47.2312 502
47.25131 476
47.27142 470
47.29154 513
47.31165 490
47.33176 482
47.35188 510
47.37199 483
47.39211 482
47.41222 515
47.43233 525
47.45245 455
47.47256 469
47.49267 454
47.51279 450
47.5329 462
47.55302 481
47.57313 460
47.59324 470
47.61336 457
47.63347 449
47.65358 476
47.6737 432
47.69381 444
47.71393 496
47.73404 439
47.75415 450
47.77427 462
47.79438 480
47.81449 488
47.83461 437
47.85472 464
47.87483 478
47.89495 464
47.91506 468
47.93518 457
47.95529 470
47.9754 422
47.99552 482
48.01563 448
48.03574 424
48.05586 427
48.07597 413
48.09609 465
48.1162 420
48.13631 459
48.15643 423
48.17654 461
48.19665 449
48.21677 477
48.23688 406
48.257 398
48.27711 404
48.29722 394
48.31734 433
48.33745 455
48.35756 443
48.37768 483
48.39779 428
48.4179 450
48.43802 408
48.45813 420
48.47825 435
48.49836 415
48.51847 442
48.53859 437
48.5587 422
48.57881 397
48.59893 429
48.61904 451
48.63916 426
48.65927 438
48.67938 407
48.6995 414
48.71961 446
48.73972 433
48.75984 421
48.77995 472
48.80006 426
48.82018 469
48.84029 465
48.86041 430
48.88052 436
48.90063 401
48.92075 410
48.94086 446
48.96097 445
48.98109 439
49.0012 444
49.02132 487
49.04143 449
49.06154 448
49.08166 433
49.10177 473
49.12188 475
49.142 502
49.16211 440
49.18223 469
49.20234 469
49.22245 435
49.24257 460
49.26268 428
49.28279 485
49.30291 455
49.32302 521
49.34313 499
49.36325 495
49.38336 498
49.40348 527
49.42359 440
49.4437 470
49.46382 475
49.48393 489
49.50404 529
49.52416 451
49.54427 456
49.56439 463
49.5845 486
49.60461 436
49.62473 438
49.64484 486
49.66495 501
49.68507 482
49.70518 473
49.7253 488
49.74541 531
49.76552 550
49.78564 516
49.80575 581
49.82586 576
49.84598 603
49.86609 729
49.8862 652
49.90632 745
49.92643 772
49.94655 892
49.96666 1089
49.98677 1168
50.00689 1333
50.027 1398
50.04711 1371
50.06723 1334
50.08734 1203
50.10746 1034
50.12757 1020
50.14768 982
50.1678 975
50.18791 893
50.20802 843
50.22814 744
50.24825 623
50.26837 591
50.28848 538
50.30859 492
50.32871 510
50.34882 527
50.36893 516
50.38905 515
50.40916 533
50.42927 561
50.44939 590
50.4695 584
50.48962 582
50.50973 573
50.52984 532
50.54996 539
50.57007 563
50.59018 538
50.6103 498
50.63041 551
50.65053 532
50.67064 533
50.69075 489
50.71087 491
50.73098 495
50.75109 479
50.77121 471
50.79132 463
50.81143 475
50.83155 518
50.85166 455
50.87178 471
50.89189 477
50.912 500
50.93212 476
50.95223 426
50.97234 460
50.99246 421
51.01257 405
51.03269 443
51.0528 427
51.07291 465
51.09303 450
51.11314 432
51.13325 441
51.15337 401
51.17348 447
51.1936 424
51.21371 434
51.23382 430
51.25394 410
51.27405 431
51.29416 403
51.31428 417
51.33439 410
51.3545 409
51.37462 382
51.39473 392
51.41485 386
51.43496 421
51.45507 403
51.47519 406
51.4953 402
51.51541 374
51.53553 407
51.55564 429
51.57576 428
51.59587 416
51.61598 435
51.6361 407
51.65621 432
51.67632 420
51.69644 402
51.71655 430
51.73667 390
51.75678 419
51.77689 395
51.79701 450
51.81712 482
51.83723 414
51.85735 417
51.87746 427
51.89757 412
51.91769 437
51.9378 421
51.95792 423
51.97803 451
51.99814 449
52.01826 452
52.03837 495
52.05848 463
52.0786 490
52.09871 508
52.11883 472
52.13894 492
52.15905 422
52.17917 477
52.19928 499
52.21939 486
52.23951 452
52.25962 462
52.27974 444
52.29985 465
52.31996 407
52.34008 456
52.36019 440
52.3803 411
52.40042 424
52.42053 451
52.44064 432
52.46076 412
52.48087 420
52.50099 452
52.5211 381
52.54121 407
52.56133 417
52.58144 419
52.60155 411
52.62167 429
52.64178 450
52.6619 413
52.68201 394
52.70212 415
52.72224 402
52.74235 454
52.76246 434
52.78258 442
52.80269 413
52.8228 436
52.84292 401
52.86303 415
52.88315 417
52.90326 453
52.92337 419
52.94349 435
52.9636 446
52.98371 436
53.00383 409
53.02394 478
53.04406 393
53.06417 433
53.08428 436
53.1044 443
53.12451 425
53.14462 438
53.16474 426
53.18485 430
53.20497 460
53.22508 468
53.24519 456
53.26531 485
53.28542 448
53.30553 471
53.32565 468
53.34576 464
53.36587 471
53.38599 472
53.4061 454
53.42622 462
53.44633 450
53.46644 487
53.48656 459
53.50667 476
53.52678 490
53.5469 511
53.56701 527
53.58713 494
53.60724 491
53.62735 510
53.64747 491
53.66758 522
53.68769 491
53.70781 509
53.72792 517
53.74804 477
53.76815 515
53.78826 542
53.80838 539
53.82849 564
53.8486 551
53.86872 579
53.88883 555
53.90894 576
53.92906 574
53.94917 567
53.96929 549
53.9894 581
54.00951 561
54.02963 574
54.04974 570
54.06985 605
54.08997 602
54.11008 553
54.1302 612
54.15031 590
54.17042 609
54.19054 662
54.21065 640
54.23076 623
54.25088 623
54.27099 621
54.29111 669
54.31122 637
54.33133 637
54.35145 654
54.37156 640
54.39167 573
54.41179 592
54.4319 615
54.45201 627
54.47213 578
54.49224 606
54.51236 647
54.53247 598
54.55258 620
54.5727 631
54.59281 629
54.61292 601
54.63304 616
54.65315 637
54.67327 677
54.69338 714
54.71349 729
54.73361 725
54.75372 853
54.77383 827
54.79395 794
54.81406 802
54.83417 778
54.85429 722
54.8744 705
54.89452 716
54.91463 671
54.93474 692
54.95486 679
54.97497 701
54.99508 625
55.0152 593
55.03531 571
55.05543 618
55.07554 561
55.09565 593
55.11577 593
55.13588 572
55.15599 673
55.17611 652
55.19622 641
55.21634 646
55.23645 680
55.25656 703
55.27668 640
55.29679 636
55.3169 608
55.33702 567
55.35713 618
55.37724 596
55.39736 570
55.41747 566
55.43759 562
55.4577 497
55.47781 525
55.49793 548
55.51804 486
55.53815 464
55.55827 478
55.57838 508
55.5985 494
55.61861 506
55.63872 477
55.65884 450
55.67895 500
55.69906 466
55.71918 470
55.73929 468
55.75941 516
55.77952 463
55.79963 485
55.81975 485
55.83986 489
55.85997 460
55.88009 475
55.9002 461
55.92031 457
55.94043 481
55.96054 442
55.98066 464
56.00077 504
56.02088 433
56.041 457
56.06111 442
56.08122 452
56.10134 454
56.12145 453
56.14157 465
56.16168 457
56.18179 447
56.20191 498
56.22202 437
56.24213 480
56.26225 510
56.28236 451
56.30248 493
56.32259 463
56.3427 461
56.36282 469
56.38293 490
56.40304 459
56.42316 460
56.44327 457
56.46338 472
56.4835 469
56.50361 457
56.52373 460
56.54384 450
56.56395 423
56.58407 475
56.60418 460
56.62429 477
56.64441 446
56.66452 446
56.68464 440
56.70475 472
56.72486 439
56.74498 444
56.76509 457
56.7852 448
56.80532 454
56.82543 454
56.84554 431
56.86566 451
56.88577 466
56.90589 445
56.926 479
56.94611 425
56.96623 450
56.98634 431
57.00645 428
57.02657 427
57.04668 495
57.0668 457
57.08691 441
57.10702 457
57.12714 438
57.14725 451
57.16736 449
57.18748 446
57.20759 434
57.22771 440
57.24782 429
57.26793 492
57.28805 430
57.30816 449
57.32827 449
57.34839 459
57.3685 418
57.38861 432
57.40873 403
57.42884 429
57.44896 432
57.46907 446
57.48918 456
57.5093 423
57.52941 413
57.54952 450
57.56964 446
57.58975 434
57.60987 414
57.62998 479
57.65009 448
57.67021 428
57.69032 429
57.71043 434
57.73055 465
57.75066 441
57.77078 456
57.79089 491
57.811 449
57.83112 415
57.85123 424
57.87134 451
57.89146 424
57.91157 445
57.93168 455
57.9518 430
57.97191 434
57.99203 421
58.01214 446
58.03225 458
58.05237 469
58.07248 428
58.09259 429
58.11271 414
58.13282 439
58.15294 458
58.17305 450
58.19316 442
58.21328 478
58.23339 465
58.2535 433
58.27362 437
58.29373 408
58.31385 412
58.33396 453
58.35407 406
58.37419 408
58.3943 421
58.41441 465
58.43453 429
58.45464 403
58.47475 432
58.49487 441
58.51498 451
58.5351 387
58.55521 448
58.57532 423
58.59544 452
58.61555 392
58.63566 463
58.65578 425
58.67589 417
58.69601 390
58.71612 455
58.73623 440
58.75635 449
58.77646 480
58.79657 412
58.81669 422
58.8368 437
58.85691 394
58.87703 432
58.89714 411
58.91726 412
58.93737 419
58.95748 412
58.9776 449
58.99771 374
59.01782 421
59.03794 405
59.05805 411
59.07817 427
59.09828 422
59.11839 397
59.13851 481
59.15862 466
59.17873 401
59.19885 451
59.21896 430
59.23908 446
59.25919 446
59.2793 450
59.29942 469
59.31953 419
59.33964 445
59.35976 453
59.37987 432
59.39998 424
59.4201 473
59.44021 468
59.46033 465
59.48044 474
59.50055 506
59.52067 485
59.54078 453
59.56089 495
59.58101 515
59.60112 510
59.62124 540
59.64135 518
59.66146 571
59.68158 588
59.70169 614
59.7218 593
59.74192 708
59.76203 743
59.78215 844
59.80226 946
59.82237 947
59.84249 1037
59.8626 1122
59.88271 1005
59.90283 953
59.92294 865
59.94305 806
59.96317 741
59.98328 778
60.0034 749
60.02351 783
60.04362 764
60.06374 686
60.08385 594
60.10396 560
60.12408 523
60.14419 535
60.16431 485
60.18442 476
60.20453 467
60.22465 453
60.24476 451
60.26487 468
60.28499 452
60.3051 487
60.32522 442
60.34533 456
60.36544 451
60.38556 418
60.40567 436
60.42578 444
60.4459 452
60.46601 421
60.48612 424
60.50624 440
60.52635 444
60.54647 412
60.56658 442
60.58669 385
60.60681 403
60.62692 419
60.64703 407
60.66715 414
60.68726 422
60.70738 397
60.72749 409
60.7476 417
60.76772 407
60.78783 410
60.80794 397
60.82806 400
60.84817 416
60.86828 413
60.8884 454
60.90851 443
60.92863 432
60.94874 404
60.96885 402
60.98897 428
61.00908 409
61.02919 409
61.04931 443
61.06942 458
61.08954 395
61.10965 377
61.12976 435
61.14988 427
61.16999 410
61.1901 417
61.21022 427
61.23033 414
61.25045 434
61.27056 413
61.29067 409
61.31079 407
61.3309 409
61.35101 431
61.37113 418
61.39124 435
61.41135 439
61.43147 458
61.45158 416
61.4717 419
61.49181 438
61.51192 437
61.53204 439
61.55215 431
61.57226 435
61.59238 430
61.61249 474
61.63261 433
61.65272 436
61.67283 448
61.69295 449
61.71306 484
61.73317 467
61.75329 466
61.7734 483
61.79352 504
61.81363 484
61.83374 479
61.85386 482
61.87397 471
61.89408 507
61.9142 535
61.93431 476
61.95442 519
61.97454 544
61.99465 544
62.01477 560
62.03488 595
62.05499 561
62.07511 566
62.09522 552
62.11533 566
62.13545 617
62.15556 703
62.17568 655
62.19579 641
62.2159 654
62.23602 598
62.25613 609
62.27624 616
62.29636 625
62.31647 623
62.33659 608
62.3567 603
62.37681 585
62.39693 577
62.41704 613
62.43715 576
62.45727 572
62.47738 562
62.49749 552
62.51761 576
62.53772 525
62.55784 527
62.57795 526
62.59806 479
62.61818 488
62.63829 518
62.6584 484
62.67852 493
62.69863 559
62.71875 486
62.73886 455
62.75897 460
62.77909 473
62.7992 454
62.81931 469
62.83943 478
62.85954 457
62.87965 476
62.89977 423
62.91988 444
62.94 423
62.96011 432
62.98022 433
63.00034 408
63.02045 452
63.04056 403
63.06068 440
63.08079 439
63.10091 416
63.12102 402
63.14113 465
63.16125 457
63.18136 438
63.20147 421
63.22159 434
63.2417 422
63.26182 432
63.28193 443
63.30204 435
63.32216 423
63.34227 459
63.36238 462
63.3825 425
63.40261 430
63.42272 462
63.44284 416
63.46295 446
63.48307 465
63.50318 427
63.52329 473
63.54341 499
63.56352 423
63.58363 487
63.60375 540
63.62386 498
63.64398 542
63.66409 510
63.6842 545
63.70432 556
63.72443 524
63.74454 518
63.76466 499
63.78477 515
63.80489 545
63.825 533
63.84511 582
63.86523 565
63.88534 607
63.90545 609
63.92557 564
63.94568 588
63.96579 589
63.98591 575
64.00602 575
64.02614 534
64.04625 537
64.06636 575
64.08648 529
64.10659 538
64.1267 515
64.14682 501
64.16693 513
64.18705 498
64.20716 452
64.22727 456
64.24739 434
64.2675 491
64.28761 490
64.30773 461
64.32784 461
64.34796 466
64.36807 438
64.38818 434
64.4083 439
64.42841 445
64.44852 462
64.46864 434
64.48875 462
64.50886 449
64.52898 494
64.54909 458
64.56921 461
64.58932 478
64.60943 414
64.62955 467
64.64966 420
64.66977 429
64.68989 421
64.71 428
64.73012 433
64.75023 425
64.77034 435
64.79046 419
64.81057 396
64.83068 459
64.8508 420
64.87091 388
64.89102 422
64.91114 416
64.93125 406
64.95137 407
64.97148 372
64.99159 395
65.01171 379
65.03182 383
65.05193 400
65.07205 402
65.09216 388
65.11228 416
65.13239 397
65.1525 415
65.17262 411
65.19273 383
65.21284 434
65.23296 404
65.25307 418
65.27319 418
65.2933 393
65.31341 371
65.33353 402
65.35364 436
65.37375 405
65.39387 369
65.41398 431
65.43409 398
65.45421 397
65.47432 390
65.49444 382
65.51455 423
65.53466 388
65.55478 391
65.57489 393
65.595 400
65.61512 434
65.63523 429
65.65535 456
65.67546 392
65.69557 429
65.71569 432
65.7358 396
65.75591 443
65.77603 397
65.79614 422
65.81626 415
65.83637 403
65.85648 426
65.8766 421
65.89671 420
65.91682 426
65.93694 412
65.95705 421
65.97716 421
65.99728 451
66.01739 455
66.03751 424
66.05762 459
66.07773 450
66.09785 414
66.11796 431
66.13807 424
66.15819 466
66.1783 430
66.19842 450
66.21853 409
66.23864 457
66.25876 414
66.27887 413
66.29898 422
66.3191 420
66.33921 445
66.35933 418
66.37944 430
66.39955 404
66.41967 443
66.43978 452
66.45989 407
66.48001 439
66.50012 403
66.52023 407
66.54035 450
66.56046 436
66.58058 424
66.60069 396
66.6208 442
66.64092 434
66.66103 442
66.68114 397
66.70126 402
66.72137 421
66.74149 428
66.7616 412
66.78171 411
66.80183 407
66.82194 399
66.84205 402
66.86217 407
66.88228 430
66.90239 455
66.92251 423
66.94262 422
66.96274 431
66.98285 439
67.00296 390
67.02308 423
67.04319 439
67.0633 439
67.08342 436
67.10353 416
67.12365 420
67.14376 412
67.16387 454
67.18399 471
67.2041 425
67.22421 376
67.24433 439
67.26444 399
67.28456 419
67.30467 429
67.32478 411
67.3449 428
67.36501 451
67.38512 447
67.40524 443
67.42535 480
67.44546 481
67.46558 490
67.48569 504
67.50581 556
67.52592 596
67.54603 626
67.56615 652
67.58626 711
67.60637 769
67.62649 787
67.6466 773
67.66672 740
67.68683 680
67.70694 694
67.72706 645
67.74717 620
67.76728 638
67.7874 616
67.80751 670
67.82763 686
67.84774 629
67.86785 660
67.88797 654
67.90808 660
67.92819 651
67.94831 678
67.96842 744
67.98853 764
68.00865 814
68.02876 881
68.04888 915
68.06899 871
68.0891 870
68.10922 778
68.12933 744
68.14944 803
68.16956 777
68.18967 830
68.20979 880
68.2299 865
68.25001 803
68.27013 713
68.29024 680
68.31035 626
68.33047 557
68.35058 544
68.3707 586
68.39081 553
68.41092 563
68.43104 529
68.45115 491
68.47126 466
68.49138 466
68.51149 454
68.5316 411
68.55172 479
68.57183 436
68.59195 415
68.61206 437
68.63217 433
68.65229 447
68.6724 400
68.69251 404
68.71263 404
68.73274 441
68.75286 457
68.77297 419
68.79308 439
68.8132 411
68.83331 410
68.85342 420
68.87354 421
68.89365 445
68.91376 386
68.93388 395
68.95399 445
68.97411 388
68.99422 424
69.01433 386
69.03445 385
69.05456 422
69.07467 382
69.09479 395
69.1149 395
69.13502 403
69.15513 416
69.17524 388
69.19536 383
69.21547 390
69.23558 376
69.2557 378
69.27581 369
69.29593 417
69.31604 410
69.33615 408
69.35627 392
69.37638 440
69.39649 396
69.41661 381
69.43672 359
69.45683 400
69.47695 387
69.49706 397
69.51718 412
69.53729 393
69.5574 402
69.57752 381
69.59763 390
69.61774 379
69.63786 408
69.65797 382
69.67809 409
69.6982 406
69.71831 393
69.73843 408
69.75854 408
69.77865 359
69.79877 341
69.81888 418
69.839 371
69.85911 358
69.87922 408
69.89934 384
69.91945 426
69.93956 411
69.95968 366
69.97979 365
69.9999 393
70.02002 367
70.04013 414
70.06025 391
70.08036 400
70.10047 412
70.12059 416
70.1407 420
70.16081 387
70.18093 404
70.20104 390
70.22116 416
70.24127 392
70.26138 399
70.2815 403
70.30161 397
70.32172 404
70.34184 400
70.36195 418
70.38207 349
70.40218 403
70.42229 414
70.44241 403
70.46252 383
70.48263 377
70.50275 414
70.52286 378
70.54297 380
70.56309 402
70.5832 379
70.60332 400
70.62343 422
70.64354 414
70.66366 375
70.68377 391
70.70388 394
70.724 386
70.74411 382
70.76423 407
70.78434 365
70.80445 383
70.82457 390
70.84468 377
70.86479 372
70.88491 401
70.90502 371
70.92513 418
70.94525 391
70.96536 425
70.98548 368
71.00559 376
71.0257 370
71.04582 363
71.06593 394
71.08604 391
71.10616 404
71.12627 381
71.14639 383
71.1665 365
71.18661 390
71.20673 413
71.22684 340
71.24695 394
71.26707 389
71.28718 362
71.3073 367
71.32741 364
71.34752 391
71.36764 408
71.38775 370
71.40786 388
71.42798 418
71.44809 403
71.4682 385
71.48832 386
71.50843 404
71.52855 387
71.54866 406
71.56877 423
71.58889 400
71.609 401
71.62911 422
71.64923 430
71.66934 394
71.68946 403
71.70957 417
71.72968 351
71.7498 417
71.76991 413
71.79002 401
71.81014 402
71.83025 389
71.85037 430
71.87048 405
71.89059 391
71.91071 407
71.93082 381
71.95093 407
71.97105 393
71.99116 396
72.01127 428
72.03139 380
72.0515 414
72.07162 402
72.09173 389
72.11184 385
72.13196 390
72.15207 418
72.17218 451
72.1923 376
72.21241 428
72.23253 391
72.25264 370
72.27275 350
72.29287 383
72.31298 413
72.33309 400
72.35321 394
72.37332 398
72.39344 382
72.41355 399
72.43366 375
72.45378 390
72.47389 405
72.494 402
72.51412 394
72.53423 381
72.55434 377
72.57446 385
72.59457 355
72.61469 386
72.6348 409
72.65491 384
72.67503 404
72.69514 389
72.71525 361
72.73537 394
72.75548 359
72.7756 356
72.79571 358
72.81582 371
72.83594 383
72.85605 383
72.87616 394
72.89628 371
72.91639 388
72.9365 385
72.95662 379
72.97673 381
72.99685 388
73.01696 401
73.03707 414
73.05719 420
73.0773 389
73.09741 397
73.11753 398
73.13764 406
73.15776 421
73.17787 414
73.19798 423
73.2181 404
73.23821 453
73.25832 451
73.27844 505
73.29855 488
73.31867 518
73.33878 501
73.35889 521
73.37901 538
73.39912 523
73.41923 469
73.43935 498
73.45946 495
73.47957 457
73.49969 444
73.5198 455
73.53992 464
73.56003 449
73.58014 465
73.60026 457
73.62037 471
73.64048 433
73.6606 460
73.68071 407
73.70083 394
73.72094 411
73.74105 395
73.76117 442
73.78128 399
73.80139 401
73.82151 405
73.84162 396
73.86174 393
73.88185 364
73.90196 352
73.92208 381
73.94219 364
73.9623 382
73.98242 391
74.00253 376
74.02264 380
74.04276 377
74.06287 362
74.08299 364
74.1031 374
74.12321 387
74.14333 385
74.16344 363
74.18355 365
74.20367 365
74.22378 347
74.2439 341
74.26401 370
74.28412 400
74.30424 378
74.32435 377
74.34446 379
74.36458 382
74.38469 373
74.40481 382
74.42492 368
74.44503 356
74.46515 359
74.48526 394
74.50537 381
74.52549 381
74.5456 385
74.56571 380
74.58583 368
74.60594 370
74.62606 392
74.64617 383
74.66628 369
74.6864 381
74.70651 370
74.72662 339
74.74674 423
74.76685 371
74.78697 396
74.80708 370
74.82719 381
74.84731 417
74.86742 376
74.88753 380
74.90765 363
74.92776 398
74.94787 394
74.96799 411
74.9881 400
75.00822 343
