3.00117 21910.9576559238
3.02128 20985.1491520211
3.0414 21170
3.06151 20175.4844098719
3.08162 19633.8499770685
3.10174 19389.5754785799
3.12185 18431.4635291294
3.14197 18182.8189346101
3.16208 17347.4614431391
3.18219 17352.0441175867
3.20231 16717.4684455663
3.22242 15720.4725499601
3.24253 15545.5150177774
3.26265 14951.8160178103
3.28276 14712.5324358436
3.30288 14249.5573646055
3.32299 13804.1071826852
3.3431 13620
3.36322 12922.4387071319
3.38333 12653.7402968703
3.40344 12333.9960623198
3.42356 11782.8304813455
3.44367 11484.5552491068
3.46379 11007.2083332968
3.4839 10832
3.50401 10771.676232303
3.52413 9852.36557793842
3.54424 9912.56001609277
3.56435 9254.20386487978
3.58447 9193.99374195256
3.60458 8855.72294384608
3.62469 8147.11803511252
3.64481 8248.92822965902
3.66492 7718.53101725921
3.68504 7540.81474473187
3.70515 7304.00685179414
3.72526 6921.33074033947
3.74538 6862.25914754389
3.76549 6372.21790567903
3.7856 6189
3.80572 6149.79953973636
3.82583 5787.41580705955
3.84595 5445.14248912076
3.86606 5192.0294941417
3.88617 5273.16684229765
3.90629 4914.1840999794
3.9264 4681
3.94651 4471.89007414763
3.96663 4302.90121614119
3.98674 4311.00684719911
4.00686 4197.5244596367
4.02697 3881.35450217143
4.04708 3763.08877465155
4.0672 3626
4.08731 3486.97216581165
4.10742 3404.73272243496
4.12754 3041.5918484773
4.14765 3021.15213419166
4.16776 2873.11019585466
4.18788 2981.83661943934
4.20799 2972.15151182414
4.22811 2572.91448246096
4.24822 2676.10460456823
4.26833 2600.75309881011
4.28845 2522.23617471272
4.30856 2600.43001582849
4.32867 2194.31982322914
4.34879 2303.90895126617
4.3689 2328
4.38902 2208.99733867261
4.40913 2252.85432076319
4.42924 2031.72325430128
4.44936 2054.88047767107
4.46947 2071.97127866827
4.48958 2068.09749006974
4.5097 1911
4.52981 1892.00453497535
4.54992 1876.97135767706
4.57004 1824.81068952661
4.59015 1792.60993705814
4.61027 1980.10074072988
4.63038 1691.18984565898
4.65049 1751.92743301038
4.67061 1809.98211618191
4.69072 1727.92619828455
4.71083 1684.93698613194
4.73095 1615.76835769206
4.75106 1533.08032542543
4.77118 1546.9517221089
4.79129 1584.99894986494
4.8114 1537
4.83152 1471.00344043646
4.85163 1516.01541517145
4.87174 1441.73656264079
4.89186 1355.92080974969
4.91197 1448.01166057818
4.93209 1335.03509366116
4.9522 1359
4.97231 1325.97592083517
4.99243 1309.03096740597
5.01254 1326.93729408226
5.03265 1264.07273032613
5.05277 1281.97940219199
5.07288 1253.05856755097
5.09299 1207.00161416575
5.11311 1235.00879842116
5.13322 1216.96254967517
5.15334 1179.93600708587
5.17345 1167.04086997265
5.19356 1184.04268241878
5.21368 1141.0086093355
5.23379 1165.99905888939
5.2539 1120
5.27402 1110.07726444484
5.29413 1196.97374144408
5.31425 1063.63623100745
5.33436 990.034487656039
5.35447 1006.93175888696
5.37459 1049.99290893881
5.3947 1028
5.41481 1008.00917424655
5.43493 1057.0790723038
5.45504 1057.83944103364
5.47516 963.023014496137
5.49527 1002.0598402888
5.51538 903.007378006636
5.5355 990
5.55561 936.988479456566
5.57572 980.029574257682
5.59584 941.838677765905
5.61595 874.056692579878
5.63606 875.055754265865
5.65618 855.919275774029
5.67629 979.991028293139
5.69641 872.949315138583
5.71652 844.984896138054
5.73663 814.982905684035
5.75675 839.107613413453
5.77686 856.076780266771
5.79697 783.08511119141
5.81709 779.980876673608
5.8372 821
5.85732 819.010075230664
5.87743 845.021635146931
5.89754 832.947660923164
5.91766 812.016091861831
5.93777 818.974797588357
5.95788 828.011434659151
5.978 807
5.99811 808.990882616996
6.01823 781.003138634602
6.03834 812.038211622957
6.05845 786.157959139508
6.07857 727.029673875721
6.09868 734.013207245263
6.11879 699.005423916081
6.13891 720.00735697662
6.15902 729.041492364435
6.17913 768.948439645739
6.19925 706.067643242739
6.21936 817.856222166037
6.23948 775.109282920605
6.25959 692.005269136064
6.2797 732
6.29982 704.957854243904
6.31993 682.999342230011
6.34004 680.944625716017
6.36016 648.98023949939
6.38027 698.936858181969
6.40039 707.002486206639
6.4205 704
6.44061 681.979592103534
6.46073 643.987112992482
6.48084 665.049419420684
6.50095 674.994597581554
6.52107 669.032350068015
6.54118 641.017274345976
6.56129 641.995003811034
6.58141 658.014016669181
6.60152 667.955432397638
6.62164 588.8881447542
6.64175 588.075072358448
6.66186 627.896397577335
6.68198 662.016873106071
6.70209 622.000982597389
6.7222 649
6.74232 589.963222068563
6.76243 600.022988220758
6.78255 597.998197566577
6.80266 605.98915508575
6.82277 617.942048719695
6.84289 640.02932399293
6.863 554
6.88311 641.020549185472
6.90323 581.870673811837
6.92334 542.017059843151
6.94346 587.860954790963
6.96357 634.018701503268
6.98368 582.037097340214
7.0038 582
7.02391 577.000058650097
7.04402 590.017950474852
7.06414 589.933579954119
7.08425 554.973613490089
7.10436 607.910393461163
7.12448 614.013415364586
7.14459 586.028338168034
7.16471 532.999232331904
7.18482 578.039096945168
7.20493 579.977906973703
7.22505 560.922467226738
7.24516 536.978875030709
7.26527 569.97624718199
7.28539 551.015951380569
7.3055 522
7.32562 511.038336978393
7.34573 570.03231844673
7.36584 541.935223566964
7.38596 534.99275788797
7.40607 540.977362319636
7.42618 543.040123052538
7.4463 486
7.46641 522.025786016312
7.48653 549.000303927357
7.50664 526.92468551208
7.52675 504.952065211311
7.54687 549.955479924754
7.56698 536.045169306644
7.58709 492.010999664191
7.60721 499.011327510234
7.62732 529.04182746839
7.64743 548.938812869932
7.66755 475.907021964844
7.68766 503.889610292571
7.70778 535.007545954893
7.72789 503.013891451891
7.748 487
7.76812 477.048729383707
7.78823 540.986595821882
7.80834 456.853302070597
7.82846 451.926501176205
7.84857 490.957854332327
7.86869 496.008836397822
7.8888 470
7.90891 474.016040481078
7.92903 510.016615741296
7.94914 496.984067660972
7.96925 505.978053331542
7.98937 497.040651608937
8.00948 460.037541932403
8.0296 442
8.04971 481.023938792154
8.06982 506.989369091936
8.08994 477.971155998062
8.11005 491.05212957642
8.13016 501.000842587131
8.15028 490.022287285637
8.17039 479.986539457137
8.1905 505
8.21062 432.995838743992
8.23073 503.077852496044
8.25085 499.990500102906
8.27096 510.031448309416
8.29107 461.074385519342
8.31119 448.984043237749
8.3313 487
8.35141 450.988227291985
8.37153 474.084183752516
8.39164 506.932300101252
8.41176 434.079100380635
8.43187 460.917046044902
8.45198 502.975819665823
8.4721 487
8.49221 414.003747287122
8.51232 492.059468087095
8.53244 478.896618099012
8.55255 442.004169795258
8.57266 468.94234989711
8.59278 476.012064740928
8.61289 453.014106870018
8.63301 428.992321713381
8.65312 429.018044010867
8.67323 446.995407385216
8.69335 434.022583307435
8.71346 462.970879380681
8.73357 466.953524017891
8.75369 508.002204186778
8.7738 447
8.79392 412.009737895043
8.81403 453.078146615983
8.83414 478.963496559403
8.85426 451.964135291003
8.87437 502.972557455482
8.89448 472.031070440774
8.9146 467
8.93471 452.990200134289
8.95483 447.030421268032
8.97494 467.966667924245
8.99505 415.121577930367
9.01517 413.924503286663
9.03528 465.003769065972
9.05539 425.001060522688
9.07551 462.001566303204
9.09562 416.965511484496
9.11573 425.036868814693
9.13585 429.937225411813
9.15596 394.032912709359
9.17608 405.980407480046
9.19619 398.024995427119
9.2163 363
9.23642 468.050261832179
9.25653 428.914905685425
9.27664 406.989442861885
9.29676 402.005227116413
9.31687 411.953991182394
9.33699 430.018314077181
9.3571 375
9.37721 441.023650251679
9.39733 433.971844507731
9.41744 426.972146410328
9.43755 406.022252970563
9.45767 422.943487994458
9.47778 442.034418020857
9.4979 382
9.51801 405.006140571814
9.53812 395.011678989243
9.55824 433.049416800065
9.57835 414.871949065827
9.59846 368.027011327812
9.61858 390.965932100605
9.63869 407.003200743559
9.6588 382
9.67892 368.03110890741
9.69903 407.982817078426
9.71915 361.991256318039
9.73926 408.943339955794
9.75937 400.990466432282
9.77949 426.001592297525
9.7996 391
9.81971 392.999181907416
9.83983 387.02705074919
9.85994 425.050458371969
9.88006 414.076420411435
9.90017 376.027878154919
9.92028 375.00403323362
9.9404 374
9.96051 429.02504577836
9.98062 434.952806165916
10.00074 363.888992353342
10.02085 357.90139258325
10.04097 396.009936874654
10.06108 363.994714030441
10.08119 409.986477536992
10.10131 388.980611622184
10.12142 365.996805011473
10.14153 377.023742825634
10.16165 388.013837060028
10.18176 378.06960575099
10.20187 348.973952784366
10.22199 391.996632866031
10.2421 366
10.26222 405.005986790873
10.28233 372.985258523146
10.30244 386.959600433591
10.32256 347.967658493607
10.34267 408.967922307224
10.36278 371.032642996738
10.3829 383
10.40301 391.984651346815
10.42313 345.971271771401
10.44324 359.018195704478
10.46335 368.872373154553
10.48347 429.007157321209
10.50358 378.004617007519
10.52369 436.976590557271
10.54381 417.968384337237
10.56392 369.003207785957
10.58403 404.013242658122
10.60415 385.02259404767
10.62426 416.018251894442
10.64438 364.035245001013
10.66449 386.968285814655
10.6846 428
10.70472 366.987165453569
10.72483 404.011387734117
10.74494 370.988157516854
10.76506 398.00383694472
10.78517 354.055766158343
10.80529 356.985957081887
10.8254 377
10.84551 352.993216687103
10.86563 368.051153295464
10.88574 391.987106327972
10.90585 377.946464665257
10.92597 423.975764298438
10.94608 384.06782703976
10.9662 333
10.98631 348.01291007455
11.00642 376.041448747919
11.02654 422.058603108015
11.04665 419.075707023182
11.06676 374.102749873853
11.08688 350.967239383813
11.10699 405.992213914255
11.1271 378
11.14722 400.023876414677
11.16733 399.976543353953
11.18745 380.954736372423
11.20756 381.931534282435
11.22767 411.043877634533
11.24779 338.024023293264
11.2679 350
11.28801 389.021461430815
11.30813 422.005774816951
11.32824 396.930591624933
11.34836 374.016111151704
11.36847 381.96634469929
11.38858 405.986260313861
11.4087 411
11.42881 417.992563837635
11.44892 389.987525251859
11.46904 393.986414894919
11.48915 375.01254548594
11.50927 395.950729509358
11.52938 421.986141503392
11.54949 414.017231643646
11.56961 381.000859633102
11.58972 412.021718636553
11.60983 403.969874471882
11.62995 390.989853189925
11.65006 389.016676287132
11.67017 386.961752864212
11.69029 432.981276990176
11.7104 434
11.73052 388.971202452389
11.75063 402.082318795729
11.77074 453.000852182937
11.79086 420.005545896521
11.81097 457.961438673197
11.83108 435.055063739664
11.8512 395
11.87131 424.999297881346
11.89143 392.989421807398
11.91154 424.053941268729
11.93165 432.954172184714
11.95177 456.007634022418
11.97188 427.015664439205
11.99199 432.001992319578
12.01211 429.018819908036
12.03222 485.011707588843
12.05234 446.938009861083
12.07245 463.11758610981
12.09256 505.962744738908
12.11268 488.04736434275
12.13279 453.992130412112
12.1529 507
12.17302 513.999437499533
12.19313 530.045035017654
12.21324 538.91002470693
12.23336 480.99198606074
12.25347 552.893296811291
12.27359 569.012854208628
12.2937 540
12.31381 557.008844165509
12.33393 553.966875254582
12.35404 548.087657799983
12.37415 610.958795981523
12.39427 563.097860117428
12.41438 519.030053009188
12.4345 491
12.45461 460.987540259938
12.47472 444.991932060391
12.49484 435.965128436102
12.51495 421.976963728942
12.53506 442.996925568541
12.55518 422.015101595734
12.57529 425.99595325993
12.5954 411
12.61552 350.968578543554
12.63563 358.026752554794
12.65575 370.042006779154
12.67586 400.914228031299
12.69597 431.00992716262
12.71609 384.033411110188
12.7362 344
12.75631 386.007785911319
12.77643 357.947640040911
12.79654 342.9916692621
12.81666 355.909281985251
12.83677 395.033308960837
12.85688 327.042602176922
12.877 334
12.89711 331.006599983331
12.91722 345.972708734585
12.93734 302.018643298713
12.95745 360.913927712943
12.97757 345.02833736499
12.99768 349.991703768995
13.01779 349.999685192614
13.03791 360.00951927517
13.05802 368.979897770705
13.07813 322.926146414947
13.09825 308.087956507732
13.11836 356.980385770635
13.13847 324.040532714609
13.15859 334.983768509108
13.1787 357
13.19882 336.991197171471
13.21893 341.992422341222
13.23904 326.998140477288
13.25916 339.994523303678
13.27927 315.068757896295
13.29938 291.962610839133
13.3195 362
13.33961 343.986451581481
13.35973 338.000887479125
13.37984 325.941851897676
13.39995 311.904991326038
13.42007 359.036723233388
13.44018 283.026107764632
13.46029 327.981975923384
13.48041 333.015618299455
13.50052 380.997307752487
13.52064 322.898788342982
13.54075 326.103566281101
13.56086 350.0688214045
13.58098 293.002425178631
13.60109 339.993003517667
13.6212 319
13.64132 382.014650611235
13.66143 331.933426806667
13.68154 340.075666852738
13.70166 368.993432072784
13.72177 347.045563682828
13.74189 330.997596318019
13.762 329
13.78211 285.014270957582
13.80223 355.009202261619
13.82234 300.988120546737
13.84245 358.926957907968
13.86257 325.058975269497
13.88268 328.961538729649
13.9028 352
13.92291 295.99975821349
13.94302 353.039201565534
13.96314 329.889728924819
13.98325 292.993660133301
14.00336 322.951165737071
14.02348 316.03137557676
14.04359 289.000142919834
14.06371 311.008749404157
14.08382 330.052658567297
14.10393 377.957843245836
14.12405 293.879503578479
14.14416 315.928023265972
14.16427 315.049374598697
14.18439 285.996831796949
14.2045 313
14.22461 297.010237694742
14.24473 338.991311194189
14.26484 283.926819368046
14.28496 295.952504689657
14.30507 308.975601048781
14.32518 321.014191749374
14.3453 291
14.36541 306.010858860422
14.38552 306.973893838692
14.40564 286.046058164007
14.42575 328.008655945946
14.44587 284.022818470616
14.46598 321.953873775468
14.48609 334.010012488517
14.50621 291.972257034923
14.52632 257.012194426376
14.54643 296.028256973038
14.56655 285.997030354316
14.58666 304.974614738824
14.60677 304.989464184438
14.62689 320.996554445117
14.647 304
14.66712 280.021048553887
14.68723 318.997445477944
14.70734 276.95289583229
14.72746 295.945788299718
14.74757 306.993064470924
14.76768 304.021659617324
14.7878 281
14.80791 312.013744279795
14.82803 313.975933455578
14.84814 296.983740347877
14.86825 299.983059763873
14.88837 301.010514027602
14.90848 297.984671313584
14.92859 323.992873232236
14.94871 318.995191697114
14.96882 321.015309109775
14.98894 334.992276327772
15.00905 315.962533890795
15.02916 324.932363325732
15.04928 347.027815747478
15.06939 287.017865376017
15.0895 293
15.10962 288.000809676926
15.12973 308.048263532736
15.14984 318.925869483917
15.16996 254.088990206346
15.19007 260.936257957195
15.21019 300.992706525783
15.2303 299
15.25041 324.001721515364
15.27053 305.991639916865
15.29064 318.002217699663
15.31075 292.100778222052
15.33087 272.960965047896
15.35098 317.986493156874
15.3711 292
15.39121 286.99323577898
15.41132 276.029473296467
15.43144 328.036278345716
15.45155 302.060845010844
15.47166 301.996764833659
15.49178 299.988082689474
15.51189 316.003776832416
15.53201 280.980830561197
15.55212 278.047607211026
15.57223 332.000377844904
15.59235 291.982073444261
15.61246 322.996699701056
15.63257 288.017109224376
15.65269 308.999043942565
15.6728 279
15.69291 288.013904738033
15.71303 310.006539880631
15.73314 299.980862220335
15.75326 293.033363497471
15.77337 275.992817769573
15.79348 301.975797770865
15.8136 309
15.83371 300.992531806107
15.85382 288.000122727877
15.87394 297.005107111556
15.89405 292.988628112348
15.91417 302.008809533498
15.93428 290.986934773959
15.95439 321.993410265654
15.97451 308.994007478793
15.99462 309.999004996257
16.01473 293.956678703881
16.03485 274.022737289417
16.05496 301.967447267097
16.07508 295.011696350814
16.09519 291.00114825389
16.1153 289
16.13542 298.011325234065
16.15553 302.990240260922
16.17564 290.987477043726
16.19576 301.943210685719
16.21587 319.035719173535
16.23598 276.010455574613
16.2561 296
16.27621 272.005738544811
16.29633 324.061519987272
16.31644 321.946778181183
16.33655 297.037378508406
16.35667 283.044525475379
16.37678 261.970732539381
16.39689 319.988602828149
16.41701 298.995069964768
16.43712 311.99288236301
16.45724 280.968979816921
16.47735 284.972015951575
16.49746 259.010503873006
16.51758 287.958738879105
16.53769 312.999328595124
16.5578 291
16.57792 256.981963399978
16.59803 268.061881012356
16.61814 312.034610453784
16.63826 302.018020035715
16.65837 307.989851050515
16.67849 301.01050490047
16.6986 289
16.71871 317.994649140228
16.73883 276.979498680957
16.75894 303.041912648674
16.77905 299.011269078081
16.79917 306.986690474892
16.81928 300.027969343292
16.8394 272
16.85951 280.988326963613
16.87962 249.026055122028
16.89974 320.071546270972
16.91985 296.072084182025
16.93996 296.978385242654
16.96008 304.987584709607
16.98019 313.006357849283
17.00031 287.993890805187
17.02042 287.987017293649
17.04053 271.020048800942
17.06065 299.988706207784
17.08076 270.990716791858
17.10087 310.971715705933
17.12099 292.008560725059
17.1411 290
17.16121 269.000282883834
17.18133 288.007233947771
17.20144 276.001743677182
17.22156 299.94551050038
17.24167 303.044124371199
17.26178 264.016820914383
17.2819 282
17.30201 294.986915078189
17.32212 256.996156067178
17.34224 306.149334373286
17.36235 343.095753269064
17.38247 287.963171635495
17.40258 365.991827277826
17.42269 293.020942949729
17.44281 319.009469915808
17.46292 295.97488610856
17.48303 303.050842318722
17.50315 325.947658593114
17.52326 280.037255369283
17.54338 305.963973622844
17.56349 321.001571342252
17.5836 310
17.60372 303.998252503075
17.62383 299.982890438359
17.64394 294.035065078028
17.66406 328.945013467961
17.68417 328.039481560219
17.70428 309.978799368178
17.7244 346
17.74451 305.993406678007
17.76463 336.041994327147
17.78474 326.927236903917
17.80485 308.907871997164
17.82497 360.018789337296
17.84508 297.02208465193
17.86519 333.988508519704
17.88531 312.988988051809
17.90542 316.011499011778
17.92554 323.011744269287
17.94565 325.987101655755
17.96576 307.065497448842
17.98588 283.988986714162
18.00599 315.992307327334
18.0261 302
18.04622 303.02095194009
18.06633 325.005471012869
18.08645 303.918107946098
18.10656 277.031176369453
18.12667 277.973262818192
18.14679 306.983146418001
18.1669 326
18.18701 296.987013406465
18.20713 295.031245967446
18.22724 320.022774020292
18.24735 304.098219718259
18.26747 275.978124083441
18.28758 314.98652809889
18.3077 292
18.32781 302.014944963906
18.34792 319.984508802752
18.36804 285.968417121979
18.38815 297.967553519346
18.40826 292.036288733968
18.42838 279.994054674235
18.44849 303.984960091788
18.46861 310.983112613742
18.48872 269.000520377011
18.50883 303.01203769763
18.52895 274.962571608047
18.54906 286.9916308615
18.56917 282.966812809749
18.58929 321.994223647067
18.6094 306
18.62951 329.003931035476
18.64963 308.965593384891
18.66974 297.982880620101
18.68986 294.969242215726
18.70997 313.012241012479
18.73008 291.991497672269
18.7502 324
18.77031 298.992605675297
18.79042 316.028584584499
18.81054 325.961923695794
18.83065 294.044639719547
18.85077 307.944644323065
18.87088 335.007498471489
18.89099 306.006347117082
18.91111 317.002238797645
18.93122 306.997699120981
18.95133 323.034094118466
18.97145 337.002236576421
18.99156 318.081992070741
19.01168 280.006806912934
19.03179 303.98686991461
19.0519 319
19.07202 335.996527581655
19.09213 321.002388178376
19.11224 348.066250106975
19.13236 360.035496588777
19.15247 326.041902057749
19.17258 322.981070288048
19.1927 346
19.21281 354.013203862128
19.23293 386.002933634524
19.25304 362.984754250427
19.27315 386.921813649183
19.29327 388.06438852647
19.31338 346.978710691054
19.33349 407.991433523023
19.35361 378.001451127766
19.37372 425.022198316817
19.39384 409.001339209225
19.41395 446.095500091518
19.43406 458.014757397389
19.45418 458.970152418871
19.47429 500.991897228728
19.4944 483
19.51452 484.024909328753
19.53463 524.068689052258
19.55475 559.03934870318
19.57486 574.913988939038
19.59497 629.964264865654
19.61509 626.991388665567
19.6352 681
19.65531 731.02759922102
19.67543 793.081063456171
19.69554 827.030091460435
19.71565 842.913457527263
19.73577 888.953248201611
19.75588 922.920421445587
19.776 1006
19.79611 938.985125830739
19.81622 992.077970658661
19.83634 1031.99063846022
19.85645 1007.03596475517
19.87656 988.137725012439
19.89668 900.029042832467
19.91679 922.006135918231
19.93691 870.995863226754
19.95702 907.000780983045
19.97713 840.872871032699
19.99725 782.920493141506
20.01736 779.939980924792
20.03747 815.984472088752
20.05759 798.008717517511
20.0777 788
20.09782 754.985776324259
20.11793 757.987448581707
20.13804 751.071456447221
20.15816 807.971470853873
20.17827 756.117365124037
20.19838 717.969910024998
20.2185 780
20.23861 756.984873810139
20.25872 753.011365021353
20.27884 757.975515509196
20.29895 724.121297938847
20.31907 698.954164390548
20.33918 763.954734942806
20.35929 750.029601573853
20.37941 697.997355102262
20.39952 730.020787431994
20.41963 717.972517637238
20.43975 714.012014740149
20.45986 721.978080356705
20.47998 722.024845103478
20.50009 696.99304819027
20.5202 734
20.54032 691.951422644865
20.56043 688.078439508501
20.58054 756.061419704512
20.60066 739.045754360942
20.62077 753.91789800841
20.64088 829.924719715451
20.661 877
20.68111 911.06064121641
20.70123 1109.2943961897
20.72134 1249.20439681307
20.74145 1426.14808212717
20.76157 1911.23494646152
20.78168 2402.46770373843
20.80179 2993.70482470012
20.82191 3483.1650356052
20.84202 3678.13077455025
20.86214 3673.432143215
20.88225 3155.61684125679
20.90236 2656.07440399703
20.92248 2047.60322702756
20.94259 1529.20557752099
20.9627 1223
20.98282 1046.82090685953
21.00293 877.848037454487
21.02305 839.917420792183
21.04316 792.045567263518
21.06327 784.063731492556
21.08339 713.021377290393
21.1035 720
21.12361 712.976504717637
21.14373 653.952788279006
21.16384 650.97618098471
21.18395 619.062534663948
21.20407 610.015268719569
21.22418 603.979067330544
21.2443 650
21.26441 648.965287937792
21.28452 563.975253312247
21.30464 601.050901352025
21.32475 577.095158691264
21.34486 570.925545240747
21.36498 605.027630631854
21.38509 531.022895469707
21.40521 547.018783845468
21.42532 569.008855632459
21.44543 572.002386324764
21.46555 572.991773598137
21.48566 560.048133909158
21.50577 548.957954850962
21.52589 578.017310460089
21.546 508
21.56612 564.039903634874
21.58623 542.934403922794
21.60634 528.055320768991
21.62646 561.026570010742
21.64657 497.100814643423
21.66668 481.953831818334
21.6868 548
21.70691 520.966220286177
21.72702 465.991067520362
21.74714 512.153481056366
21.76725 563.022255129353
21.78737 518.035427544443
21.80748 529.995318456149
21.82759 515.002000578392
21.84771 515.984732778188
21.86782 480.021624812216
21.88793 546.050805906272
21.90805 533.001909705596
21.92816 562.972590122504
21.94828 546.016886083492
21.96839 552.988008426597
21.9885 570
22.00862 566.044732961584
22.02873 615.948929799482
22.04884 532.984813172073
22.06896 596.985091513984
22.08907 515.114167773566
22.10919 502.991916068678
22.1293 510
22.14941 496.990198617297
22.16953 480.993224171962
22.18964 490.033785182012
22.20975 501.008556468218
22.22987 501.951271552921
22.24998 546.989420055212
22.27009 519.01192426203
22.29021 514.994631568309
22.31032 481.956259142875
22.33044 460.043270003556
22.35055 510.102968530287
22.37066 520.015032494113
22.39078 503.032246281035
22.41089 478.992914359703
22.431 502
22.45112 431.955739040761
22.47123 452.08356123912
22.49135 500.06114074917
22.51146 497.038659781117
22.53157 480.010350335323
22.55169 491.984050038616
22.5718 517
22.59191 471.97484001626
22.61203 447.004103191924
22.63214 468.055234173266
22.65225 492.940579780683
22.67237 503.027795903854
22.69248 476.997215267628
22.7126 494
22.73271 450.999129376285
22.75282 478.981944283824
22.77294 431.028273628016
22.79305 503.910705110694
22.81316 478.03398034103
22.83328 505.962066433618
22.85339 509.021119491057
22.87351 460.998438063891
22.89362 499.025033680587
22.91373 483.957171626057
22.93385 459.931847738258
22.95396 442.96937039111
22.97407 486.929957479188
22.99419 507.005502496921
23.0143 491
23.03442 511.988396877313
23.05453 470.965702982307
23.07464 483.03351229083
23.09476 496.933630753182
23.11487 519.063356502049
23.13498 441.030909461332
23.1551 479
23.17521 496.005214596616
23.19532 506.995732047539
23.21544 479.917508969963
23.23555 446.031180890544
23.25567 451.988161969828
23.27578 452.001190502658
23.29589 455.995596062132
23.31601 454.987440357096
23.33612 429.01106771527
23.35623 476.065625116473
23.37635 493.012021644281
23.39646 481.095643419578
23.41658 427.010280962192
23.43669 459.986986325197
23.4568 470
23.47692 522.020796266207
23.49703 510.002163570554
23.51714 536.030822278533
23.53726 530.006791126316
23.55737 535.007278257047
23.57749 515.010931350356
23.5976 501
23.61771 497.002405581414
23.63783 496.966926597425
23.65794 468.999391589989
23.67805 494.957146418899
23.69817 486.026365307484
23.71828 474.009464390134
23.73839 468.997664796749
23.75851 481.005822785922
23.77862 487.00245432547
23.79874 484.980894129007
23.81885 489.104488239837
23.83896 530.046737758326
23.85908 468.011219992907
23.87919 515.986896743545
23.8993 492
23.91942 504.025615969442
23.93953 529.04481075418
23.95965 547.965386488757
23.97976 533.919655334634
23.99987 596.005374322477
24.01999 529.020065148827
24.0401 529
24.06021 471.005307782945
24.08033 542.048532484694
24.10044 486.814025323044
24.12056 439.92918544778
24.14067 510.964660483828
24.16078 466.051548896911
24.1809 462
24.20101 495.997819105444
24.22112 471.007908524207
24.24124 515.059243984884
24.26135 508.039991161121
24.28146 494.056752920818
24.30158 470.980822937531
24.32169 510.000386480365
24.34181 470.99203733142
24.36192 495.019866270936
24.38203 501.038916194758
24.40215 521.892307950287
24.42226 453.987595183594
24.44237 523.963014284846
24.46249 489.998429557197
24.4826 538
24.50272 489.978753640995
24.52283 511.000219004822
24.54294 481.993093167195
24.56306 524.890043476603
24.58317 548.029668325262
24.60328 510.020330261634
24.6234 517
24.64351 532.026128583401
24.66362 582.979550414206
24.68374 527.02887643538
24.70385 601.952227533525
24.72397 548.042430763691
24.74408 581.965914748068
24.76419 575.013698262616
24.78431 559.003461041552
24.80442 600.074436116759
24.82453 656.981762514693
24.84465 591.87459442631
24.86476 599.914514827677
24.88488 631.004282378354
24.90499 602.009727302088
24.9251 610
24.94522 608.962732354904
24.96533 557.961522427595
24.98544 564.011619873249
25.00556 552.030685809036
25.02567 545.997146141212
25.04579 549.999147009634
25.0659 548
25.08601 559.018096123881
25.10613 590.979429075389
25.12624 537.911179495417
25.14635 543.872734062961
25.16647 587.019449978259
25.18658 539.013547988294
25.20669 578.978477481263
25.22681 585.990824754988
25.24692 566.99455762437
25.26704 577.026678241052
25.28715 589.044371377604
25.30726 600.031400297926
25.32738 569.014689127946
25.34749 579.992666247692
25.3676 570
25.38772 539.027085923251
25.40783 598.024738217227
25.42795 555.893113968257
25.44806 550.971188087522
25.46817 562.990624164172
25.48829 559.00773474888
25.5084 558
25.52851 604.994883194759
25.54863 550.968833512496
25.56874 588.086199792312
25.58886 588.082136543272
25.60897 558.94830763025
25.62908 622.992765804589
25.6492 573
25.66931 593.995570071498
25.68942 543.96996271931
25.70954 564.07940940996
25.72965 584.023822789717
25.74976 567.97977628224
25.76988 596.99242097819
25.78999 580.002252106041
25.81011 592.999218671601
25.83022 572.989779986166
25.85033 570.965233683806
25.87045 534.97347444636
25.89056 556.952409178146
25.91067 560.015031647731
25.93079 562.982868547808
25.9509 590
25.97102 520.99076433615
25.99113 571.027313234448
26.01124 561.111081630088
26.03136 655.974708045693
26.05147 584.057273843288
26.07158 622.958852936499
26.0917 624
26.11181 638.015736023728
26.13193 656.969235076598
26.15204 630.053048957398
26.17215 709.820390253196
26.19227 753.916676061687
26.21238 793.046266815615
26.23249 718.987268785203
26.25261 859.07054059351
26.27272 905.968027922808
26.29283 861.993387906227
26.31295 934.334454533023
26.33306 1067.83441227266
26.35318 1111.93526209423
26.37329 1234.9216845085
26.3934 1377
26.41352 1508.25979252105
26.43363 1897.62127794543
26.45374 2326.0448464616
26.47386 3013.35313650096
26.49397 3939.50381656367
26.51409 5159.20554988975
26.5342 7131
26.55431 9453.27510811231
26.57443 12113.7405886154
26.59454 14141.924937423
26.61465 15081.7115937879
26.63477 15116.9299078769
26.65488 13680.2231634061
26.67499 11016.3625061863
26.69511 8519.86474827638
26.71522 6330.83104887844
26.73534 4251.42534624018
26.75545 2836.23131688985
26.77556 1947.32109471359
26.79568 1495.24938048096
26.81579 1341.07452436772
26.8359 1163
26.85602 1072.9310049102
26.87613 1003.92023306969
26.89625 952.808830615317
26.91636 882.009100096421
26.93647 918.013608682718
26.95659 836.047983648492
26.9767 779
26.99681 775.00067861722
27.01693 761.948466292822
27.03704 721.955528314342
27.05716 718.015710229914
27.07727 705.990921396909
27.09738 705.055246961555
27.1175 623
27.13761 639.995596872538
27.15772 591.975052718261
27.17784 612.050462586212
27.19795 606.085134613883
27.21806 565.058457558432
27.23818 572.947765569889
27.25829 616.013834617724
27.27841 537.977115895482
27.29852 570.073725844232
27.31863 625.01581570797
27.33875 624.112858405523
27.35886 699.935438590576
27.37897 691.957953893897
27.39909 754.990301646559
27.4192 727
27.43932 741.94597025275
27.45943 660.02536290042
27.47954 767.123702348708
27.49966 732.098404583867
27.51977 697.110846018409
27.53988 609.0220981138
27.56 641
27.58011 571.966393610225
27.60023 563.062283507388
27.62034 607.011464554754
27.64045 576.063682962135
27.66057 569.025716754012
27.68068 544.998428424437
27.70079 569.993152794084
27.72091 565.001701652751
27.74102 593.041444818522
27.76113 618.987942955316
27.78125 579.879055430726
27.80136 546.031839185088
27.82148 551.971080260644
27.84159 581.996205599176
27.8617 569
27.88182 569.990431289992
27.90193 558.020790192604
27.92204 602.099812503106
27.94216 625.027413284078
27.96227 580.09148175523
27.98239 530.012921267538
28.0025 526
28.02261 517.988810716146
28.04273 499.008785580616
28.06284 495.866617625176
28.08295 414.973523707319
28.10307 493.972051364195
28.12318 433.03089073271
28.1433 459
28.16341 423.000116344352
28.18352 474.04381556638
28.20364 485.018873568957
28.22375 496.967844625619
28.24386 455.094306758553
28.26398 438.971277343571
28.28409 484.989209594456
28.3042 460
28.32432 420.996612096672
28.34443 441.013925471663
28.36455 425.952525810482
28.38466 410.051135066756
28.40477 384.005753989331
28.42489 412.975179002634
28.445 452
28.46511 430.985707955799
28.48523 417.002612689103
28.50534 415.953728993692
28.52546 390.973390017583
28.54557 428.986649731646
28.56568 402.015790426638
28.5858 418
28.60591 423.998064562229
28.62602 418.997146963798
28.64614 411.958871026222
28.66625 392.981025250165
28.68636 411.025312681777
28.70648 373.016291386936
28.72659 393.986520399415
28.74671 409.007953084058
28.76682 429.013918103065
28.78693 418.937234566517
28.80705 380.01788634336
28.82716 418.973614786877
28.84727 388.054307868983
28.86739 381.989432853354
28.8875 411
28.90762 422.017369133286
28.92773 422.919098632081
28.94784 351.978297673516
28.96796 408.889779089451
28.98807 415.032827088508
29.00818 396.006220160834
29.0283 410
29.04841 428.988813608574
29.06853 378.947709258462
29.08864 389.085516798679
29.10875 414.079207500087
29.12887 360.999483569374
29.14898 412.973102548614
29.16909 402.991197270605
29.18921 444.999032625253
29.20932 395.969052377367
29.22943 405.009791459819
29.24955 385.93708407566
29.26966 380.955002362639
29.28978 410.990152080632
29.30989 401.999551726813
29.33 414
29.35012 390.984314402639
29.37023 394.011498237864
29.39034 397.005840218355
29.41046 408.949565137469
29.43057 423.039443189237
29.45069 382.000150792402
29.4708 411
29.49091 369.999055242449
29.51103 412.028552660973
29.53114 397.012041090953
29.55125 432.951787601912
29.57137 412.057694996363
29.59148 397.969846593973
29.6116 434
29.63171 379.991532681796
29.65182 417.033892518503
29.67194 427.043149340744
29.69205 445.916094149655
29.71216 378.066407454371
29.73228 400.967466633553
29.75239 407.005208378685
29.7725 402
29.79262 432.036371605594
29.81273 450.982797672243
29.83285 423.963644717981
29.85296 434.956292200755
29.87307 450.988470297176
29.89319 450.003875512753
29.9133 439
29.93341 434.004957316115
29.95353 432.932257028756
29.97364 373.982809996906
29.99376 414.948830150367
30.01387 409.979790777899
30.03398 441.999044301777
30.0541 402
30.07421 382.993415385448
30.09432 381.030981529334
30.11444 426.035357574835
30.13455 426.911892818813
30.15467 473.028074196024
30.17478 393.061346245438
30.19489 386.996389926048
30.21501 394.017719922889
30.23512 435.997322547886
30.25523 385.926668154742
30.27535 382.093310870739
30.29546 423.974432131187
30.31557 411.998988780754
30.33569 425.006319463234
30.3558 389
30.37592 397.003948087183
30.39603 386.995296381187
30.41614 403.053278925612
30.43626 417.027887859209
30.45637 391.010251136643
30.47648 404.994716271408
30.4966 399
30.51671 414.992973017164
30.53683 377.975754796503
30.55694 391.014668810852
30.57705 380.017825030689
30.59717 385.99064962239
30.61728 384.005853821803
30.63739 380.998865332175
30.65751 387.002856960638
30.67762 387.995752616025
30.69773 390.030376364372
30.71785 411.98730621151
30.73796 398.946570441697
30.75808 447.994415369214
30.77819 404.01695198478
30.7983 403
30.81842 383.991510084826
30.83853 396.026276365833
30.85864 401.984197228288
30.87876 386.031209880762
30.89887 378.001725409209
30.91899 379.998877877616
30.9391 379
30.95921 363.984683397514
30.97933 344.034454578042
30.99944 388.021317958958
31.01955 356.073936958711
31.03967 356.977237766413
31.05978 373.977506121248
31.0799 390
31.10001 367.993155602897
31.12012 367.995801743392
31.14024 358.001224616787
31.16035 367.995692911509
31.18046 360.003090792174
31.20058 361.016514728135
31.22069 341.993028086515
31.2408 378
31.26092 354.979316478251
31.28103 362.035621475126
31.30115 375.970876470579
31.32126 356.984220483944
31.34137 390.96260504514
31.36149 375.026860266252
31.3816 322
31.40171 339.00489271805
31.42183 333.014330377807
31.44194 364.05364784625
31.46206 361.066359796974
31.48217 334.97107755624
31.50228 378.990558065928
31.5224 351
31.54251 365.993985803806
31.56262 322.973480940713
31.58274 331.027588990209
31.60285 337.960132715833
31.62297 357.000271786358
31.64308 338.015064607848
31.66319 336.001141849279
31.68331 333.004643736931
31.70342 344.992014233138
31.72353 332.029427790602
31.74365 374.040680540017
31.76376 352.050003486232
31.78387 347.99073997843
31.80399 349.004349532822
31.8241 331
31.84422 317.001582846743
31.86433 337.050666851694
31.88444 350.929442086558
31.90456 300.005589735268
31.92467 349.934242916277
31.94478 354.011209005175
31.9649 338
31.98501 312.012465000771
32.00513 371.050416673686
32.02524 355.943115907591
32.04535 341.023070946664
32.06547 338.977731099262
32.08558 366.972681686823
32.10569 371.014279764672
32.12581 334.995762681253
32.14592 355.014802456494
32.16604 349.987906858208
32.18615 349.986294880888
32.20626 338.01549428854
32.22638 343.981359935613
32.24649 360.000600727335
32.2666 336
32.28672 321.035531611812
32.30683 375.018171778944
32.32694 339.94464428345
32.34706 350.946325559493
32.36717 371.976245112114
32.38729 377.006260553911
32.4074 353
32.42751 349.009310626142
32.44763 369.997988780987
32.46774 362.050857333431
32.48785 399.034815257939
32.50797 339.057534306142
32.52808 348.982118707683
32.5482 350
32.56831 346.988753948399
32.58842 325.015679571814
32.60854 353.961460870096
32.62865 301.025010652034
32.64876 339.964687615424
32.66888 318.00950740817
32.68899 336.994317273208
32.7091 326
32.72922 334.027925588211
32.74933 362.011746622954
32.76945 341.911008757853
32.78956 310.040621358878
32.80967 313.9495809897
32.82979 344.00642694088
32.8499 304
32.87001 330.009414422934
32.89013 318.971975015323
32.91024 303.956635525299
32.93036 303.879180734041
32.95047 381.980845470807
32.97058 330.033296590712
32.9907 340
33.01081 314.003018764186
33.03092 349.007941838998
33.05104 319.959854989457
33.07115 333.931345875928
33.09127 343.031680820458
33.11138 314.002474913165
33.13149 342.984572381688
33.15161 353.999224247583
33.17172 347.990276539849
33.19183 342.0069534609
33.21195 349.992975582637
33.23206 329.063961342617
33.25217 310.978249382472
33.27229 350.980315695139
33.2924 357
33.31252 311.983033266106
33.33263 334.051202500052
33.35274 335.903826330739
33.37286 282.987416655929
33.39297 339.947072074531
33.41308 327.015817563987
33.4332 324
33.45331 302.010207164492
33.47343 343.99678950089
33.49354 298.957525866523
33.51365 325.917125147965
33.53377 335.0059157038
33.55388 340.97253376479
33.57399 370.999279148459
33.59411 349.996871562823
33.61422 357.984851802303
33.63434 322.972320925555
33.65445 335.005415050912
33.67456 320.007476732623
33.69468 338.975268975229
33.71479 338.020730782011
33.7349 287
33.75502 323.052648104176
33.77513 355.009406778376
33.79524 341.957585040542
33.81536 319.057162388982
33.83547 303.966424889253
33.85559 349.984366904875
33.8757 343
33.89581 315.995676230256
33.91593 330.040305736284
33.93604 342.963403993837
33.95615 316.981058297107
33.97627 360.937445784596
33.99638 370.016105611859
34.0165 356
34.03661 372.996677409924
34.05672 353.009661959434
34.07684 388.025792425029
34.09695 371.018793991652
34.11706 382.001557546654
34.13718 367.001135974285
34.15729 387.988420385782
34.17741 395.997527111444
34.19752 382.981683359749
34.21763 386.072673338981
34.23775 443.009385432306
34.25786 389.108568323076
34.27797 382.948132308155
34.29809 432.976492012759
34.3182 456
34.33831 431.984486136893
34.35843 421.036687783987
34.37854 467.075803500657
34.39866 473.041844115186
34.41877 458.967431563201
34.43888 507.961743063461
34.459 500
34.47911 444.991398891283
34.49922 474.04359153535
34.51934 503.031841771456
34.53945 514.96284671947
34.55957 529.992482642105
34.57968 527.996026472669
34.59979 545.98659600978
34.61991 564.999600049636
34.64002 548.985299749132
34.66013 553.03579822413
34.68025 574.992185305257
34.70036 557.992998984472
34.72047 588.953611289862
34.74059 607.98895272032
34.7607 642
34.78082 674.019257923524
34.80093 662.919889270635
34.82104 619.060244543846
34.84116 699.914508091492
34.86127 687.993725027167
34.88138 706.041706179148
34.9015 637
34.92161 710.005238314468
34.94173 642.94756100102
34.96184 678.068884560461
34.98195 677.996066213706
35.00207 678.061414911793
35.02218 622.004694520466
35.04229 678.968806946875
35.06241 689.97904567604
35.08252 618.926083031358
35.10264 566.941035773866
35.12275 559.032475702636
35.14286 587.920178764424
35.16298 597.059492409223
35.18309 507.021691901312
35.2032 523
35.22332 513.013324788298
35.24343 547.009762843336
35.26354 528.010367391483
35.28366 565.941766713338
35.30377 559.044052101893
35.32389 536.000531854931
35.344 548
35.36411 529.99011841444
35.38423 519.992160078841
35.40434 517.003767436284
35.42445 520.998347636367
35.44457 518.997859011312
35.46468 516.021298564283
35.4848 492
35.50491 522.01304383499
35.52502 536.023672115199
35.54514 544.895552232105
35.56525 468.043160915082
35.58536 522.888065801524
35.60548 530.021323270008
35.62559 510.00466053879
35.64571 516.008394055434
35.66582 527.995875689437
35.68593 503.945663696407
35.70605 487.066862448179
35.72616 519.051771450263
35.74627 455.028293008779
35.76639 502.973460891293
35.7865 512
35.80661 492.003831189787
35.82673 509.98013377938
35.84684 492.090335146759
35.86696 571.965877804642
35.88707 514.07249698232
35.90718 507.017945242852
35.9273 481
35.94741 542.017786220939
35.96752 514.937299044813
35.98764 460.946899066532
36.00775 472.89145745422
36.02787 505.023788031096
36.04798 460.018429295287
36.06809 489.977695197007
36.08821 506.99011133332
36.10832 476.995672904718
36.12843 487.970713879046
36.14855 453.026629201481
36.16866 495.998392587959
36.18878 454.011013619027
36.20889 500.970995354068
36.229 525
36.24912 505.993434732081
36.26923 510.990509182829
36.28934 499.021822695605
36.30946 542.884670778977
36.32957 585.973525753136
36.34968 597.963916363642
36.3698 660
36.38991 730.061471105696
36.41003 890.204174543971
36.43014 980.156932888736
36.45025 1078.7183499442
36.47037 1198.81525860737
36.49048 1326.8650450802
36.51059 1410.01654286737
36.53071 1300.96009372456
36.55082 1273.94661312873
36.57094 1174.83407303898
36.59105 1111.75483038885
36.61116 961.323386421091
36.63128 837.074189585943
36.65139 756.076856504397
36.6715 582
36.69162 601.981650015825
36.71173 494.827605450753
36.73184 456.085354473381
36.75196 509.028248401634
36.77207 443.038054183157
36.79219 478.987207071691
36.8123 457
36.83241 449.012897067703
36.85253 474.978599844838
36.87264 436.990343155775
36.89275 463.99825035385
36.91287 439.983444104831
36.93298 492.95857329309
36.9531 484
36.97321 451.007224392238
36.99332 490.005474107682
37.01344 456.962753624016
37.03355 461.043344535289
37.05366 436.943103282789
37.07378 488.01642702598
37.09389 418.009565775037
37.11401 466.013538403708
37.13412 441.982237134993
37.15423 447.985538298548
37.17435 434.081055878945
37.19446 487.007506045854
37.21457 432.035546647828
37.23469 449.007623749931
37.2548 404
37.27491 453.011303798594
37.29503 430.983381181931
37.31514 460.085850225799
37.33526 470.088278607788
37.35537 411.019115441541
37.37548 443.982908667594
37.3956 418
37.41571 419.023350614583
37.43582 469.000021860297
37.45594 436.007577136597
37.47605 476.978593657001
37.49617 444.021254885001
37.51628 454.020673006486
37.53639 424.979852473516
37.55651 514.019158389919
37.57662 462.919531765054
37.59673 424.022562543696
37.61685 467.081360711148
37.63696 470.016210604167
37.65708 462.01521988831
37.67719 445.002805315837
37.6973 455
37.71742 460.986399114154
37.73753 449.029608679794
37.75764 483.000989615315
37.77776 449.04296064141
37.79787 471.920896639841
37.81798 514.992595596324
37.8381 485
37.85821 460.000903301043
37.87833 467.978022531133
37.89844 440.999851591723
37.91855 478.881532220562
37.93867 492.056215154076
37.95878 438.019509469004
37.97889 453.000553996372
37.99901 431.001564524501
38.01912 459.006609237737
38.03924 443.012310357894
38.05935 475.042137765481
38.07946 459.051494495594
38.09958 445.003367648198
38.11969 445.001315971511
38.1398 429
38.15992 415.048620013811
38.18003 497.063922928034
38.20015 470.868913329011
38.22026 439.011376436617
38.24037 456.949296230543
38.26049 481.002118553338
38.2806 456
38.30071 455.002841385311
38.32083 463.026908938849
38.34094 487.036300673407
38.36105 479.10644862797
38.38117 439.981968333993
38.40128 494.95815334784
38.4214 490
38.44151 477.012315477906
38.46162 520.021110697482
38.48174 506.960607488713
38.50185 490.078866301483
38.52196 458.994164165408
38.54208 483.001402119447
38.56219 450.012024079059
38.58231 458.011470282633
38.60242 458.959061724855
38.62253 405.978209749711
38.64265 442.121754536897
38.66276 460.038515455834
38.68287 433.993774259643
38.70299 457.003286627813
38.7231 425
38.74321 451.003670463838
38.76333 422.95386574694
38.78344 402.944980087861
38.80356 384.945129632352
38.82367 435.975418265023
38.84378 416.997153517661
38.8639 447
38.88401 417.990271178354
38.90412 425.007351869494
38.92424 411.944089312746
38.94435 394.962540341847
38.96447 428.971784581533
38.98458 419.018433729203
39.00469 407.005359370646
39.02481 407.012752094126
39.04492 438.00125733062
39.06503 424.030150681621
39.08515 468.020222968542
39.10526 441.003652686773
39.12538 479.965003422613
39.14549 469.027267113721
39.1656 427
39.18572 497.037783294923
39.20583 471.936617848471
39.22594 460.041834504083
39.24606 501.904638295902
39.26617 534.982366812799
39.28628 546.960248989323
39.3064 630
39.32651 729.026434159645
39.34663 777.172115318503
39.36674 950.29688022668
39.38685 1060.65679908986
39.40697 1223.82269160459
39.42708 1256.02753900366
39.44719 1203.03521630517
39.46731 1121.95465867062
39.48742 1014.87192721255
39.50754 900.886708994253
39.52765 879.880510616325
39.54776 776.248085378767
39.56788 671.078670103351
39.58799 598.046375635104
39.6081 490
39.62822 448.007315062745
39.64833 452.926341053431
39.66845 379.964727932324
39.68856 422.967781559666
39.70867 394.012938083462
39.72879 411.008836414487
39.7489 358
39.76901 369.002330625272
39.78913 351.987226220866
39.80924 372.077155516465
39.82935 398.021609296049
39.84947 362.050982567445
39.86958 353.986806867417
39.8897 379
39.90981 406.007300182846
39.92992 403.98432477732
39.95004 399.054518027263
39.97015 435.002509576819
39.99026 398.052722594107
40.01038 410.965444624867
40.03049 440.991809955264
40.05061 434.985797543422
40.07072 420.034604244912
40.09083 479.03226982951
40.11095 464.026001432206
40.13106 519.882388502162
40.15117 559.939376200491
40.17129 606.980400558456
40.1914 639
40.21152 700.083959635214
40.23163 778.060690979092
40.25174 778.979344001118
40.27186 772.033920026195
40.29197 733.088366575559
40.31208 676.033849405767
40.3322 656
40.35231 602.979333605256
40.37242 578.97122050543
40.39254 530.882863543185
40.41265 476.109188988397
40.43277 435.078804333123
40.45288 384.020750260606
40.47299 394.992023719111
40.49311 388.985919656225
40.51322 366.010149478361
40.53333 387.977019541328
40.55345 341.94809194867
40.57356 358.976161880391
40.59368 358.976136741576
40.61379 393.002988915893
40.6339 360
40.65402 387.97836590206
40.67413 330.994805227341
40.69424 383.042100387408
40.71436 350.047622719541
40.73447 366.960235534847
40.75458 371.019530608566
40.7747 348
40.79481 367.013753457683
40.81493 388.021489299834
40.83504 390.973492192269
40.85515 379.963056452779
40.87527 402.0195413243
40.89538 355.037009138435
40.91549 352.992650296538
40.93561 371.012964641386
40.95572 390.99499910532
40.97584 359.922180743129
40.99595 333.976433012778
41.01606 341.954280227734
41.03618 363.992539154817
41.05629 363.993481028663
41.0764 374
41.09652 327.998790315451
41.11663 369.03001044318
41.13675 349.966459168255
41.15686 359.986347684903
41.17697 359.976047630139
41.19709 389.990650875533
41.2172 384
41.23731 364.991558178745
41.25743 350.982212886623
41.27754 346.015289860375
41.29765 366.928053688025
41.31777 382.023270946674
41.33788 350.017239798784
41.358 365
41.37811 380.987617945666
41.39822 337.984789464647
41.41834 360.046219751528
41.43845 358.043784073154
41.45856 342.013658831407
41.47868 347.985142036383
41.49879 352.01139176808
41.51891 327.006854460925
41.53902 376.03971558584
41.55913 382.991649025677
41.57925 383.008614105709
41.59936 376.057845669454
41.61947 337.037375938207
41.63959 350.973106682786
41.6597 399
41.67982 356.985362989731
41.69993 376.997620841737
41.72004 358.047597656045
41.74016 414.961234036757
41.76027 392.995963476662
41.78038 420.015440746785
41.8005 364
41.82061 385.009917353443
41.84072 380.998533348906
41.86084 387.990025399925
41.88095 375.983769843712
41.90107 394.004641432447
41.92118 366.023787934188
41.94129 357.006121085502
41.96141 345.005050827466
41.98152 377.03161262035
42.00163 386.983085422266
42.02175 364.943875065227
42.04186 354.988637860816
42.06198 372.976277167689
42.08209 389.998059952852
42.1022 378
42.12232 359.00074149065
42.14243 380.041110666908
42.16254 397.00603933149
42.18266 393.00141887398
42.20277 402.973441066129
42.22289 420.993291896493
42.243 434
42.26311 465.016609577206
42.28323 509.104817892814
42.30334 594.145018449687
42.32345 648.857323058531
42.34357 713.915329459132
42.36368 775.903732431022
42.38379 897.946228004557
42.40391 953.00096492521
42.42402 933.992163274935
42.44414 925.897586583293
42.46425 824.716768913219
42.48436 726.182450467882
42.50448 650.042717641902
42.52459 633.007850618073
42.5447 604
42.56482 561.930906041595
42.58493 468.857553782612
42.60505 408.98117885252
42.62516 422.029786190214
42.64527 374.055878625569
42.66539 369.995743656339
42.6855 374
42.70561 368.987970393683
42.72573 345.009843881437
42.74584 373.01996431605
42.76595 352.063545613182
42.78607 344.987728361429
42.80618 350.013367828258
42.8263 325
42.84641 335.012905774964
42.86652 358.009548234676
42.88664 353.98526948676
42.90675 345.046796978596
42.92686 322.026186209317
42.94698 329.973844560541
42.96709 347.008490658424
42.98721 316.000058835773
43.00732 348.019619638661
43.02743 333.962449812487
43.04755 309.917614197727
43.06766 283.984431547597
43.08777 314.974534562348
43.10789 313.992989748427
43.128 337
43.14812 303.985795045478
43.16823 320.020516803975
43.18834 318.002368427941
43.20846 326.995194195842
43.22857 320.007310133458
43.24868 325.985939161646
43.2688 333
43.28891 315.001772053556
43.30902 330.992495985958
43.32914 309.016998376255
43.34925 340.991879080254
43.36937 301.068020430129
43.38948 282.995003902604
43.40959 304.981412454796
43.42971 330.994755478945
43.44982 289.959907617382
43.46993 289.068492377179
43.49005 345.05446480205
43.51016 322.068611493533
43.53028 309.988981221892
43.55039 328.994499567335
43.5705 317
43.59062 291.012057593765
43.61073 322.001424386071
43.63084 290.967729814899
43.65096 313.921106840052
43.67107 333.024607426344
43.69119 308.994240033151
43.7113 352
43.73141 343.992542893743
43.75153 338.990870524099
43.77164 320.941036935432
43.79175 307.92140758687
43.81187 342.05034400643
43.83198 257.048906044725
43.85209 283.972110239605
43.87221 320.006874697595
43.89232 311.97274902894
43.91244 282.969570084086
43.93255 286.026760517617
43.95266 302.936311148985
43.97278 331.004023309505
43.99289 302.009284102422
44.013 308
44.03312 305.992051042969
44.05323 302.006441280654
44.07335 310.006880498318
44.09346 315.947451600249
44.11357 336.045497214433
44.13369 277.010464905891
44.1538 308
44.17391 311.000385860125
44.19403 314.981096488498
44.21414 297.015507879492
44.23426 322.989372204208
44.25437 303.01688885429
44.27448 323.957439502259
44.2946 357
44.31471 326.978987552864
44.33482 297.989916445154
44.35494 302.015640148733
44.37505 298.05269197519
44.39516 280.972311937467
44.41528 319.968989154112
44.43539 326.00175765041
44.45551 320.993027768063
44.47562 307.002573748258
44.49573 316.987650376
44.51585 302.038430262802
44.53596 332.016950114398
44.55607 292.017191196648
44.57619 325.981958459637
44.5963 325
44.61642 284.979250105697
44.63653 291.024126718061
44.65664 311.068153638961
44.67676 339.018649003765
44.69687 306.017947706209
44.71698 326.978858585222
44.7371 333
44.75721 337.989796059573
44.77732 304.98998458598
44.79744 320.013727363101
44.81755 306.035901972399
44.83767 312.95548716591
44.85778 337.011930927787
44.87789 298.01326353959
44.89801 309.017212578943
44.91812 334.999223125739
44.93823 317.993153837089
44.95835 326.988125454039
44.97846 315.965021246294
44.99858 349.996600203764
45.01869 323.005021365115
45.0388 342
45.05892 339.006445703231
45.07903 352.991421299458
45.09914 330.9847899189
45.11926 340.005315164627
45.13937 322.0129105469
45.15949 339.981521623616
45.1796 367
45.19971 344.998926033962
45.21983 361.99799168582
45.23994 347.026619693589
45.26005 376.025452872345
45.28017 332.025975759949
45.30028 355.980486420854
45.32039 352.998998666958
45.34051 362.996667937919
45.36062 352.021639766234
45.38074 398.049413381865
45.40085 399.048815229452
45.42096 422.062239095931
45.44108 351.038293943833
45.46119 364.993010872857
45.4813 360
45.50142 395.038595753303
45.52153 410.982734596884
45.54165 382.928630984225
45.56176 374.963360643787
45.58187 416.914781800778
45.60199 465.987005397159
45.6221 473
45.64221 505.032313870562
45.66233 574.054749866762
45.68244 585.055820048376
45.70256 648.850210471973
45.72267 711.923737267838
45.74278 749.976659940976
45.7629 747
45.78301 687.97509716374
45.80312 656.970266315215
45.82324 613.895570469564
45.84335 565.088499322735
45.86346 552.97545024082
45.88358 551.055654155565
45.90369 469.020068943036
45.92381 464.979655493103
45.94392 379.937037023418
45.96403 378.049717240361
45.98415 399.975242393184
46.00426 368.046464591519
46.02437 365.997616717455
46.04449 360.003499884363
46.0646 364
46.08472 373.966912716317
46.10483 316.957129199682
46.12494 330.03279618583
46.14506 324.032032331713
46.16517 314.99568153978
46.18528 326.986642195423
46.2054 325
46.22551 307.016415728608
46.24563 363.012865521793
46.26574 324.972255640366
46.28585 346.00957623527
46.30597 307.036508322377
46.32608 315.988510376615
46.34619 318.992898647142
46.36631 340.001643492781
46.38642 322.984513904277
46.40653 319.998521119038
46.42665 326.071127931301
46.44676 354.022822405561
46.46688 318.006857840188
46.48699 344.994082369472
46.5071 321
46.52722 307.000707313215
46.54733 320.038602637458
46.56744 339.989726287005
46.58756 315.03982657344
46.60767 306.024703782513
46.62779 287.997366988318
46.6479 316
46.66801 317.991728764016
46.68813 316.061573723399
46.70824 355.931813435371
46.72835 281.021997543511
46.74847 347.931671745936
46.76858 324.044803026672
46.78869 303.998813468419
46.80881 308.995226231627
46.82892 288.991000223766
46.84904 299.031586917775
46.86915 310.021216211053
46.88926 315.998163360147
46.90938 314.000292225912
46.92949 311.007337329018
46.9496 293
46.96972 308.020365221017
46.98983 309.959284376862
47.00995 281.018881076479
47.03006 327.89931495999
47.05017 342.040771358624
47.07029 308.000509553662
47.0904 329
47.11051 294.996355831216
47.13063 321.019449550198
47.15074 301.952100392926
47.17086 311.888635469206
47.19097 368.002802468564
47.21108 318.029811700784
47.2312 322
47.25131 282.995394046586
47.27142 310.017509711558
47.29154 305.009501378635
47.31165 318.03151780334
47.33176 301.926618548433
47.35188 367.985489829026
47.37199 314.029316704814
47.39211 302.011517319142
47.41222 319.984361044096
47.43233 294.023316853238
47.45245 337.011105002756
47.47256 306.989291681812
47.49267 345.9984320925
47.51279 297.019488647028
47.5329 293
47.55302 287.022431771436
47.57313 317.982475308687
47.59324 277.994280262642
47.61336 318.948378270281
47.63347 311.003195075093
47.65358 327.990516757813
47.6737 323
47.69381 330.999576254443
47.71393 317.982525907072
47.73404 308.96361217806
47.75415 295.953098394928
47.77427 337.955522874504
47.79438 333.026771485067
47.81449 311.001536089167
47.83461 318.998598394382
47.85472 308.005289133351
47.87483 320.981513097332
47.89495 299.042635593464
47.91506 349.939173484667
47.93518 334.034556519765
47.95529 316.995300481188
47.9754 339
47.99552 331.988139873538
48.01563 330.013231169481
48.03574 333.965101086048
48.05586 306.020870779785
48.07597 318.978025710809
48.09609 317.007646214624
48.1162 312
48.13631 353.010017464587
48.15643 328.917187861664
48.17654 278.959738366355
48.19665 290.944297302613
48.21677 302.000502367518
48.23688 305.976105285361
48.257 325
48.27711 275.996709043399
48.29722 313.017348327221
48.31734 288.95160187276
48.33745 297.079915605224
48.35756 325.986814003787
48.37768 308.02577863908
48.39779 294.997989668521
48.4179 302
48.43802 282.993242972282
48.45813 298.035227149174
48.47825 309.983397390594
48.49836 297.993892515117
48.51847 313.990364896035
48.53859 309.996411202697
48.5587 323
48.57881 294.99059563068
48.59893 298.013430887511
48.61904 301.001733805336
48.63916 297.030643073376
48.65927 287.967529338343
48.67938 319.005805511314
48.6995 288
48.71961 324.006744041156
48.73972 302.988899602295
48.75984 329.092041379698
48.77995 358.022560472289
48.80006 323.05609167214
48.82018 313.013264599117
48.84029 308.980352646153
48.86041 348.98167148325
48.88052 267.984775530682
48.90063 332.07088970774
48.92075 318.945090862301
48.94086 318.996264581253
48.96097 317.982562939268
48.98109 337.995882978845
49.0012 332
49.02132 335.996786366687
49.04143 325.996462727902
49.06154 324.959682795977
49.08166 298.000786622205
49.10177 323.97157420152
49.12188 319.012609487839
49.142 317
49.16211 328.999984640376
49.18223 318.993184276454
49.20234 317.97084012753
49.22245 292.043696093467
49.24257 302.94021119723
49.26268 332.022709012619
49.28279 279.010194554398
49.30291 307.014759799786
49.32302 307.988745569363
49.34313 305.01432009485
49.36325 322.037335891353
49.38336 329.989619565878
49.40348 326.023875359751
49.42359 296.0055420138
49.4437 306
49.46382 314.031024350176
49.48393 345.980352682379
49.50404 300.964478366294
49.52416 330.921802092938
49.54427 334.06036003835
49.56439 298.986680415054
49.5845 358
49.60461 297.974846085401
49.62473 297.021169396314
49.64484 309.053364864299
49.66495 341.967061731934
49.68507 335.00302687884
49.70518 355.963388182125
49.7253 375
49.74541 341.009540791315
49.76552 396.011572086337
49.78564 353.94634759648
49.80575 380.12123124331
49.82586 427.89370841425
49.84598 470.990143096337
49.86609 462.993963862901
49.8862 502
49.90632 529.047636730225
49.92643 601.106200511634
49.94655 667.202717295578
49.96666 781.712923462228
49.98677 936.776391851973
50.00689 1090.90869656299
50.027 1286
50.04711 1424.08128838131
50.06723 1624.29478338252
50.08734 1758.0958535009
50.10746 1735.11386406778
50.12757 1644.24032889906
50.14768 1427.2210113191
50.1678 1264
50.18791 1205.96078664954
50.20802 1113.95599266285
50.22814 1101.88832718141
50.24825 972.38726591237
50.26837 839.162105289451
50.28848 723.156229538614
50.30859 548.067729415139
50.32871 473.977331573703
50.34882 430.967512736348
50.36893 408.971978352653
50.38905 385.93216437173
50.40916 373.954433231345
50.42927 403.019669030232
50.44939 358.008853013794
50.4695 377
50.48962 365.013472479935
50.50973 392.981573657644
50.52984 349.981172549502
50.54996 387.930589141103
50.57007 390.015342663771
50.59018 382.011635989318
50.6103 369
50.63041 374.005659064416
50.65053 377.981169835642
50.67064 343.898332292537
50.69075 307.981963189337
50.71087 345.957735948033
50.73098 346.006379441123
50.75109 340.010270408377
50.77121 309.99056955501
50.79132 319.033395567501
50.81143 350.007060024953
50.83155 326.928558781325
50.85166 308.030960796038
50.87178 302.980851011308
50.89189 323.008223554333
50.912 291
50.93212 339.020445516093
50.95223 308.94105880122
50.97234 304.064860319033
50.99246 339.002156885615
51.01257 305.038134532424
51.03269 305.99793800112
51.0528 301
51.07291 294.987610815117
51.09303 277.045875863117
51.11314 329.008447363983
51.13325 292.006593328498
51.15337 325.008506771176
51.17348 273.031080846096
51.1936 289
51.21371 293.000646715467
51.23382 294.990386710687
51.25394 278.990674744232
51.27405 292.944616127859
51.29416 303.024770009178
51.31428 283.002242631329
51.33439 307.981911244569
51.3545 321
51.37462 276.987637557558
51.39473 300.024099846604
51.41485 288.959358662071
51.43496 276.044873896535
51.45507 251.010777756808
51.47519 261.995391957768
51.4953 265
51.51541 289.011495959534
51.53553 296.987103916998
51.55564 272.927005104852
51.57576 250.965167411562
51.59587 294.950961604115
51.61598 291.028606701842
51.6361 267
51.65621 282.004318851706
51.67632 280.005948034286
51.69644 298.030776634586
51.71655 288.108484490715
51.73667 247.986329936604
51.75678 291.981494317998
51.77689 275.001186459308
51.79701 292.996946811587
51.81712 262.990874489756
51.83723 284.02386230139
51.85735 274.952881912264
51.87746 264.994309606915
51.89757 280.961781395291
51.91769 299.001660415862
51.9378 276
51.95792 268.019078554771
51.97803 295.011298929105
51.99814 269.913019782331
52.01826 240.989054248004
52.03837 275.94030366243
52.05848 297.994490136165
52.0786 296
52.09871 293.995373352613
52.11883 286.013844940195
52.13894 300.986643148218
52.15905 277.023094826145
52.17917 291.974765074876
52.19928 288.025191525933
52.21939 270.989330551035
52.23951 307.999689144064
52.25962 279.004910167191
52.27974 315.004033565554
52.29985 278.966353564682
52.31996 302.968078891238
52.34008 289.02054205354
52.36019 276.007172442459
52.3803 272
52.40042 308.001076664516
52.42053 274.965859021878
52.44064 284.03708733306
52.46076 291.007388278172
52.48087 286.992408662398
52.50099 296.000851097401
52.5211 275
52.54121 257.010764611516
52.56133 303.047342756464
52.58144 304.990513485486
52.60155 296.083177776892
52.62167 256.012238357079
52.64178 282.973170648487
52.6619 291
52.68201 294.993796871556
52.70212 280.011427379467
52.72224 321.088937200446
52.74235 333.077870736365
52.76246 289.030982505453
52.78258 310.972950117593
52.80269 313.010543287178
52.8228 284
52.84292 279.012548076145
52.86303 304.04921919217
52.88315 324.983613756775
52.90326 306.001294819918
52.92337 319.01297760815
52.94349 284.015096296073
52.9636 283
52.98371 302.999488297351
53.00383 284.982080765008
53.02394 292.032245461881
53.04406 306.97409757584
53.06417 318.981323500188
53.08428 337.970240207805
53.1044 348
53.12451 284.99601333511
53.14462 332.02928254923
53.16474 312.948400593217
53.18485 312.957020219787
53.20497 324.015079384156
53.22508 305.000713265321
53.24519 320.998077795594
53.26531 313.00463765721
53.28542 331.991939261698
53.30553 307.007412311233
53.32565 344.060916877157
53.34576 336.031845947743
53.36587 334.981443921159
53.38599 339.012341882875
53.4061 305
53.42622 338.034122671056
53.44633 346.98776704127
53.46644 329.949029225066
53.48656 311.988462679325
53.50667 332.982677606905
53.52678 333.986202741331
53.5469 351
53.56701 315.992431690811
53.58713 332.025511865377
53.60724 332.995456983589
53.62735 337.975266573259
53.64747 346.993350572692
53.66758 341.018613228267
53.68769 328.991832348927
53.70781 354.997471572876
53.72792 322.985876788544
53.74804 332.991973418998
53.76815 320.052652788207
53.78826 360.993580962668
53.80838 327.013216165122
53.82849 351.988656481286
53.8486 358
53.86872 382.006795819266
53.88883 369.99024836948
53.90894 377.008759642475
53.92906 368.033723146192
53.94917 355.003790026961
53.96929 367.986566896872
53.9894 387
54.00951 353.984606643361
54.02963 347.019933560096
54.04974 371.056973653696
54.06985 384.042128397658
54.08997 354.017816924763
54.11008 364.992506939853
54.1302 360
54.15031 364.996538503089
54.17042 356.015884275113
54.19054 381.988355526879
54.21065 353.996294257108
54.23076 393.928648314365
54.25088 395.021616906139
54.27099 377.998426052747
54.29111 389.997008934744
54.31122 368.993852744583
54.33133 383.014681455768
54.35145 388.059231894489
54.37156 411.041956430361
54.39167 356.053081958315
54.41179 367.9830432461
54.4319 395
54.45201 394.991237237886
54.47213 367.960147729814
54.49224 355.008974076867
54.51236 374.941418968798
54.53247 397.990273780755
54.55258 398.983470978487
54.5727 424
54.59281 409.998333867353
54.61292 431.02939130242
54.63304 449.004272622517
54.65315 444.990516954183
54.67327 464.954464818025
54.69338 489.990948840281
54.71349 503.975039955466
54.73361 577.025414762413
54.75372 605.048152292413
54.77383 675.073838005737
54.79395 722.260455192023
54.81406 832.990075540638
54.83417 753.048703272823
54.85429 798.988578035016
54.8744 739
54.89452 654.950289682755
54.91463 627.952553216378
54.93474 582.922434023386
54.95486 572.954627025574
54.97497 603.983672363404
54.99508 586.027215758607
55.0152 562
55.03531 536.995202770056
55.05543 524.932883122539
55.07554 450.86314416067
55.09565 426.93460077457
55.11577 464.991222319648
55.13588 441.007523625257
55.15599 460.993905932457
55.17611 456.001793664741
55.19622 484.042213055891
55.21634 525.067078299951
55.23645 540.984033541564
55.25656 530.980357926805
55.27668 567.952342129073
55.29679 584.021133044446
55.3169 505
55.33702 482.003758007213
55.35713 485.992112438753
55.37724 463.926834556202
55.39736 435.000766610896
55.41747 461.951358147072
55.43759 476.003464925769
55.4577 451
55.47781 425.002311710251
55.49793 440.983696940218
55.51804 405.963774801275
55.53815 416.970857061729
55.55827 409.029201787234
55.57838 389.017284198416
55.5985 374
55.61861 368.009086152061
55.63872 391.996949532677
55.65884 357.928027755726
55.67895 348.953201236689
55.69906 368.017768699978
55.71918 348.982889062054
55.73929 387.001503757376
55.75941 344.99157241599
55.77952 371.022845548996
55.79963 366.986529825607
55.81975 360.958037880915
55.83986 347.9612431691
55.85997 374.032729723723
55.88009 318.010607097968
55.9002 345
55.92031 346.012275003831
55.94043 373.95238919569
55.96054 307.977131715599
55.98066 364.899660323035
56.00077 365.029149675361
56.02088 355.002200476686
56.041 351
56.06111 340.005913231213
56.08122 372.02903720172
56.10134 371.934790046303
56.12145 332.044220263396
56.14157 344.965435847504
56.16168 355.00587279706
56.18179 344.001229116101
56.20191 352.003359369628
56.22202 347.987480663888
56.24213 340.011317998647
56.26225 341.911015998234
56.28236 294.998636836656
56.30248 337.978779644524
56.32259 325.996465923946
56.3427 359
56.36282 332.961258177129
56.38293 312.002437738162
56.40304 323.005026693197
56.42316 316.993510306244
56.44327 318.045556240715
56.46338 286.971124961286
56.4835 362
56.50361 342.977434478592
56.52373 322.023086128901
56.54384 358.057136648547
56.56395 356.07030049987
56.58407 320.044224034797
56.60418 322.952580411629
56.62429 373.999602830812
56.64441 326.980762213681
56.66452 328.015963787629
56.68464 341.032850324337
56.70475 357.012298161921
56.72486 345.048112523567
56.74498 326.998133209331
56.76509 343.993251648319
56.7852 336
56.80532 302.98006637335
56.82543 316.073781064283
56.84554 353.950926476142
56.86566 289.062330438177
56.88577 321.918809830888
56.90589 341.015085673203
56.926 303
56.94611 343.99955208795
56.96623 301.985793545899
56.98634 334.018657833124
57.00645 302.068984470707
57.02657 307.964766466992
57.04668 327.988868671803
57.0668 323
57.08691 304.005003770044
57.10702 331.007085880056
57.12714 321.024639559028
57.14725 357.94016093218
57.16736 348.055279451193
57.18748 324.01474681062
57.20759 322.994030235462
57.22771 332.996900343061
57.24782 320.003876304537
57.26793 337.004076917625
57.28805 323.992684946717
57.30816 338.970230514397
57.32827 330.058094297042
57.34839 291.001518265508
57.3685 326
57.38861 327.979018981395
57.40873 273.96066378793
57.42884 294.091497934522
57.44896 326.003600550245
57.46907 299.035959629887
57.48918 296.98895740686
57.5093 306
57.52941 295.991711895693
57.54952 294.029891683228
57.56964 337.038946893907
57.58975 323.052964837567
57.60987 315.000612353935
57.62998 309.019009910266
57.65009 291.996076777036
57.67021 311.998238062361
57.69032 288.997212361976
57.71043 325.080524982151
57.73055 352.947406647674
57.75066 299.093597665428
57.77078 288.982346795121
57.79089 309.995564687798
57.811 307
57.83112 318.012490161842
57.85123 316.968786484814
57.87134 295.00404710524
57.89146 318.962998429762
57.91157 314.029195396096
57.93168 303.985364401835
57.9518 328
57.97191 306.99202326822
57.99203 305.993420419415
58.01214 300.025134633812
58.03225 325.96597532542
58.05237 304.082712313163
58.07248 258.992857421519
58.09259 300.991334152349
58.11271 289.006597748263
58.13282 315.974744944652
58.15294 265.032139000888
58.17305 336.053608557006
58.19316 278.12551609034
58.21328 274.952267737559
58.23339 327.989592899931
58.2535 314
58.27362 307.977380306138
58.29373 276.991642518433
58.31385 297.03069481657
58.33396 288.021440726671
58.35407 289.985474510759
58.37419 299.996121201072
58.3943 302
58.41441 288.989478360083
58.43453 279.030693128539
58.45464 314.028004829258
58.47475 298.049166545541
58.49487 298.970184053976
58.51498 314.012190375473
58.5351 285
58.55521 308.022639163563
58.57532 334.980821689137
58.59544 293.979037885642
58.61555 318.966780967191
58.63566 301.043475878803
58.65578 295.995037493023
58.67589 300.000575905163
58.69601 305.013272055571
58.71612 328.981539269382
58.73623 283.976646617136
58.75635 305.023425619955
58.77646 296.966576888225
58.79657 330.998063783194
58.81669 297.010772962088
58.8368 308
58.85691 307.994694213719
58.87703 293.976607587003
58.89714 290.038653686421
58.91726 316.986513665884
58.93737 307.989242583907
58.95748 337.972907084797
58.9776 341
58.99771 317.990610958945
59.01782 308.996614613582
59.03794 316.052836384283
59.05805 337.046868251906
59.07817 291.03906597205
59.09828 299.98771033346
59.11839 298.00110635675
59.13851 310.013209959535
59.15862 336.009957376215
59.17873 322.958645393563
59.19885 305.019547112525
59.21896 319.031054401612
59.23908 289.990486349056
59.25919 331.991954680281
59.2793 306
59.29942 308.01646280059
59.31953 315.985000845309
59.33964 293.96323870493
59.35976 306.88726135756
59.37987 371.96167788826
59.39998 352.023863937905
59.4201 343
59.44021 320.99901414244
59.46033 333.996583629438
59.48044 314.986008969042
59.50055 328.961936790957
59.52067 332.004793447062
59.54078 323.020290125438
59.56089 314.983178868158
59.58101 369.011434803451
59.60112 377.059874001175
59.62124 462.030707687809
59.64135 397.851096272648
59.66146 393.959818088693
59.68158 415.966793480333
59.70169 462.973507054046
59.7218 513
59.74192 552.035150231764
59.76203 600.112157561079
59.78215 688.179670741948
59.80226 744.860981820156
59.82237 840.841383374276
59.84249 944.947761999441
59.8626 1054
59.88271 1152.03235909855
59.90283 1194.07021983763
59.92294 1225.93775045092
59.94305 1123.33258704832
59.96317 1004.14730381629
59.98328 910.110114770936
60.0034 818
60.02351 849.998395009445
60.04362 793.957491457055
60.06374 792.000586493921
60.08385 764.119503575019
60.10396 694.202280034769
60.12408 578.102543354046
60.14419 502.030949120665
60.16431 456.994463157825
60.18442 445.939028999486
60.20453 361.956799253142
60.22465 382.971292868796
60.24476 332.029312151022
60.26487 366.966104857107
60.28499 354.0049297329
60.3051 370
60.32522 365.942287541141
60.34533 302.002905355071
60.36544 361.071148883904
60.38556 345.031688916914
60.40567 353.989754931215
60.42578 345.011415811377
60.4459 336
60.46601 314.990724994886
60.48612 308.005550515723
60.50624 323.040579711345
60.52635 336.008102762389
60.54647 316.042430426696
60.56658 298.994030353778
60.58669 328.978461909219
60.60681 353.992917750476
60.62692 326.004584306421
60.64703 350.980517275257
60.66715 319.065787791227
60.68726 383.987785818283
60.70738 315.062935228397
60.72749 304.995107562177
60.7476 321
60.76772 350.960820611149
60.78783 263.916874637582
60.80794 291.164653870269
60.82806 361.963942956068
60.84817 331.053720221113
60.86828 324.98528173727
60.8884 335
60.90851 307.989715874949
60.92863 313.041866677522
60.94874 334.979078609709
60.96885 308.994861171445
60.98897 345.94742912915
61.00908 356.998913627676
61.02919 348.016681748404
61.04931 317.006539968274
61.06942 359.013984703131
61.08954 341.004949003038
61.10965 360.955876751226
61.12976 321.977142508284
61.14988 376.98020514677
61.16999 343.013872549675
61.1901 354
61.21022 353.970469776791
61.23033 318.986608985882
61.25045 353.156485898908
61.27056 402.982300240024
61.29067 379.031408575761
61.31079 375.004378548204
61.3309 365
61.35101 390.999906781859
61.37113 370.002205175263
61.39124 410.102699481379
61.41135 439.00295875369
61.43147 420.025606906969
61.45158 411.014130189286
61.4717 392
61.49181 404.016528444212
61.51192 433.000096442519
61.53204 413.992608925597
61.55215 432.963560427571
61.57226 432.00187284747
61.59238 435.004887792374
61.61249 423.003170010824
61.63261 417.989734368145
61.65272 391.995902696504
61.67283 407.006303670526
61.69295 408.087581672763
61.71306 461.960977065195
61.73317 435.049345638086
61.75329 433.985775473409
61.7734 459
61.79352 415.955284347342
61.81363 401.022879974424
61.83374 419.99150930896
61.85386 411.931192108997
61.87397 467.985242472121
61.89408 425.034520219593
61.9142 430
61.93431 435.00274643429
61.95442 456.040982734423
61.97454 472.887742049141
61.99465 390.032502542227
62.01477 439.984991144758
62.03488 395.011777926551
62.05499 434.989022281665
62.07511 417.996347578585
62.09522 435.007379701342
62.11533 430.020305915668
62.13545 452.980697071465
62.15556 423.007055514115
62.17568 456.966143133184
62.19579 454.01967220152
62.2159 412
62.23602 437.031389874542
62.25613 447.988732363134
62.27624 431.967252951279
62.29636 420.020795954185
62.31647 403.042570573473
62.33659 381.994719805456
62.3567 405
62.37681 356.973353321287
62.39693 342.04985062286
62.41704 387.020218041467
62.43715 361.042141534753
62.45727 372.976726037266
62.47738 382.979566972081
62.49749 408.994920265189
62.51761 386.975452613643
62.53772 348.004179068943
62.55784 377.00532875733
62.57795 345.946970885125
62.59806 351.984754378851
62.61818 348.003209371759
62.63829 338.018278982996
62.6584 304
62.67852 362.035429652526
62.69863 347.956713697527
62.71875 337.013608384079
62.73886 341.027402067615
62.75897 316.019948115058
62.77909 322.993484491546
62.7992 330
62.81931 330.999565222699
62.83943 325.982886138634
62.85954 310.973531540354
62.87965 315.914178985671
62.89977 350.011699210674
62.91988 307.029663264067
62.94 305
62.96011 289.003940689416
62.98022 316.009362741241
63.00034 305.004669775214
63.02045 322.994676804801
63.04056 305.021720200057
63.06068 315.97973617529
63.08079 327.002284151418
63.10091 315.999033913765
63.12102 315.979477805605
63.14113 294.027468663596
63.16125 330.980564807549
63.18136 285.028026253582
63.20147 316.966631834587
63.22159 313.994120800829
63.2417 341
63.26182 315.984827094669
63.28193 317.984710948038
63.30204 303.034146071467
63.32216 338.991283038781
63.34227 308.029731791806
63.36238 315.993879236282
63.3825 307
63.40261 312.0062002423
63.42272 325.011738289346
63.44284 327.976712919771
63.46295 315.980038561273
63.48307 329.02591075847
63.50318 290.01627629109
63.52329 311.984262609345
63.54341 330.00487510508
63.56352 337.004152341099
63.58363 331.969348261713
63.60375 304.954976622779
63.62386 302.987956955937
63.64398 314.976154347348
63.66409 339.995505619581
63.6842 327
63.70432 318.021130110895
63.72443 337.958430897299
63.74454 286.993807633067
63.76466 345.873159208692
63.78477 366.022812356879
63.80489 344.004155616489
63.825 348
63.84511 342.011787666684
63.86523 383.023249284243
63.88534 375.025377440818
63.90545 419.890741380128
63.92557 448.950516726637
63.94568 482.987609724737
63.96579 465.017323720616
63.98591 449.012394027128
64.00602 485.99821938721
64.02614 438.904491598021
64.04625 415.960169367879
64.06636 399.015351693964
64.08648 393.021821099496
64.10659 376.98532935603
64.1267 425
64.14682 379.980293368149
64.16693 391.971068060554
64.18705 333.898145342546
64.20716 333.981233790582
64.22727 324.039564226462
64.24739 304.995172608589
64.2675 324
64.28761 295.004901221804
64.30773 330.991046161386
64.32784 287.985575249464
64.34796 322.978486443619
64.36807 294.0270476901
64.38818 302.001458498637
64.4083 276
64.42841 270.012557082217
64.44852 310.030858364217
64.46864 311.953344266522
64.48875 289.000253982562
64.50886 300.023798495962
64.52898 269.011719158445
64.54909 285.991557709718
64.56921 282.992985458609
64.58932 275.006428293152
64.60943 291.018390774349
64.62955 292.995474986339
64.64966 285.045555453211
64.66977 267.972411469509
64.68989 314.980778691099
64.71 321
64.73012 300.975630598374
64.75023 286.0105007415
64.77034 299.986978450485
64.79046 279.003474877617
64.81057 306.948339920803
64.83068 312.03746664742
64.8508 271
64.87091 313.00380955101
64.89102 276.979094925768
64.91114 290.014992435169
64.93125 271.066988533996
64.95137 261.975706964144
64.97148 284.996370274906
64.99159 269.004851640666
65.01171 285.017585598839
65.03182 314.003312121112
65.05193 296.980908669033
65.07205 299.007290074432
65.09216 296.997899863933
65.11228 296.01607851398
65.13239 275.001169159438
65.1525 292
65.17262 297.014271771094
65.19273 322.028655250785
65.21284 313.91976332803
65.23296 270.026946953882
65.25307 282.001569534388
65.27319 262.003032361162
65.2933 278
65.31341 275.997220153887
65.33353 285.044762976894
65.35364 310.981407956006
65.37375 286.966773877215
65.39387 325.998732598306
65.41398 287.016369057662
65.43409 307.994628143978
65.45421 296.000156859134
65.47432 312.000016975313
65.49444 284.933290650242
65.51455 272.0353641247
65.53466 291.010598352152
65.55478 270.996036007184
65.57489 306.981461915505
65.595 311
65.61512 272.99298944035
65.63523 305.064862089675
65.65535 330.010267788416
65.67546 322.01792701851
65.69557 313.028407226521
65.71569 303.984475260251
65.7358 346
65.75591 294.98476970369
65.77603 314.049978633201
65.79614 327.991153834367
65.81626 309.060672350595
65.83637 285.999088282041
65.85648 305.981248187663
65.8766 306
65.89671 294.004507615933
65.91682 311.99776303877
65.93694 290.981769173367
65.95705 299.000167410424
65.97716 284.022852376722
65.99728 283.999086444833
66.01739 282.997612581928
66.03751 293.003414928773
66.05762 299.015657644485
66.07773 314.994340292978
66.09785 287.916018071231
66.11796 270.986039875241
66.13807 287.99114454016
66.15819 285.992854542116
66.1783 309
66.19842 279.969457418224
66.21853 273.022877525345
66.23864 296.03481786092
66.25876 300.008734966501
66.27887 296.995584066759
66.29898 302.001479644218
66.3191 296
66.33921 299.997690185602
66.35933 286.98734480777
66.37944 288.005252361883
66.39955 287.005123773699
66.41967 286.996134215463
66.43978 287.008267692474
66.45989 270.010101370218
66.48001 255.998279230333
66.50012 272.039995806692
66.52023 300.966659211879
66.54035 258.01726462574
66.56046 308.963194950414
66.58058 278.021018697477
66.60069 291.992558366629
66.6208 282
66.64092 264.007901054571
66.66103 287.015011820822
66.68114 278.99339552702
66.70126 287.987781922795
66.72137 279.031718567011
66.74149 267.990580382136
66.7616 303
66.78171 289.98871411284
66.80183 281.010978808479
66.82194 291.998659767819
66.84205 283.989239159014
66.86217 292.024841519409
66.88228 260.009525725836
66.90239 272.002584817392
66.92251 255.007683975299
66.94262 297.018431368874
66.96274 281.982683925458
66.98285 292.003696697839
67.00296 278.018248941953
67.02308 286.979865647318
67.04319 303.996929295068
67.0633 297
67.08342 288.005397479377
67.10353 304.021288793636
67.12365 302.956259735433
67.14376 283.013528241425
67.16387 288.995565119679
67.18399 282.003997892991
67.2041 289
67.22421 321.004114611858
67.24433 305.983104576287
67.26444 314.032160613256
67.28456 323.004754884312
67.30467 312.018962293566
67.32478 310.982901947726
67.3449 344
67.36501 363.991197190566
67.38512 335.003856985257
67.40524 369.034509934027
67.42535 359.995864837839
67.44546 384.952572947241
67.46558 391.003883740734
67.48569 388.998092163255
67.50581 398.004748613924
67.52592 425.065705078716
67.54603 504.06632432948
67.56615 519.094466310516
67.58626 590.872756221412
67.60637 633.924664735321
67.62649 694.977081949599
67.6466 738
67.66672 845.094265342728
67.68683 876.940936277443
67.70694 799.856949110758
67.72706 751.099688992886
67.74717 695.062528122841
67.76728 663.046213687572
67.7874 607
67.80751 607.01163356232
67.82763 637.04881942493
67.84774 655.985475627101
67.86785 644.949336749756
67.88797 693.940806436125
67.90808 703.004866663687
67.92819 700.999521314786
67.94831 697.993047066525
67.96842 690.021846476173
67.98853 724.006345337204
68.00865 735.238982425508
68.02876 893.761035545325
68.04888 921.019834145024
68.06899 930.964732395144
68.0891 1031
68.10922 1041.99730757675
68.12933 1031.92181876367
68.14944 932.770799544278
68.16956 860.004197489299
68.18967 905.935061552226
68.20979 923.989960220969
68.2299 956
68.25001 978.019233306054
68.27013 995.909617768938
68.29024 900.944490790399
68.31035 909.219216031015
68.33047 725.218677064543
68.35058 663.063864243671
68.3707 574
68.39081 579.005405466041
68.41092 544.919462417479
68.43104 462.930086020663
68.45115 495.179608005458
68.47126 532.092963707622
68.49138 438.056310606902
68.51149 439.003037475309
68.5316 393
68.55172 358.982103281858
68.57183 356.022371811266
68.59195 373.000193310098
68.61206 353.048103223088
68.63217 340.998859826086
68.65229 345.99998989943
68.6724 330
68.69251 306.007646109074
68.71263 338.999064002396
68.73274 305.973754907919
68.75286 330.941980235084
68.77297 333.033640643485
68.79308 308.007805126337
68.8132 324
68.83331 326.978888046184
68.85342 262.960072986702
68.87354 274.0879876427
68.89365 312.967857285288
68.91376 307.988649344586
68.93388 327.990943249153
68.95399 311.016439577841
68.97411 290.004549265529
68.99422 307.987559180709
69.01433 277.002596409419
69.03445 312.044297382099
69.05456 291.06150269659
69.07467 291.931619443723
69.09479 336.008794750324
69.1149 273
69.13502 296.025360476797
69.15513 294.993779480512
69.17524 304.030354020969
69.19536 312.01172975046
69.21547 297.019038498695
69.23558 293.997139435987
69.2557 296
69.27581 286.99164523049
69.29593 274.004432196432
69.31604 283.992057035012
69.33615 275.95296226641
69.35627 310.986241200783
69.37638 290.01349971674
69.39649 297.99702243238
69.41661 284.987378495907
69.43672 270.011478229984
69.45683 282.960108983007
69.47695 243.035409355996
69.49706 306.917400533827
69.51718 293.030498707795
69.53729 284.99244482611
69.5574 291
69.57752 234.979640735761
69.59763 264.055698309728
69.61774 281.018095548601
69.63786 287.009508557085
69.65797 276.007512425438
69.67809 282.993612118898
69.6982 297
69.71831 305.994801869471
69.73843 289.001710853453
69.75854 301.988067019713
69.77865 280.010066552416
69.79877 287.033939883159
69.81888 246.006754031248
69.839 289
69.85911 311.991080840621
69.87922 271.965167120874
69.89934 267.045991046464
69.91945 300.066539068738
69.93956 309.008519375288
69.95968 301.006760448751
69.97979 303.991819761462
69.9999 312
70.02002 276.00367954394
70.04013 302.976741255464
70.06025 252.973529169382
70.08036 293.938151750656
70.10047 296.972952739636
70.12059 328.000862301212
70.1407 293
70.16081 293.99613490396
70.18093 278.013730886714
70.20104 306.014285137392
70.22116 286.027435433078
70.24127 291.990960668737
70.26138 285.013333746611
70.2815 276
70.30161 290.01498216156
70.32172 322.017885916472
70.34184 318.969886457171
70.36195 300.05769266906
70.38207 281.008704025626
70.40218 285.995611300733
70.42229 280.007359545176
70.44241 265.997410295321
70.46252 273.014581029209
70.48263 279.98293541181
70.50275 256.957628656398
70.52286 257.972914823346
70.54297 277.961780847199
70.56309 304.987601031705
70.5832 310
70.60332 272.996335908721
70.62343 288.971914335721
70.64354 243.98346599094
70.66366 285.915052720562
70.68377 294.018967007006
70.70388 283.000732268192
70.724 284
70.74411 267.00517321859
70.76423 296.013204273521
70.78434 283.003970487284
70.80445 297.034332471447
70.82457 265.996543261924
70.84468 300.983806473858
70.86479 280.012574320919
70.88491 271.998921873857
70.90502 272.009885280808
70.92513 281.988721432836
70.94525 261.975575488734
70.96536 267.990272918969
70.98548 262.00964238505
71.00559 254.004031121325
71.0257 258
71.04582 301.028515124771
71.06593 293.94487613402
71.08604 257.980080653691
71.10616 280.924872820102
71.12627 305.99579074172
71.14639 291.009373927844
71.1665 280
71.18661 271.991808881979
71.20673 259.012407308162
71.22684 279.008662898524
71.24695 261.048693036766
71.26707 261.96567442132
71.28718 288.988627537693
71.3073 278
71.32741 262.996543980927
71.34752 270.02431706782
71.36764 292.99838563873
71.38775 279.978245887413
71.40786 303.008371520695
71.42798 271.018471373458
71.44809 279.995326184695
71.4682 278
71.48832 289.009618712363
71.50843 287.984012321948
71.52855 278.000410677153
71.54866 281.021589559521
71.56877 267.980234298937
71.58889 295.998684915852
71.609 269
71.62911 275.008685667105
71.64923 286.002850540997
71.66934 279.979760992874
71.68946 270.018114482841
71.70957 272.961680945139
71.72968 303.991784958752
71.7498 284
71.76991 281.012434653965
71.79002 313.012529332185
71.81014 295.939260122343
71.83025 278.981040101966
71.85037 291.022086047025
71.87048 261.999250193157
71.89059 286.001683890541
71.91071 260.003438159657
71.93082 303.026754687866
71.95093 294.985604543191
71.97105 288.924583549641
71.99116 263.924702978859
72.01127 332.983470516156
72.03139 279.018182041523
72.0515 294
72.07162 294.008968345622
72.09173 315.013294314834
72.11184 301.958589287562
72.13196 290.995177583417
72.15207 293.023442028086
72.17218 273.99053038911
72.1923 305
72.21241 280.978916364177
72.23253 255.009156232184
72.25264 282.041909615216
72.27275 283.015987787963
72.29287 280.997703047422
72.31298 282.999755044604
72.33309 283.996774601415
72.35321 307.022795872267
72.37332 345.99623158356
72.39344 301.908663479324
72.41355 290.048898771349
72.43366 313.993594944541
72.45378 301.996741565626
72.47389 315.006655623843
72.494 292
72.51412 336.998039684865
72.53423 276.913712276842
72.55434 281.130541040753
72.57446 347.984198610283
72.59457 307.029871904691
72.61469 324.000076993216
72.6348 299
72.65491 322.003783241513
72.67503 298.959497063545
72.69514 289.00410342901
72.71525 295.975529972776
72.73537 297.026062835385
72.75548 284.973029837063
72.7756 331
72.79571 302.991878818467
72.81582 317.012528010041
72.83594 315.003790206086
72.85605 327.968506437868
72.87616 335.979414740378
72.89628 346.000062300584
72.91639 321.027371132617
72.9365 277
72.95662 332.034913267137
72.97673 321.971864701266
72.99685 324.040837833307
73.01696 339.985950222248
73.03707 337.008701646573
73.05719 331.00533671977
73.0773 321
73.09741 329.000857930293
73.11753 327.015456556812
73.13764 348.027785536194
73.15776 337.071686956214
73.17787 311.96687562386
73.19798 359.984188582794
73.2181 341
73.23821 378.016051254568
73.25832 375.974494693756
73.27844 355.002534322502
73.29855 369.993738230931
73.31867 361.985616953925
73.33878 405.933584689179
73.35889 457.994381122415
73.37901 450.010067680049
73.39912 493.012799173534
73.41923 485.049511473182
73.43935 536.966685495792
73.45946 464.084264919246
73.47957 475.99964488463
73.49969 432.027061976226
73.5198 393
73.53992 367.988819734463
73.56003 372.020333981592
73.58014 387.027418978988
73.60026 398.975967651917
73.62037 403.021242777658
73.64048 383.003004454655
73.6606 390
73.68071 360.994142117305
73.70083 359.955075516583
73.72094 308.952109686478
73.74105 324.946981086463
73.76117 321.03747507575
73.78128 298.001737467508
73.80139 313.994541678523
73.82151 307.993969473776
73.84162 299.995562533157
73.86174 310.07173837006
73.88185 338.943602035384
73.90196 284.046038670215
73.92208 311.965629484267
73.94219 323.997551220848
73.9623 326
73.98242 303.984013097646
74.00253 304.015776577203
74.02264 306.965715356855
74.04276 281.020777189546
74.06287 294.965369432397
74.08299 300.01263244485
74.1031 263
74.12321 280.017706160707
74.14333 309.019633225264
74.16344 299.943507823289
74.18355 273.018366875452
74.20367 281.993817436577
74.22378 269.021019116697
74.2439 256
74.26401 269.005749502077
74.28412 276.0113137753
74.30424 295.041793003082
74.32435 302.043258332092
74.34446 276.016850887334
74.36458 291.979091887409
74.38469 299.003286704014
74.40481 291.00122594479
74.42492 291.97587257568
74.44503 258.997688251889
74.46515 282.001616607657
74.48526 259.002145961078
74.50537 287.967611570764
74.52549 278.014222461393
74.5456 257
74.56571 273.007301761759
74.58583 278.00678100707
74.60594 284.000332562996
74.62606 280.992489923747
74.64617 294.973566131398
74.66628 300.017513242185
74.6864 286
74.70651 327.999142684366
74.72662 277.957136678372
74.74674 278.048238157984
74.76685 290.044438676467
74.78697 262.996739971322
74.80708 292.982195382569
74.82719 286.002322054937
74.84731 289.995896613593
74.86742 277.010576743443
74.88753 304.011698430551
74.90765 284.954764247999
74.92776 290.948575139244
74.94787 309.019645579141
74.96799 275.010407563387
74.9881 278
75.00822 266.981677918208
