3.00117 20536
3.02128 19876
3.0414 19665
3.06151 19143
3.08162 18535
3.10174 18297
3.12185 17446
3.14197 17287
3.16208 16332
3.18219 15956
3.20231 15819
3.22242 14973
3.24253 14917
3.26265 14303
3.28276 13790
3.30288 13561
3.32299 12924
3.3431 12533
3.36322 12178
3.38333 11795
3.40344 11520
3.42356 10998
3.44367 10620
3.46379 10232
3.4839 10005
3.50401 9793
3.52413 9086
3.54424 9106
3.56435 8325
3.58447 8124
3.60458 7940
3.62469 7702
3.64481 7548
3.66492 7152
3.68504 6745
3.70515 6610
3.72526 6354
3.74538 6116
3.76549 5758
3.7856 5636
3.80572 5513
3.82583 5073
3.84595 4924
3.86606 4664
3.88617 4477
3.90629 4310
3.9264 4170
3.94651 3863
3.96663 3662
3.98674 3447
4.00686 3506
4.02697 3305
4.04708 3285
4.0672 2925
4.08731 2872
4.10742 2843
4.12754 2507
4.14765 2585
4.16776 2372
4.18788 2263
4.20799 2227
4.22811 2039
4.24822 2015
4.26833 1855
4.28845 1853
4.30856 1794
4.32867 1781
4.34879 1678
4.3689 1552
4.38902 1518
4.40913 1511
4.42924 1537
4.44936 1424
4.46947 1313
4.48958 1304
4.5097 1299
4.52981 1399
4.54992 1264
4.57004 1180
4.59015 1190
4.61027 1145
4.63038 1140
4.65049 1128
4.67061 1050
4.69072 956
4.71083 1031
4.73095 1019
4.75106 916
4.77118 946
4.79129 883
4.8114 877
4.83152 918
4.85163 800
4.87174 789
4.89186 734
4.91197 789
4.93209 777
4.9522 707
4.97231 722
4.99243 708
5.01254 720
5.03265 678
5.05277 654
5.07288 606
5.09299 629
5.11311 661
5.13322 596
5.15334 562
5.17345 577
5.19356 544
5.21368 523
5.23379 559
5.2539 470
5.27402 466
5.29413 476
5.31425 431
5.33436 510
5.35447 424
5.37459 444
5.3947 435
5.41481 438
5.43493 438
5.45504 385
5.47516 423
5.49527 386
5.51538 387
5.5355 393
5.55561 340
5.57572 373
5.59584 388
5.61595 343
5.63606 362
5.65618 301
5.67629 274
5.69641 307
5.71652 311
5.73663 287
5.75675 312
5.77686 272
5.79697 274
5.81709 292
5.8372 275
5.85732 267
5.87743 288
5.89754 266
5.91766 256
5.93777 264
5.95788 274
5.978 224
5.99811 234
6.01823 239
6.03834 234
6.05845 264
6.07857 273
6.09868 229
6.11879 225
6.13891 227
6.15902 224
6.17913 241
6.19925 220
6.21936 229
6.23948 233
6.25959 221
6.2797 205
6.29982 206
6.31993 237
6.34004 195
6.36016 233
6.38027 203
6.40039 204
6.4205 229
6.44061 210
6.46073 211
6.48084 217
6.50095 198
6.52107 207
6.54118 215
6.56129 209
6.58141 186
6.60152 220
6.62164 188
6.64175 204
6.66186 190
6.68198 171
6.70209 189
6.7222 190
6.74232 184
6.76243 222
6.78255 201
6.80266 193
6.82277 214
6.84289 227
6.863 191
6.88311 201
6.90323 190
6.92334 185
6.94346 205
6.96357 201
6.98368 212
7.0038 199
7.02391 196
7.04402 215
7.06414 206
7.08425 196
7.10436 221
7.12448 190
7.14459 201
7.16471 197
7.18482 205
7.20493 219
7.22505 195
7.24516 174
7.26527 214
7.28539 228
7.3055 183
7.32562 195
7.34573 217
7.36584 223
7.38596 215
7.40607 211
7.42618 191
7.4463 194
7.46641 217
7.48653 208
7.50664 233
7.52675 175
7.54687 230
7.56698 196
7.58709 198
7.60721 217
7.62732 221
7.64743 227
7.66755 224
7.68766 218
7.70778 240
7.72789 210
7.748 229
7.76812 213
7.78823 215
7.80834 200
7.82846 206
7.84857 218
7.86869 207
7.8888 221
7.90891 215
7.92903 196
7.94914 219
7.96925 214
7.98937 218
8.00948 238
8.0296 239
8.04971 221
8.06982 221
8.08994 229
8.11005 216
8.13016 180
8.15028 205
8.17039 211
8.1905 217
8.21062 216
8.23073 211
8.25085 228
8.27096 224
8.29107 233
8.31119 205
8.3313 213
8.35141 218
8.37153 205
8.39164 228
8.41176 219
8.43187 212
8.45198 236
8.4721 241
8.49221 228
8.51232 216
8.53244 246
8.55255 208
8.57266 232
8.59278 216
8.61289 220
8.63301 251
8.65312 183
8.67323 242
8.69335 211
8.71346 239
8.73357 207
8.75369 235
8.7738 206
8.79392 221
8.81403 195
8.83414 226
8.85426 246
8.87437 244
8.89448 243
8.9146 234
8.93471 232
8.95483 238
8.97494 226
8.99505 233
9.01517 210
9.03528 254
9.05539 246
9.07551 256
9.09562 211
9.11573 230
9.13585 232
9.15596 223
9.17608 227
9.19619 253
9.2163 208
9.23642 229
9.25653 233
9.27664 238
9.29676 243
9.31687 210
9.33699 231
9.3571 252
9.37721 211
9.39733 225
9.41744 222
9.43755 238
9.45767 234
9.47778 223
9.4979 210
9.51801 201
9.53812 254
9.55824 247
9.57835 250
9.59846 205
9.61858 268
9.63869 262
9.6588 196
9.67892 242
9.69903 240
9.71915 234
9.73926 238
9.75937 211
9.77949 226
9.7996 233
9.81971 216
9.83983 248
9.85994 202
9.88006 209
9.90017 222
9.92028 235
9.9404 221
9.96051 214
9.98062 221
10.00074 230
10.02085 254
10.04097 258
10.06108 244
10.08119 246
10.10131 247
10.12142 216
10.14153 225
10.16165 201
10.18176 235
10.20187 234
10.22199 231
10.2421 248
10.26222 256
10.28233 254
10.30244 227
10.32256 245
10.34267 258
10.36278 209
10.3829 216
10.40301 248
10.42313 239
10.44324 251
10.46335 212
10.48347 212
10.50358 242
10.52369 207
10.54381 244
10.56392 217
10.58403 220
10.60415 243
10.62426 264
10.64438 222
10.66449 233
10.6846 231
10.70472 200
10.72483 222
10.74494 243
10.76506 208
10.78517 240
10.80529 258
10.8254 213
10.84551 240
10.86563 248
10.88574 235
10.90585 247
10.92597 273
10.94608 209
10.9662 235
10.98631 220
11.00642 224
11.02654 241
11.04665 216
11.06676 262
11.08688 238
11.10699 252
11.1271 218
11.14722 220
11.16733 224
11.18745 234
11.20756 235
11.22767 251
11.24779 211
11.2679 217
11.28801 245
11.30813 214
11.32824 227
11.34836 209
11.36847 206
11.38858 232
11.4087 228
11.42881 263
11.44892 197
11.46904 238
11.48915 204
11.50927 224
11.52938 197
11.54949 230
11.56961 238
11.58972 216
11.60983 234
11.62995 239
11.65006 274
11.67017 195
11.69029 252
11.7104 216
11.73052 271
11.75063 232
11.77074 263
11.79086 236
11.81097 262
11.83108 250
11.8512 254
11.87131 239
11.89143 242
11.91154 228
11.93165 235
11.95177 237
11.97188 233
11.99199 256
12.01211 261
12.03222 245
12.05234 293
12.07245 290
12.09256 272
12.11268 265
12.13279 260
12.1529 305
12.17302 293
12.19313 306
12.21324 284
12.23336 300
12.25347 296
12.27359 316
12.2937 278
12.31381 288
12.33393 313
12.35404 292
12.37415 263
12.39427 270
12.41438 257
12.4345 256
12.45461 289
12.47472 274
12.49484 241
12.51495 242
12.53506 259
12.55518 231
12.57529 216
12.5954 219
12.61552 246
12.63563 250
12.65575 216
12.67586 235
12.69597 243
12.71609 236
12.7362 247
12.75631 218
12.77643 223
12.79654 204
12.81666 209
12.83677 207
12.85688 211
12.877 223
12.89711 210
12.91722 197
12.93734 217
12.95745 197
12.97757 245
12.99768 222
13.01779 226
13.03791 228
13.05802 232
13.07813 225
13.09825 244
13.11836 233
13.13847 229
13.15859 219
13.1787 202
13.19882 195
13.21893 189
13.23904 215
13.25916 197
13.27927 209
13.29938 208
13.3195 196
13.33961 223
13.35973 216
13.37984 178
13.39995 204
13.42007 217
13.44018 202
13.46029 194
13.48041 203
13.50052 226
13.52064 250
13.54075 213
13.56086 243
13.58098 268
13.60109 261
13.6212 263
13.64132 275
13.66143 268
13.68154 245
13.70166 219
13.72177 219
13.74189 157
13.762 207
13.78211 225
13.80223 192
13.82234 217
13.84245 197
13.86257 204
13.88268 205
13.9028 213
13.92291 166
13.94302 188
13.96314 186
13.98325 204
14.00336 210
14.02348 212
14.04359 200
14.06371 215
14.08382 176
14.10393 197
14.12405 191
14.14416 178
14.16427 195
14.18439 200
14.2045 192
14.22461 182
14.24473 183
14.26484 198
14.28496 195
14.30507 175
14.32518 187
14.3453 209
14.36541 199
14.38552 190
14.40564 191
14.42575 178
14.44587 194
14.46598 181
14.48609 178
14.50621 188
14.52632 180
14.54643 186
14.56655 190
14.58666 187
14.60677 189
14.62689 189
14.647 181
14.66712 203
14.68723 201
14.70734 188
14.72746 186
14.74757 195
14.76768 201
14.7878 197
14.80791 194
14.82803 225
14.84814 191
14.86825 216
14.88837 192
14.90848 227
14.92859 224
14.94871 221
14.96882 223
14.98894 222
15.00905 203
15.02916 206
15.04928 192
15.06939 194
15.0895 183
15.10962 215
15.12973 177
15.14984 189
15.16996 188
15.19007 210
15.21019 232
15.2303 184
15.25041 195
15.27053 208
15.29064 196
15.31075 188
15.33087 187
15.35098 169
15.3711 181
15.39121 181
15.41132 208
15.43144 194
15.45155 210
15.47166 190
15.49178 176
15.51189 177
15.53201 177
15.55212 167
15.57223 176
15.59235 172
15.61246 193
15.63257 169
15.65269 206
15.6728 167
15.69291 192
15.71303 163
15.73314 184
15.75326 154
15.77337 170
15.79348 174
15.8136 201
15.83371 181
15.85382 196
15.87394 179
15.89405 204
15.91417 182
15.93428 208
15.95439 166
15.97451 175
15.99462 188
16.01473 158
16.03485 183
16.05496 174
16.07508 164
16.09519 198
16.1153 192
16.13542 190
16.15553 179
16.17564 186
16.19576 168
16.21587 168
16.23598 159
16.2561 172
16.27621 198
16.29633 195
16.31644 171
16.33655 172
16.35667 172
16.37678 186
16.39689 178
16.41701 191
16.43712 175
16.45724 190
16.47735 191
16.49746 170
16.51758 177
16.53769 165
16.5578 183
16.57792 176
16.59803 160
16.61814 151
16.63826 168
16.65837 163
16.67849 155
16.6986 174
16.71871 174
16.73883 182
16.75894 181
16.77905 174
16.79917 187
16.81928 175
16.8394 189
16.85951 156
16.87962 150
16.89974 185
16.91985 166
16.93996 166
16.96008 173
16.98019 176
17.00031 172
17.02042 191
17.04053 172
17.06065 194
17.08076 164
17.10087 182
17.12099 182
17.1411 151
17.16121 154
17.18133 184
17.20144 182
17.22156 169
17.24167 169
17.26178 196
17.2819 169
17.30201 158
17.32212 207
17.34224 173
17.36235 198
17.38247 180
17.40258 138
17.42269 164
17.44281 163
17.46292 155
17.48303 172
17.50315 159
17.52326 186
17.54338 168
17.56349 179
17.5836 164
17.60372 169
17.62383 156
17.64394 155
17.66406 153
17.68417 177
17.70428 181
17.7244 157
17.74451 149
17.76463 171
17.78474 163
17.80485 202
17.82497 157
17.84508 176
17.86519 189
17.88531 189
17.90542 192
17.92554 183
17.94565 169
17.96576 181
17.98588 165
18.00599 190
18.0261 172
18.04622 180
18.06633 180
18.08645 183
18.10656 160
18.12667 177
18.14679 156
18.1669 175
18.18701 167
18.20713 187
18.22724 179
18.24735 151
18.26747 164
18.28758 151
18.3077 197
18.32781 178
18.34792 180
18.36804 161
18.38815 183
18.40826 173
18.42838 178
18.44849 194
18.46861 174
18.48872 145
18.50883 159
18.52895 178
18.54906 163
18.56917 177
18.58929 180
18.6094 174
18.62951 163
18.64963 161
18.66974 194
18.68986 170
18.70997 197
18.73008 187
18.7502 191
18.77031 206
18.79042 161
18.81054 198
18.83065 175
18.85077 178
18.87088 178
18.89099 209
18.91111 173
18.93122 186
18.95133 175
18.97145 170
18.99156 183
19.01168 165
19.03179 168
19.0519 180
19.07202 159
19.09213 198
19.11224 174
19.13236 168
19.15247 161
19.17258 192
19.1927 192
19.21281 226
19.23293 183
19.25304 199
19.27315 201
19.29327 219
19.31338 191
19.33349 201
19.35361 171
19.37372 198
19.39384 202
19.41395 179
19.43406 202
19.45418 204
19.47429 182
19.4944 180
19.51452 229
19.53463 188
19.55475 208
19.57486 195
19.59497 206
19.61509 196
19.6352 231
19.65531 207
19.67543 211
19.69554 239
19.71565 250
19.73577 252
19.75588 256
19.776 240
19.79611 278
19.81622 286
19.83634 304
19.85645 284
19.87656 304
19.89668 318
19.91679 333
19.93691 313
19.95702 313
19.97713 330
19.99725 301
20.01736 255
20.03747 274
20.05759 252
20.0777 315
20.09782 314
20.11793 260
20.13804 274
20.15816 286
20.17827 289
20.19838 306
20.2185 319
20.23861 256
20.25872 324
20.27884 300
20.29895 301
20.31907 318
20.33918 297
20.35929 320
20.37941 333
20.39952 365
20.41963 372
20.43975 347
20.45986 344
20.47998 387
20.50009 382
20.5202 405
20.54032 434
20.56043 463
20.58054 512
20.60066 585
20.62077 644
20.64088 799
20.661 1117
20.68111 1442
20.70123 2042
20.72134 2932
20.74145 3916
20.76157 5298
20.78168 6518
20.80179 7382
20.82191 7326
20.84202 6279
20.86214 4997
20.88225 3571
20.90236 2418
20.92248 1609
20.94259 1096
20.9627 890
20.98282 765
21.00293 707
21.02305 641
21.04316 600
21.06327 524
21.08339 459
21.1035 397
21.12361 354
21.14373 363
21.16384 311
21.18395 355
21.20407 307
21.22418 349
21.2443 297
21.26441 312
21.28452 286
21.30464 296
21.32475 275
21.34486 288
21.36498 282
21.38509 276
21.40521 266
21.42532 288
21.44543 279
21.46555 306
21.48566 257
21.50577 253
21.52589 277
21.546 242
21.56612 249
21.58623 264
21.60634 269
21.62646 270
21.64657 229
21.66668 250
21.6868 227
21.70691 263
21.72702 237
21.74714 253
21.76725 243
21.78737 219
21.80748 249
21.82759 226
21.84771 264
21.86782 242
21.88793 244
21.90805 230
21.92816 274
21.94828 230
21.96839 233
21.9885 225
22.00862 222
22.02873 239
22.04884 237
22.06896 199
22.08907 221
22.10919 256
22.1293 257
22.14941 255
22.16953 256
22.18964 232
22.20975 275
22.22987 291
22.24998 291
22.27009 292
22.29021 295
22.31032 313
22.33044 266
22.35055 265
22.37066 257
22.39078 270
22.41089 246
22.431 259
22.45112 275
22.47123 232
22.49135 270
22.51146 252
22.53157 260
22.55169 265
22.5718 255
22.59191 243
22.61203 272
22.63214 271
22.65225 237
22.67237 229
22.69248 249
22.7126 200
22.73271 251
22.75282 210
22.77294 243
22.79305 250
22.81316 240
22.83328 187
22.85339 185
22.87351 229
22.89362 231
22.91373 239
22.93385 266
22.95396 276
22.97407 252
22.99419 306
23.0143 283
23.03442 288
23.05453 270
23.07464 338
23.09476 341
23.11487 382
23.13498 370
23.1551 342
23.17521 360
23.19532 314
23.21544 313
23.23555 256
23.25567 268
23.27578 256
23.29589 258
23.31601 227
23.33612 256
23.35623 241
23.37635 238
23.39646 226
23.41658 229
23.43669 268
23.4568 256
23.47692 243
23.49703 262
23.51714 265
23.53726 251
23.55737 286
23.57749 269
23.5976 273
23.61771 242
23.63783 269
23.65794 238
23.67805 237
23.69817 249
23.71828 230
23.73839 252
23.75851 245
23.77862 288
23.79874 279
23.81885 286
23.83896 300
23.85908 341
23.87919 327
23.8993 378
23.91942 403
23.93953 440
23.95965 405
23.97976 396
23.99987 381
24.01999 396
24.0401 314
24.06021 253
24.08033 292
24.10044 233
24.12056 266
24.14067 252
24.16078 242
24.1809 240
24.20101 287
24.22112 249
24.24124 267
24.26135 282
24.28146 269
24.30158 271
24.32169 259
24.34181 276
24.36192 261
24.38203 253
24.40215 222
24.42226 248
24.44237 240
24.46249 238
24.4826 277
24.50272 251
24.52283 276
24.54294 245
24.56306 274
24.58317 269
24.60328 257
24.6234 287
24.64351 274
24.66362 256
24.68374 275
24.70385 262
24.72397 281
24.74408 261
24.76419 278
24.78431 291
24.80442 267
24.82453 263
24.84465 268
24.86476 297
24.88488 273
24.90499 275
24.9251 290
24.94522 273
24.96533 251
24.98544 272
25.00556 289
25.02567 264
25.04579 248
25.0659 265
25.08601 252
25.10613 289
25.12624 236
25.14635 251
25.16647 272
25.18658 285
25.20669 277
25.22681 295
25.24692 289
25.26704 291
25.28715 278
25.30726 248
25.32738 275
25.34749 286
25.3676 298
25.38772 333
25.40783 332
25.42795 365
25.44806 375
25.46817 462
25.48829 428
25.5084 441
25.52851 499
25.54863 461
25.56874 457
25.58886 476
25.60897 467
25.62908 441
25.6492 440
25.66931 458
25.68942 411
25.70954 429
25.72965 420
25.74976 411
25.76988 376
25.78999 377
25.81011 426
25.83022 391
25.85033 416
25.87045 441
25.89056 407
25.91067 448
25.93079 441
25.9509 441
25.97102 431
25.99113 495
26.01124 485
26.03136 459
26.05147 515
26.07158 535
26.0917 531
26.11181 584
26.13193 672
26.15204 699
26.17215 749
26.19227 762
26.21238 842
26.23249 860
26.25261 1023
26.27272 1078
26.29283 1202
26.31295 1320
26.33306 1577
26.35318 1829
26.37329 2257
26.3934 2815
26.41352 3594
26.43363 4786
26.45374 6869
26.47386 9528
26.49397 13754
26.51409 18797
26.5342 24519
26.55431 29551
26.57443 32844
26.59454 32653
26.61465 29051
26.63477 23618
26.65488 17966
26.67499 12827
26.69511 8339
26.71522 5015
26.73534 2838
26.75545 1908
26.77556 1559
26.79568 1313
26.81579 1195
26.8359 1131
26.85602 1069
26.87613 1027
26.89625 959
26.91636 911
26.93647 911
26.95659 945
26.9767 906
26.99681 942
27.01693 876
27.03704 813
27.05716 724
27.07727 699
27.09738 607
27.1175 610
27.13761 487
27.15772 461
27.17784 491
27.19795 498
27.21806 549
27.23818 537
27.25829 589
27.27841 619
27.29852 728
27.31863 824
27.33875 916
27.35886 984
27.37897 1071
27.39909 1143
27.4192 1048
27.43932 992
27.45943 866
27.47954 831
27.49966 719
27.51977 573
27.53988 518
27.56 489
27.58011 404
27.60023 364
27.62034 310
27.64045 319
27.66057 376
27.68068 354
27.70079 346
27.72091 333
27.74102 329
27.76113 317
27.78125 309
27.80136 285
27.82148 315
27.84159 305
27.8617 334
27.88182 284
27.90193 293
27.92204 288
27.94216 292
27.96227 265
27.98239 311
28.0025 300
28.02261 274
28.04273 274
28.06284 272
28.08295 243
28.10307 272
28.12318 258
28.1433 271
28.16341 270
28.18352 264
28.20364 275
28.22375 275
28.24386 253
28.26398 277
28.28409 254
28.3042 252
28.32432 267
28.34443 273
28.36455 255
28.38466 266
28.40477 236
28.42489 244
28.445 262
28.46511 249
28.48523 246
28.50534 227
28.52546 253
28.54557 224
28.56568 251
28.5858 242
28.60591 260
28.62602 224
28.64614 258
28.66625 236
28.68636 256
28.70648 264
28.72659 241
28.74671 244
28.76682 224
28.78693 248
28.80705 211
28.82716 241
28.84727 237
28.86739 216
28.8875 234
28.90762 225
28.92773 243
28.94784 239
28.96796 247
28.98807 256
29.00818 252
29.0283 218
29.04841 244
29.06853 253
29.08864 258
29.10875 227
29.12887 226
29.14898 237
29.16909 212
29.18921 224
29.20932 285
29.22943 204
29.24955 253
29.26966 228
29.28978 259
29.30989 296
29.33 261
29.35012 271
29.37023 316
29.39034 301
29.41046 294
29.43057 315
29.45069 290
29.4708 255
29.49091 234
29.51103 288
29.53114 234
29.55125 227
29.57137 253
29.59148 243
29.6116 235
29.63171 248
29.65182 253
29.67194 275
29.69205 253
29.71216 265
29.73228 232
29.75239 245
29.7725 235
29.79262 274
29.81273 231
29.83285 266
29.85296 268
29.87307 245
29.89319 253
29.9133 230
29.93341 266
29.95353 219
29.97364 244
29.99376 221
30.01387 261
30.03398 294
30.0541 261
30.07421 313
30.09432 314
30.11444 316
30.13455 324
30.15467 317
30.17478 377
30.19489 293
30.21501 311
30.23512 287
30.25523 244
30.27535 250
30.29546 231
30.31557 229
30.33569 227
30.3558 259
30.37592 214
30.39603 220
30.41614 218
30.43626 211
30.45637 218
30.47648 229
30.4966 251
30.51671 250
30.53683 268
30.55694 228
30.57705 264
30.59717 249
30.61728 304
30.63739 313
30.65751 306
30.67762 328
30.69773 301
30.71785 311
30.73796 293
30.75808 329
30.77819 292
30.7983 279
30.81842 283
30.83853 310
30.85864 296
30.87876 264
30.89887 237
30.91899 244
30.9391 206
30.95921 214
30.97933 180
30.99944 184
31.01955 218
31.03967 211
31.05978 197
31.0799 210
31.10001 190
31.12012 211
31.14024 192
31.16035 184
31.18046 207
31.20058 209
31.22069 171
31.2408 191
31.26092 206
31.28103 174
31.30115 224
31.32126 192
31.34137 197
31.36149 170
31.3816 207
31.40171 214
31.42183 169
31.44194 191
31.46206 177
31.48217 177
31.50228 199
31.5224 177
31.54251 203
31.56262 182
31.58274 155
31.60285 167
31.62297 188
31.64308 202
31.66319 180
31.68331 179
31.70342 160
31.72353 203
31.74365 183
31.76376 209
31.78387 205
31.80399 163
31.8241 165
31.84422 191
31.86433 178
31.88444 176
31.90456 214
31.92467 192
31.94478 202
31.9649 200
31.98501 208
32.00513 188
32.02524 209
32.04535 204
32.06547 242
32.08558 227
32.10569 187
32.12581 213
32.14592 213
32.16604 212
32.18615 204
32.20626 185
32.22638 207
32.24649 238
32.2666 216
32.28672 246
32.30683 213
32.32694 239
32.34706 214
32.36717 238
32.38729 216
32.4074 226
32.42751 224
32.44763 217
32.46774 242
32.48785 220
32.50797 226
32.52808 214
32.5482 199
32.56831 189
32.58842 216
32.60854 199
32.62865 193
32.64876 189
32.66888 187
32.68899 184
32.7091 159
32.72922 190
32.74933 187
32.76945 197
32.78956 192
32.80967 198
32.82979 164
32.8499 206
32.87001 180
32.89013 191
32.91024 203
32.93036 191
32.95047 183
32.97058 171
32.9907 190
33.01081 168
33.03092 183
33.05104 175
33.07115 176
33.09127 182
33.11138 219
33.13149 185
33.15161 178
33.17172 155
33.19183 170
33.21195 161
33.23206 197
33.25217 163
33.27229 178
33.2924 174
33.31252 186
33.33263 176
33.35274 183
33.37286 184
33.39297 149
33.41308 155
33.4332 193
33.45331 163
33.47343 197
33.49354 164
33.51365 171
33.53377 176
33.55388 169
33.57399 172
33.59411 181
33.61422 180
33.63434 147
33.65445 163
33.67456 189
33.69468 179
33.71479 164
33.7349 200
33.75502 177
33.77513 177
33.79524 186
33.81536 187
33.83547 170
33.85559 176
33.8757 178
33.89581 179
33.91593 181
33.93604 184
33.95615 172
33.97627 207
33.99638 168
34.0165 205
34.03661 183
34.05672 229
34.07684 222
34.09695 273
34.11706 224
34.13718 261
34.15729 250
34.17741 239
34.19752 222
34.21763 224
34.23775 217
34.25786 229
34.27797 200
34.29809 193
34.3182 181
34.33831 175
34.35843 199
34.37854 204
34.39866 194
34.41877 185
34.43888 189
34.459 198
34.47911 211
34.49922 194
34.51934 175
34.53945 222
34.55957 231
34.57968 216
34.59979 221
34.61991 250
34.64002 227
34.66013 209
34.68025 243
34.70036 215
34.72047 206
34.74059 215
34.7607 267
34.78082 238
34.80093 253
34.82104 234
34.84116 243
34.86127 245
34.88138 274
34.9015 225
34.92161 219
34.94173 256
34.96184 224
34.98195 223
35.00207 239
35.02218 236
35.04229 260
35.06241 241
35.08252 246
35.10264 246
35.12275 250
35.14286 260
35.16298 256
35.18309 258
35.2032 252
35.22332 266
35.24343 243
35.26354 241
35.28366 225
35.30377 241
35.32389 251
35.344 242
35.36411 268
35.38423 268
35.40434 253
35.42445 318
35.44457 306
35.46468 307
35.4848 321
35.50491 312
35.52502 293
35.54514 311
35.56525 294
35.58536 301
35.60548 268
35.62559 240
35.64571 244
35.66582 250
35.68593 221
35.70605 245
35.72616 249
35.74627 216
35.76639 267
35.7865 243
35.80661 256
35.82673 248
35.84684 261
35.86696 227
35.88707 253
35.90718 232
35.9273 246
35.94741 232
35.96752 234
35.98764 248
36.00775 265
36.02787 241
36.04798 269
36.06809 233
36.08821 230
36.10832 218
36.12843 294
36.14855 274
36.16866 302
36.18878 276
36.20889 280
36.229 278
36.24912 362
36.26923 410
36.28934 391
36.30946 492
36.32957 589
36.34968 782
36.3698 942
36.38991 1188
36.41003 1439
36.43014 1836
36.45025 2139
36.47037 2379
36.49048 2318
36.51059 2132
36.53071 1776
36.55082 1489
36.57094 1266
36.59105 1094
36.61116 893
36.63128 636
36.65139 417
36.6715 356
36.69162 281
36.71173 293
36.73184 262
36.75196 245
36.77207 248
36.79219 260
36.8123 267
36.83241 266
36.85253 235
36.87264 229
36.89275 253
36.91287 281
36.93298 212
36.9531 239
36.97321 219
36.99332 220
37.01344 234
37.03355 243
37.05366 215
37.07378 250
37.09389 238
37.11401 212
37.13412 197
37.15423 179
37.17435 177
37.19446 188
37.21457 190
37.23469 217
37.2548 176
37.27491 195
37.29503 195
37.31514 194
37.33526 191
37.35537 187
37.37548 212
37.3956 149
37.41571 194
37.43582 176
37.45594 181
37.47605 223
37.49617 186
37.51628 186
37.53639 197
37.55651 209
37.57662 197
37.59673 177
37.61685 195
37.63696 210
37.65708 194
37.67719 218
37.6973 206
37.71742 213
37.73753 207
37.75764 203
37.77776 188
37.79787 221
37.81798 217
37.8381 224
37.85821 175
37.87833 200
37.89844 172
37.91855 192
37.93867 180
37.95878 204
37.97889 208
37.99901 211
38.01912 204
38.03924 191
38.05935 211
38.07946 191
38.09958 189
38.11969 184
38.1398 199
38.15992 204
38.18003 211
38.20015 190
38.22026 212
38.24037 220
38.26049 183
38.2806 193
38.30071 207
38.32083 198
38.34094 206
38.36105 233
38.38117 244
38.40128 253
38.4214 227
38.44151 250
38.46162 258
38.48174 251
38.50185 233
38.52196 244
38.54208 249
38.56219 212
38.58231 250
38.60242 240
38.62253 175
38.64265 224
38.66276 201
38.68287 219
38.70299 203
38.7231 203
38.74321 189
38.76333 208
38.78344 207
38.80356 215
38.82367 194
38.84378 225
38.8639 191
38.88401 193
38.90412 208
38.92424 217
38.94435 223
38.96447 200
38.98458 224
39.00469 234
39.02481 229
39.04492 248
39.06503 244
39.08515 226
39.10526 263
39.12538 273
39.14549 278
39.1656 299
39.18572 307
39.20583 369
39.22594 490
39.24606 566
39.26617 656
39.28628 857
39.3064 1125
39.32651 1296
39.34663 1577
39.36674 1835
39.38685 1996
39.40697 2028
39.42708 1988
39.44719 1784
39.46731 1471
39.48742 1237
39.50754 1090
39.52765 964
39.54776 707
39.56788 527
39.58799 425
39.6081 288
39.62822 274
39.64833 245
39.66845 247
39.68856 207
39.70867 214
39.72879 220
39.7489 224
39.76901 203
39.78913 198
39.80924 193
39.82935 201
39.84947 197
39.86958 234
39.8897 226
39.90981 211
39.92992 256
39.95004 253
39.97015 241
39.99026 241
40.01038 268
40.03049 286
40.05061 341
40.07072 328
40.09083 459
40.11095 496
40.13106 634
40.15117 737
40.17129 904
40.1914 1077
40.21152 1106
40.23163 1092
40.25174 1067
40.27186 912
40.29197 805
40.31208 724
40.3322 583
40.35231 567
40.37242 482
40.39254 370
40.41265 279
40.43277 250
40.45288 227
40.47299 237
40.49311 227
40.51322 211
40.53333 190
40.55345 214
40.57356 209
40.59368 185
40.61379 197
40.6339 194
40.65402 180
40.67413 206
40.69424 182
40.71436 182
40.73447 182
40.75458 208
40.7747 168
40.79481 212
40.81493 189
40.83504 182
40.85515 185
40.87527 208
40.89538 199
40.91549 185
40.93561 181
40.95572 170
40.97584 187
40.99595 188
41.01606 202
41.03618 180
41.05629 176
41.0764 203
41.09652 169
41.11663 181
41.13675 180
41.15686 187
41.17697 210
41.19709 193
41.2172 198
41.23731 211
41.25743 184
41.27754 182
41.29765 210
41.31777 181
41.33788 177
41.358 192
41.37811 194
41.39822 192
41.41834 189
41.43845 191
41.45856 209
41.47868 208
41.49879 205
41.51891 216
41.53902 215
41.55913 218
41.57925 229
41.59936 233
41.61947 244
41.63959 244
41.6597 270
41.67982 311
41.69993 288
41.72004 318
41.74016 341
41.76027 311
41.78038 284
41.8005 273
41.82061 239
41.84072 257
41.86084 234
41.88095 219
41.90107 230
41.92118 224
41.94129 194
41.96141 211
41.98152 189
42.00163 200
42.02175 186
42.04186 202
42.06198 185
42.08209 202
42.1022 239
42.12232 274
42.14243 271
42.16254 309
42.18266 349
42.20277 373
42.22289 429
42.243 490
42.26311 666
42.28323 850
42.30334 961
42.32345 1164
42.34357 1365
42.36368 1461
42.38379 1521
42.40391 1471
42.42402 1338
42.44414 1109
42.46425 990
42.48436 841
42.50448 805
42.52459 670
42.5447 534
42.56482 387
42.58493 326
42.60505 291
42.62516 222
42.64527 205
42.66539 230
42.6855 222
42.70561 194
42.72573 210
42.74584 212
42.76595 185
42.78607 191
42.80618 184
42.8263 191
42.84641 196
42.86652 186
42.88664 178
42.90675 171
42.92686 175
42.94698 181
42.96709 170
42.98721 168
43.00732 185
43.02743 164
43.04755 175
43.06766 194
43.08777 175
43.10789 180
43.128 191
43.14812 179
43.16823 167
43.18834 188
43.20846 171
43.22857 148
43.24868 177
43.2688 188
43.28891 175
43.30902 186
43.32914 178
43.34925 146
43.36937 173
43.38948 167
43.40959 174
43.42971 184
43.44982 172
43.46993 170
43.49005 183
43.51016 167
43.53028 195
43.55039 187
43.5705 169
43.59062 187
43.61073 191
43.63084 205
43.65096 169
43.67107 179
43.69119 178
43.7113 171
43.73141 158
43.75153 185
43.77164 199
43.79175 178
43.81187 164
43.83198 169
43.85209 186
43.87221 197
43.89232 164
43.91244 165
43.93255 178
43.95266 189
43.97278 159
43.99289 162
44.013 172
44.03312 163
44.05323 183
44.07335 185
44.09346 142
44.11357 177
44.13369 146
44.1538 185
44.17391 163
44.19403 172
44.21414 159
44.23426 194
44.25437 163
44.27448 177
44.2946 160
44.31471 181
44.33482 149
44.35494 168
44.37505 169
44.39516 180
44.41528 165
44.43539 149
44.45551 154
44.47562 142
44.49573 162
44.51585 187
44.53596 178
44.55607 175
44.57619 177
44.5963 166
44.61642 177
44.63653 180
44.65664 157
44.67676 182
44.69687 154
44.71698 171
44.7371 153
44.75721 176
44.77732 173
44.79744 158
44.81755 168
44.83767 169
44.85778 184
44.87789 192
44.89801 173
44.91812 173
44.93823 169
44.95835 160
44.97846 176
44.99858 175
45.01869 158
45.0388 163
45.05892 153
45.07903 189
45.09914 187
45.11926 175
45.13937 178
45.15949 176
45.1796 170
45.19971 188
45.21983 184
45.23994 174
45.26005 178
45.28017 193
45.30028 186
45.32039 195
45.34051 184
45.36062 194
45.38074 213
45.40085 224
45.42096 230
45.44108 225
45.46119 253
45.4813 287
45.50142 284
45.52153 294
45.54165 344
45.56176 371
45.58187 414
45.60199 508
45.6221 545
45.64221 727
45.66233 840
45.68244 967
45.70256 1059
45.72267 1071
45.74278 1042
45.7629 1017
45.78301 802
45.80312 650
45.82324 692
45.84335 635
45.86346 579
45.88358 464
45.90369 382
45.92381 280
45.94392 244
45.96403 217
45.98415 187
46.00426 190
46.02437 192
46.04449 187
46.0646 175
46.08472 176
46.10483 187
46.12494 169
46.14506 190
46.16517 175
46.18528 179
46.2054 174
46.22551 184
46.24563 184
46.26574 187
46.28585 177
46.30597 173
46.32608 166
46.34619 149
46.36631 163
46.38642 162
46.40653 162
46.42665 172
46.44676 165
46.46688 153
46.48699 149
46.5071 161
46.52722 151
46.54733 138
46.56744 151
46.58756 161
46.60767 158
46.62779 149
46.6479 166
46.66801 146
46.68813 146
46.70824 152
46.72835 161
46.74847 168
46.76858 172
46.78869 143
46.80881 177
46.82892 134
46.84904 174
46.86915 151
46.88926 162
46.90938 150
46.92949 178
46.9496 171
46.96972 189
46.98983 178
47.00995 195
47.03006 194
47.05017 188
47.07029 187
47.0904 191
47.11051 187
47.13063 172
47.15074 180
47.17086 167
47.19097 163
47.21108 182
47.2312 170
47.25131 178
47.27142 171
47.29154 157
47.31165 180
47.33176 173
47.35188 161
47.37199 172
47.39211 200
47.41222 172
47.43233 170
47.45245 173
47.47256 180
47.49267 169
47.51279 181
47.5329 168
47.55302 178
47.57313 183
47.59324 144
47.61336 167
47.63347 159
47.65358 168
47.6737 149
47.69381 166
47.71393 168
47.73404 142
47.75415 171
47.77427 157
47.79438 154
47.81449 160
47.83461 158
47.85472 168
47.87483 157
47.89495 159
47.91506 170
47.93518 167
47.95529 164
47.9754 160
47.99552 160
48.01563 165
48.03574 160
48.05586 162
48.07597 166
48.09609 160
48.1162 172
48.13631 190
48.15643 167
48.17654 136
48.19665 139
48.21677 159
48.23688 146
48.257 184
48.27711 151
48.29722 167
48.31734 168
48.33745 175
48.35756 159
48.37768 153
48.39779 154
48.4179 176
48.43802 152
48.45813 167
48.47825 171
48.49836 163
48.51847 153
48.53859 161
48.5587 189
48.57881 150
48.59893 165
48.61904 172
48.63916 172
48.65927 177
48.67938 167
48.6995 174
48.71961 200
48.73972 218
48.75984 188
48.77995 184
48.80006 199
48.82018 211
48.84029 193
48.86041 184
48.88052 194
48.90063 197
48.92075 198
48.94086 182
48.96097 188
48.98109 187
49.0012 166
49.02132 193
49.04143 195
49.06154 164
49.08166 187
49.10177 166
49.12188 177
49.142 175
49.16211 195
49.18223 182
49.20234 186
49.22245 177
49.24257 177
49.26268 160
49.28279 164
49.30291 199
49.32302 147
49.34313 167
49.36325 174
49.38336 181
49.40348 203
49.42359 217
49.4437 176
49.46382 180
49.48393 185
49.50404 188
49.52416 198
49.54427 177
49.56439 194
49.5845 198
49.60461 201
49.62473 215
49.64484 246
49.66495 230
49.68507 244
49.70518 238
49.7253 297
49.74541 303
49.76552 355
49.78564 350
49.80575 392
49.82586 435
49.84598 516
49.86609 565
49.8862 698
49.90632 813
49.92643 1054
49.94655 1321
49.96666 1709
49.98677 2086
50.00689 2512
50.027 3049
50.04711 3181
50.06723 3470
50.08734 3158
50.10746 2864
50.12757 2267
50.14768 2021
50.1678 1848
50.18791 1748
50.20802 1716
50.22814 1485
50.24825 1036
50.26837 773
50.28848 576
50.30859 440
50.32871 397
50.34882 349
50.36893 313
50.38905 339
50.40916 339
50.42927 356
50.44939 351
50.4695 375
50.48962 356
50.50973 366
50.52984 390
50.54996 342
50.57007 341
50.59018 326
50.6103 322
50.63041 288
50.65053 298
50.67064 286
50.69075 251
50.71087 255
50.73098 246
50.75109 225
50.77121 228
50.79132 202
50.81143 214
50.83155 209
50.85166 175
50.87178 209
50.89189 186
50.912 171
50.93212 206
50.95223 151
50.97234 162
50.99246 189
51.01257 170
51.03269 159
51.0528 164
51.07291 178
51.09303 158
51.11314 169
51.13325 149
51.15337 146
51.17348 169
51.1936 162
51.21371 170
51.23382 158
51.25394 140
51.27405 171
51.29416 148
51.31428 161
51.33439 156
51.3545 133
51.37462 146
51.39473 156
51.41485 166
51.43496 161
51.45507 141
51.47519 155
51.4953 166
51.51541 168
51.53553 155
51.55564 157
51.57576 170
51.59587 151
51.61598 144
51.6361 136
51.65621 167
51.67632 146
51.69644 169
51.71655 164
51.73667 156
51.75678 166
51.77689 147
51.79701 138
51.81712 148
51.83723 141
51.85735 150
51.87746 157
51.89757 137
51.91769 163
51.9378 147
51.95792 148
51.97803 153
51.99814 170
52.01826 167
52.03837 161
52.05848 173
52.0786 150
52.09871 138
52.11883 178
52.13894 154
52.15905 163
52.17917 167
52.19928 150
52.21939 148
52.23951 166
52.25962 191
52.27974 143
52.29985 142
52.31996 156
52.34008 146
52.36019 159
52.3803 138
52.40042 139
52.42053 149
52.44064 164
52.46076 155
52.48087 160
52.50099 172
52.5211 165
52.54121 167
52.56133 139
52.58144 153
52.60155 172
52.62167 169
52.64178 174
52.6619 176
52.68201 161
52.70212 144
52.72224 168
52.74235 147
52.76246 152
52.78258 169
52.80269 158
52.8228 164
52.84292 143
52.86303 155
52.88315 162
52.90326 144
52.92337 178
52.94349 143
52.9636 157
52.98371 144
53.00383 164
53.02394 167
53.04406 156
53.06417 151
53.08428 167
53.1044 153
53.12451 161
53.14462 170
53.16474 169
53.18485 158
53.20497 186
53.22508 186
53.24519 196
53.26531 175
53.28542 193
53.30553 196
53.32565 199
53.34576 199
53.36587 195
53.38599 190
53.4061 208
53.42622 180
53.44633 192
53.46644 175
53.48656 194
53.50667 186
53.52678 174
53.5469 172
53.56701 184
53.58713 158
53.60724 205
53.62735 180
53.64747 158
53.66758 183
53.68769 174
53.70781 166
53.72792 164
53.74804 176
53.76815 189
53.78826 157
53.80838 197
53.82849 192
53.8486 173
53.86872 191
53.88883 163
53.90894 183
53.92906 191
53.94917 198
53.96929 173
53.9894 192
54.00951 200
54.02963 201
54.04974 168
54.06985 180
54.08997 175
54.11008 170
54.1302 188
54.15031 163
54.17042 195
54.19054 182
54.21065 196
54.23076 209
54.25088 196
54.27099 190
54.29111 227
54.31122 192
54.33133 206
54.35145 198
54.37156 210
54.39167 235
54.41179 211
54.4319 202
54.45201 216
54.47213 203
54.49224 236
54.51236 224
54.53247 200
54.55258 247
54.5727 279
54.59281 302
54.61292 332
54.63304 383
54.65315 421
54.67327 516
54.69338 627
54.71349 683
54.73361 818
54.75372 991
54.77383 1049
54.79395 1107
54.81406 1017
54.83417 976
54.85429 796
54.8744 720
54.89452 665
54.91463 646
54.93474 682
54.95486 616
54.97497 557
54.99508 504
55.0152 399
55.03531 309
55.05543 308
55.07554 295
55.09565 313
55.11577 328
55.13588 330
55.15599 388
55.17611 423
55.19622 480
55.21634 523
55.23645 558
55.25656 568
55.27668 566
55.29679 503
55.3169 459
55.33702 425
55.35713 371
55.37724 392
55.39736 377
55.41747 354
55.43759 307
55.4577 315
55.47781 252
55.49793 252
55.51804 203
55.53815 205
55.55827 220
55.57838 197
55.5985 223
55.61861 208
55.63872 189
55.65884 169
55.67895 188
55.69906 166
55.71918 173
55.73929 157
55.75941 181
55.77952 175
55.79963 189
55.81975 158
55.83986 134
55.85997 167
55.88009 153
55.9002 155
55.92031 184
55.94043 160
55.96054 175
55.98066 136
56.00077 159
56.02088 159
56.041 146
56.06111 146
56.08122 143
56.10134 151
56.12145 140
56.14157 162
56.16168 143
56.18179 148
56.20191 155
56.22202 164
56.24213 151
56.26225 146
56.28236 148
56.30248 146
56.32259 159
56.3427 135
56.36282 205
56.38293 147
56.40304 147
56.42316 149
56.44327 169
56.46338 163
56.4835 153
56.50361 140
56.52373 178
56.54384 161
56.56395 153
56.58407 169
56.60418 166
56.62429 169
56.64441 167
56.66452 163
56.68464 131
56.70475 143
56.72486 175
56.74498 157
56.76509 164
56.7852 170
56.80532 156
56.82543 139
56.84554 143
56.86566 153
56.88577 169
56.90589 154
56.926 166
56.94611 151
56.96623 164
56.98634 166
57.00645 153
57.02657 166
57.04668 160
57.0668 192
57.08691 184
57.10702 179
57.12714 197
57.14725 192
57.16736 191
57.18748 186
57.20759 196
57.22771 177
57.24782 204
57.26793 186
57.28805 198
57.30816 192
57.32827 191
57.34839 190
57.3685 172
57.38861 166
57.40873 164
57.42884 168
57.44896 152
57.46907 140
57.48918 152
57.5093 141
57.52941 178
57.54952 146
57.56964 147
57.58975 166
57.60987 135
57.62998 162
57.65009 152
57.67021 144
57.69032 150
57.71043 149
57.73055 177
57.75066 149
57.77078 134
57.79089 156
57.811 150
57.83112 137
57.85123 160
57.87134 173
57.89146 148
57.91157 136
57.93168 160
57.9518 150
57.97191 140
57.99203 133
58.01214 147
58.03225 137
58.05237 163
58.07248 178
58.09259 167
58.11271 149
58.13282 160
58.15294 132
58.17305 152
58.19316 138
58.21328 149
58.23339 122
58.2535 160
58.27362 163
58.29373 152
58.31385 138
58.33396 146
58.35407 180
58.37419 177
58.3943 170
58.41441 174
58.43453 156
58.45464 153
58.47475 161
58.49487 180
58.51498 165
58.5351 148
58.55521 184
58.57532 163
58.59544 163
58.61555 189
58.63566 170
58.65578 164
58.67589 161
58.69601 176
58.71612 148
58.73623 178
58.75635 162
58.77646 170
58.79657 139
58.81669 161
58.8368 158
58.85691 167
58.87703 141
58.89714 166
58.91726 145
58.93737 181
58.95748 167
58.9776 147
58.99771 155
59.01782 162
59.03794 158
59.05805 170
59.07817 172
59.09828 150
59.11839 152
59.13851 163
59.15862 160
59.17873 151
59.19885 160
59.21896 153
59.23908 159
59.25919 168
59.2793 148
59.29942 157
59.31953 141
59.33964 185
59.35976 195
59.37987 185
59.39998 188
59.4201 178
59.44021 199
59.46033 233
59.48044 213
59.50055 249
59.52067 231
59.54078 266
59.56089 285
59.58101 298
59.60112 324
59.62124 316
59.64135 357
59.66146 436
59.68158 514
59.70169 598
59.7218 666
59.74192 802
59.76203 994
59.78215 1205
59.80226 1455
59.82237 1777
59.84249 2041
59.8626 2198
59.88271 2169
59.90283 2092
59.92294 1871
59.94305 1511
59.96317 1187
59.98328 1151
60.0034 1180
60.02351 1146
60.04362 1165
60.06374 1056
60.08385 897
60.10396 674
60.12408 475
60.14419 368
60.16431 299
60.18442 254
60.20453 233
60.22465 224
60.24476 225
60.26487 201
60.28499 195
60.3051 196
60.32522 191
60.34533 161
60.36544 191
60.38556 193
60.40567 171
60.42578 182
60.4459 176
60.46601 176
60.48612 154
60.50624 148
60.52635 158
60.54647 177
60.56658 166
60.58669 176
60.60681 150
60.62692 165
60.64703 174
60.66715 175
60.68726 170
60.70738 161
60.72749 168
60.7476 178
60.76772 186
60.78783 157
60.80794 152
60.82806 155
60.84817 168
60.86828 164
60.8884 175
60.90851 148
60.92863 167
60.94874 166
60.96885 175
60.98897 160
61.00908 159
61.02919 204
61.04931 177
61.06942 167
61.08954 189
61.10965 178
61.12976 169
61.14988 175
61.16999 165
61.1901 169
61.21022 202
61.23033 151
61.25045 186
61.27056 179
61.29067 164
61.31079 185
61.3309 165
61.35101 166
61.37113 157
61.39124 144
61.41135 163
61.43147 166
61.45158 154
61.4717 158
61.49181 160
61.51192 173
61.53204 186
61.55215 158
61.57226 170
61.59238 161
61.61249 161
61.63261 152
61.65272 162
61.67283 149
61.69295 155
61.71306 177
61.73317 140
61.75329 171
61.7734 162
61.79352 154
61.81363 174
61.83374 162
61.85386 146
61.87397 176
61.89408 167
61.9142 154
61.93431 176
61.95442 158
61.97454 175
61.99465 174
62.01477 171
62.03488 163
62.05499 175
62.07511 189
62.09522 191
62.11533 180
62.13545 208
62.15556 188
62.17568 167
62.19579 167
62.2159 175
62.23602 166
62.25613 168
62.27624 181
62.29636 178
62.31647 198
62.33659 161
62.3567 179
62.37681 173
62.39693 184
62.41704 184
62.43715 180
62.45727 169
62.47738 161
62.49749 191
62.51761 178
62.53772 160
62.55784 155
62.57795 157
62.59806 155
62.61818 182
62.63829 181
62.6584 177
62.67852 163
62.69863 170
62.71875 169
62.73886 173
62.75897 162
62.77909 168
62.7992 160
62.81931 146
62.83943 142
62.85954 143
62.87965 190
62.89977 169
62.91988 181
62.94 162
62.96011 167
62.98022 188
63.00034 179
63.02045 174
63.04056 186
63.06068 190
63.08079 167
63.10091 175
63.12102 176
63.14113 188
63.16125 166
63.18136 158
63.20147 195
63.22159 147
63.2417 150
63.26182 167
63.28193 151
63.30204 165
63.32216 153
63.34227 168
63.36238 172
63.3825 145
63.40261 150
63.42272 150
63.44284 193
63.46295 153
63.48307 164
63.50318 154
63.52329 168
63.54341 186
63.56352 162
63.58363 165
63.60375 182
63.62386 173
63.64398 173
63.66409 182
63.6842 196
63.70432 238
63.72443 215
63.74454 206
63.76466 221
63.78477 285
63.80489 300
63.825 302
63.84511 359
63.86523 417
63.88534 411
63.90545 462
63.92557 516
63.94568 549
63.96579 555
63.98591 470
64.00602 484
64.02614 405
64.04625 317
64.06636 311
64.08648 297
64.10659 346
64.1267 333
64.14682 315
64.16693 316
64.18705 280
64.20716 228
64.22727 206
64.24739 186
64.2675 175
64.28761 158
64.30773 145
64.32784 176
64.34796 153
64.36807 189
64.38818 156
64.4083 150
64.42841 153
64.44852 149
64.46864 164
64.48875 153
64.50886 154
64.52898 159
64.54909 142
64.56921 146
64.58932 156
64.60943 155
64.62955 129
64.64966 134
64.66977 151
64.68989 153
64.71 147
64.73012 133
64.75023 145
64.77034 156
64.79046 139
64.81057 133
64.83068 131
64.8508 151
64.87091 151
64.89102 155
64.91114 136
64.93125 139
64.95137 177
64.97148 141
64.99159 156
65.01171 151
65.03182 140
65.05193 155
65.07205 161
65.09216 150
65.11228 150
65.13239 197
65.1525 145
65.17262 151
65.19273 174
65.21284 158
65.23296 143
65.25307 169
65.27319 155
65.2933 174
65.31341 154
65.33353 162
65.35364 143
65.37375 156
65.39387 166
65.41398 154
65.43409 167
65.45421 151
65.47432 173
65.49444 178
65.51455 163
65.53466 160
65.55478 196
65.57489 193
65.595 198
65.61512 228
65.63523 204
65.65535 212
65.67546 216
65.69557 246
65.71569 203
65.7358 215
65.75591 184
65.77603 189
65.79614 195
65.81626 207
65.83637 188
65.85648 217
65.8766 197
65.89671 198
65.91682 191
65.93694 205
65.95705 169
65.97716 164
65.99728 145
66.01739 177
66.03751 150
66.05762 141
66.07773 147
66.09785 172
66.11796 158
66.13807 163
66.15819 156
66.1783 161
66.19842 162
66.21853 157
66.23864 169
66.25876 154
66.27887 155
66.29898 175
66.3191 152
66.33921 154
66.35933 171
66.37944 174
66.39955 144
66.41967 178
66.43978 137
66.45989 169
66.48001 147
66.50012 158
66.52023 166
66.54035 145
66.56046 167
66.58058 152
66.60069 138
66.6208 157
66.64092 173
66.66103 155
66.68114 162
66.70126 160
66.72137 136
66.74149 155
66.7616 146
66.78171 173
66.80183 141
66.82194 158
66.84205 155
66.86217 173
66.88228 168
66.90239 146
66.92251 164
66.94262 154
66.96274 153
66.98285 154
67.00296 178
67.02308 169
67.04319 163
67.0633 150
67.08342 190
67.10353 169
67.12365 176
67.14376 194
67.16387 178
67.18399 178
67.2041 184
67.22421 157
67.24433 181
67.26444 184
67.28456 203
67.30467 199
67.32478 216
67.3449 236
67.36501 233
67.38512 249
67.40524 266
67.42535 308
67.44546 312
67.46558 344
67.48569 428
67.50581 447
67.52592 587
67.54603 692
67.56615 735
67.58626 867
67.60637 1061
67.62649 1196
67.6466 1383
67.66672 1312
67.68683 1253
67.70694 1148
67.72706 973
67.74717 848
67.76728 774
67.7874 806
67.80751 812
67.82763 918
67.84774 928
67.86785 950
67.88797 924
67.90808 932
67.92819 908
67.94831 983
67.96842 1112
67.98853 1266
68.00865 1367
68.02876 1568
68.04888 1715
68.06899 1737
68.0891 1719
68.10922 1530
68.12933 1427
68.14944 1355
68.16956 1360
68.18967 1484
68.20979 1638
68.2299 1684
68.25001 1641
68.27013 1418
68.29024 1238
68.31035 1011
68.33047 865
68.35058 723
68.3707 680
68.39081 653
68.41092 662
68.43104 645
68.45115 587
68.47126 497
68.49138 381
68.51149 340
68.5316 270
68.55172 231
68.57183 230
68.59195 216
68.61206 209
68.63217 198
68.65229 188
68.6724 187
68.69251 203
68.71263 177
68.73274 202
68.75286 204
68.77297 200
68.79308 194
68.8132 176
68.83331 179
68.85342 174
68.87354 160
68.89365 161
68.91376 153
68.93388 177
68.95399 167
68.97411 157
68.99422 176
69.01433 149
69.03445 152
69.05456 169
69.07467 142
69.09479 181
69.1149 144
69.13502 178
69.15513 165
69.17524 137
69.19536 137
69.21547 160
69.23558 152
69.2557 151
69.27581 118
69.29593 167
69.31604 145
69.33615 166
69.35627 130
69.37638 149
69.39649 132
69.41661 143
69.43672 148
69.45683 145
69.47695 156
69.49706 113
69.51718 151
69.53729 138
69.5574 164
69.57752 167
69.59763 151
69.61774 132
69.63786 132
69.65797 155
69.67809 148
69.6982 153
69.71831 153
69.73843 151
69.75854 158
69.77865 139
69.79877 153
69.81888 148
69.839 137
69.85911 132
69.87922 154
69.89934 139
69.91945 140
69.93956 166
69.95968 161
69.97979 141
69.9999 145
70.02002 166
70.04013 121
70.06025 147
70.08036 144
70.10047 148
70.12059 149
70.1407 143
70.16081 151
70.18093 149
70.20104 126
70.22116 156
70.24127 141
70.26138 134
70.2815 132
70.30161 135
70.32172 143
70.34184 158
70.36195 141
70.38207 126
70.40218 152
70.42229 143
70.44241 128
70.46252 119
70.48263 129
70.50275 144
70.52286 137
70.54297 139
70.56309 145
70.5832 144
70.60332 146
70.62343 132
70.64354 175
70.66366 146
70.68377 135
70.70388 148
70.724 144
70.74411 131
70.76423 140
70.78434 133
70.80445 165
70.82457 152
70.84468 156
70.86479 135
70.88491 152
70.90502 155
70.92513 133
70.94525 135
70.96536 133
70.98548 128
71.00559 127
71.0257 145
71.04582 130
71.06593 136
71.08604 133
71.10616 104
71.12627 142
71.14639 128
71.1665 106
71.18661 147
71.20673 138
71.22684 134
71.24695 136
71.26707 137
71.28718 140
71.3073 128
71.32741 142
71.34752 136
71.36764 151
71.38775 141
71.40786 131
71.42798 129
71.44809 137
71.4682 145
71.48832 130
71.50843 138
71.52855 145
71.54866 135
71.56877 129
71.58889 141
71.609 143
71.62911 136
71.64923 144
71.66934 147
71.68946 155
71.70957 149
71.72968 145
71.7498 130
71.76991 147
71.79002 134
71.81014 146
71.83025 147
71.85037 135
71.87048 123
71.89059 134
71.91071 141
71.93082 147
71.95093 137
71.97105 148
71.99116 132
72.01127 129
72.03139 146
72.0515 150
72.07162 150
72.09173 155
72.11184 162
72.13196 159
72.15207 141
72.17218 150
72.1923 155
72.21241 148
72.23253 155
72.25264 161
72.27275 141
72.29287 152
72.31298 141
72.33309 137
72.35321 142
72.37332 142
72.39344 150
72.41355 135
72.43366 137
72.45378 145
72.47389 133
72.494 147
72.51412 162
72.53423 155
72.55434 159
72.57446 129
72.59457 150
72.61469 130
72.6348 130
72.65491 122
72.67503 144
72.69514 171
72.71525 120
72.73537 144
72.75548 130
72.7756 130
72.79571 149
72.81582 160
72.83594 152
72.85605 144
72.87616 156
72.89628 152
72.91639 150
72.9365 154
72.95662 169
72.97673 166
72.99685 157
73.01696 164
73.03707 154
73.05719 154
73.0773 166
73.09741 182
73.11753 198
73.13764 195
73.15776 195
73.17787 210
73.19798 241
73.2181 240
73.23821 281
73.25832 304
73.27844 373
73.29855 430
73.31867 426
73.33878 481
73.35889 525
73.37901 518
73.39912 575
73.41923 484
73.43935 447
73.45946 353
73.47957 335
73.49969 310
73.5198 306
73.53992 338
73.56003 337
73.58014 356
73.60026 346
73.62037 353
73.64048 323
73.6606 248
73.68071 201
73.70083 187
73.72094 161
73.74105 139
73.76117 167
73.78128 152
73.80139 171
73.82151 150
73.84162 164
73.86174 139
73.88185 164
73.90196 157
73.92208 133
73.94219 142
73.9623 137
73.98242 135
74.00253 162
74.02264 134
74.04276 140
74.06287 152
74.08299 134
74.1031 143
74.12321 134
74.14333 130
74.16344 164
74.18355 161
74.20367 143
74.22378 158
74.2439 126
74.26401 134
74.28412 127
74.30424 147
74.32435 166
74.34446 137
74.36458 135
74.38469 134
74.40481 131
74.42492 131
74.44503 148
74.46515 134
74.48526 161
74.50537 121
74.52549 161
74.5456 140
74.56571 162
74.58583 136
74.60594 152
74.62606 148
74.64617 154
74.66628 129
74.6864 154
74.70651 115
74.72662 134
74.74674 129
74.76685 135
74.78697 135
74.80708 150
74.82719 137
74.84731 159
74.86742 131
74.88753 138
74.90765 167
74.92776 147
74.94787 143
74.96799 162
74.9881 126
75.00822 158
