3.00117 21559
3.02128 20943
3.0414 20105
3.06151 19799
3.08162 19254
3.10174 19205
3.12185 17952
3.14197 17685
3.16208 17128
3.18219 16554
3.20231 16409
3.22242 15526
3.24253 15294
3.26265 14789
3.28276 14072
3.30288 14063
3.32299 13399
3.3431 13102
3.36322 12553
3.38333 12101
3.40344 11690
3.42356 11309
3.44367 11023
3.46379 10745
3.4839 10291
3.50401 9938
3.52413 9263
3.54424 9195
3.56435 9035
3.58447 8436
3.60458 8290
3.62469 7885
3.64481 7418
3.66492 7318
3.68504 6818
3.70515 6787
3.72526 6101
3.74538 6060
3.76549 5806
3.7856 5647
3.80572 5448
3.82583 4989
3.84595 4831
3.86606 4732
3.88617 4551
3.90629 4329
3.9264 4078
3.94651 3939
3.96663 3791
3.98674 3520
4.00686 3532
4.02697 3134
4.04708 3114
4.0672 3037
4.08731 2809
4.10742 2724
4.12754 2507
4.14765 2465
4.16776 2354
4.18788 2211
4.20799 2250
4.22811 1976
4.24822 1969
4.26833 2000
4.28845 1847
4.30856 1792
4.32867 1671
4.34879 1670
4.3689 1660
4.38902 1610
4.40913 1547
4.42924 1403
4.44936 1364
4.46947 1497
4.48958 1357
4.5097 1337
4.52981 1212
4.54992 1175
4.57004 1238
4.59015 1184
4.61027 1179
4.63038 1060
4.65049 1106
4.67061 1024
4.69072 1122
4.71083 1044
4.73095 942
4.75106 972
4.77118 1004
4.79129 983
4.8114 914
4.83152 854
4.85163 812
4.87174 842
4.89186 821
4.91197 775
4.93209 791
4.9522 733
4.97231 770
4.99243 712
5.01254 720
5.03265 625
5.05277 649
5.07288 612
5.09299 639
5.11311 628
5.13322 587
5.15334 555
5.17345 550
5.19356 596
5.21368 510
5.23379 550
5.2539 547
5.27402 465
5.29413 549
5.31425 453
5.33436 474
5.35447 459
5.37459 471
5.3947 453
5.41481 398
5.43493 407
5.45504 401
5.47516 384
5.49527 433
5.51538 331
5.5355 373
5.55561 323
5.57572 381
5.59584 349
5.61595 300
5.63606 296
5.65618 282
5.67629 331
5.69641 308
5.71652 308
5.73663 304
5.75675 300
5.77686 254
5.79697 320
5.81709 281
5.8372 271
5.85732 261
5.87743 269
5.89754 254
5.91766 236
5.93777 215
5.95788 241
5.978 233
5.99811 237
6.01823 223
6.03834 238
6.05845 252
6.07857 250
6.09868 220
6.11879 252
6.13891 238
6.15902 214
6.17913 209
6.19925 240
6.21936 202
6.23948 214
6.25959 220
6.2797 228
6.29982 201
6.31993 196
6.34004 221
6.36016 206
6.38027 224
6.40039 208
6.4205 209
6.44061 234
6.46073 234
6.48084 204
6.50095 184
6.52107 186
6.54118 207
6.56129 194
6.58141 198
6.60152 181
6.62164 207
6.64175 196
6.66186 186
6.68198 198
6.70209 169
6.7222 196
6.74232 175
6.76243 178
6.78255 194
6.80266 228
6.82277 181
6.84289 179
6.863 177
6.88311 216
6.90323 162
6.92334 168
6.94346 197
6.96357 204
6.98368 179
7.0038 189
7.02391 185
7.04402 177
7.06414 163
7.08425 205
7.10436 186
7.12448 191
7.14459 166
7.16471 209
7.18482 200
7.20493 236
7.22505 194
7.24516 216
7.26527 216
7.28539 174
7.3055 178
7.32562 173
7.34573 186
7.36584 189
7.38596 209
7.40607 179
7.42618 202
7.4463 190
7.46641 181
7.48653 193
7.50664 188
7.52675 185
7.54687 195
7.56698 181
7.58709 207
7.60721 196
7.62732 204
7.64743 173
7.66755 176
7.68766 185
7.70778 202
7.72789 201
7.748 229
7.76812 225
7.78823 198
7.80834 186
7.82846 186
7.84857 183
7.86869 206
7.8888 194
7.90891 181
7.92903 203
7.94914 197
7.96925 204
7.98937 183
8.00948 213
8.0296 225
8.04971 203
8.06982 195
8.08994 167
8.11005 199
8.13016 212
8.15028 183
8.17039 204
8.1905 233
8.21062 226
8.23073 212
8.25085 219
8.27096 211
8.29107 229
8.31119 195
8.3313 211
8.35141 198
8.37153 201
8.39164 236
8.41176 188
8.43187 235
8.45198 221
8.4721 209
8.49221 230
8.51232 221
8.53244 210
8.55255 234
8.57266 242
8.59278 187
8.61289 253
8.63301 212
8.65312 205
8.67323 236
8.69335 238
8.71346 195
8.73357 221
8.75369 230
8.7738 220
8.79392 247
8.81403 221
8.83414 233
8.85426 231
8.87437 225
8.89448 224
8.9146 225
8.93471 207
8.95483 218
8.97494 220
8.99505 203
9.01517 212
9.03528 247
9.05539 199
9.07551 226
9.09562 193
9.11573 190
9.13585 214
9.15596 199
9.17608 218
9.19619 217
9.2163 202
9.23642 194
9.25653 223
9.27664 223
9.29676 184
9.31687 227
9.33699 194
9.3571 183
9.37721 200
9.39733 243
9.41744 202
9.43755 182
9.45767 187
9.47778 248
9.4979 217
9.51801 214
9.53812 204
9.55824 247
9.57835 204
9.59846 207
9.61858 193
9.63869 234
9.6588 210
9.67892 199
9.69903 225
9.71915 235
9.73926 185
9.75937 205
9.77949 215
9.7996 242
9.81971 199
9.83983 223
9.85994 202
9.88006 189
9.90017 218
9.92028 216
9.9404 222
9.96051 197
9.98062 223
10.00074 224
10.02085 198
10.04097 194
10.06108 203
10.08119 210
10.10131 211
10.12142 197
10.14153 211
10.16165 216
10.18176 223
10.20187 208
10.22199 200
10.2421 191
10.26222 233
10.28233 223
10.30244 188
10.32256 195
10.34267 206
10.36278 214
10.3829 204
10.40301 215
10.42313 201
10.44324 192
10.46335 231
10.48347 234
10.50358 209
10.52369 224
10.54381 220
10.56392 217
10.58403 242
10.60415 202
10.62426 262
10.64438 211
10.66449 210
10.6846 196
10.70472 239
10.72483 201
10.74494 227
10.76506 214
10.78517 258
10.80529 227
10.8254 207
10.84551 221
10.86563 232
10.88574 171
10.90585 211
10.92597 254
10.94608 233
10.9662 218
10.98631 227
11.00642 250
11.02654 224
11.04665 223
11.06676 216
11.08688 234
11.10699 213
11.1271 203
11.14722 192
11.16733 181
11.18745 199
11.20756 190
11.22767 238
11.24779 200
11.2679 225
11.28801 216
11.30813 222
11.32824 272
11.34836 192
11.36847 184
11.38858 221
11.4087 221
11.42881 200
11.44892 200
11.46904 227
11.48915 216
11.50927 236
11.52938 208
11.54949 228
11.56961 227
11.58972 224
11.60983 196
11.62995 199
11.65006 241
11.67017 215
11.69029 233
11.7104 239
11.73052 251
11.75063 247
11.77074 269
11.79086 265
11.81097 239
11.83108 255
11.8512 232
11.87131 263
11.89143 268
11.91154 271
11.93165 297
11.95177 280
11.97188 249
11.99199 271
12.01211 282
12.03222 281
12.05234 313
12.07245 316
12.09256 352
12.11268 332
12.13279 348
12.1529 367
12.17302 371
12.19313 424
12.21324 438
12.23336 439
12.25347 417
12.27359 450
12.2937 419
12.31381 433
12.33393 438
12.35404 435
12.37415 410
12.39427 420
12.41438 344
12.4345 344
12.45461 382
12.47472 334
12.49484 349
12.51495 357
12.53506 286
12.55518 277
12.57529 294
12.5954 275
12.61552 243
12.63563 271
12.65575 277
12.67586 256
12.69597 239
12.71609 255
12.7362 220
12.75631 229
12.77643 192
12.79654 220
12.81666 231
12.83677 186
12.85688 236
12.877 218
12.89711 206
12.91722 201
12.93734 209
12.95745 213
12.97757 185
12.99768 198
13.01779 191
13.03791 216
13.05802 256
13.07813 213
13.09825 259
13.11836 211
13.13847 258
13.15859 258
13.1787 215
13.19882 229
13.21893 217
13.23904 219
13.25916 182
13.27927 195
13.29938 207
13.3195 194
13.33961 171
13.35973 210
13.37984 206
13.39995 167
13.42007 197
13.44018 188
13.46029 232
13.48041 210
13.50052 187
13.52064 212
13.54075 238
13.56086 257
13.58098 249
13.60109 256
13.6212 260
13.64132 250
13.66143 291
13.68154 291
13.70166 281
13.72177 229
13.74189 197
13.762 178
13.78211 187
13.80223 170
13.82234 186
13.84245 212
13.86257 185
13.88268 174
13.9028 198
13.92291 190
13.94302 200
13.96314 203
13.98325 191
14.00336 178
14.02348 213
14.04359 186
14.06371 180
14.08382 177
14.10393 161
14.12405 158
14.14416 191
14.16427 168
14.18439 171
14.2045 162
14.22461 147
14.24473 168
14.26484 170
14.28496 170
14.30507 173
14.32518 182
14.3453 179
14.36541 198
14.38552 187
14.40564 173
14.42575 184
14.44587 174
14.46598 179
14.48609 157
14.50621 153
14.52632 169
14.54643 187
14.56655 185
14.58666 194
14.60677 162
14.62689 157
14.647 194
14.66712 176
14.68723 169
14.70734 164
14.72746 180
14.74757 188
14.76768 179
14.7878 142
14.80791 189
14.82803 196
14.84814 219
14.86825 183
14.88837 233
14.90848 230
14.92859 246
14.94871 235
14.96882 214
14.98894 229
15.00905 166
15.02916 170
15.04928 183
15.06939 165
15.0895 215
15.10962 191
15.12973 180
15.14984 184
15.16996 196
15.19007 168
15.21019 187
15.2303 192
15.25041 190
15.27053 180
15.29064 171
15.31075 188
15.33087 160
15.35098 187
15.3711 150
15.39121 163
15.41132 159
15.43144 165
15.45155 182
15.47166 177
15.49178 172
15.51189 201
15.53201 172
15.55212 184
15.57223 182
15.59235 177
15.61246 143
15.63257 200
15.65269 163
15.6728 174
15.69291 159
15.71303 183
15.73314 169
15.75326 160
15.77337 177
15.79348 193
15.8136 175
15.83371 159
15.85382 164
15.87394 135
15.89405 152
15.91417 159
15.93428 174
15.95439 159
15.97451 157
15.99462 172
16.01473 169
16.03485 175
16.05496 203
16.07508 163
16.09519 153
16.1153 191
16.13542 172
16.15553 155
16.17564 145
16.19576 176
16.21587 166
16.23598 182
16.2561 162
16.27621 157
16.29633 151
16.31644 166
16.33655 166
16.35667 170
16.37678 165
16.39689 146
16.41701 166
16.43712 161
16.45724 144
16.47735 189
16.49746 174
16.51758 182
16.53769 170
16.5578 149
16.57792 172
16.59803 164
16.61814 161
16.63826 160
16.65837 180
16.67849 173
16.6986 179
16.71871 158
16.73883 158
16.75894 179
16.77905 161
16.79917 140
16.81928 129
16.8394 138
16.85951 144
16.87962 177
16.89974 135
16.91985 160
16.93996 180
16.96008 159
16.98019 151
17.00031 185
17.02042 138
17.04053 153
17.06065 161
17.08076 154
17.10087 166
17.12099 149
17.1411 146
17.16121 171
17.18133 150
17.20144 149
17.22156 164
17.24167 169
17.26178 161
17.2819 145
17.30201 156
17.32212 163
17.34224 169
17.36235 157
17.38247 182
17.40258 157
17.42269 164
17.44281 154
17.46292 181
17.48303 146
17.50315 127
17.52326 157
17.54338 162
17.56349 165
17.5836 154
17.60372 156
17.62383 146
17.64394 152
17.66406 174
17.68417 149
17.70428 151
17.7244 148
17.74451 193
17.76463 175
17.78474 156
17.80485 163
17.82497 160
17.84508 163
17.86519 155
17.88531 185
17.90542 158
17.92554 166
17.94565 152
17.96576 158
17.98588 156
18.00599 155
18.0261 158
18.04622 180
18.06633 132
18.08645 179
18.10656 178
18.12667 164
18.14679 154
18.1669 184
18.18701 164
18.20713 167
18.22724 192
18.24735 147
18.26747 167
18.28758 162
18.3077 144
18.32781 175
18.34792 135
18.36804 161
18.38815 178
18.40826 147
18.42838 141
18.44849 152
18.46861 163
18.48872 148
18.50883 168
18.52895 160
18.54906 145
18.56917 174
18.58929 150
18.6094 156
18.62951 161
18.64963 135
18.66974 153
18.68986 188
18.70997 161
18.73008 186
18.7502 191
18.77031 164
18.79042 184
18.81054 181
18.83065 209
18.85077 170
18.87088 176
18.89099 166
18.91111 158
18.93122 168
18.95133 195
18.97145 172
18.99156 168
19.01168 135
19.03179 147
19.0519 163
19.07202 154
19.09213 184
19.11224 157
19.13236 168
19.15247 159
19.17258 208
19.1927 168
19.21281 214
19.23293 196
19.25304 180
19.27315 241
19.29327 192
19.31338 196
19.33349 167
19.35361 201
19.37372 183
19.39384 171
19.41395 160
19.43406 175
19.45418 185
19.47429 211
19.4944 175
19.51452 178
19.53463 168
19.55475 187
19.57486 184
19.59497 198
19.61509 211
19.6352 219
19.65531 192
19.67543 228
19.69554 222
19.71565 259
19.73577 238
19.75588 250
19.776 266
19.79611 324
19.81622 324
19.83634 358
19.85645 343
19.87656 350
19.89668 336
19.91679 327
19.93691 323
19.95702 339
19.97713 333
19.99725 339
20.01736 341
20.03747 313
20.05759 329
20.0777 303
20.09782 303
20.11793 294
20.13804 325
20.15816 350
20.17827 390
20.19838 330
20.2185 328
20.23861 358
20.25872 352
20.27884 349
20.29895 332
20.31907 343
20.33918 338
20.35929 375
20.37941 334
20.39952 371
20.41963 393
20.43975 442
20.45986 415
20.47998 428
20.50009 456
20.5202 450
20.54032 491
20.56043 489
20.58054 443
20.60066 512
20.62077 567
20.64088 597
20.661 701
20.68111 810
20.70123 1095
20.72134 1394
20.74145 1969
20.76157 2732
20.78168 3749
20.80179 4823
20.82191 5997
20.84202 6916
20.86214 7222
20.88225 6490
20.90236 5304
20.92248 3987
20.94259 2870
20.9627 1988
20.98282 1448
21.00293 1215
21.02305 1134
21.04316 946
21.06327 854
21.08339 754
21.1035 599
21.12361 571
21.14373 483
21.16384 411
21.18395 376
21.20407 357
21.22418 362
21.2443 341
21.26441 344
21.28452 349
21.30464 340
21.32475 340
21.34486 308
21.36498 347
21.38509 333
21.40521 381
21.42532 282
21.44543 325
21.46555 304
21.48566 345
21.50577 321
21.52589 289
21.546 298
21.56612 293
21.58623 301
21.60634 294
21.62646 325
21.64657 284
21.66668 302
21.6868 287
21.70691 274
21.72702 268
21.74714 282
21.76725 280
21.78737 265
21.80748 258
21.82759 274
21.84771 249
21.86782 271
21.88793 264
21.90805 290
21.92816 263
21.94828 244
21.96839 251
21.9885 281
22.00862 276
22.02873 288
22.04884 288
22.06896 272
22.08907 250
22.10919 275
22.1293 237
22.14941 273
22.16953 275
22.18964 295
22.20975 340
22.22987 380
22.24998 359
22.27009 373
22.29021 385
22.31032 404
22.33044 364
22.35055 345
22.37066 316
22.39078 281
22.41089 254
22.431 255
22.45112 248
22.47123 236
22.49135 253
22.51146 268
22.53157 247
22.55169 264
22.5718 288
22.59191 248
22.61203 292
22.63214 293
22.65225 269
22.67237 284
22.69248 287
22.7126 234
22.73271 239
22.75282 255
22.77294 247
22.79305 233
22.81316 230
22.83328 223
22.85339 251
22.87351 235
22.89362 263
22.91373 255
22.93385 259
22.95396 288
22.97407 259
22.99419 315
23.0143 292
23.03442 350
23.05453 354
23.07464 386
23.09476 392
23.11487 451
23.13498 500
23.1551 569
23.17521 533
23.19532 528
23.21544 515
23.23555 412
23.25567 421
23.27578 348
23.29589 330
23.31601 277
23.33612 269
23.35623 252
23.37635 255
23.39646 265
23.41658 229
23.43669 212
23.4568 280
23.47692 214
23.49703 201
23.51714 228
23.53726 236
23.55737 258
23.57749 244
23.5976 231
23.61771 242
23.63783 220
23.65794 212
23.67805 265
23.69817 262
23.71828 237
23.73839 244
23.75851 251
23.77862 252
23.79874 266
23.81885 297
23.83896 297
23.85908 294
23.87919 340
23.8993 361
23.91942 398
23.93953 451
23.95965 564
23.97976 580
23.99987 602
24.01999 580
24.0401 536
24.06021 425
24.08033 398
24.10044 324
24.12056 306
24.14067 288
24.16078 271
24.1809 275
24.20101 297
24.22112 307
24.24124 312
24.26135 292
24.28146 326
24.30158 352
24.32169 351
24.34181 331
24.36192 346
24.38203 346
24.40215 302
24.42226 272
24.44237 277
24.46249 300
24.4826 285
24.50272 282
24.52283 271
24.54294 305
24.56306 309
24.58317 325
24.60328 335
24.6234 375
24.64351 381
24.66362 384
24.68374 423
24.70385 400
24.72397 418
24.74408 392
24.76419 421
24.78431 430
24.80442 429
24.82453 427
24.84465 416
24.86476 393
24.88488 411
24.90499 414
24.9251 404
24.94522 367
24.96533 417
24.98544 344
25.00556 356
25.02567 345
25.04579 335
25.0659 312
25.08601 328
25.10613 297
25.12624 291
25.14635 289
25.16647 286
25.18658 272
25.20669 274
25.22681 263
25.24692 272
25.26704 277
25.28715 263
25.30726 286
25.32738 317
25.34749 290
25.3676 348
25.38772 365
25.40783 351
25.42795 396
25.44806 439
25.46817 506
25.48829 499
25.5084 546
25.52851 651
25.54863 623
25.56874 620
25.58886 577
25.60897 555
25.62908 619
25.6492 600
25.66931 610
25.68942 573
25.70954 522
25.72965 519
25.74976 477
25.76988 492
25.78999 409
25.81011 405
25.83022 437
25.85033 402
25.87045 423
25.89056 431
25.91067 461
25.93079 426
25.9509 454
25.97102 458
25.99113 424
26.01124 421
26.03136 452
26.05147 465
26.07158 556
26.0917 482
26.11181 528
26.13193 574
26.15204 626
26.17215 676
26.19227 683
26.21238 729
26.23249 838
26.25261 877
26.27272 966
26.29283 1076
26.31295 1117
26.33306 1267
26.35318 1586
26.37329 1742
26.3934 2018
26.41352 2319
26.43363 2864
26.45374 3671
26.47386 4954
26.49397 6842
26.51409 9466
26.5342 12966
26.55431 17454
26.57443 22796
26.59454 27518
26.61465 30464
26.63477 32100
26.65488 29494
26.67499 24218
26.69511 18722
26.71522 13653
26.73534 9281
26.75545 5679
26.77556 3114
26.79568 1984
26.81579 1538
26.8359 1384
26.85602 1271
26.87613 1048
26.89625 1073
26.91636 969
26.93647 1012
26.95659 943
26.9767 978
26.99681 922
27.01693 955
27.03704 979
27.05716 974
27.07727 900
27.09738 908
27.1175 795
27.13761 685
27.15772 617
27.17784 579
27.19795 562
27.21806 521
27.23818 540
27.25829 670
27.27841 709
27.29852 838
27.31863 900
27.33875 1052
27.35886 1207
27.37897 1343
27.39909 1479
27.4192 1440
27.43932 1469
27.45943 1439
27.47954 1358
27.49966 1147
27.51977 976
27.53988 879
27.56 699
27.58011 583
27.60023 468
27.62034 449
27.64045 385
27.66057 338
27.68068 339
27.70079 337
27.72091 336
27.74102 323
27.76113 315
27.78125 355
27.80136 343
27.82148 306
27.84159 325
27.8617 307
27.88182 268
27.90193 314
27.92204 315
27.94216 305
27.96227 298
27.98239 300
28.0025 274
28.02261 288
28.04273 252
28.06284 251
28.08295 316
28.10307 259
28.12318 267
28.1433 266
28.16341 269
28.18352 283
28.20364 268
28.22375 257
28.24386 236
28.26398 248
28.28409 244
28.3042 275
28.32432 272
28.34443 265
28.36455 266
28.38466 251
28.40477 229
28.42489 254
28.445 259
28.46511 235
28.48523 241
28.50534 228
28.52546 239
28.54557 231
28.56568 255
28.5858 232
28.60591 285
28.62602 243
28.64614 255
28.66625 237
28.68636 236
28.70648 221
28.72659 242
28.74671 224
28.76682 240
28.78693 221
28.80705 250
28.82716 217
28.84727 222
28.86739 253
28.8875 184
28.90762 248
28.92773 206
28.94784 230
28.96796 237
28.98807 237
29.00818 232
29.0283 232
29.04841 222
29.06853 265
29.08864 224
29.10875 243
29.12887 230
29.14898 252
29.16909 256
29.18921 239
29.20932 224
29.22943 247
29.24955 237
29.26966 245
29.28978 270
29.30989 308
29.33 292
29.35012 353
29.37023 398
29.39034 414
29.41046 402
29.43057 410
29.45069 432
29.4708 354
29.49091 332
29.51103 305
29.53114 296
29.55125 272
29.57137 240
29.59148 230
29.6116 227
29.63171 259
29.65182 236
29.67194 252
29.69205 205
29.71216 242
29.73228 244
29.75239 218
29.7725 240
29.79262 243
29.81273 230
29.83285 244
29.85296 238
29.87307 245
29.89319 216
29.9133 269
29.93341 272
29.95353 250
29.97364 229
29.99376 273
30.01387 259
30.03398 259
30.0541 284
30.07421 342
30.09432 332
30.11444 362
30.13455 400
30.15467 431
30.17478 466
30.19489 483
30.21501 505
30.23512 455
30.25523 414
30.27535 363
30.29546 354
30.31557 306
30.33569 290
30.3558 270
30.37592 252
30.39603 233
30.41614 275
30.43626 221
30.45637 248
30.47648 250
30.4966 237
30.51671 237
30.53683 211
30.55694 233
30.57705 248
30.59717 271
30.61728 276
30.63739 315
30.65751 350
30.67762 363
30.69773 392
30.71785 385
30.73796 438
30.75808 412
30.77819 371
30.7983 337
30.81842 366
30.83853 372
30.85864 362
30.87876 380
30.89887 331
30.91899 292
30.9391 299
30.95921 245
30.97933 254
30.99944 248
31.01955 219
31.03967 219
31.05978 174
31.0799 208
31.10001 177
31.12012 168
31.14024 180
31.16035 184
31.18046 203
31.20058 192
31.22069 192
31.2408 187
31.26092 223
31.28103 219
31.30115 206
31.32126 196
31.34137 179
31.36149 178
31.3816 184
31.40171 217
31.42183 191
31.44194 197
31.46206 190
31.48217 175
31.50228 184
31.5224 163
31.54251 189
31.56262 188
31.58274 188
31.60285 188
31.62297 172
31.64308 159
31.66319 179
31.68331 161
31.70342 183
31.72353 176
31.74365 156
31.76376 178
31.78387 165
31.80399 188
31.8241 194
31.84422 207
31.86433 184
31.88444 193
31.90456 186
31.92467 184
31.94478 204
31.9649 166
31.98501 189
32.00513 196
32.02524 215
32.04535 222
32.06547 230
32.08558 251
32.10569 222
32.12581 221
32.14592 226
32.16604 216
32.18615 197
32.20626 173
32.22638 200
32.24649 216
32.2666 204
32.28672 202
32.30683 187
32.32694 231
32.34706 199
32.36717 230
32.38729 226
32.4074 269
32.42751 288
32.44763 257
32.46774 296
32.48785 239
32.50797 233
32.52808 237
32.5482 208
32.56831 201
32.58842 176
32.60854 229
32.62865 191
32.64876 150
32.66888 177
32.68899 181
32.7091 163
32.72922 166
32.74933 175
32.76945 168
32.78956 174
32.80967 154
32.82979 168
32.8499 180
32.87001 201
32.89013 184
32.91024 179
32.93036 162
32.95047 167
32.97058 166
32.9907 152
33.01081 172
33.03092 166
33.05104 160
33.07115 174
33.09127 187
33.11138 194
33.13149 180
33.15161 158
33.17172 162
33.19183 164
33.21195 155
33.23206 163
33.25217 174
33.27229 165
33.2924 174
33.31252 143
33.33263 185
33.35274 161
33.37286 164
33.39297 169
33.41308 161
33.4332 188
33.45331 172
33.47343 175
33.49354 171
33.51365 165
33.53377 160
33.55388 158
33.57399 204
33.59411 189
33.61422 199
33.63434 168
33.65445 173
33.67456 184
33.69468 177
33.71479 160
33.7349 159
33.75502 156
33.77513 158
33.79524 171
33.81536 211
33.83547 185
33.85559 140
33.8757 183
33.89581 187
33.91593 167
33.93604 169
33.95615 157
33.97627 150
33.99638 206
34.0165 194
34.03661 231
34.05672 236
34.07684 288
34.09695 280
34.11706 260
34.13718 333
34.15729 291
34.17741 305
34.19752 325
34.21763 313
34.23775 307
34.25786 280
34.27797 236
34.29809 248
34.3182 252
34.33831 219
34.35843 205
34.37854 196
34.39866 191
34.41877 185
34.43888 199
34.459 204
34.47911 199
34.49922 175
34.51934 215
34.53945 203
34.55957 233
34.57968 267
34.59979 265
34.61991 274
34.64002 271
34.66013 249
34.68025 270
34.70036 269
34.72047 284
34.74059 279
34.7607 249
34.78082 263
34.80093 264
34.82104 281
34.84116 304
34.86127 297
34.88138 298
34.9015 280
34.92161 345
34.94173 299
34.96184 314
34.98195 300
35.00207 277
35.02218 280
35.04229 303
35.06241 314
35.08252 295
35.10264 295
35.12275 251
35.14286 284
35.16298 292
35.18309 297
35.2032 259
35.22332 254
35.24343 238
35.26354 275
35.28366 267
35.30377 297
35.32389 268
35.344 269
35.36411 274
35.38423 285
35.40434 267
35.42445 276
35.44457 298
35.46468 338
35.4848 364
35.50491 375
35.52502 397
35.54514 356
35.56525 355
35.58536 369
35.60548 306
35.62559 321
35.64571 244
35.66582 299
35.68593 282
35.70605 294
35.72616 271
35.74627 279
35.76639 248
35.7865 281
35.80661 278
35.82673 261
35.84684 269
35.86696 322
35.88707 258
35.90718 273
35.9273 279
35.94741 276
35.96752 263
35.98764 235
36.00775 269
36.02787 242
36.04798 234
36.06809 232
36.08821 251
36.10832 244
36.12843 253
36.14855 265
36.16866 236
36.18878 230
36.20889 253
36.229 274
36.24912 264
36.26923 304
36.28934 314
36.30946 354
36.32957 409
36.34968 518
36.3698 583
36.38991 732
36.41003 925
36.43014 1216
36.45025 1404
36.47037 1701
36.49048 2028
36.51059 2186
36.53071 2300
36.55082 2042
36.57094 1739
36.59105 1461
36.61116 1188
36.63128 1052
36.65139 877
36.6715 653
36.69162 461
36.71173 377
36.73184 313
36.75196 277
36.77207 302
36.79219 284
36.8123 277
36.83241 318
36.85253 293
36.87264 320
36.89275 319
36.91287 309
36.93298 323
36.9531 303
36.97321 309
36.99332 289
37.01344 273
37.03355 255
37.05366 272
37.07378 276
37.09389 203
37.11401 231
37.13412 215
37.15423 213
37.17435 230
37.19446 245
37.21457 207
37.23469 198
37.2548 215
37.27491 193
37.29503 214
37.31514 205
37.33526 224
37.35537 199
37.37548 222
37.3956 207
37.41571 232
37.43582 194
37.45594 229
37.47605 200
37.49617 184
37.51628 201
37.53639 217
37.55651 217
37.57662 221
37.59673 236
37.61685 229
37.63696 241
37.65708 246
37.67719 216
37.6973 252
37.71742 226
37.73753 234
37.75764 223
37.77776 214
37.79787 200
37.81798 196
37.8381 187
37.85821 202
37.87833 194
37.89844 219
37.91855 194
37.93867 197
37.95878 187
37.97889 189
37.99901 238
38.01912 199
38.03924 203
38.05935 216
38.07946 236
38.09958 222
38.11969 241
38.1398 227
38.15992 217
38.18003 225
38.20015 240
38.22026 242
38.24037 265
38.26049 237
38.2806 250
38.30071 228
38.32083 267
38.34094 265
38.36105 283
38.38117 263
38.40128 288
38.4214 313
38.44151 278
38.46162 296
38.48174 289
38.50185 341
38.52196 311
38.54208 308
38.56219 309
38.58231 302
38.60242 292
38.62253 292
38.64265 281
38.66276 256
38.68287 231
38.70299 273
38.7231 252
38.74321 229
38.76333 211
38.78344 218
38.80356 222
38.82367 228
38.84378 208
38.8639 251
38.88401 251
38.90412 211
38.92424 234
38.94435 229
38.96447 267
38.98458 230
39.00469 259
39.02481 295
39.04492 262
39.06503 317
39.08515 255
39.10526 328
39.12538 285
39.14549 259
39.1656 338
39.18572 348
39.20583 369
39.22594 396
39.24606 450
39.26617 523
39.28628 590
39.3064 667
39.32651 829
39.34663 1065
39.36674 1330
39.38685 1506
39.40697 1793
39.42708 2087
39.44719 2117
39.46731 1986
39.48742 1733
39.50754 1447
39.52765 1224
39.54776 1075
39.56788 930
39.58799 764
39.6081 492
39.62822 402
39.64833 304
39.66845 303
39.68856 255
39.70867 266
39.72879 237
39.7489 203
39.76901 233
39.78913 209
39.80924 210
39.82935 197
39.84947 208
39.86958 215
39.8897 203
39.90981 210
39.92992 251
39.95004 214
39.97015 244
39.99026 246
40.01038 244
40.03049 243
40.05061 261
40.07072 319
40.09083 338
40.11095 377
40.13106 461
40.15117 524
40.17129 607
40.1914 721
40.21152 839
40.23163 977
40.25174 1098
40.27186 1171
40.29197 1047
40.31208 977
40.3322 787
40.35231 671
40.37242 656
40.39254 576
40.41265 506
40.43277 373
40.45288 276
40.47299 234
40.49311 242
40.51322 221
40.53333 201
40.55345 206
40.57356 194
40.59368 217
40.61379 195
40.6339 178
40.65402 198
40.67413 214
40.69424 160
40.71436 190
40.73447 184
40.75458 178
40.7747 179
40.79481 193
40.81493 194
40.83504 184
40.85515 194
40.87527 194
40.89538 189
40.91549 194
40.93561 195
40.95572 197
40.97584 179
40.99595 171
41.01606 179
41.03618 176
41.05629 206
41.0764 191
41.09652 198
41.11663 175
41.13675 168
41.15686 181
41.17697 171
41.19709 171
41.2172 197
41.23731 157
41.25743 178
41.27754 187
41.29765 193
41.31777 172
41.33788 190
41.358 191
41.37811 192
41.39822 198
41.41834 202
41.43845 218
41.45856 204
41.47868 210
41.49879 241
41.51891 222
41.53902 201
41.55913 242
41.57925 224
41.59936 243
41.61947 252
41.63959 290
41.6597 257
41.67982 318
41.69993 326
41.72004 392
41.74016 395
41.76027 367
41.78038 408
41.8005 371
41.82061 331
41.84072 347
41.86084 308
41.88095 314
41.90107 296
41.92118 278
41.94129 255
41.96141 232
41.98152 227
42.00163 225
42.02175 174
42.04186 219
42.06198 187
42.08209 215
42.1022 231
42.12232 225
42.14243 220
42.16254 253
42.18266 262
42.20277 294
42.22289 313
42.243 393
42.26311 435
42.28323 504
42.30334 621
42.32345 740
42.34357 950
42.36368 1117
42.38379 1323
42.40391 1478
42.42402 1509
42.44414 1481
42.46425 1369
42.48436 1165
42.50448 924
42.52459 903
42.5447 772
42.56482 678
42.58493 569
42.60505 432
42.62516 319
42.64527 270
42.66539 257
42.6855 266
42.70561 243
42.72573 256
42.74584 247
42.76595 223
42.78607 222
42.80618 223
42.8263 196
42.84641 196
42.86652 211
42.88664 178
42.90675 162
42.92686 190
42.94698 194
42.96709 178
42.98721 157
43.00732 162
43.02743 157
43.04755 161
43.06766 171
43.08777 184
43.10789 180
43.128 175
43.14812 179
43.16823 203
43.18834 202
43.20846 179
43.22857 194
43.24868 179
43.2688 169
43.28891 185
43.30902 169
43.32914 181
43.34925 196
43.36937 190
43.38948 169
43.40959 175
43.42971 169
43.44982 178
43.46993 188
43.49005 201
43.51016 174
43.53028 178
43.55039 177
43.5705 183
43.59062 179
43.61073 178
43.63084 174
43.65096 200
43.67107 155
43.69119 158
43.7113 157
43.73141 156
43.75153 159
43.77164 156
43.79175 165
43.81187 145
43.83198 184
43.85209 163
43.87221 157
43.89232 167
43.91244 172
43.93255 195
43.95266 153
43.97278 171
43.99289 143
44.013 192
44.03312 183
44.05323 165
44.07335 185
44.09346 165
44.11357 161
44.13369 179
44.1538 183
44.17391 197
44.19403 173
44.21414 179
44.23426 201
44.25437 179
44.27448 181
44.2946 181
44.31471 162
44.33482 201
44.35494 197
44.37505 155
44.39516 187
44.41528 189
44.43539 165
44.45551 167
44.47562 180
44.49573 171
44.51585 176
44.53596 160
44.55607 190
44.57619 185
44.5963 180
44.61642 181
44.63653 168
44.65664 179
44.67676 177
44.69687 180
44.71698 156
44.7371 167
44.75721 175
44.77732 157
44.79744 127
44.81755 178
44.83767 191
44.85778 168
44.87789 156
44.89801 184
44.91812 169
44.93823 168
44.95835 190
44.97846 171
44.99858 177
45.01869 162
45.0388 183
45.05892 165
45.07903 186
45.09914 178
45.11926 186
45.13937 169
45.15949 177
45.1796 184
45.19971 189
45.21983 189
45.23994 166
45.26005 205
45.28017 183
45.30028 201
45.32039 213
45.34051 211
45.36062 205
45.38074 233
45.40085 244
45.42096 231
45.44108 239
45.46119 265
45.4813 247
45.50142 267
45.52153 314
45.54165 332
45.56176 346
45.58187 357
45.60199 404
45.6221 486
45.64221 516
45.66233 625
45.68244 770
45.70256 916
45.72267 957
45.74278 1032
45.7629 1080
45.78301 1001
45.80312 991
45.82324 847
45.84335 778
45.86346 612
45.88358 595
45.90369 564
45.92381 456
45.94392 411
45.96403 319
45.98415 254
46.00426 227
46.02437 209
46.04449 185
46.0646 211
46.08472 194
46.10483 192
46.12494 189
46.14506 179
46.16517 225
46.18528 209
46.2054 202
46.22551 227
46.24563 203
46.26574 210
46.28585 197
46.30597 211
46.32608 213
46.34619 199
46.36631 174
46.38642 192
46.40653 169
46.42665 168
46.44676 159
46.46688 159
46.48699 171
46.5071 166
46.52722 175
46.54733 174
46.56744 162
46.58756 165
46.60767 163
46.62779 176
46.6479 136
46.66801 189
46.68813 157
46.70824 165
46.72835 182
46.74847 156
46.76858 156
46.78869 165
46.80881 152
46.82892 170
46.84904 159
46.86915 158
46.88926 179
46.90938 170
46.92949 182
46.9496 167
46.96972 200
46.98983 192
47.00995 190
47.03006 211
47.05017 221
47.07029 224
47.0904 220
47.11051 224
47.13063 202
47.15074 208
47.17086 193
47.19097 187
47.21108 191
47.2312 195
47.25131 203
47.27142 176
47.29154 170
47.31165 221
47.33176 185
47.35188 177
47.37199 181
47.39211 187
47.41222 204
47.43233 187
47.45245 195
47.47256 184
47.49267 184
47.51279 197
47.5329 162
47.55302 154
47.57313 153
47.59324 191
47.61336 148
47.63347 178
47.65358 150
47.6737 148
47.69381 142
47.71393 154
47.73404 151
47.75415 145
47.77427 138
47.79438 153
47.81449 160
47.83461 167
47.85472 161
47.87483 157
47.89495 159
47.91506 182
47.93518 155
47.95529 169
47.9754 164
47.99552 169
48.01563 162
48.03574 184
48.05586 167
48.07597 155
48.09609 156
48.1162 150
48.13631 158
48.15643 147
48.17654 152
48.19665 150
48.21677 156
48.23688 148
48.257 172
48.27711 136
48.29722 148
48.31734 163
48.33745 172
48.35756 181
48.37768 154
48.39779 166
48.4179 166
48.43802 147
48.45813 174
48.47825 152
48.49836 168
48.51847 171
48.53859 178
48.5587 134
48.57881 196
48.59893 180
48.61904 167
48.63916 169
48.65927 172
48.67938 183
48.6995 193
48.71961 224
48.73972 213
48.75984 194
48.77995 208
48.80006 203
48.82018 195
48.84029 195
48.86041 236
48.88052 216
48.90063 195
48.92075 210
48.94086 222
48.96097 231
48.98109 217
49.0012 234
49.02132 197
49.04143 212
49.06154 207
49.08166 206
49.10177 206
49.12188 229
49.142 171
49.16211 187
49.18223 180
49.20234 195
49.22245 203
49.24257 166
49.26268 197
49.28279 153
49.30291 155
49.32302 180
49.34313 175
49.36325 171
49.38336 172
49.40348 184
49.42359 180
49.4437 188
49.46382 166
49.48393 169
49.50404 169
49.52416 185
49.54427 196
49.56439 191
49.5845 185
49.60461 201
49.62473 197
49.64484 227
49.66495 230
49.68507 240
49.70518 237
49.7253 254
49.74541 282
49.76552 293
49.78564 330
49.80575 368
49.82586 374
49.84598 409
49.86609 426
49.8862 524
49.90632 623
49.92643 711
49.94655 877
49.96666 1136
49.98677 1380
50.00689 1645
50.027 2061
50.04711 2490
50.06723 2758
50.08734 3237
50.10746 3334
50.12757 3193
50.14768 2948
50.1678 2421
50.18791 1949
50.20802 1768
50.22814 1688
50.24825 1658
50.26837 1458
50.28848 1116
50.30859 821
50.32871 600
50.34882 465
50.36893 373
50.38905 411
50.40916 426
50.42927 412
50.44939 436
50.4695 464
50.48962 443
50.50973 421
50.52984 427
50.54996 421
50.57007 409
50.59018 385
50.6103 389
50.63041 354
50.65053 319
50.67064 299
50.69075 290
50.71087 290
50.73098 278
50.75109 256
50.77121 253
50.79132 260
50.81143 256
50.83155 249
50.85166 208
50.87178 240
50.89189 218
50.912 218
50.93212 228
50.95223 260
50.97234 239
50.99246 228
51.01257 207
51.03269 214
51.0528 216
51.07291 218
51.09303 191
51.11314 153
51.13325 196
51.15337 177
51.17348 174
51.1936 184
51.21371 169
51.23382 178
51.25394 164
51.27405 156
51.29416 135
51.31428 155
51.33439 143
51.3545 173
51.37462 159
51.39473 133
51.41485 173
51.43496 169
51.45507 160
51.47519 156
51.4953 137
51.51541 168
51.53553 153
51.55564 162
51.57576 174
51.59587 174
51.61598 152
51.6361 162
51.65621 128
51.67632 136
51.69644 145
51.71655 162
51.73667 149
51.75678 157
51.77689 140
51.79701 159
51.81712 120
51.83723 131
51.85735 157
51.87746 137
51.89757 135
51.91769 150
51.9378 176
51.95792 147
51.97803 143
51.99814 137
52.01826 153
52.03837 153
52.05848 134
52.0786 142
52.09871 150
52.11883 140
52.13894 131
52.15905 166
52.17917 147
52.19928 145
52.21939 154
52.23951 151
52.25962 148
52.27974 145
52.29985 156
52.31996 145
52.34008 133
52.36019 169
52.3803 163
52.40042 138
52.42053 152
52.44064 165
52.46076 153
52.48087 143
52.50099 164
52.5211 159
52.54121 172
52.56133 150
52.58144 160
52.60155 170
52.62167 165
52.64178 160
52.6619 163
52.68201 137
52.70212 174
52.72224 164
52.74235 159
52.76246 163
52.78258 148
52.80269 161
52.8228 151
52.84292 154
52.86303 173
52.88315 157
52.90326 178
52.92337 153
52.94349 142
52.9636 165
52.98371 139
53.00383 164
53.02394 138
53.04406 145
53.06417 155
53.08428 156
53.1044 150
53.12451 148
53.14462 153
53.16474 144
53.18485 166
53.20497 165
53.22508 151
53.24519 159
53.26531 169
53.28542 147
53.30553 147
53.32565 163
53.34576 183
53.36587 155
53.38599 165
53.4061 163
53.42622 164
53.44633 155
53.46644 168
53.48656 165
53.50667 168
53.52678 154
53.5469 163
53.56701 157
53.58713 189
53.60724 159
53.62735 163
53.64747 175
53.66758 180
53.68769 158
53.70781 166
53.72792 172
53.74804 177
53.76815 153
53.78826 178
53.80838 165
53.82849 161
53.8486 165
53.86872 191
53.88883 163
53.90894 186
53.92906 189
53.94917 185
53.96929 203
53.9894 208
54.00951 172
54.02963 180
54.04974 181
54.06985 172
54.08997 188
54.11008 185
54.1302 172
54.15031 210
54.17042 190
54.19054 194
54.21065 197
54.23076 174
54.25088 189
54.27099 208
54.29111 187
54.31122 191
54.33133 190
54.35145 193
54.37156 216
54.39167 217
54.41179 213
54.4319 210
54.45201 217
54.47213 189
54.49224 201
54.51236 210
54.53247 244
54.55258 223
54.5727 223
54.59281 297
54.61292 323
54.63304 307
54.65315 356
54.67327 413
54.69338 441
54.71349 546
54.73361 630
54.75372 709
54.77383 858
54.79395 913
54.81406 1071
54.83417 1085
54.85429 1088
54.8744 1011
54.89452 872
54.91463 721
54.93474 722
54.95486 717
54.97497 646
54.99508 611
55.0152 576
55.03531 478
55.05543 444
55.07554 329
55.09565 308
55.11577 312
55.13588 314
55.15599 337
55.17611 346
55.19622 399
55.21634 423
55.23645 481
55.25656 567
55.27668 620
55.29679 590
55.3169 555
55.33702 491
55.35713 432
55.37724 413
55.39736 385
55.41747 396
55.43759 408
55.4577 416
55.47781 340
55.49793 310
55.51804 266
55.53815 259
55.55827 197
55.57838 193
55.5985 215
55.61861 224
55.63872 205
55.65884 182
55.67895 183
55.69906 202
55.71918 169
55.73929 179
55.75941 191
55.77952 164
55.79963 178
55.81975 169
55.83986 169
55.85997 165
55.88009 158
55.9002 186
55.92031 166
55.94043 163
55.96054 180
55.98066 171
56.00077 161
56.02088 171
56.041 187
56.06111 181
56.08122 178
56.10134 166
56.12145 154
56.14157 150
56.16168 144
56.18179 136
56.20191 169
56.22202 181
56.24213 141
56.26225 147
56.28236 158
56.30248 172
56.32259 164
56.3427 148
56.36282 155
56.38293 155
56.40304 162
56.42316 173
56.44327 157
56.46338 148
56.4835 163
56.50361 141
56.52373 166
56.54384 151
56.56395 178
56.58407 167
56.60418 165
56.62429 192
56.64441 178
56.66452 173
56.68464 199
56.70475 159
56.72486 205
56.74498 182
56.76509 196
56.7852 186
56.80532 166
56.82543 161
56.84554 186
56.86566 170
56.88577 158
56.90589 167
56.926 158
56.94611 188
56.96623 179
56.98634 139
57.00645 171
57.02657 173
57.04668 174
57.0668 170
57.08691 173
57.10702 213
57.12714 190
57.14725 201
57.16736 209
57.18748 208
57.20759 220
57.22771 203
57.24782 207
57.26793 196
57.28805 196
57.30816 194
57.32827 196
57.34839 186
57.3685 190
57.38861 200
57.40873 189
57.42884 180
57.44896 175
57.46907 159
57.48918 163
57.5093 179
57.52941 165
57.54952 158
57.56964 164
57.58975 156
57.60987 137
57.62998 147
57.65009 140
57.67021 143
57.69032 144
57.71043 169
57.73055 170
57.75066 164
57.77078 152
57.79089 159
57.811 162
57.83112 165
57.85123 143
57.87134 157
57.89146 145
57.91157 140
57.93168 141
57.9518 152
57.97191 155
57.99203 154
58.01214 142
58.03225 167
58.05237 178
58.07248 157
58.09259 164
58.11271 165
58.13282 153
58.15294 189
58.17305 167
58.19316 174
58.21328 163
58.23339 170
58.2535 174
58.27362 162
58.29373 169
58.31385 156
58.33396 174
58.35407 177
58.37419 168
58.3943 155
58.41441 181
58.43453 196
58.45464 172
58.47475 174
58.49487 178
58.51498 183
58.5351 183
58.55521 194
58.57532 187
58.59544 171
58.61555 169
58.63566 171
58.65578 183
58.67589 173
58.69601 180
58.71612 163
58.73623 143
58.75635 167
58.77646 198
58.79657 165
58.81669 179
58.8368 143
58.85691 153
58.87703 150
58.89714 158
58.91726 145
58.93737 182
58.95748 150
58.9776 182
58.99771 121
59.01782 165
59.03794 168
59.05805 163
59.07817 164
59.09828 141
59.11839 153
59.13851 193
59.15862 150
59.17873 146
59.19885 141
59.21896 159
59.23908 131
59.25919 173
59.2793 195
59.29942 169
59.31953 181
59.33964 196
59.35976 203
59.37987 186
59.39998 206
59.4201 203
59.44021 215
59.46033 220
59.48044 217
59.50055 250
59.52067 217
59.54078 218
59.56089 262
59.58101 242
59.60112 251
59.62124 327
59.64135 327
59.66146 373
59.68158 397
59.70169 456
59.7218 520
59.74192 615
59.76203 747
59.78215 867
59.80226 1078
59.82237 1348
59.84249 1492
59.8626 1791
59.88271 2023
59.90283 2228
59.92294 2241
59.94305 2069
59.96317 1769
59.98328 1426
60.0034 1217
60.02351 1156
60.04362 1151
60.06374 1171
60.08385 1174
60.10396 1038
60.12408 826
60.14419 689
60.16431 484
60.18442 382
60.20453 290
60.22465 264
60.24476 278
60.26487 236
60.28499 223
60.3051 212
60.32522 210
60.34533 241
60.36544 200
60.38556 196
60.40567 189
60.42578 211
60.4459 181
60.46601 170
60.48612 173
60.50624 186
60.52635 173
60.54647 171
60.56658 166
60.58669 172
60.60681 165
60.62692 164
60.64703 175
60.66715 177
60.68726 188
60.70738 165
60.72749 171
60.7476 193
60.76772 133
60.78783 168
60.80794 207
60.82806 157
60.84817 165
60.86828 159
60.8884 176
60.90851 160
60.92863 184
60.94874 184
60.96885 167
60.98897 182
61.00908 189
61.02919 191
61.04931 210
61.06942 250
61.08954 200
61.10965 193
61.12976 214
61.14988 204
61.16999 197
61.1901 204
61.21022 196
61.23033 188
61.25045 210
61.27056 172
61.29067 184
61.31079 171
61.3309 156
61.35101 173
61.37113 160
61.39124 150
61.41135 165
61.43147 168
61.45158 140
61.4717 163
61.49181 160
61.51192 147
61.53204 145
61.55215 157
61.57226 143
61.59238 141
61.61249 155
61.63261 151
61.65272 142
61.67283 133
61.69295 152
61.71306 158
61.73317 164
61.75329 164
61.7734 149
61.79352 151
61.81363 158
61.83374 154
61.85386 159
61.87397 146
61.89408 156
61.9142 171
61.93431 181
61.95442 184
61.97454 194
61.99465 216
62.01477 171
62.03488 204
62.05499 199
62.07511 201
62.09522 217
62.11533 204
62.13545 178
62.15556 184
62.17568 238
62.19579 192
62.2159 221
62.23602 231
62.25613 219
62.27624 200
62.29636 187
62.31647 222
62.33659 235
62.3567 211
62.37681 211
62.39693 215
62.41704 239
62.43715 207
62.45727 185
62.47738 214
62.49749 200
62.51761 176
62.53772 171
62.55784 196
62.57795 197
62.59806 184
62.61818 189
62.63829 167
62.6584 176
62.67852 186
62.69863 197
62.71875 183
62.73886 158
62.75897 172
62.77909 187
62.7992 184
62.81931 184
62.83943 202
62.85954 172
62.87965 191
62.89977 175
62.91988 200
62.94 210
62.96011 190
62.98022 167
63.00034 189
63.02045 197
63.04056 199
63.06068 226
63.08079 202
63.10091 201
63.12102 224
63.14113 201
63.16125 191
63.18136 193
63.20147 174
63.22159 179
63.2417 202
63.26182 207
63.28193 153
63.30204 171
63.32216 173
63.34227 168
63.36238 155
63.3825 163
63.40261 170
63.42272 162
63.44284 161
63.46295 160
63.48307 160
63.50318 162
63.52329 171
63.54341 172
63.56352 198
63.58363 163
63.60375 185
63.62386 201
63.64398 193
63.66409 224
63.6842 200
63.70432 202
63.72443 214
63.74454 240
63.76466 237
63.78477 272
63.80489 267
63.825 329
63.84511 332
63.86523 332
63.88534 367
63.90545 415
63.92557 466
63.94568 508
63.96579 544
63.98591 569
64.00602 552
64.02614 509
64.04625 496
64.06636 376
64.08648 373
64.10659 355
64.1267 353
64.14682 346
64.16693 345
64.18705 334
64.20716 302
64.22727 262
64.24739 226
64.2675 191
64.28761 184
64.30773 155
64.32784 195
64.34796 161
64.36807 162
64.38818 142
64.4083 168
64.42841 152
64.44852 149
64.46864 149
64.48875 134
64.50886 148
64.52898 132
64.54909 152
64.56921 158
64.58932 157
64.60943 160
64.62955 144
64.64966 123
64.66977 154
64.68989 149
64.71 152
64.73012 152
64.75023 151
64.77034 150
64.79046 155
64.81057 139
64.83068 145
64.8508 163
64.87091 164
64.89102 148
64.91114 193
64.93125 171
64.95137 199
64.97148 150
64.99159 180
65.01171 164
65.03182 184
65.05193 178
65.07205 170
65.09216 171
65.11228 189
65.13239 187
65.1525 182
65.17262 184
65.19273 192
65.21284 186
65.23296 158
65.25307 178
65.27319 180
65.2933 178
65.31341 205
65.33353 179
65.35364 180
65.37375 201
65.39387 164
65.41398 174
65.43409 187
65.45421 193
65.47432 192
65.49444 173
65.51455 198
65.53466 162
65.55478 155
65.57489 149
65.595 167
65.61512 169
65.63523 206
65.65535 208
65.67546 216
65.69557 217
65.71569 255
65.7358 220
65.75591 261
65.77603 229
65.79614 207
65.81626 177
65.83637 225
65.85648 189
65.8766 186
65.89671 187
65.91682 195
65.93694 211
65.95705 204
65.97716 183
65.99728 183
66.01739 149
66.03751 167
66.05762 190
66.07773 169
66.09785 163
66.11796 185
66.13807 178
66.15819 182
66.1783 178
66.19842 175
66.21853 184
66.23864 184
66.25876 186
66.27887 195
66.29898 180
66.3191 177
66.33921 164
66.35933 163
66.37944 177
66.39955 180
66.41967 184
66.43978 183
66.45989 190
66.48001 179
66.50012 164
66.52023 154
66.54035 165
66.56046 172
66.58058 175
66.60069 191
66.6208 164
66.64092 160
66.66103 165
66.68114 162
66.70126 139
66.72137 159
66.74149 165
66.7616 182
66.78171 143
66.80183 159
66.82194 161
66.84205 170
66.86217 167
66.88228 185
66.90239 176
66.92251 163
66.94262 165
66.96274 181
66.98285 194
67.00296 192
67.02308 174
67.04319 186
67.0633 171
67.08342 171
67.10353 176
67.12365 196
67.14376 200
67.16387 190
67.18399 182
67.2041 186
67.22421 216
67.24433 190
67.26444 201
67.28456 199
67.30467 222
67.32478 184
67.3449 231
67.36501 219
67.38512 224
67.40524 248
67.42535 286
67.44546 294
67.46558 345
67.48569 370
67.50581 391
67.52592 492
67.54603 539
67.56615 627
67.58626 690
67.60637 828
67.62649 1005
67.6466 1149
67.66672 1343
67.68683 1352
67.70694 1350
67.72706 1261
67.74717 1151
67.76728 971
67.7874 859
67.80751 780
67.82763 882
67.84774 926
67.86785 930
67.88797 1007
67.90808 1032
67.92819 1020
67.94831 941
67.96842 959
67.98853 1041
68.00865 1108
68.02876 1293
68.04888 1485
68.06899 1628
68.0891 1740
68.10922 1835
68.12933 1724
68.14944 1532
68.16956 1530
68.18967 1420
68.20979 1424
68.2299 1502
68.25001 1623
68.27013 1655
68.29024 1605
68.31035 1477
68.33047 1216
68.35058 1021
68.3707 820
68.39081 739
68.41092 639
68.43104 655
68.45115 585
68.47126 609
68.49138 503
68.51149 466
68.5316 398
68.55172 304
68.57183 262
68.59195 252
68.61206 224
68.63217 214
68.65229 223
68.6724 170
68.69251 203
68.71263 192
68.73274 188
68.75286 195
68.77297 172
68.79308 168
68.8132 191
68.83331 177
68.85342 193
68.87354 183
68.89365 172
68.91376 155
68.93388 171
68.95399 183
68.97411 173
68.99422 173
69.01433 185
69.03445 163
69.05456 159
69.07467 149
69.09479 166
69.1149 157
69.13502 169
69.15513 156
69.17524 157
69.19536 169
69.21547 169
69.23558 143
69.2557 152
69.27581 142
69.29593 138
69.31604 148
69.33615 134
69.35627 116
69.37638 155
69.39649 140
69.41661 164
69.43672 151
69.45683 140
69.47695 149
69.49706 136
69.51718 154
69.53729 152
69.5574 153
69.57752 149
69.59763 151
69.61774 148
69.63786 147
69.65797 145
69.67809 165
69.6982 154
69.71831 137
69.73843 141
69.75854 152
69.77865 166
69.79877 135
69.81888 145
69.839 139
69.85911 132
69.87922 131
69.89934 148
69.91945 152
69.93956 144
69.95968 165
69.97979 143
69.9999 174
70.02002 146
70.04013 167
70.06025 186
70.08036 163
70.10047 146
70.12059 139
70.1407 150
70.16081 142
70.18093 157
70.20104 150
70.22116 159
70.24127 147
70.26138 169
70.2815 158
70.30161 147
70.32172 158
70.34184 133
70.36195 164
70.38207 139
70.40218 147
70.42229 169
70.44241 143
70.46252 133
70.48263 151
70.50275 151
70.52286 154
70.54297 146
70.56309 157
70.5832 141
70.60332 145
70.62343 151
70.64354 121
70.66366 174
70.68377 166
70.70388 170
70.724 157
70.74411 177
70.76423 141
70.78434 157
70.80445 158
70.82457 146
70.84468 173
70.86479 152
70.88491 161
70.90502 163
70.92513 146
70.94525 155
70.96536 146
70.98548 144
71.00559 145
71.0257 136
71.04582 145
71.06593 153
71.08604 129
71.10616 154
71.12627 155
71.14639 130
71.1665 143
71.18661 143
71.20673 144
71.22684 150
71.24695 138
71.26707 154
71.28718 128
71.3073 140
71.32741 152
71.34752 164
71.36764 173
71.38775 165
71.40786 165
71.42798 175
71.44809 160
71.4682 162
71.48832 172
71.50843 170
71.52855 141
71.54866 176
71.56877 177
71.58889 152
71.609 157
71.62911 158
71.64923 160
71.66934 152
71.68946 153
71.70957 158
71.72968 161
71.7498 167
71.76991 147
71.79002 164
71.81014 160
71.83025 145
71.85037 160
71.87048 154
71.89059 144
71.91071 171
71.93082 140
71.95093 155
71.97105 185
71.99116 182
72.01127 159
72.03139 169
72.0515 182
72.07162 158
72.09173 176
72.11184 184
72.13196 189
72.15207 174
72.17218 177
72.1923 144
72.21241 181
72.23253 169
72.25264 179
72.27275 169
72.29287 157
72.31298 166
72.33309 160
72.35321 150
72.37332 169
72.39344 143
72.41355 179
72.43366 173
72.45378 144
72.47389 165
72.494 148
72.51412 153
72.53423 142
72.55434 154
72.57446 166
72.59457 151
72.61469 151
72.6348 162
72.65491 181
72.67503 145
72.69514 180
72.71525 156
72.73537 143
72.75548 160
72.7756 167
72.79571 129
72.81582 160
72.83594 155
72.85605 170
72.87616 179
72.89628 166
72.91639 155
72.9365 180
72.95662 180
72.97673 206
72.99685 187
73.01696 195
73.03707 191
73.05719 215
73.0773 185
73.09741 211
73.11753 214
73.13764 211
73.15776 208
73.17787 271
73.19798 237
73.2181 249
73.23821 290
73.25832 282
73.27844 295
73.29855 355
73.31867 362
73.33878 403
73.35889 449
73.37901 537
73.39912 558
73.41923 535
73.43935 572
73.45946 540
73.47957 453
73.49969 393
73.5198 325
73.53992 336
73.56003 368
73.58014 358
73.60026 376
73.62037 388
73.64048 392
73.6606 353
73.68071 298
73.70083 247
73.72094 225
73.74105 207
73.76117 184
73.78128 174
73.80139 181
73.82151 172
73.84162 173
73.86174 149
73.88185 169
73.90196 148
73.92208 164
73.94219 143
73.9623 143
73.98242 151
74.00253 145
74.02264 135
74.04276 156
74.06287 147
74.08299 155
74.1031 153
74.12321 147
74.14333 144
74.16344 142
74.18355 157
74.20367 141
74.22378 142
74.2439 142
74.26401 136
74.28412 146
74.30424 144
74.32435 161
74.34446 156
74.36458 137
74.38469 161
74.40481 137
74.42492 149
74.44503 156
74.46515 184
74.48526 140
74.50537 152
74.52549 152
74.5456 154
74.56571 163
74.58583 169
74.60594 170
74.62606 138
74.64617 160
74.66628 150
74.6864 166
74.70651 165
74.72662 177
74.74674 145
74.76685 146
74.78697 138
74.80708 160
74.82719 144
74.84731 162
74.86742 150
74.88753 186
74.90765 171
74.92776 175
74.94787 177
74.96799 147
74.9881 149
75.00822 163
