3.00117 16006
3.02128 15534
3.0414 15032
3.06151 14290
3.08162 14314
3.10174 13704
3.12185 13229
3.14197 12861
3.16208 12361
3.18219 12379
3.20231 11454
3.22242 11325
3.24253 10866
3.26265 10410
3.28276 10103
3.30288 9628
3.32299 9484
3.3431 9248
3.36322 8619
3.38333 8729
3.40344 8204
3.42356 7812
3.44367 7480
3.46379 7256
3.4839 7183
3.50401 6639
3.52413 6487
3.54424 6134
3.56435 5826
3.58447 5912
3.60458 5381
3.62469 5185
3.64481 5134
3.66492 4773
3.68504 4588
3.70515 4334
3.72526 4197
3.74538 4070
3.76549 3825
3.7856 3762
3.80572 3506
3.82583 3407
3.84595 3101
3.86606 3099
3.88617 2984
3.90629 2786
3.9264 2674
3.94651 2508
3.96663 2270
3.98674 2282
4.00686 2291
4.02697 1983
4.04708 1982
4.0672 1899
4.08731 1905
4.10742 1810
4.12754 1697
4.14765 1578
4.16776 1545
4.18788 1608
4.20799 1520
4.22811 1433
4.24822 1373
4.26833 1324
4.28845 1323
4.30856 1286
4.32867 1143
4.34879 1152
4.3689 1169
4.38902 1267
4.40913 1186
4.42924 1131
4.44936 1134
4.46947 1025
4.48958 1009
4.5097 1063
4.52981 869
4.54992 899
4.57004 905
4.59015 981
4.61027 856
4.63038 821
4.65049 830
4.67061 731
4.69072 768
4.71083 827
4.73095 639
4.75106 710
4.77118 696
4.79129 672
4.8114 692
4.83152 673
4.85163 614
4.87174 562
4.89186 597
4.91197 622
4.93209 531
4.9522 548
4.97231 529
4.99243 495
5.01254 522
5.03265 429
5.05277 468
5.07288 512
5.09299 481
5.11311 479
5.13322 409
5.15334 405
5.17345 413
5.19356 377
5.21368 419
5.23379 402
5.2539 323
5.27402 361
5.29413 352
5.31425 360
5.33436 310
5.35447 320
5.37459 324
5.3947 269
5.41481 292
5.43493 290
5.45504 272
5.47516 307
5.49527 271
5.51538 287
5.5355 261
5.55561 258
5.57572 239
5.59584 235
5.61595 215
5.63606 275
5.65618 223
5.67629 241
5.69641 209
5.71652 232
5.73663 208
5.75675 218
5.77686 200
5.79697 217
5.81709 184
5.8372 192
5.85732 200
5.87743 211
5.89754 180
5.91766 172
5.93777 163
5.95788 190
5.978 201
5.99811 174
6.01823 163
6.03834 167
6.05845 163
6.07857 182
6.09868 173
6.11879 185
6.13891 162
6.15902 177
6.17913 202
6.19925 163
6.21936 151
6.23948 167
6.25959 148
6.2797 184
6.29982 164
6.31993 149
6.34004 159
6.36016 151
6.38027 154
6.40039 159
6.4205 179
6.44061 168
6.46073 136
6.48084 181
6.50095 157
6.52107 162
6.54118 155
6.56129 158
6.58141 152
6.60152 134
6.62164 143
6.64175 142
6.66186 118
6.68198 163
6.70209 142
6.7222 159
6.74232 153
6.76243 157
6.78255 148
6.80266 169
6.82277 159
6.84289 154
6.863 152
6.88311 141
6.90323 158
6.92334 174
6.94346 150
6.96357 168
6.98368 161
7.0038 144
7.02391 139
7.04402 174
7.06414 159
7.08425 167
7.10436 159
7.12448 153
7.14459 180
7.16471 175
7.18482 176
7.20493 159
7.22505 170
7.24516 147
7.26527 166
7.28539 168
7.3055 146
7.32562 143
7.34573 176
7.36584 142
7.38596 188
7.40607 184
7.42618 183
7.4463 172
7.46641 183
7.48653 140
7.50664 165
7.52675 193
7.54687 151
7.56698 188
7.58709 193
7.60721 169
7.62732 183
7.64743 161
7.66755 154
7.68766 156
7.70778 123
7.72789 164
7.748 165
7.76812 168
7.78823 175
7.80834 154
7.82846 184
7.84857 183
7.86869 187
7.8888 175
7.90891 183
7.92903 183
7.94914 170
7.96925 170
7.98937 179
8.00948 159
8.0296 165
8.04971 183
8.06982 193
8.08994 167
8.11005 174
8.13016 170
8.15028 150
8.17039 185
8.1905 152
8.21062 172
8.23073 159
8.25085 206
8.27096 193
8.29107 162
8.31119 196
8.3313 193
8.35141 186
8.37153 198
8.39164 200
8.41176 193
8.43187 184
8.45198 174
8.4721 202
8.49221 161
8.51232 184
8.53244 170
8.55255 194
8.57266 194
8.59278 180
8.61289 196
8.63301 183
8.65312 175
8.67323 204
8.69335 201
8.71346 190
8.73357 214
8.75369 190
8.7738 176
8.79392 205
8.81403 173
8.83414 190
8.85426 205
8.87437 179
8.89448 220
8.9146 202
8.93471 206
8.95483 201
8.97494 222
8.99505 205
9.01517 215
9.03528 213
9.05539 201
9.07551 219
9.09562 177
9.11573 157
9.13585 225
9.15596 196
9.17608 206
9.19619 189
9.2163 209
9.23642 198
9.25653 208
9.27664 171
9.29676 186
9.31687 205
9.33699 184
9.3571 207
9.37721 212
9.39733 211
9.41744 187
9.43755 196
9.45767 217
9.47778 191
9.4979 197
9.51801 188
9.53812 217
9.55824 192
9.57835 185
9.59846 199
9.61858 207
9.63869 212
9.6588 185
9.67892 211
9.69903 231
9.71915 197
9.73926 219
9.75937 185
9.77949 197
9.7996 196
9.81971 195
9.83983 194
9.85994 200
9.88006 207
9.90017 203
9.92028 211
9.9404 194
9.96051 213
9.98062 231
10.00074 202
10.02085 205
10.04097 185
10.06108 201
10.08119 187
10.10131 176
10.12142 154
10.14153 206
10.16165 207
10.18176 188
10.20187 187
10.22199 188
10.2421 189
10.26222 222
10.28233 201
10.30244 212
10.32256 208
10.34267 225
10.36278 173
10.3829 197
10.40301 193
10.42313 227
10.44324 206
10.46335 220
10.48347 227
10.50358 225
10.52369 211
10.54381 222
10.56392 216
10.58403 197
10.60415 199
10.62426 206
10.64438 205
10.66449 195
10.6846 196
10.70472 174
10.72483 195
10.74494 211
10.76506 222
10.78517 201
10.80529 194
10.8254 227
10.84551 186
10.86563 204
10.88574 219
10.90585 204
10.92597 210
10.94608 214
10.9662 224
10.98631 216
11.00642 221
11.02654 198
11.04665 211
11.06676 201
11.08688 188
11.10699 218
11.1271 174
11.14722 203
11.16733 195
11.18745 192
11.20756 203
11.22767 182
11.24779 205
11.2679 202
11.28801 209
11.30813 220
11.32824 211
11.34836 200
11.36847 233
11.38858 198
11.4087 196
11.42881 173
11.44892 169
11.46904 184
11.48915 202
11.50927 241
11.52938 213
11.54949 223
11.56961 216
11.58972 219
11.60983 210
11.62995 190
11.65006 218
11.67017 175
11.69029 178
11.7104 194
11.73052 182
11.75063 207
11.77074 200
11.79086 226
11.81097 199
11.83108 213
11.8512 202
11.87131 207
11.89143 190
11.91154 232
11.93165 211
11.95177 205
11.97188 239
11.99199 230
12.01211 224
12.03222 188
12.05234 210
12.07245 188
12.09256 210
12.11268 205
12.13279 207
12.1529 224
12.17302 228
12.19313 215
12.21324 224
12.23336 208
12.25347 211
12.27359 170
12.2937 225
12.31381 205
12.33393 217
12.35404 200
12.37415 212
12.39427 220
12.41438 214
12.4345 199
12.45461 216
12.47472 200
12.49484 221
12.51495 212
12.53506 213
12.55518 223
12.57529 208
12.5954 172
12.61552 175
12.63563 187
12.65575 194
12.67586 189
12.69597 183
12.71609 193
12.7362 200
12.75631 192
12.77643 179
12.79654 222
12.81666 201
12.83677 190
12.85688 169
12.877 188
12.89711 209
12.91722 172
12.93734 181
12.95745 155
12.97757 184
12.99768 170
13.01779 190
13.03791 177
13.05802 182
13.07813 228
13.09825 199
13.11836 188
13.13847 184
13.15859 172
13.1787 185
13.19882 186
13.21893 169
13.23904 211
13.25916 177
13.27927 186
13.29938 199
13.3195 187
13.33961 190
13.35973 198
13.37984 207
13.39995 192
13.42007 170
13.44018 182
13.46029 179
13.48041 191
13.50052 178
13.52064 179
13.54075 187
13.56086 215
13.58098 180
13.60109 209
13.6212 184
13.64132 191
13.66143 180
13.68154 200
13.70166 181
13.72177 213
13.74189 208
13.762 231
13.78211 226
13.80223 259
13.82234 252
13.84245 308
13.86257 249
13.88268 227
13.9028 201
13.92291 205
13.94302 201
13.96314 210
13.98325 191
14.00336 194
14.02348 165
14.04359 196
14.06371 192
14.08382 176
14.10393 170
14.12405 179
14.14416 161
14.16427 169
14.18439 185
14.2045 159
14.22461 185
14.24473 186
14.26484 176
14.28496 171
14.30507 155
14.32518 154
14.3453 172
14.36541 170
14.38552 170
14.40564 183
14.42575 171
14.44587 179
14.46598 170
14.48609 171
14.50621 180
14.52632 166
14.54643 168
14.56655 184
14.58666 183
14.60677 185
14.62689 178
14.647 163
14.66712 172
14.68723 161
14.70734 156
14.72746 177
14.74757 144
14.76768 185
14.7878 176
14.80791 172
14.82803 157
14.84814 187
14.86825 154
14.88837 152
14.90848 168
14.92859 177
14.94871 176
14.96882 171
14.98894 179
15.00905 186
15.02916 175
15.04928 208
15.06939 207
15.0895 176
15.10962 196
15.12973 207
15.14984 163
15.16996 154
15.19007 161
15.21019 152
15.2303 169
15.25041 173
15.27053 176
15.29064 152
15.31075 176
15.33087 164
15.35098 163
15.3711 146
15.39121 134
15.41132 154
15.43144 174
15.45155 173
15.47166 139
15.49178 167
15.51189 146
15.53201 168
15.55212 154
15.57223 147
15.59235 158
15.61246 187
15.63257 158
15.65269 185
15.6728 179
15.69291 171
15.71303 169
15.73314 175
15.75326 171
15.77337 159
15.79348 166
15.8136 152
15.83371 167
15.85382 183
15.87394 145
15.89405 145
15.91417 149
15.93428 140
15.95439 167
15.97451 153
15.99462 160
16.01473 153
16.03485 161
16.05496 142
16.07508 185
16.09519 164
16.1153 138
16.13542 134
16.15553 177
16.17564 146
16.19576 170
16.21587 132
16.23598 150
16.2561 150
16.27621 176
16.29633 168
16.31644 164
16.33655 151
16.35667 158
16.37678 153
16.39689 147
16.41701 156
16.43712 126
16.45724 149
16.47735 156
16.49746 125
16.51758 166
16.53769 157
16.5578 170
16.57792 167
16.59803 141
16.61814 172
16.63826 134
16.65837 150
16.67849 159
16.6986 147
16.71871 133
16.73883 148
16.75894 159
16.77905 154
16.79917 157
16.81928 134
16.8394 158
16.85951 140
16.87962 142
16.89974 154
16.91985 142
16.93996 137
16.96008 152
16.98019 164
17.00031 123
17.02042 163
17.04053 154
17.06065 131
17.08076 164
17.10087 130
17.12099 144
17.1411 146
17.16121 158
17.18133 126
17.20144 139
17.22156 156
17.24167 145
17.26178 159
17.2819 149
17.30201 139
17.32212 141
17.34224 146
17.36235 151
17.38247 144
17.40258 150
17.42269 167
17.44281 149
17.46292 142
17.48303 140
17.50315 161
17.52326 141
17.54338 149
17.56349 156
17.5836 142
17.60372 124
17.62383 177
17.64394 148
17.66406 132
17.68417 135
17.70428 139
17.7244 148
17.74451 139
17.76463 137
17.78474 138
17.80485 161
17.82497 142
17.84508 137
17.86519 143
17.88531 151
17.90542 152
17.92554 138
17.94565 133
17.96576 165
17.98588 141
18.00599 152
18.0261 153
18.04622 131
18.06633 140
18.08645 157
18.10656 144
18.12667 163
18.14679 122
18.1669 144
18.18701 140
18.20713 145
18.22724 143
18.24735 143
18.26747 144
18.28758 143
18.3077 155
18.32781 143
18.34792 137
18.36804 137
18.38815 137
18.40826 145
18.42838 131
18.44849 140
18.46861 155
18.48872 144
18.50883 145
18.52895 150
18.54906 121
18.56917 156
18.58929 153
18.6094 146
18.62951 159
18.64963 162
18.66974 175
18.68986 160
18.70997 171
18.73008 153
18.7502 159
18.77031 168
18.79042 163
18.81054 177
18.83065 176
18.85077 184
18.87088 135
18.89099 168
18.91111 149
18.93122 163
18.95133 172
18.97145 165
18.99156 153
19.01168 155
19.03179 155
19.0519 130
19.07202 137
19.09213 147
19.11224 161
19.13236 162
19.15247 154
19.17258 151
19.1927 146
19.21281 173
19.23293 164
19.25304 144
19.27315 173
19.29327 151
19.31338 160
19.33349 144
19.35361 161
19.37372 165
19.39384 133
19.41395 165
19.43406 162
19.45418 171
19.47429 144
19.4944 179
19.51452 154
19.53463 155
19.55475 150
19.57486 155
19.59497 178
19.61509 148
19.6352 161
19.65531 174
19.67543 182
19.69554 163
19.71565 162
19.73577 164
19.75588 174
19.776 158
19.79611 190
19.81622 171
19.83634 181
19.85645 183
19.87656 209
19.89668 184
19.91679 189
19.93691 209
19.95702 220
19.97713 215
19.99725 164
20.01736 194
20.03747 178
20.05759 197
20.0777 212
20.09782 218
20.11793 224
20.13804 229
20.15816 228
20.17827 199
20.19838 234
20.2185 212
20.23861 202
20.25872 229
20.27884 226
20.29895 232
20.31907 244
20.33918 258
20.35929 248
20.37941 239
20.39952 263
20.41963 239
20.43975 318
20.45986 275
20.47998 302
20.50009 298
20.5202 321
20.54032 332
20.56043 371
20.58054 397
20.60066 395
20.62077 485
20.64088 540
20.661 685
20.68111 904
20.70123 1122
20.72134 1709
20.74145 2374
20.76157 3264
20.78168 4462
20.80179 5787
20.82191 6882
20.84202 7377
20.86214 7102
20.88225 5857
20.90236 4151
20.92248 2812
20.94259 1717
20.9627 963
20.98282 673
21.00293 593
21.02305 512
21.04316 506
21.06327 461
21.08339 382
21.1035 355
21.12361 338
21.14373 321
21.16384 302
21.18395 279
21.20407 257
21.22418 283
21.2443 242
21.26441 246
21.28452 236
21.30464 248
21.32475 210
21.34486 236
21.36498 254
21.38509 220
21.40521 233
21.42532 191
21.44543 182
21.46555 200
21.48566 246
21.50577 250
21.52589 196
21.546 215
21.56612 167
21.58623 200
21.60634 195
21.62646 205
21.64657 211
21.66668 210
21.6868 193
21.70691 221
21.72702 210
21.74714 210
21.76725 241
21.78737 239
21.80748 228
21.82759 271
21.84771 298
21.86782 346
21.88793 415
21.90805 461
21.92816 527
21.94828 599
21.96839 669
21.9885 637
22.00862 599
22.02873 487
22.04884 394
22.06896 332
22.08907 264
22.10919 215
22.1293 234
22.14941 216
22.16953 222
22.18964 176
22.20975 205
22.22987 230
22.24998 198
22.27009 216
22.29021 182
22.31032 188
22.33044 228
22.35055 199
22.37066 213
22.39078 177
22.41089 193
22.431 177
22.45112 188
22.47123 193
22.49135 203
22.51146 208
22.53157 174
22.55169 193
22.5718 194
22.59191 175
22.61203 209
22.63214 214
22.65225 195
22.67237 194
22.69248 185
22.7126 201
22.73271 198
22.75282 194
22.77294 197
22.79305 211
22.81316 219
22.83328 220
22.85339 251
22.87351 245
22.89362 268
22.91373 268
22.93385 251
22.95396 265
22.97407 244
22.99419 226
23.0143 230
23.03442 211
23.05453 190
23.07464 207
23.09476 207
23.11487 193
23.13498 181
23.1551 233
23.17521 232
23.19532 237
23.21544 229
23.23555 221
23.25567 239
23.27578 228
23.29589 231
23.31601 200
23.33612 208
23.35623 202
23.37635 206
23.39646 206
23.41658 197
23.43669 227
23.4568 249
23.47692 279
23.49703 264
23.51714 298
23.53726 327
23.55737 343
23.57749 404
23.5976 408
23.61771 404
23.63783 349
23.65794 314
23.67805 271
23.69817 239
23.71828 226
23.73839 244
23.75851 213
23.77862 247
23.79874 286
23.81885 292
23.83896 322
23.85908 332
23.87919 338
23.8993 433
23.91942 475
23.93953 452
23.95965 462
23.97976 444
23.99987 429
24.01999 386
24.0401 325
24.06021 284
24.08033 247
24.10044 223
24.12056 226
24.14067 248
24.16078 263
24.1809 295
24.20101 304
24.22112 326
24.24124 338
24.26135 377
24.28146 383
24.30158 397
24.32169 368
24.34181 320
24.36192 314
24.38203 289
24.40215 284
24.42226 219
24.44237 217
24.46249 208
24.4826 198
24.50272 200
24.52283 189
24.54294 212
24.56306 196
24.58317 171
24.60328 187
24.6234 167
24.64351 195
24.66362 194
24.68374 203
24.70385 183
24.72397 202
24.74408 188
24.76419 209
24.78431 206
24.80442 213
24.82453 169
24.84465 195
24.86476 201
24.88488 187
24.90499 216
24.9251 202
24.94522 219
24.96533 196
24.98544 185
25.00556 178
25.02567 195
25.04579 172
25.0659 175
25.08601 200
25.10613 197
25.12624 181
25.14635 183
25.16647 201
25.18658 211
25.20669 222
25.22681 201
25.24692 207
25.26704 210
25.28715 178
25.30726 205
25.32738 242
25.34749 215
25.3676 216
25.38772 234
25.40783 252
25.42795 282
25.44806 288
25.46817 300
25.48829 318
25.5084 366
25.52851 331
25.54863 374
25.56874 349
25.58886 344
25.60897 340
25.62908 388
25.6492 373
25.66931 369
25.68942 404
25.70954 382
25.72965 388
25.74976 390
25.76988 397
25.78999 380
25.81011 400
25.83022 389
25.85033 360
25.87045 377
25.89056 382
25.91067 332
25.93079 403
25.9509 401
25.97102 406
25.99113 428
26.01124 421
26.03136 436
26.05147 461
26.07158 459
26.0917 471
26.11181 489
26.13193 566
26.15204 583
26.17215 581
26.19227 709
26.21238 753
26.23249 777
26.25261 832
26.27272 905
26.29283 989
26.31295 1098
26.33306 1295
26.35318 1425
26.37329 1697
26.3934 2120
26.41352 2657
26.43363 3346
26.45374 4455
26.47386 5879
26.49397 8345
26.51409 11587
26.5342 15549
26.55431 20333
26.57443 25794
26.59454 30446
26.61465 33498
26.63477 32415
26.65488 27472
26.67499 20886
26.69511 15669
26.71522 11032
26.73534 6614
26.75545 3530
26.77556 2229
26.79568 1637
26.81579 1416
26.8359 1247
26.85602 1167
26.87613 991
26.89625 981
26.91636 874
26.93647 838
26.95659 712
26.9767 650
26.99681 635
27.01693 637
27.03704 638
27.05716 537
27.07727 579
27.09738 554
27.1175 482
27.13761 460
27.15772 401
27.17784 446
27.19795 425
27.21806 414
27.23818 429
27.25829 408
27.27841 405
27.29852 439
27.31863 430
27.33875 450
27.35886 497
27.37897 495
27.39909 559
27.4192 524
27.43932 557
27.45943 584
27.47954 547
27.49966 538
27.51977 486
27.53988 451
27.56 449
27.58011 435
27.60023 437
27.62034 505
27.64045 494
27.66057 559
27.68068 730
27.70079 747
27.72091 917
27.74102 944
27.76113 993
27.78125 1073
27.80136 1006
27.82148 1073
27.84159 1079
27.8617 1047
27.88182 981
27.90193 1071
27.92204 1061
27.94216 989
27.96227 1029
27.98239 964
28.0025 816
28.02261 688
28.04273 601
28.06284 527
28.08295 428
28.10307 379
28.12318 352
28.1433 339
28.16341 365
28.18352 360
28.20364 405
28.22375 406
28.24386 450
28.26398 493
28.28409 456
28.3042 405
28.32432 362
28.34443 312
28.36455 296
28.38466 257
28.40477 247
28.42489 249
28.445 261
28.46511 222
28.48523 246
28.50534 229
28.52546 240
28.54557 246
28.56568 233
28.5858 223
28.60591 195
28.62602 218
28.64614 232
28.66625 218
28.68636 198
28.70648 211
28.72659 210
28.74671 255
28.76682 236
28.78693 213
28.80705 215
28.82716 245
28.84727 224
28.86739 202
28.8875 201
28.90762 215
28.92773 196
28.94784 224
28.96796 194
28.98807 216
29.00818 179
29.0283 222
29.04841 185
29.06853 209
29.08864 224
29.10875 205
29.12887 206
29.14898 221
29.16909 215
29.18921 229
29.20932 200
29.22943 204
29.24955 201
29.26966 216
29.28978 213
29.30989 219
29.33 237
29.35012 254
29.37023 213
29.39034 213
29.41046 248
29.43057 246
29.45069 237
29.4708 256
29.49091 228
29.51103 212
29.53114 238
29.55125 240
29.57137 231
29.59148 199
29.6116 216
29.63171 255
29.65182 216
29.67194 229
29.69205 262
29.71216 283
29.73228 257
29.75239 334
29.7725 292
29.79262 329
29.81273 278
29.83285 284
29.85296 293
29.87307 251
29.89319 270
29.9133 196
29.93341 237
29.95353 212
29.97364 229
29.99376 198
30.01387 200
30.03398 198
30.0541 220
30.07421 220
30.09432 241
30.11444 216
30.13455 225
30.15467 229
30.17478 247
30.19489 259
30.21501 252
30.23512 281
30.25523 309
30.27535 305
30.29546 328
30.31557 337
30.33569 373
30.3558 403
30.37592 402
30.39603 387
30.41614 370
30.43626 350
30.45637 356
30.47648 345
30.4966 285
30.51671 274
30.53683 256
30.55694 219
30.57705 208
30.59717 208
30.61728 211
30.63739 207
30.65751 224
30.67762 199
30.69773 219
30.71785 195
30.73796 207
30.75808 235
30.77819 241
30.7983 229
30.81842 242
30.83853 214
30.85864 191
30.87876 218
30.89887 206
30.91899 180
30.9391 173
30.95921 176
30.97933 188
30.99944 188
31.01955 195
31.03967 174
31.05978 183
31.0799 186
31.10001 156
31.12012 168
31.14024 172
31.16035 169
31.18046 159
31.20058 199
31.22069 180
31.2408 204
31.26092 215
31.28103 216
31.30115 248
31.32126 252
31.34137 269
31.36149 244
31.3816 265
31.40171 227
31.42183 228
31.44194 224
31.46206 207
31.48217 193
31.50228 216
31.5224 187
31.54251 205
31.56262 195
31.58274 195
31.60285 193
31.62297 183
31.64308 200
31.66319 186
31.68331 180
31.70342 155
31.72353 182
31.74365 139
31.76376 163
31.78387 166
31.80399 170
31.8241 155
31.84422 138
31.86433 151
31.88444 161
31.90456 161
31.92467 156
31.94478 157
31.9649 148
31.98501 187
32.00513 166
32.02524 174
32.04535 169
32.06547 178
32.08558 196
32.10569 184
32.12581 144
32.14592 186
32.16604 166
32.18615 168
32.20626 181
32.22638 184
32.24649 183
32.2666 157
32.28672 169
32.30683 167
32.32694 164
32.34706 176
32.36717 167
32.38729 163
32.4074 141
32.42751 140
32.44763 175
32.46774 181
32.48785 163
32.50797 158
32.52808 144
32.5482 140
32.56831 157
32.58842 152
32.60854 158
32.62865 149
32.64876 167
32.66888 157
32.68899 143
32.7091 174
32.72922 136
32.74933 149
32.76945 147
32.78956 142
32.80967 132
32.82979 132
32.8499 144
32.87001 169
32.89013 154
32.91024 157
32.93036 174
32.95047 145
32.97058 141
32.9907 180
33.01081 169
33.03092 147
33.05104 168
33.07115 162
33.09127 163
33.11138 140
33.13149 139
33.15161 148
33.17172 134
33.19183 155
33.21195 168
33.23206 170
33.25217 149
33.27229 135
33.2924 137
33.31252 151
33.33263 139
33.35274 135
33.37286 143
33.39297 125
33.41308 158
33.4332 149
33.45331 179
33.47343 129
33.49354 129
33.51365 133
33.53377 147
33.55388 144
33.57399 170
33.59411 140
33.61422 130
33.63434 160
33.65445 179
33.67456 156
33.69468 152
33.71479 169
33.7349 198
33.75502 161
33.77513 176
33.79524 199
33.81536 174
33.83547 195
33.85559 191
33.8757 173
33.89581 167
33.91593 159
33.93604 171
33.95615 175
33.97627 142
33.99638 149
34.0165 165
34.03661 141
34.05672 146
34.07684 171
34.09695 147
34.11706 144
34.13718 162
34.15729 159
34.17741 158
34.19752 163
34.21763 184
34.23775 165
34.25786 153
34.27797 192
34.29809 197
34.3182 161
34.33831 169
34.35843 164
34.37854 155
34.39866 174
34.41877 155
34.43888 157
34.459 164
34.47911 155
34.49922 163
34.51934 166
34.53945 173
34.55957 125
34.57968 156
34.59979 120
34.61991 159
34.64002 170
34.66013 166
34.68025 152
34.70036 170
34.72047 174
34.74059 155
34.7607 165
34.78082 163
34.80093 163
34.82104 171
34.84116 178
34.86127 178
34.88138 172
34.9015 160
34.92161 161
34.94173 183
34.96184 204
34.98195 165
35.00207 176
35.02218 160
35.04229 183
35.06241 197
35.08252 192
35.10264 190
35.12275 184
35.14286 209
35.16298 216
35.18309 233
35.2032 225
35.22332 255
35.24343 253
35.26354 261
35.28366 300
35.30377 254
35.32389 240
35.344 251
35.36411 239
35.38423 256
35.40434 200
35.42445 203
35.44457 216
35.46468 193
35.4848 220
35.50491 213
35.52502 207
35.54514 211
35.56525 207
35.58536 224
35.60548 247
35.62559 194
35.64571 204
35.66582 187
35.68593 190
35.70605 175
35.72616 186
35.74627 191
35.76639 176
35.7865 187
35.80661 177
35.82673 188
35.84684 199
35.86696 182
35.88707 192
35.90718 206
35.9273 182
35.94741 159
35.96752 191
35.98764 200
36.00775 195
36.02787 215
36.04798 224
36.06809 221
36.08821 194
36.10832 232
36.12843 246
36.14855 264
36.16866 257
36.18878 271
36.20889 304
36.229 303
36.24912 344
36.26923 303
36.28934 326
36.30946 402
36.32957 466
36.34968 519
36.3698 624
36.38991 819
36.41003 991
36.43014 1260
36.45025 1538
36.47037 1938
36.49048 2185
36.51059 2342
36.53071 2269
36.55082 2016
36.57094 1592
36.59105 1317
36.61116 1257
36.63128 1010
36.65139 757
36.6715 520
36.69162 347
36.71173 314
36.73184 271
36.75196 236
36.77207 250
36.79219 217
36.8123 225
36.83241 204
36.85253 230
36.87264 213
36.89275 233
36.91287 209
36.93298 204
36.9531 239
36.97321 238
36.99332 203
37.01344 195
37.03355 194
37.05366 203
37.07378 190
37.09389 172
37.11401 199
37.13412 185
37.15423 171
37.17435 174
37.19446 144
37.21457 166
37.23469 153
37.2548 161
37.27491 159
37.29503 156
37.31514 169
37.33526 164
37.35537 165
37.37548 184
37.3956 163
37.41571 180
37.43582 183
37.45594 177
37.47605 179
37.49617 177
37.51628 176
37.53639 211
37.55651 196
37.57662 190
37.59673 170
37.61685 177
37.63696 182
37.65708 197
37.67719 168
37.6973 176
37.71742 151
37.73753 184
37.75764 155
37.77776 143
37.79787 147
37.81798 154
37.8381 165
37.85821 159
37.87833 165
37.89844 153
37.91855 161
37.93867 150
37.95878 168
37.97889 169
37.99901 148
38.01912 154
38.03924 154
38.05935 152
38.07946 153
38.09958 160
38.11969 135
38.1398 151
38.15992 147
38.18003 146
38.20015 138
38.22026 170
38.24037 152
38.26049 131
38.2806 159
38.30071 153
38.32083 144
38.34094 177
38.36105 148
38.38117 170
38.40128 160
38.4214 173
38.44151 171
38.46162 172
38.48174 189
38.50185 177
38.52196 166
38.54208 162
38.56219 167
38.58231 180
38.60242 168
38.62253 168
38.64265 167
38.66276 164
38.68287 140
38.70299 145
38.7231 157
38.74321 157
38.76333 164
38.78344 146
38.80356 161
38.82367 169
38.84378 177
38.8639 164
38.88401 142
38.90412 150
38.92424 169
38.94435 202
38.96447 205
38.98458 212
39.00469 208
39.02481 201
39.04492 222
39.06503 236
39.08515 245
39.10526 250
39.12538 274
39.14549 271
39.1656 284
39.18572 318
39.20583 317
39.22594 385
39.24606 429
39.26617 480
39.28628 559
39.3064 726
39.32651 861
39.34663 1058
39.36674 1347
39.38685 1651
39.40697 1884
39.42708 2019
39.44719 2114
39.46731 1865
39.48742 1513
39.50754 1289
39.52765 1100
39.54776 1094
39.56788 892
39.58799 640
39.6081 400
39.62822 343
39.64833 252
39.66845 223
39.68856 206
39.70867 211
39.72879 223
39.7489 202
39.76901 190
39.78913 181
39.80924 187
39.82935 184
39.84947 187
39.86958 184
39.8897 195
39.90981 184
39.92992 186
39.95004 168
39.97015 224
39.99026 207
40.01038 258
40.03049 232
40.05061 276
40.07072 279
40.09083 312
40.11095 399
40.13106 457
40.15117 529
40.17129 690
40.1914 737
40.21152 869
40.23163 1053
40.25174 1132
40.27186 1045
40.29197 1036
40.31208 795
40.3322 666
40.35231 627
40.37242 569
40.39254 482
40.41265 405
40.43277 255
40.45288 241
40.47299 202
40.49311 185
40.51322 182
40.53333 181
40.55345 154
40.57356 172
40.59368 167
40.61379 152
40.6339 186
40.65402 159
40.67413 166
40.69424 151
40.71436 184
40.73447 179
40.75458 188
40.7747 143
40.79481 160
40.81493 165
40.83504 171
40.85515 145
40.87527 184
40.89538 185
40.91549 157
40.93561 138
40.95572 165
40.97584 167
40.99595 169
41.01606 150
41.03618 166
41.05629 165
41.0764 138
41.09652 147
41.11663 149
41.13675 175
41.15686 171
41.17697 152
41.19709 161
41.2172 150
41.23731 164
41.25743 152
41.27754 136
41.29765 149
41.31777 163
41.33788 142
41.358 129
41.37811 142
41.39822 154
41.41834 149
41.43845 179
41.45856 160
41.47868 181
41.49879 139
41.51891 173
41.53902 150
41.55913 141
41.57925 158
41.59936 173
41.61947 156
41.63959 159
41.6597 175
41.67982 182
41.69993 175
41.72004 224
41.74016 222
41.76027 202
41.78038 183
41.8005 215
41.82061 190
41.84072 180
41.86084 208
41.88095 191
41.90107 184
41.92118 174
41.94129 179
41.96141 183
41.98152 200
42.00163 188
42.02175 178
42.04186 187
42.06198 182
42.08209 205
42.1022 200
42.12232 231
42.14243 234
42.16254 232
42.18266 291
42.20277 316
42.22289 361
42.243 430
42.26311 483
42.28323 611
42.30334 754
42.32345 883
42.34357 1031
42.36368 1176
42.38379 1356
42.40391 1580
42.42402 1540
42.44414 1391
42.46425 1258
42.48436 978
42.50448 871
42.52459 831
42.5447 733
42.56482 621
42.58493 422
42.60505 326
42.62516 256
42.64527 243
42.66539 238
42.6855 209
42.70561 231
42.72573 207
42.74584 220
42.76595 193
42.78607 211
42.80618 188
42.8263 213
42.84641 202
42.86652 187
42.88664 198
42.90675 190
42.92686 209
42.94698 190
42.96709 194
42.98721 174
43.00732 168
43.02743 189
43.04755 186
43.06766 191
43.08777 170
43.10789 175
43.128 154
43.14812 167
43.16823 149
43.18834 166
43.20846 148
43.22857 157
43.24868 149
43.2688 152
43.28891 133
43.30902 121
43.32914 140
43.34925 146
43.36937 140
43.38948 157
43.40959 141
43.42971 142
43.44982 132
43.46993 139
43.49005 131
43.51016 150
43.53028 134
43.55039 142
43.5705 157
43.59062 154
43.61073 131
43.63084 140
43.65096 124
43.67107 126
43.69119 151
43.7113 137
43.73141 120
43.75153 136
43.77164 130
43.79175 152
43.81187 164
43.83198 157
43.85209 133
43.87221 140
43.89232 121
43.91244 147
43.93255 159
43.95266 137
43.97278 137
43.99289 158
44.013 130
44.03312 155
44.05323 146
44.07335 127
44.09346 148
44.11357 147
44.13369 133
44.1538 139
44.17391 151
44.19403 152
44.21414 145
44.23426 176
44.25437 134
44.27448 114
44.2946 161
44.31471 146
44.33482 142
44.35494 136
44.37505 137
44.39516 132
44.41528 120
44.43539 148
44.45551 157
44.47562 158
44.49573 147
44.51585 142
44.53596 137
44.55607 151
44.57619 147
44.5963 158
44.61642 138
44.63653 150
44.65664 143
44.67676 147
44.69687 134
44.71698 143
44.7371 162
44.75721 146
44.77732 154
44.79744 149
44.81755 140
44.83767 165
44.85778 154
44.87789 150
44.89801 147
44.91812 158
44.93823 177
44.95835 168
44.97846 165
44.99858 155
45.01869 146
45.0388 170
45.05892 169
45.07903 177
45.09914 158
45.11926 165
45.13937 156
45.15949 133
45.1796 175
45.19971 156
45.21983 172
45.23994 152
45.26005 158
45.28017 171
45.30028 136
45.32039 164
45.34051 142
45.36062 153
45.38074 190
45.40085 193
45.42096 182
45.44108 188
45.46119 184
45.4813 221
45.50142 220
45.52153 220
45.54165 251
45.56176 292
45.58187 335
45.60199 422
45.6221 452
45.64221 506
45.66233 597
45.68244 712
45.70256 787
45.72267 954
45.74278 1035
45.7629 1071
45.78301 967
45.80312 871
45.82324 690
45.84335 600
45.86346 580
45.88358 544
45.90369 471
45.92381 396
45.94392 297
45.96403 218
45.98415 192
46.00426 208
46.02437 184
46.04449 162
46.0646 178
46.08472 156
46.10483 172
46.12494 158
46.14506 150
46.16517 146
46.18528 139
46.2054 152
46.22551 148
46.24563 139
46.26574 148
46.28585 145
46.30597 140
46.32608 150
46.34619 142
46.36631 130
46.38642 129
46.40653 165
46.42665 154
46.44676 133
46.46688 128
46.48699 107
46.5071 127
46.52722 119
46.54733 132
46.56744 128
46.58756 118
46.60767 125
46.62779 142
46.6479 116
46.66801 146
46.68813 141
46.70824 154
46.72835 161
46.74847 146
46.76858 132
46.78869 135
46.80881 155
46.82892 153
46.84904 134
46.86915 147
46.88926 143
46.90938 143
46.92949 153
46.9496 132
46.96972 144
46.98983 145
47.00995 158
47.03006 145
47.05017 131
47.07029 146
47.0904 137
47.11051 146
47.13063 143
47.15074 144
47.17086 129
47.19097 143
47.21108 158
47.2312 161
47.25131 124
47.27142 130
47.29154 137
47.31165 144
47.33176 141
47.35188 153
47.37199 132
47.39211 155
47.41222 172
47.43233 178
47.45245 166
47.47256 152
47.49267 166
47.51279 180
47.5329 172
47.55302 151
47.57313 152
47.59324 152
47.61336 172
47.63347 154
47.65358 149
47.6737 128
47.69381 118
47.71393 124
47.73404 130
47.75415 130
47.77427 131
47.79438 119
47.81449 132
47.83461 111
47.85472 120
47.87483 130
47.89495 124
47.91506 121
47.93518 118
47.95529 133
47.9754 133
47.99552 139
48.01563 143
48.03574 126
48.05586 136
48.07597 132
48.09609 128
48.1162 134
48.13631 153
48.15643 148
48.17654 159
48.19665 151
48.21677 159
48.23688 164
48.257 164
48.27711 154
48.29722 161
48.31734 156
48.33745 147
48.35756 164
48.37768 166
48.39779 144
48.4179 156
48.43802 144
48.45813 158
48.47825 166
48.49836 144
48.51847 137
48.53859 139
48.5587 160
48.57881 145
48.59893 135
48.61904 132
48.63916 121
48.65927 139
48.67938 147
48.6995 132
48.71961 140
48.73972 153
48.75984 142
48.77995 138
48.80006 131
48.82018 177
48.84029 158
48.86041 153
48.88052 155
48.90063 146
48.92075 160
48.94086 153
48.96097 155
48.98109 205
49.0012 169
49.02132 176
49.04143 182
49.06154 223
49.08166 175
49.10177 187
49.12188 199
49.142 215
49.16211 200
49.18223 204
49.20234 210
49.22245 177
49.24257 188
49.26268 190
49.28279 170
49.30291 163
49.32302 174
49.34313 174
49.36325 170
49.38336 138
49.40348 155
49.42359 173
49.4437 184
49.46382 171
49.48393 164
49.50404 175
49.52416 167
49.54427 174
49.56439 187
49.5845 191
49.60461 201
49.62473 225
49.64484 218
49.66495 264
49.68507 268
49.70518 293
49.7253 321
49.74541 353
49.76552 346
49.78564 396
49.80575 428
49.82586 426
49.84598 553
49.86609 556
49.8862 614
49.90632 752
49.92643 859
49.94655 966
49.96666 1169
49.98677 1473
50.00689 1802
50.027 2118
50.04711 2608
50.06723 2913
50.08734 3138
50.10746 3150
50.12757 3039
50.14768 2542
50.1678 2051
50.18791 1755
50.20802 1668
50.22814 1643
50.24825 1546
50.26837 1256
50.28848 934
50.30859 634
50.32871 437
50.34882 376
50.36893 291
50.38905 285
50.40916 282
50.42927 273
50.44939 257
50.4695 267
50.48962 266
50.50973 302
50.52984 280
50.54996 270
50.57007 262
50.59018 321
50.6103 283
50.63041 303
50.65053 266
50.67064 255
50.69075 275
50.71087 234
50.73098 204
50.75109 196
50.77121 207
50.79132 163
50.81143 171
50.83155 175
50.85166 163
50.87178 170
50.89189 170
50.912 179
50.93212 192
50.95223 161
50.97234 166
50.99246 165
51.01257 147
51.03269 143
51.0528 160
51.07291 157
51.09303 174
51.11314 153
51.13325 160
51.15337 189
51.17348 173
51.1936 218
51.21371 200
51.23382 202
51.25394 221
51.27405 214
51.29416 233
51.31428 209
51.33439 214
51.3545 174
51.37462 181
51.39473 184
51.41485 179
51.43496 191
51.45507 173
51.47519 151
51.4953 153
51.51541 166
51.53553 127
51.55564 138
51.57576 133
51.59587 148
51.61598 114
51.6361 120
51.65621 122
51.67632 144
51.69644 116
51.71655 127
51.73667 115
51.75678 95
51.77689 105
51.79701 138
51.81712 129
51.83723 129
51.85735 122
51.87746 122
51.89757 119
51.91769 141
51.9378 134
51.95792 117
51.97803 125
51.99814 128
52.01826 136
52.03837 129
52.05848 130
52.0786 131
52.09871 106
52.11883 133
52.13894 145
52.15905 125
52.17917 130
52.19928 122
52.21939 140
52.23951 129
52.25962 155
52.27974 129
52.29985 124
52.31996 132
52.34008 165
52.36019 135
52.3803 157
52.40042 143
52.42053 135
52.44064 111
52.46076 136
52.48087 142
52.50099 135
52.5211 123
52.54121 166
52.56133 147
52.58144 149
52.60155 155
52.62167 131
52.64178 145
52.6619 188
52.68201 157
52.70212 175
52.72224 130
52.74235 161
52.76246 157
52.78258 150
52.80269 153
52.8228 169
52.84292 161
52.86303 152
52.88315 171
52.90326 174
52.92337 158
52.94349 143
52.9636 139
52.98371 142
53.00383 149
53.02394 163
53.04406 145
53.06417 136
53.08428 168
53.1044 167
53.12451 165
53.14462 143
53.16474 150
53.18485 127
53.20497 131
53.22508 142
53.24519 151
53.26531 153
53.28542 135
53.30553 137
53.32565 145
53.34576 129
53.36587 131
53.38599 124
53.4061 104
53.42622 141
53.44633 129
53.46644 134
53.48656 151
53.50667 126
53.52678 122
53.5469 123
53.56701 143
53.58713 130
53.60724 148
53.62735 140
53.64747 123
53.66758 143
53.68769 153
53.70781 144
53.72792 137
53.74804 141
53.76815 124
53.78826 128
53.80838 141
53.82849 116
53.8486 132
53.86872 140
53.88883 150
53.90894 137
53.92906 138
53.94917 158
53.96929 145
53.9894 144
54.00951 133
54.02963 134
54.04974 161
54.06985 141
54.08997 127
54.11008 146
54.1302 116
54.15031 156
54.17042 159
54.19054 149
54.21065 151
54.23076 156
54.25088 152
54.27099 146
54.29111 155
54.31122 186
54.33133 167
54.35145 134
54.37156 162
54.39167 155
54.41179 165
54.4319 162
54.45201 156
54.47213 149
54.49224 198
54.51236 202
54.53247 227
54.55258 193
54.5727 215
54.59281 243
54.61292 255
54.63304 318
54.65315 331
54.67327 387
54.69338 463
54.71349 507
54.73361 593
54.75372 748
54.77383 840
54.79395 950
54.81406 993
54.83417 991
54.85429 908
54.8744 846
54.89452 702
54.91463 603
54.93474 563
54.95486 563
54.97497 577
54.99508 576
55.0152 513
55.03531 376
55.05543 316
55.07554 289
55.09565 259
55.11577 242
55.13588 251
55.15599 305
55.17611 342
55.19622 373
55.21634 420
55.23645 436
55.25656 507
55.27668 494
55.29679 553
55.3169 481
55.33702 457
55.35713 323
55.37724 305
55.39736 319
55.41747 302
55.43759 328
55.4577 300
55.47781 297
55.49793 204
55.51804 181
55.53815 152
55.55827 156
55.57838 129
55.5985 133
55.61861 159
55.63872 164
55.65884 149
55.67895 147
55.69906 144
55.71918 130
55.73929 152
55.75941 138
55.77952 143
55.79963 108
55.81975 122
55.83986 124
55.85997 131
55.88009 120
55.9002 136
55.92031 137
55.94043 144
55.96054 128
55.98066 129
56.00077 126
56.02088 133
56.041 124
56.06111 124
56.08122 114
56.10134 115
56.12145 111
56.14157 125
56.16168 110
56.18179 131
56.20191 107
56.22202 131
56.24213 141
56.26225 120
56.28236 111
56.30248 144
56.32259 98
56.3427 120
56.36282 113
56.38293 122
56.40304 112
56.42316 117
56.44327 133
56.46338 124
56.4835 103
56.50361 127
56.52373 101
56.54384 109
56.56395 94
56.58407 97
56.60418 136
56.62429 123
56.64441 137
56.66452 114
56.68464 115
56.70475 120
56.72486 134
56.74498 123
56.76509 122
56.7852 119
56.80532 125
56.82543 114
56.84554 154
56.86566 124
56.88577 119
56.90589 121
56.926 99
56.94611 127
56.96623 114
56.98634 133
57.00645 96
57.02657 138
57.04668 129
57.0668 119
57.08691 151
57.10702 148
57.12714 174
57.14725 156
57.16736 172
57.18748 184
57.20759 158
57.22771 167
57.24782 138
57.26793 142
57.28805 151
57.30816 153
57.32827 141
57.34839 133
57.3685 141
57.38861 159
57.40873 141
57.42884 145
57.44896 142
57.46907 152
57.48918 140
57.5093 139
57.52941 116
57.54952 146
57.56964 135
57.58975 129
57.60987 154
57.62998 140
57.65009 125
57.67021 123
57.69032 104
57.71043 135
57.73055 105
57.75066 125
57.77078 129
57.79089 118
57.811 130
57.83112 127
57.85123 130
57.87134 132
57.89146 117
57.91157 125
57.93168 120
57.9518 131
57.97191 126
57.99203 122
58.01214 125
58.03225 135
58.05237 109
58.07248 120
58.09259 138
58.11271 112
58.13282 129
58.15294 117
58.17305 109
58.19316 136
58.21328 135
58.23339 115
58.2535 135
58.27362 132
58.29373 129
58.31385 125
58.33396 153
58.35407 129
58.37419 135
58.3943 142
58.41441 128
58.43453 153
58.45464 144
58.47475 115
58.49487 146
58.51498 143
58.5351 156
58.55521 145
58.57532 165
58.59544 135
58.61555 138
58.63566 154
58.65578 119
58.67589 156
58.69601 108
58.71612 139
58.73623 147
58.75635 145
58.77646 119
58.79657 124
58.81669 138
58.8368 121
58.85691 123
58.87703 140
58.89714 131
58.91726 145
58.93737 128
58.95748 107
58.9776 126
58.99771 118
59.01782 111
59.03794 125
59.05805 114
59.07817 135
59.09828 131
59.11839 125
59.13851 105
59.15862 142
59.17873 138
59.19885 133
59.21896 144
59.23908 147
59.25919 149
59.2793 128
59.29942 140
59.31953 176
59.33964 169
59.35976 165
59.37987 167
59.39998 149
59.4201 163
59.44021 168
59.46033 198
59.48044 194
59.50055 216
59.52067 215
59.54078 241
59.56089 221
59.58101 272
59.60112 263
59.62124 291
59.64135 290
59.66146 362
59.68158 375
59.70169 433
59.7218 550
59.74192 628
59.76203 718
59.78215 992
59.80226 1052
59.82237 1323
59.84249 1496
59.8626 1719
59.88271 1956
59.90283 1982
59.92294 2014
59.94305 1913
59.96317 1604
59.98328 1291
60.0034 1079
60.02351 1028
60.04362 1048
60.06374 1004
60.08385 984
60.10396 948
60.12408 761
60.14419 569
60.16431 370
60.18442 296
60.20453 260
60.22465 215
60.24476 204
60.26487 213
60.28499 185
60.3051 171
60.32522 191
60.34533 171
60.36544 174
60.38556 170
60.40567 154
60.42578 147
60.4459 156
60.46601 156
60.48612 119
60.50624 140
60.52635 121
60.54647 152
60.56658 147
60.58669 142
60.60681 143
60.62692 144
60.64703 132
60.66715 136
60.68726 139
60.70738 134
60.72749 119
60.7476 148
60.76772 145
60.78783 118
60.80794 139
60.82806 134
60.84817 123
60.86828 115
60.8884 134
60.90851 118
60.92863 124
60.94874 118
60.96885 127
60.98897 129
61.00908 129
61.02919 160
61.04931 126
61.06942 144
61.08954 127
61.10965 135
61.12976 133
61.14988 139
61.16999 132
61.1901 123
61.21022 128
61.23033 130
61.25045 131
61.27056 134
61.29067 133
61.31079 128
61.3309 135
61.35101 129
61.37113 124
61.39124 108
61.41135 123
61.43147 132
61.45158 115
61.4717 128
61.49181 129
61.51192 124
61.53204 135
61.55215 129
61.57226 142
61.59238 155
61.61249 120
61.63261 126
61.65272 157
61.67283 133
61.69295 133
61.71306 129
61.73317 135
61.75329 156
61.7734 133
61.79352 130
61.81363 127
61.83374 120
61.85386 134
61.87397 136
61.89408 144
61.9142 133
61.93431 134
61.95442 149
61.97454 141
61.99465 135
62.01477 151
62.03488 143
62.05499 133
62.07511 156
62.09522 127
62.11533 162
62.13545 147
62.15556 135
62.17568 136
62.19579 156
62.2159 128
62.23602 112
62.25613 125
62.27624 132
62.29636 120
62.31647 154
62.33659 140
62.3567 119
62.37681 140
62.39693 136
62.41704 127
62.43715 130
62.45727 136
62.47738 144
62.49749 119
62.51761 132
62.53772 126
62.55784 118
62.57795 123
62.59806 109
62.61818 137
62.63829 132
62.6584 124
62.67852 114
62.69863 142
62.71875 143
62.73886 119
62.75897 139
62.77909 124
62.7992 128
62.81931 116
62.83943 139
62.85954 145
62.87965 130
62.89977 143
62.91988 145
62.94 127
62.96011 139
62.98022 151
63.00034 148
63.02045 148
63.04056 157
63.06068 158
63.08079 137
63.10091 136
63.12102 131
63.14113 124
63.16125 147
63.18136 141
63.20147 129
63.22159 131
63.2417 147
63.26182 140
63.28193 121
63.30204 125
63.32216 128
63.34227 139
63.36238 146
63.3825 143
63.40261 136
63.42272 128
63.44284 143
63.46295 140
63.48307 143
63.50318 134
63.52329 165
63.54341 139
63.56352 134
63.58363 154
63.60375 159
63.62386 167
63.64398 166
63.66409 195
63.6842 191
63.70432 188
63.72443 220
63.74454 207
63.76466 227
63.78477 230
63.80489 213
63.825 231
63.84511 289
63.86523 300
63.88534 332
63.90545 379
63.92557 383
63.94568 427
63.96579 439
63.98591 466
64.00602 426
64.02614 405
64.04625 347
64.06636 307
64.08648 277
64.10659 278
64.1267 258
64.14682 296
64.16693 277
64.18705 259
64.20716 256
64.22727 204
64.24739 171
64.2675 162
64.28761 143
64.30773 156
64.32784 142
64.34796 134
64.36807 128
64.38818 139
64.4083 136
64.42841 122
64.44852 126
64.46864 110
64.48875 107
64.50886 94
64.52898 120
64.54909 114
64.56921 104
64.58932 122
64.60943 120
64.62955 125
64.64966 116
64.66977 107
64.68989 124
64.71 99
64.73012 109
64.75023 120
64.77034 116
64.79046 120
64.81057 114
64.83068 127
64.8508 124
64.87091 145
64.89102 141
64.91114 144
64.93125 130
64.95137 130
64.97148 124
64.99159 112
65.01171 126
65.03182 150
65.05193 134
65.07205 146
65.09216 121
65.11228 137
65.13239 139
65.1525 131
65.17262 139
65.19273 120
65.21284 113
65.23296 155
65.25307 138
65.27319 128
65.2933 125
65.31341 160
65.33353 132
65.35364 126
65.37375 154
65.39387 135
65.41398 130
65.43409 146
65.45421 159
65.47432 155
65.49444 139
65.51455 142
65.53466 124
65.55478 140
65.57489 146
65.595 167
65.61512 147
65.63523 166
65.65535 203
65.67546 214
65.69557 192
65.71569 193
65.7358 178
65.75591 199
65.77603 179
65.79614 177
65.81626 152
65.83637 142
65.85648 167
65.8766 155
65.89671 175
65.91682 178
65.93694 148
65.95705 146
65.97716 140
65.99728 162
66.01739 131
66.03751 126
66.05762 147
66.07773 133
66.09785 150
66.11796 147
66.13807 139
66.15819 140
66.1783 133
66.19842 127
66.21853 141
66.23864 126
66.25876 145
66.27887 132
66.29898 146
66.3191 133
66.33921 141
66.35933 127
66.37944 114
66.39955 128
66.41967 128
66.43978 137
66.45989 119
66.48001 129
66.50012 127
66.52023 130
66.54035 123
66.56046 139
66.58058 132
66.60069 148
66.6208 125
66.64092 142
66.66103 126
66.68114 142
66.70126 132
66.72137 121
66.74149 116
66.7616 124
66.78171 127
66.80183 147
66.82194 117
66.84205 133
66.86217 136
66.88228 126
66.90239 151
66.92251 142
66.94262 127
66.96274 148
66.98285 145
67.00296 148
67.02308 118
67.04319 117
67.0633 155
67.08342 149
67.10353 139
67.12365 150
67.14376 150
67.16387 149
67.18399 142
67.2041 157
67.22421 163
67.24433 176
67.26444 205
67.28456 191
67.30467 195
67.32478 183
67.3449 217
67.36501 216
67.38512 242
67.40524 266
67.42535 277
67.44546 313
67.46558 320
67.48569 331
67.50581 410
67.52592 449
67.54603 542
67.56615 658
67.58626 661
67.60637 813
67.62649 928
67.6466 1057
67.66672 1189
67.68683 1160
67.70694 1144
67.72706 1176
67.74717 994
67.76728 842
67.7874 806
67.80751 698
67.82763 760
67.84774 808
67.86785 863
67.88797 955
67.90808 870
67.92819 957
67.94831 940
67.96842 922
67.98853 949
68.00865 1108
68.02876 1244
68.04888 1369
68.06899 1481
68.0891 1578
68.10922 1599
68.12933 1590
68.14944 1423
68.16956 1301
68.18967 1296
68.20979 1307
68.2299 1420
68.25001 1425
68.27013 1463
68.29024 1426
68.31035 1302
68.33047 1088
68.35058 794
68.3707 686
68.39081 580
68.41092 574
68.43104 576
68.45115 545
68.47126 501
68.49138 501
68.51149 427
68.5316 306
68.55172 260
68.57183 218
68.59195 209
68.61206 185
68.63217 171
68.65229 182
68.6724 201
68.69251 169
68.71263 166
68.73274 160
68.75286 138
68.77297 154
68.79308 168
68.8132 158
68.83331 162
68.85342 134
68.87354 158
68.89365 141
68.91376 138
68.93388 131
68.95399 127
68.97411 130
68.99422 142
69.01433 141
69.03445 142
69.05456 134
69.07467 153
69.09479 139
69.1149 162
69.13502 126
69.15513 141
69.17524 155
69.19536 140
69.21547 139
69.23558 155
69.2557 130
69.27581 148
69.29593 138
69.31604 138
69.33615 141
69.35627 146
69.37638 149
69.39649 134
69.41661 144
69.43672 137
69.45683 133
69.47695 140
69.49706 127
69.51718 134
69.53729 120
69.5574 119
69.57752 127
69.59763 130
69.61774 140
69.63786 132
69.65797 122
69.67809 140
69.6982 138
69.71831 150
69.73843 139
69.75854 132
69.77865 148
69.79877 126
69.81888 129
69.839 135
69.85911 132
69.87922 136
69.89934 119
69.91945 105
69.93956 109
69.95968 143
69.97979 127
69.9999 110
70.02002 105
70.04013 116
70.06025 112
70.08036 111
70.10047 97
70.12059 99
70.1407 107
70.16081 108
70.18093 124
70.20104 124
70.22116 114
70.24127 119
70.26138 122
70.2815 119
70.30161 109
70.32172 116
70.34184 103
70.36195 114
70.38207 128
70.40218 102
70.42229 139
70.44241 128
70.46252 115
70.48263 120
70.50275 112
70.52286 120
70.54297 104
70.56309 103
70.5832 113
70.60332 113
70.62343 110
70.64354 102
70.66366 118
70.68377 111
70.70388 104
70.724 111
70.74411 107
70.76423 126
70.78434 111
70.80445 101
70.82457 115
70.84468 116
70.86479 100
70.88491 100
70.90502 119
70.92513 118
70.94525 131
70.96536 122
70.98548 123
71.00559 132
71.0257 110
71.04582 120
71.06593 120
71.08604 116
71.10616 120
71.12627 115
71.14639 114
71.1665 116
71.18661 125
71.20673 128
71.22684 112
71.24695 123
71.26707 116
71.28718 116
71.3073 154
71.32741 111
71.34752 132
71.36764 123
71.38775 119
71.40786 112
71.42798 121
71.44809 126
71.4682 125
71.48832 131
71.50843 120
71.52855 111
71.54866 125
71.56877 109
71.58889 124
71.609 122
71.62911 93
71.64923 117
71.66934 104
71.68946 113
71.70957 122
71.72968 108
71.7498 105
71.76991 116
71.79002 112
71.81014 117
71.83025 102
71.85037 121
71.87048 92
71.89059 125
71.91071 107
71.93082 110
71.95093 125
71.97105 112
71.99116 111
72.01127 122
72.03139 108
72.0515 101
72.07162 110
72.09173 111
72.11184 103
72.13196 100
72.15207 113
72.17218 104
72.1923 102
72.21241 107
72.23253 105
72.25264 112
72.27275 86
72.29287 110
72.31298 108
72.33309 114
72.35321 106
72.37332 108
72.39344 92
72.41355 106
72.43366 128
72.45378 112
72.47389 88
72.494 105
72.51412 109
72.53423 113
72.55434 111
72.57446 110
72.59457 103
72.61469 114
72.6348 95
72.65491 107
72.67503 96
72.69514 103
72.71525 118
72.73537 105
72.75548 100
72.7756 105
72.79571 107
72.81582 112
72.83594 116
72.85605 124
72.87616 130
72.89628 116
72.91639 125
72.9365 119
72.95662 125
72.97673 118
72.99685 134
73.01696 145
73.03707 120
73.05719 136
73.0773 137
73.09741 149
73.11753 158
73.13764 159
73.15776 166
73.17787 169
73.19798 179
73.2181 198
73.23821 211
73.25832 193
73.27844 251
73.29855 290
73.31867 329
73.33878 406
73.35889 370
73.37901 476
73.39912 432
73.41923 449
73.43935 421
73.45946 420
73.47957 384
73.49969 321
73.5198 279
73.53992 270
73.56003 274
73.58014 278
73.60026 280
73.62037 286
73.64048 264
73.6606 261
73.68071 264
73.70083 186
73.72094 180
73.74105 167
73.76117 160
73.78128 134
73.80139 154
73.82151 136
73.84162 128
73.86174 116
73.88185 119
73.90196 131
73.92208 121
73.94219 132
73.9623 132
73.98242 125
74.00253 115
74.02264 118
74.04276 120
74.06287 121
74.08299 112
74.1031 128
74.12321 130
74.14333 108
74.16344 109
74.18355 116
74.20367 113
74.22378 114
74.2439 130
74.26401 104
74.28412 120
74.30424 128
74.32435 123
74.34446 117
74.36458 130
74.38469 116
74.40481 119
74.42492 109
74.44503 109
74.46515 131
74.48526 116
74.50537 128
74.52549 125
74.5456 134
74.56571 118
74.58583 114
74.60594 130
74.62606 119
74.64617 96
74.66628 112
74.6864 104
74.70651 117
74.72662 106
74.74674 130
74.76685 117
74.78697 127
74.80708 114
74.82719 106
74.84731 148
74.86742 110
74.88753 136
74.90765 130
74.92776 125
74.94787 110
74.96799 109
74.9881 103
75.00822 122
