3.00117 19462
3.02128 18618
3.0414 18131
3.06151 18186
3.08162 17255
3.10174 17062
3.12185 16780
3.14197 16095
3.16208 15911
3.18219 15028
3.20231 15117
3.22242 14331
3.24253 14109
3.26265 13569
3.28276 12969
3.30288 13076
3.32299 12082
3.3431 11786
3.36322 11588
3.38333 11128
3.40344 11238
3.42356 10296
3.44367 10107
3.46379 9939
3.4839 9343
3.50401 9344
3.52413 8849
3.54424 8315
3.56435 8191
3.58447 7785
3.60458 7762
3.62469 7354
3.64481 7023
3.66492 6804
3.68504 6383
3.70515 6525
3.72526 5944
3.74538 5750
3.76549 5712
3.7856 5279
3.80572 5288
3.82583 4810
3.84595 4853
3.86606 4694
3.88617 4396
3.90629 4237
3.9264 3979
3.94651 3889
3.96663 3822
3.98674 3567
4.00686 3399
4.02697 3071
4.04708 3110
4.0672 3074
4.08731 2894
4.10742 2914
4.12754 2560
4.14765 2366
4.16776 2436
4.18788 2354
4.20799 2310
4.22811 2070
4.24822 2034
4.26833 2117
4.28845 1908
4.30856 1940
4.32867 1847
4.34879 1710
4.3689 1814
4.38902 1707
4.40913 1761
4.42924 1539
4.44936 1540
4.46947 1584
4.48958 1528
4.5097 1419
4.52981 1322
4.54992 1387
4.57004 1387
4.59015 1323
4.61027 1303
4.63038 1248
4.65049 1184
4.67061 1212
4.69072 1244
4.71083 1125
4.73095 1136
4.75106 1069
4.77118 1101
4.79129 1042
4.8114 1032
4.83152 933
4.85163 966
4.87174 990
4.89186 981
4.91197 893
4.93209 917
4.9522 794
4.97231 902
4.99243 885
5.01254 821
5.03265 804
5.05277 798
5.07288 757
5.09299 797
5.11311 763
5.13322 692
5.15334 761
5.17345 733
5.19356 677
5.21368 657
5.23379 656
5.2539 618
5.27402 638
5.29413 676
5.31425 605
5.33436 642
5.35447 583
5.37459 587
5.3947 617
5.41481 579
5.43493 600
5.45504 516
5.47516 493
5.49527 533
5.51538 536
5.5355 493
5.55561 486
5.57572 517
5.59584 501
5.61595 471
5.63606 452
5.65618 458
5.67629 475
5.69641 504
5.71652 398
5.73663 402
5.75675 426
5.77686 449
5.79697 437
5.81709 446
5.8372 404
5.85732 417
5.87743 409
5.89754 408
5.91766 394
5.93777 409
5.95788 418
5.978 407
5.99811 435
6.01823 384
6.03834 389
6.05845 359
6.07857 331
6.09868 408
6.11879 422
6.13891 377
6.15902 346
6.17913 347
6.19925 392
6.21936 386
6.23948 370
6.25959 368
6.2797 370
6.29982 351
6.31993 373
6.34004 340
6.36016 367
6.38027 354
6.40039 353
6.4205 390
6.44061 359
6.46073 341
6.48084 364
6.50095 316
6.52107 344
6.54118 322
6.56129 324
6.58141 338
6.60152 333
6.62164 323
6.64175 357
6.66186 334
6.68198 324
6.70209 316
6.7222 352
6.74232 299
6.76243 334
6.78255 324
6.80266 343
6.82277 341
6.84289 343
6.863 307
6.88311 333
6.90323 348
6.92334 331
6.94346 314
6.96357 315
6.98368 348
7.0038 327
7.02391 328
7.04402 337
7.06414 326
7.08425 341
7.10436 345
7.12448 292
7.14459 320
7.16471 297
7.18482 305
7.20493 372
7.22505 313
7.24516 338
7.26527 295
7.28539 309
7.3055 365
7.32562 346
7.34573 303
7.36584 324
7.38596 331
7.40607 313
7.42618 346
7.4463 325
7.46641 333
7.48653 344
7.50664 325
7.52675 331
7.54687 347
7.56698 327
7.58709 323
7.60721 365
7.62732 368
7.64743 298
7.66755 342
7.68766 359
7.70778 331
7.72789 329
7.748 330
7.76812 342
7.78823 355
7.80834 317
7.82846 327
7.84857 342
7.86869 308
7.8888 301
7.90891 344
7.92903 369
7.94914 307
7.96925 292
7.98937 346
8.00948 318
8.0296 342
8.04971 332
8.06982 306
8.08994 316
8.11005 330
8.13016 331
8.15028 337
8.17039 351
8.1905 294
8.21062 353
8.23073 326
8.25085 317
8.27096 339
8.29107 383
8.31119 318
8.3313 363
8.35141 314
8.37153 351
8.39164 355
8.41176 331
8.43187 321
8.45198 329
8.4721 302
8.49221 380
8.51232 379
8.53244 354
8.55255 365
8.57266 361
8.59278 347
8.61289 372
8.63301 346
8.65312 354
8.67323 392
8.69335 412
8.71346 377
8.73357 424
8.75369 422
8.7738 411
8.79392 406
8.81403 382
8.83414 403
8.85426 413
8.87437 395
8.89448 340
8.9146 363
8.93471 378
8.95483 347
8.97494 359
8.99505 370
9.01517 366
9.03528 336
9.05539 336
9.07551 321
9.09562 359
9.11573 311
9.13585 354
9.15596 311
9.17608 309
9.19619 342
9.2163 315
9.23642 327
9.25653 334
9.27664 315
9.29676 335
9.31687 325
9.33699 313
9.3571 339
9.37721 344
9.39733 349
9.41744 315
9.43755 356
9.45767 337
9.47778 328
9.4979 336
9.51801 319
9.53812 313
9.55824 363
9.57835 297
9.59846 346
9.61858 350
9.63869 340
9.6588 345
9.67892 293
9.69903 325
9.71915 318
9.73926 305
9.75937 365
9.77949 331
9.7996 329
9.81971 331
9.83983 314
9.85994 317
9.88006 373
9.90017 354
9.92028 339
9.9404 352
9.96051 336
9.98062 316
10.00074 324
10.02085 316
10.04097 366
10.06108 308
10.08119 333
10.10131 317
10.12142 313
10.14153 316
10.16165 322
10.18176 298
10.20187 329
10.22199 306
10.2421 338
10.26222 324
10.28233 346
10.30244 329
10.32256 335
10.34267 351
10.36278 358
10.3829 320
10.40301 301
10.42313 323
10.44324 310
10.46335 324
10.48347 330
10.50358 316
10.52369 342
10.54381 321
10.56392 317
10.58403 303
10.60415 327
10.62426 339
10.64438 327
10.66449 333
10.6846 300
10.70472 315
10.72483 316
10.74494 355
10.76506 307
10.78517 316
10.80529 341
10.8254 317
10.84551 321
10.86563 349
10.88574 330
10.90585 345
10.92597 358
10.94608 303
10.9662 296
10.98631 342
11.00642 328
11.02654 313
11.04665 288
11.06676 345
11.08688 364
11.10699 354
11.1271 366
11.14722 346
11.16733 303
11.18745 343
11.20756 362
11.22767 314
11.24779 322
11.2679 349
11.28801 329
11.30813 324
11.32824 328
11.34836 337
11.36847 338
11.38858 335
11.4087 365
11.42881 331
11.44892 340
11.46904 348
11.48915 353
11.50927 323
11.52938 337
11.54949 360
11.56961 325
11.58972 363
11.60983 331
11.62995 328
11.65006 327
11.67017 354
11.69029 348
11.7104 392
11.73052 357
11.75063 380
11.77074 338
11.79086 369
11.81097 378
11.83108 329
11.8512 371
11.87131 342
11.89143 323
11.91154 368
11.93165 435
11.95177 345
11.97188 417
11.99199 395
12.01211 429
12.03222 406
12.05234 436
12.07245 442
12.09256 458
12.11268 459
12.13279 495
12.1529 474
12.17302 504
12.19313 491
12.21324 472
12.23336 524
12.25347 490
12.27359 547
12.2937 555
12.31381 549
12.33393 551
12.35404 542
12.37415 545
12.39427 537
12.41438 491
12.4345 486
12.45461 504
12.47472 452
12.49484 422
12.51495 379
12.53506 413
12.55518 408
12.57529 381
12.5954 395
12.61552 391
12.63563 356
12.65575 334
12.67586 394
12.69597 331
12.71609 339
12.7362 369
12.75631 329
12.77643 320
12.79654 342
12.81666 337
12.83677 329
12.85688 325
12.877 323
12.89711 322
12.91722 303
12.93734 310
12.95745 308
12.97757 294
12.99768 328
13.01779 326
13.03791 342
13.05802 345
13.07813 313
13.09825 321
13.11836 342
13.13847 349
13.15859 336
13.1787 330
13.19882 330
13.21893 294
13.23904 344
13.25916 332
13.27927 296
13.29938 314
13.3195 314
13.33961 323
13.35973 307
13.37984 307
13.39995 325
13.42007 275
13.44018 323
13.46029 302
13.48041 297
13.50052 358
13.52064 316
13.54075 339
13.56086 311
13.58098 352
13.60109 326
13.6212 327
13.64132 322
13.66143 308
13.68154 320
13.70166 297
13.72177 304
13.74189 303
13.762 278
13.78211 282
13.80223 306
13.82234 314
13.84245 332
13.86257 318
13.88268 294
13.9028 322
13.92291 295
13.94302 317
13.96314 297
13.98325 282
14.00336 280
14.02348 307
14.04359 314
14.06371 307
14.08382 296
14.10393 317
14.12405 302
14.14416 308
14.16427 302
14.18439 286
14.2045 273
14.22461 249
14.24473 299
14.26484 299
14.28496 296
14.30507 305
14.32518 316
14.3453 259
14.36541 277
14.38552 268
14.40564 323
14.42575 320
14.44587 285
14.46598 314
14.48609 293
14.50621 281
14.52632 276
14.54643 303
14.56655 334
14.58666 289
14.60677 256
14.62689 296
14.647 302
14.66712 283
14.68723 282
14.70734 291
14.72746 312
14.74757 272
14.76768 289
14.7878 273
14.80791 286
14.82803 289
14.84814 286
14.86825 324
14.88837 260
14.90848 346
14.92859 315
14.94871 290
14.96882 281
14.98894 283
15.00905 335
15.02916 302
15.04928 271
15.06939 292
15.0895 313
15.10962 288
15.12973 297
15.14984 273
15.16996 290
15.19007 300
15.21019 287
15.2303 322
15.25041 309
15.27053 271
15.29064 261
15.31075 282
15.33087 295
15.35098 290
15.3711 283
15.39121 283
15.41132 268
15.43144 325
15.45155 275
15.47166 289
15.49178 301
15.51189 277
15.53201 296
15.55212 291
15.57223 289
15.59235 292
15.61246 298
15.63257 280
15.65269 297
15.6728 306
15.69291 271
15.71303 270
15.73314 247
15.75326 257
15.77337 266
15.79348 279
15.8136 252
15.83371 292
15.85382 261
15.87394 285
15.89405 294
15.91417 287
15.93428 266
15.95439 287
15.97451 270
15.99462 243
16.01473 295
16.03485 303
16.05496 312
16.07508 289
16.09519 263
16.1153 299
16.13542 328
16.15553 261
16.17564 311
16.19576 291
16.21587 290
16.23598 302
16.2561 292
16.27621 253
16.29633 267
16.31644 264
16.33655 236
16.35667 294
16.37678 276
16.39689 288
16.41701 283
16.43712 284
16.45724 309
16.47735 290
16.49746 303
16.51758 279
16.53769 268
16.5578 254
16.57792 279
16.59803 287
16.61814 258
16.63826 287
16.65837 287
16.67849 278
16.6986 259
16.71871 289
16.73883 297
16.75894 257
16.77905 271
16.79917 249
16.81928 288
16.8394 291
16.85951 314
16.87962 285
16.89974 262
16.91985 265
16.93996 291
16.96008 259
16.98019 315
17.00031 299
17.02042 276
17.04053 319
17.06065 298
17.08076 277
17.10087 285
17.12099 262
17.1411 289
17.16121 259
17.18133 286
17.20144 316
17.22156 275
17.24167 296
17.26178 306
17.2819 276
17.30201 294
17.32212 301
17.34224 299
17.36235 286
17.38247 310
17.40258 279
17.42269 254
17.44281 303
17.46292 280
17.48303 304
17.50315 284
17.52326 283
17.54338 288
17.56349 268
17.5836 259
17.60372 278
17.62383 313
17.64394 297
17.66406 259
17.68417 306
17.70428 279
17.7244 284
17.74451 264
17.76463 295
17.78474 301
17.80485 315
17.82497 289
17.84508 312
17.86519 301
17.88531 293
17.90542 298
17.92554 352
17.94565 315
17.96576 309
17.98588 311
18.00599 342
18.0261 345
18.04622 342
18.06633 353
18.08645 370
18.10656 384
18.12667 402
18.14679 401
18.1669 431
18.18701 501
18.20713 516
18.22724 590
18.24735 648
18.26747 656
18.28758 725
18.3077 724
18.32781 675
18.34792 608
18.36804 565
18.38815 469
18.40826 460
18.42838 442
18.44849 420
18.46861 401
18.48872 337
18.50883 336
18.52895 307
18.54906 327
18.56917 316
18.58929 332
18.6094 331
18.62951 299
18.64963 308
18.66974 310
18.68986 320
18.70997 312
18.73008 295
18.7502 317
18.77031 284
18.79042 295
18.81054 296
18.83065 298
18.85077 308
18.87088 295
18.89099 298
18.91111 293
18.93122 291
18.95133 300
18.97145 307
18.99156 304
19.01168 306
19.03179 279
19.0519 281
19.07202 303
19.09213 294
19.11224 301
19.13236 306
19.15247 295
19.17258 319
19.1927 317
19.21281 307
19.23293 344
19.25304 341
19.27315 319
19.29327 315
19.31338 328
19.33349 267
19.35361 301
19.37372 317
19.39384 301
19.41395 303
19.43406 339
19.45418 364
19.47429 285
19.4944 305
19.51452 342
19.53463 299
19.55475 327
19.57486 325
19.59497 342
19.61509 356
19.6352 352
19.65531 346
19.67543 364
19.69554 389
19.71565 346
19.73577 410
19.75588 417
19.776 491
19.79611 450
19.81622 500
19.83634 497
19.85645 533
19.87656 529
19.89668 517
19.91679 497
19.93691 501
19.95702 528
19.97713 503
19.99725 485
20.01736 497
20.03747 552
20.05759 455
20.0777 467
20.09782 515
20.11793 547
20.13804 557
20.15816 550
20.17827 597
20.19838 585
20.2185 648
20.23861 663
20.25872 674
20.27884 610
20.29895 648
20.31907 625
20.33918 582
20.35929 553
20.37941 602
20.39952 611
20.41963 607
20.43975 613
20.45986 602
20.47998 621
20.50009 609
20.5202 615
20.54032 594
20.56043 627
20.58054 598
20.60066 679
20.62077 673
20.64088 681
20.661 817
20.68111 972
20.70123 1252
20.72134 1636
20.74145 2154
20.76157 3008
20.78168 3868
20.80179 4819
20.82191 5481
20.84202 5162
20.86214 4710
20.88225 3722
20.90236 2720
20.92248 1893
20.94259 1417
20.9627 1031
20.98282 886
21.00293 854
21.02305 797
21.04316 699
21.06327 689
21.08339 598
21.1035 570
21.12361 552
21.14373 546
21.16384 532
21.18395 514
21.20407 547
21.22418 471
21.2443 525
21.26441 542
21.28452 532
21.30464 546
21.32475 551
21.34486 552
21.36498 501
21.38509 571
21.40521 564
21.42532 575
21.44543 561
21.46555 550
21.48566 517
21.50577 542
21.52589 511
21.546 481
21.56612 461
21.58623 466
21.60634 489
21.62646 461
21.64657 413
21.66668 454
21.6868 464
21.70691 452
21.72702 447
21.74714 455
21.76725 443
21.78737 414
21.80748 395
21.82759 402
21.84771 387
21.86782 398
21.88793 429
21.90805 376
21.92816 426
21.94828 406
21.96839 388
21.9885 394
22.00862 367
22.02873 413
22.04884 387
22.06896 389
22.08907 440
22.10919 379
22.1293 416
22.14941 407
22.16953 386
22.18964 415
22.20975 427
22.22987 444
22.24998 391
22.27009 395
22.29021 439
22.31032 431
22.33044 412
22.35055 382
22.37066 361
22.39078 339
22.41089 381
22.431 383
22.45112 343
22.47123 358
22.49135 422
22.51146 372
22.53157 352
22.55169 390
22.5718 367
22.59191 366
22.61203 374
22.63214 366
22.65225 383
22.67237 363
22.69248 379
22.7126 369
22.73271 346
22.75282 357
22.77294 384
22.79305 346
22.81316 359
22.83328 357
22.85339 402
22.87351 346
22.89362 332
22.91373 360
22.93385 376
22.95396 358
22.97407 379
22.99419 403
23.0143 408
23.03442 388
23.05453 397
23.07464 419
23.09476 410
23.11487 471
23.13498 443
23.1551 469
23.17521 407
23.19532 421
23.21544 404
23.23555 410
23.25567 374
23.27578 431
23.29589 360
23.31601 359
23.33612 362
23.35623 364
23.37635 330
23.39646 361
23.41658 359
23.43669 352
23.4568 390
23.47692 365
23.49703 345
23.51714 362
23.53726 384
23.55737 358
23.57749 399
23.5976 344
23.61771 357
23.63783 350
23.65794 332
23.67805 352
23.69817 347
23.71828 353
23.73839 335
23.75851 366
23.77862 398
23.79874 354
23.81885 361
23.83896 358
23.85908 414
23.87919 413
23.8993 448
23.91942 469
23.93953 477
23.95965 466
23.97976 521
23.99987 518
24.01999 481
24.0401 429
24.06021 421
24.08033 405
24.10044 411
24.12056 382
24.14067 367
24.16078 430
24.1809 391
24.20101 418
24.22112 368
24.24124 417
24.26135 430
24.28146 408
24.30158 392
24.32169 417
24.34181 398
24.36192 417
24.38203 410
24.40215 382
24.42226 426
24.44237 399
24.46249 399
24.4826 377
24.50272 409
24.52283 413
24.54294 454
24.56306 396
24.58317 430
24.60328 431
24.6234 488
24.64351 485
24.66362 499
24.68374 442
24.70385 502
24.72397 538
24.74408 507
24.76419 491
24.78431 522
24.80442 523
24.82453 536
24.84465 547
24.86476 491
24.88488 490
24.90499 516
24.9251 464
24.94522 485
24.96533 488
24.98544 474
25.00556 433
25.02567 432
25.04579 438
25.0659 400
25.08601 422
25.10613 408
25.12624 385
25.14635 469
25.16647 468
25.18658 440
25.20669 427
25.22681 417
25.24692 425
25.26704 428
25.28715 431
25.30726 419
25.32738 422
25.34749 429
25.3676 419
25.38772 431
25.40783 445
25.42795 438
25.44806 428
25.46817 483
25.48829 457
25.5084 503
25.52851 509
25.54863 496
25.56874 487
25.58886 534
25.60897 545
25.62908 495
25.6492 527
25.66931 492
25.68942 513
25.70954 512
25.72965 491
25.74976 511
25.76988 529
25.78999 487
25.81011 473
25.83022 507
25.85033 511
25.87045 499
25.89056 498
25.91067 528
25.93079 513
25.9509 535
25.97102 570
25.99113 518
26.01124 565
26.03136 519
26.05147 586
26.07158 571
26.0917 621
26.11181 649
26.13193 648
26.15204 696
26.17215 744
26.19227 757
26.21238 848
26.23249 857
26.25261 905
26.27272 955
26.29283 1057
26.31295 1118
26.33306 1212
26.35318 1381
26.37329 1494
26.3934 1727
26.41352 2159
26.43363 2671
26.45374 3447
26.47386 4780
26.49397 6692
26.51409 9528
26.5342 13177
26.55431 17389
26.57443 21293
26.59454 23612
26.61465 23455
26.63477 20987
26.65488 16972
26.67499 12840
26.69511 9228
26.71522 6029
26.73534 3698
26.75545 2304
26.77556 1653
26.79568 1397
26.81579 1249
26.8359 1124
26.85602 1163
26.87613 983
26.89625 959
26.91636 897
26.93647 882
26.95659 833
26.9767 874
26.99681 783
27.01693 786
27.03704 732
27.05716 749
27.07727 760
27.09738 629
27.1175 643
27.13761 579
27.15772 555
27.17784 535
27.19795 558
27.21806 515
27.23818 557
27.25829 611
27.27841 595
27.29852 616
27.31863 613
27.33875 740
27.35886 758
27.37897 841
27.39909 827
27.4192 871
27.43932 783
27.45943 786
27.47954 718
27.49966 666
27.51977 605
27.53988 485
27.56 506
27.58011 447
27.60023 445
27.62034 415
27.64045 399
27.66057 414
27.68068 411
27.70079 417
27.72091 382
27.74102 397
27.76113 357
27.78125 405
27.80136 388
27.82148 340
27.84159 409
27.8617 379
27.88182 412
27.90193 422
27.92204 409
27.94216 389
27.96227 375
27.98239 351
28.0025 383
28.02261 380
28.04273 414
28.06284 419
28.08295 367
28.10307 381
28.12318 378
28.1433 376
28.16341 370
28.18352 412
28.20364 351
28.22375 397
28.24386 349
28.26398 356
28.28409 349
28.3042 369
28.32432 341
28.34443 366
28.36455 336
28.38466 377
28.40477 345
28.42489 322
28.445 396
28.46511 351
28.48523 331
28.50534 365
28.52546 401
28.54557 368
28.56568 399
28.5858 377
28.60591 349
28.62602 351
28.64614 368
28.66625 345
28.68636 351
28.70648 349
28.72659 342
28.74671 351
28.76682 352
28.78693 326
28.80705 348
28.82716 345
28.84727 360
28.86739 315
28.8875 358
28.90762 347
28.92773 328
28.94784 348
28.96796 352
28.98807 345
29.00818 316
29.0283 336
29.04841 332
29.06853 316
29.08864 348
29.10875 354
29.12887 351
29.14898 361
29.16909 374
29.18921 320
29.20932 358
29.22943 362
29.24955 349
29.26966 388
29.28978 365
29.30989 415
29.33 394
29.35012 451
29.37023 499
29.39034 411
29.41046 420
29.43057 488
29.45069 413
29.4708 369
29.49091 369
29.51103 355
29.53114 363
29.55125 321
29.57137 331
29.59148 331
29.6116 344
29.63171 354
29.65182 328
29.67194 333
29.69205 345
29.71216 335
29.73228 324
29.75239 337
29.7725 317
29.79262 291
29.81273 324
29.83285 320
29.85296 322
29.87307 341
29.89319 344
29.9133 327
29.93341 353
29.95353 374
29.97364 349
29.99376 353
30.01387 376
30.03398 408
30.0541 363
30.07421 377
30.09432 397
30.11444 389
30.13455 375
30.15467 405
30.17478 404
30.19489 395
30.21501 383
30.23512 379
30.25523 345
30.27535 404
30.29546 325
30.31557 322
30.33569 342
30.3558 365
30.37592 361
30.39603 307
30.41614 345
30.43626 322
30.45637 314
30.47648 295
30.4966 309
30.51671 307
30.53683 331
30.55694 305
30.57705 341
30.59717 337
30.61728 353
30.63739 369
30.65751 381
30.67762 370
30.69773 382
30.71785 352
30.73796 373
30.75808 378
30.77819 386
30.7983 362
30.81842 369
30.83853 357
30.85864 361
30.87876 361
30.89887 342
30.91899 348
30.9391 307
30.95921 312
30.97933 299
30.99944 320
31.01955 296
31.03967 328
31.05978 319
31.0799 332
31.10001 302
31.12012 266
31.14024 333
31.16035 296
31.18046 291
31.20058 338
31.22069 264
31.2408 315
31.26092 287
31.28103 327
31.30115 326
31.32126 296
31.34137 289
31.36149 323
31.3816 279
31.40171 300
31.42183 321
31.44194 307
31.46206 294
31.48217 327
31.50228 325
31.5224 309
31.54251 297
31.56262 303
31.58274 318
31.60285 264
31.62297 277
31.64308 280
31.66319 284
31.68331 287
31.70342 306
31.72353 278
31.74365 268
31.76376 324
31.78387 306
31.80399 293
31.8241 285
31.84422 316
31.86433 312
31.88444 298
31.90456 322
31.92467 287
31.94478 320
31.9649 314
31.98501 298
32.00513 308
32.02524 335
32.04535 327
32.06547 327
32.08558 327
32.10569 332
32.12581 297
32.14592 340
32.16604 306
32.18615 308
32.20626 308
32.22638 316
32.24649 320
32.2666 320
32.28672 298
32.30683 336
32.32694 324
32.34706 314
32.36717 335
32.38729 329
32.4074 332
32.42751 325
32.44763 355
32.46774 345
32.48785 346
32.50797 323
32.52808 331
32.5482 299
32.56831 339
32.58842 349
32.60854 297
32.62865 296
32.64876 332
32.66888 316
32.68899 299
32.7091 336
32.72922 324
32.74933 314
32.76945 288
32.78956 323
32.80967 315
32.82979 318
32.8499 345
32.87001 351
32.89013 331
32.91024 342
32.93036 331
32.95047 331
32.97058 370
32.9907 387
33.01081 385
33.03092 373
33.05104 361
33.07115 439
33.09127 414
33.11138 388
33.13149 369
33.15161 393
33.17172 382
33.19183 374
33.21195 359
33.23206 374
33.25217 367
33.27229 343
33.2924 352
33.31252 348
33.33263 349
33.35274 355
33.37286 400
33.39297 367
33.41308 387
33.4332 346
33.45331 306
33.47343 356
33.49354 364
33.51365 359
33.53377 355
33.55388 331
33.57399 346
33.59411 335
33.61422 302
33.63434 363
33.65445 312
33.67456 357
33.69468 346
33.71479 345
33.7349 320
33.75502 321
33.77513 303
33.79524 368
33.81536 352
33.83547 316
33.85559 338
33.8757 328
33.89581 381
33.91593 353
33.93604 342
33.95615 386
33.97627 374
33.99638 369
34.0165 375
34.03661 360
34.05672 376
34.07684 378
34.09695 398
34.11706 372
34.13718 416
34.15729 387
34.17741 386
34.19752 384
34.21763 351
34.23775 361
34.25786 335
34.27797 347
34.29809 376
34.3182 350
34.33831 357
34.35843 322
34.37854 326
34.39866 322
34.41877 351
34.43888 321
34.459 308
34.47911 354
34.49922 350
34.51934 356
34.53945 339
34.55957 372
34.57968 343
34.59979 360
34.61991 365
34.64002 370
34.66013 387
34.68025 384
34.70036 402
34.72047 332
34.74059 388
34.7607 348
34.78082 406
34.80093 420
34.82104 369
34.84116 411
34.86127 416
34.88138 438
34.9015 427
34.92161 405
34.94173 414
34.96184 414
34.98195 414
35.00207 399
35.02218 412
35.04229 434
35.06241 391
35.08252 413
35.10264 406
35.12275 399
35.14286 419
35.16298 425
35.18309 396
35.2032 411
35.22332 391
35.24343 440
35.26354 467
35.28366 418
35.30377 472
35.32389 476
35.344 446
35.36411 456
35.38423 476
35.40434 464
35.42445 465
35.44457 510
35.46468 489
35.4848 507
35.50491 528
35.52502 501
35.54514 509
35.56525 484
35.58536 471
35.60548 463
35.62559 505
35.64571 453
35.66582 434
35.68593 478
35.70605 422
35.72616 427
35.74627 467
35.76639 498
35.7865 468
35.80661 407
35.82673 450
35.84684 442
35.86696 448
35.88707 418
35.90718 442
35.9273 424
35.94741 453
35.96752 410
35.98764 433
36.00775 415
36.02787 437
36.04798 420
36.06809 405
36.08821 379
36.10832 369
36.12843 414
36.14855 404
36.16866 376
36.18878 362
36.20889 408
36.229 437
36.24912 446
36.26923 477
36.28934 447
36.30946 529
36.32957 590
36.34968 683
36.3698 778
36.38991 849
36.41003 1086
36.43014 1285
36.45025 1552
36.47037 1756
36.49048 1897
36.51059 1896
36.53071 1675
36.55082 1459
36.57094 1335
36.59105 1171
36.61116 1085
36.63128 840
36.65139 697
36.6715 586
36.69162 491
36.71173 468
36.73184 463
36.75196 462
36.77207 435
36.79219 425
36.8123 464
36.83241 427
36.85253 441
36.87264 453
36.89275 396
36.91287 408
36.93298 405
36.9531 426
36.97321 444
36.99332 446
37.01344 458
37.03355 428
37.05366 417
37.07378 468
37.09389 429
37.11401 434
37.13412 451
37.15423 415
37.17435 432
37.19446 434
37.21457 420
37.23469 400
37.2548 432
37.27491 356
37.29503 379
37.31514 398
37.33526 368
37.35537 416
37.37548 398
37.3956 399
37.41571 416
37.43582 363
37.45594 385
37.47605 409
37.49617 422
37.51628 434
37.53639 402
37.55651 411
37.57662 427
37.59673 418
37.61685 428
37.63696 382
37.65708 400
37.67719 412
37.6973 395
37.71742 432
37.73753 361
37.75764 374
37.77776 405
37.79787 335
37.81798 375
37.8381 339
37.85821 388
37.87833 348
37.89844 333
37.91855 323
37.93867 342
37.95878 346
37.97889 361
37.99901 381
38.01912 335
38.03924 373
38.05935 384
38.07946 383
38.09958 339
38.11969 368
38.1398 385
38.15992 370
38.18003 396
38.20015 368
38.22026 381
38.24037 354
38.26049 382
38.2806 359
38.30071 373
38.32083 410
38.34094 399
38.36105 413
38.38117 373
38.40128 372
38.4214 434
38.44151 377
38.46162 415
38.48174 413
38.50185 413
38.52196 375
38.54208 381
38.56219 392
38.58231 347
38.60242 365
38.62253 397
38.64265 358
38.66276 344
38.68287 359
38.70299 310
38.7231 317
38.74321 339
38.76333 369
38.78344 309
38.80356 348
38.82367 314
38.84378 347
38.8639 354
38.88401 345
38.90412 352
38.92424 371
38.94435 359
38.96447 385
38.98458 373
39.00469 377
39.02481 353
39.04492 356
39.06503 419
39.08515 385
39.10526 381
39.12538 413
39.14549 397
39.1656 414
39.18572 435
39.20583 458
39.22594 456
39.24606 531
39.26617 594
39.28628 652
39.3064 793
39.32651 915
39.34663 1089
39.36674 1405
39.38685 1488
39.40697 1678
39.42708 1667
39.44719 1642
39.46731 1425
39.48742 1192
39.50754 1052
39.52765 1012
39.54776 834
39.56788 678
39.58799 572
39.6081 490
39.62822 391
39.64833 372
39.66845 390
39.68856 375
39.70867 360
39.72879 368
39.7489 326
39.76901 325
39.78913 351
39.80924 342
39.82935 336
39.84947 338
39.86958 290
39.8897 314
39.90981 372
39.92992 354
39.95004 350
39.97015 354
39.99026 375
40.01038 370
40.03049 401
40.05061 404
40.07072 416
40.09083 453
40.11095 540
40.13106 537
40.15117 650
40.17129 752
40.1914 901
40.21152 925
40.23163 1040
40.25174 1006
40.27186 922
40.29197 799
40.31208 781
40.3322 698
40.35231 658
40.37242 626
40.39254 577
40.41265 489
40.43277 394
40.45288 387
40.47299 353
40.49311 358
40.51322 346
40.53333 373
40.55345 357
40.57356 377
40.59368 349
40.61379 366
40.6339 369
40.65402 306
40.67413 373
40.69424 324
40.71436 351
40.73447 364
40.75458 356
40.7747 335
40.79481 338
40.81493 353
40.83504 371
40.85515 377
40.87527 369
40.89538 361
40.91549 337
40.93561 340
40.95572 321
40.97584 335
40.99595 327
41.01606 344
41.03618 341
41.05629 363
41.0764 302
41.09652 335
41.11663 374
41.13675 372
41.15686 345
41.17697 326
41.19709 367
41.2172 342
41.23731 324
41.25743 345
41.27754 331
41.29765 355
41.31777 343
41.33788 367
41.358 352
41.37811 337
41.39822 350
41.41834 335
41.43845 348
41.45856 351
41.47868 340
41.49879 383
41.51891 346
41.53902 359
41.55913 364
41.57925 371
41.59936 351
41.61947 354
41.63959 353
41.6597 405
41.67982 397
41.69993 390
41.72004 441
41.74016 411
41.76027 452
41.78038 382
41.8005 358
41.82061 378
41.84072 406
41.86084 374
41.88095 364
41.90107 367
41.92118 342
41.94129 340
41.96141 332
41.98152 322
42.00163 314
42.02175 320
42.04186 299
42.06198 344
42.08209 367
42.1022 316
42.12232 374
42.14243 344
42.16254 371
42.18266 377
42.20277 401
42.22289 435
42.243 447
42.26311 506
42.28323 605
42.30334 708
42.32345 852
42.34357 1023
42.36368 1117
42.38379 1248
42.40391 1239
42.42402 1191
42.44414 1033
42.46425 936
42.48436 892
42.50448 819
42.52459 723
42.5447 596
42.56482 575
42.58493 429
42.60505 375
42.62516 357
42.64527 365
42.66539 335
42.6855 346
42.70561 347
42.72573 326
42.74584 318
42.76595 294
42.78607 319
42.80618 292
42.8263 315
42.84641 293
42.86652 294
42.88664 272
42.90675 322
42.92686 303
42.94698 321
42.96709 260
42.98721 297
43.00732 304
43.02743 272
43.04755 294
43.06766 300
43.08777 297
43.10789 281
43.128 300
43.14812 290
43.16823 286
43.18834 313
43.20846 286
43.22857 279
43.24868 282
43.2688 296
43.28891 269
43.30902 281
43.32914 302
43.34925 282
43.36937 273
43.38948 293
43.40959 319
43.42971 281
43.44982 282
43.46993 275
43.49005 276
43.51016 301
43.53028 316
43.55039 289
43.5705 290
43.59062 302
43.61073 283
43.63084 251
43.65096 317
43.67107 287
43.69119 297
43.7113 289
43.73141 274
43.75153 276
43.77164 272
43.79175 265
43.81187 264
43.83198 279
43.85209 275
43.87221 297
43.89232 277
43.91244 280
43.93255 292
43.95266 309
43.97278 308
43.99289 305
44.013 333
44.03312 300
44.05323 322
44.07335 320
44.09346 304
44.11357 336
44.13369 320
44.1538 302
44.17391 298
44.19403 324
44.21414 344
44.23426 333
44.25437 307
44.27448 313
44.2946 296
44.31471 293
44.33482 287
44.35494 295
44.37505 306
44.39516 302
44.41528 276
44.43539 288
44.45551 329
44.47562 277
44.49573 301
44.51585 285
44.53596 301
44.55607 311
44.57619 296
44.5963 329
44.61642 303
44.63653 272
44.65664 310
44.67676 288
44.69687 298
44.71698 295
44.7371 290
44.75721 294
44.77732 300
44.79744 278
44.81755 273
44.83767 310
44.85778 299
44.87789 304
44.89801 290
44.91812 259
44.93823 285
44.95835 300
44.97846 310
44.99858 310
45.01869 314
45.0388 276
45.05892 322
45.07903 332
45.09914 286
45.11926 288
45.13937 266
45.15949 286
45.1796 309
45.19971 275
45.21983 320
45.23994 346
45.26005 328
45.28017 324
45.30028 324
45.32039 353
45.34051 316
45.36062 298
45.38074 346
45.40085 373
45.42096 323
45.44108 387
45.46119 367
45.4813 363
45.50142 382
45.52153 411
45.54165 421
45.56176 427
45.58187 463
45.60199 479
45.6221 536
45.64221 584
45.66233 724
45.68244 748
45.70256 923
45.72267 876
45.74278 970
45.7629 909
45.78301 811
45.80312 727
45.82324 714
45.84335 662
45.86346 548
45.88358 563
45.90369 514
45.92381 445
45.94392 384
45.96403 348
45.98415 300
46.00426 318
46.02437 296
46.04449 318
46.0646 303
46.08472 294
46.10483 308
46.12494 301
46.14506 277
46.16517 307
46.18528 328
46.2054 319
46.22551 287
46.24563 311
46.26574 292
46.28585 308
46.30597 301
46.32608 286
46.34619 287
46.36631 269
46.38642 277
46.40653 284
46.42665 266
46.44676 324
46.46688 263
46.48699 281
46.5071 272
46.52722 310
46.54733 301
46.56744 287
46.58756 300
46.60767 293
46.62779 295
46.6479 271
46.66801 275
46.68813 259
46.70824 271
46.72835 289
46.74847 248
46.76858 288
46.78869 275
46.80881 268
46.82892 282
46.84904 276
46.86915 307
46.88926 277
46.90938 297
46.92949 336
46.9496 304
46.96972 313
46.98983 332
47.00995 329
47.03006 344
47.05017 313
47.07029 320
47.0904 316
47.11051 317
47.13063 284
47.15074 270
47.17086 307
47.19097 309
47.21108 311
47.2312 300
47.25131 310
47.27142 291
47.29154 290
47.31165 298
47.33176 304
47.35188 258
47.37199 321
47.39211 295
47.41222 314
47.43233 302
47.45245 321
47.47256 283
47.49267 297
47.51279 326
47.5329 322
47.55302 297
47.57313 270
47.59324 278
47.61336 258
47.63347 287
47.65358 272
47.6737 299
47.69381 266
47.71393 282
47.73404 318
47.75415 317
47.77427 252
47.79438 326
47.81449 281
47.83461 273
47.85472 255
47.87483 305
47.89495 297
47.91506 294
47.93518 303
47.95529 289
47.9754 282
47.99552 272
48.01563 278
48.03574 314
48.05586 283
48.07597 294
48.09609 274
48.1162 270
48.13631 263
48.15643 298
48.17654 257
48.19665 285
48.21677 292
48.23688 299
48.257 264
48.27711 283
48.29722 283
48.31734 263
48.33745 272
48.35756 286
48.37768 265
48.39779 277
48.4179 288
48.43802 286
48.45813 288
48.47825 274
48.49836 282
48.51847 315
48.53859 305
48.5587 315
48.57881 291
48.59893 280
48.61904 327
48.63916 294
48.65927 299
48.67938 315
48.6995 282
48.71961 302
48.73972 316
48.75984 288
48.77995 303
48.80006 312
48.82018 280
48.84029 318
48.86041 327
48.88052 302
48.90063 289
48.92075 321
48.94086 293
48.96097 291
48.98109 281
49.0012 269
49.02132 293
49.04143 335
49.06154 299
49.08166 325
49.10177 279
49.12188 298
49.142 315
49.16211 323
49.18223 302
49.20234 286
49.22245 316
49.24257 323
49.26268 267
49.28279 300
49.30291 288
49.32302 322
49.34313 310
49.36325 313
49.38336 342
49.40348 293
49.42359 355
49.4437 317
49.46382 309
49.48393 323
49.50404 316
49.52416 332
49.54427 340
49.56439 313
49.5845 348
49.60461 318
49.62473 333
49.64484 316
49.66495 337
49.68507 382
49.70518 395
49.7253 360
49.74541 370
49.76552 388
49.78564 445
49.80575 442
49.82586 446
49.84598 486
49.86609 475
49.8862 594
49.90632 641
49.92643 789
49.94655 910
49.96666 1031
49.98677 1370
50.00689 1582
50.027 1963
50.04711 2330
50.06723 2515
50.08734 2567
50.10746 2484
50.12757 2092
50.14768 1781
50.1678 1522
50.18791 1505
50.20802 1493
50.22814 1443
50.24825 1205
50.26837 935
50.28848 696
50.30859 540
50.32871 468
50.34882 455
50.36893 429
50.38905 453
50.40916 427
50.42927 450
50.44939 422
50.4695 420
50.48962 423
50.50973 433
50.52984 443
50.54996 415
50.57007 429
50.59018 426
50.6103 407
50.63041 377
50.65053 373
50.67064 356
50.69075 381
50.71087 358
50.73098 336
50.75109 328
50.77121 351
50.79132 339
50.81143 354
50.83155 297
50.85166 318
50.87178 327
50.89189 328
50.912 320
50.93212 312
50.95223 335
50.97234 299
50.99246 317
51.01257 310
51.03269 309
51.0528 307
51.07291 314
51.09303 314
51.11314 295
51.13325 277
51.15337 283
51.17348 301
51.1936 311
51.21371 303
51.23382 289
51.25394 283
51.27405 295
51.29416 274
51.31428 280
51.33439 283
51.3545 280
51.37462 260
51.39473 279
51.41485 275
51.43496 286
51.45507 287
51.47519 290
51.4953 284
51.51541 274
51.53553 277
51.55564 263
51.57576 285
51.59587 282
51.61598 284
51.6361 265
51.65621 266
51.67632 316
51.69644 288
51.71655 266
51.73667 281
51.75678 278
51.77689 304
51.79701 257
51.81712 283
51.83723 247
51.85735 265
51.87746 291
51.89757 271
51.91769 272
51.9378 272
51.95792 280
51.97803 286
51.99814 270
52.01826 287
52.03837 303
52.05848 297
52.0786 269
52.09871 283
52.11883 289
52.13894 273
52.15905 271
52.17917 288
52.19928 295
52.21939 287
52.23951 296
52.25962 327
52.27974 286
52.29985 307
52.31996 290
52.34008 289
52.36019 288
52.3803 287
52.40042 259
52.42053 272
52.44064 272
52.46076 281
52.48087 263
52.50099 255
52.5211 271
52.54121 283
52.56133 270
52.58144 239
52.60155 302
52.62167 296
52.64178 262
52.6619 274
52.68201 279
52.70212 303
52.72224 283
52.74235 275
52.76246 284
52.78258 307
52.80269 282
52.8228 291
52.84292 284
52.86303 271
52.88315 276
52.90326 285
52.92337 269
52.94349 295
52.9636 273
52.98371 263
53.00383 286
53.02394 266
53.04406 276
53.06417 259
53.08428 273
53.1044 260
53.12451 256
53.14462 270
53.16474 284
53.18485 322
53.20497 285
53.22508 309
53.24519 278
53.26531 329
53.28542 309
53.30553 292
53.32565 307
53.34576 301
53.36587 305
53.38599 320
53.4061 291
53.42622 274
53.44633 299
53.46644 332
53.48656 285
53.50667 320
53.52678 336
53.5469 320
53.56701 301
53.58713 313
53.60724 308
53.62735 336
53.64747 316
53.66758 321
53.68769 322
53.70781 343
53.72792 335
53.74804 334
53.76815 303
53.78826 328
53.80838 339
53.82849 357
53.8486 354
53.86872 358
53.88883 356
53.90894 359
53.92906 373
53.94917 361
53.96929 378
53.9894 367
54.00951 377
54.02963 398
54.04974 384
54.06985 359
54.08997 369
54.11008 390
54.1302 365
54.15031 356
54.17042 361
54.19054 356
54.21065 354
54.23076 395
54.25088 388
54.27099 372
54.29111 351
54.31122 371
54.33133 349
54.35145 380
54.37156 347
54.39167 352
54.41179 373
54.4319 403
54.45201 367
54.47213 401
54.49224 393
54.51236 386
54.53247 379
54.55258 388
54.5727 385
54.59281 411
54.61292 416
54.63304 453
54.65315 474
54.67327 516
54.69338 595
54.71349 604
54.73361 737
54.75372 796
54.77383 886
54.79395 936
54.81406 944
54.83417 933
54.85429 891
54.8744 785
54.89452 705
54.91463 654
54.93474 671
54.95486 698
54.97497 660
54.99508 637
55.0152 581
55.03531 466
55.05543 457
55.07554 403
55.09565 389
55.11577 409
55.13588 425
55.15599 467
55.17611 451
55.19622 531
55.21634 550
55.23645 591
55.25656 593
55.27668 639
55.29679 578
55.3169 541
55.33702 544
55.35713 480
55.37724 473
55.39736 458
55.41747 462
55.43759 454
55.4577 437
55.47781 381
55.49793 373
55.51804 330
55.53815 323
55.55827 327
55.57838 321
55.5985 369
55.61861 307
55.63872 309
55.65884 299
55.67895 340
55.69906 287
55.71918 304
55.73929 296
55.75941 323
55.77952 318
55.79963 313
55.81975 293
55.83986 321
55.85997 287
55.88009 289
55.9002 287
55.92031 308
55.94043 311
55.96054 284
55.98066 289
56.00077 315
56.02088 305
56.041 294
56.06111 281
56.08122 268
56.10134 293
56.12145 292
56.14157 287
56.16168 269
56.18179 295
56.20191 286
56.22202 301
56.24213 264
56.26225 274
56.28236 289
56.30248 279
56.32259 288
56.3427 280
56.36282 283
56.38293 286
56.40304 253
56.42316 311
56.44327 285
56.46338 288
56.4835 281
56.50361 267
56.52373 277
56.54384 285
56.56395 255
56.58407 281
56.60418 297
56.62429 286
56.64441 266
56.66452 281
56.68464 318
56.70475 274
56.72486 265
56.74498 322
56.76509 313
56.7852 283
56.80532 292
56.82543 275
56.84554 297
56.86566 303
56.88577 282
56.90589 263
56.926 278
56.94611 294
56.96623 297
56.98634 277
57.00645 290
57.02657 287
57.04668 283
57.0668 295
57.08691 310
57.10702 314
57.12714 295
57.14725 315
57.16736 313
57.18748 324
57.20759 277
57.22771 294
57.24782 299
57.26793 315
57.28805 298
57.30816 304
57.32827 305
57.34839 276
57.3685 306
57.38861 297
57.40873 314
57.42884 289
57.44896 261
57.46907 323
57.48918 275
57.5093 274
57.52941 291
57.54952 282
57.56964 288
57.58975 283
57.60987 279
57.62998 313
57.65009 278
57.67021 263
57.69032 285
57.71043 257
57.73055 288
57.75066 278
57.77078 298
57.79089 282
57.811 276
57.83112 259
57.85123 289
57.87134 322
57.89146 296
57.91157 262
57.93168 296
57.9518 282
57.97191 288
57.99203 276
58.01214 265
58.03225 295
58.05237 291
58.07248 288
58.09259 294
58.11271 290
58.13282 300
58.15294 303
58.17305 336
58.19316 275
58.21328 250
58.23339 282
58.2535 293
58.27362 264
58.29373 286
58.31385 283
58.33396 288
58.35407 284
58.37419 286
58.3943 286
58.41441 288
58.43453 268
58.45464 255
58.47475 271
58.49487 266
58.51498 284
58.5351 302
58.55521 298
58.57532 306
58.59544 304
58.61555 283
58.63566 300
58.65578 311
58.67589 290
58.69601 287
58.71612 278
58.73623 293
58.75635 260
58.77646 279
58.79657 272
58.81669 264
58.8368 281
58.85691 295
58.87703 246
58.89714 265
58.91726 257
58.93737 282
58.95748 277
58.9776 275
58.99771 288
59.01782 298
59.03794 271
59.05805 269
59.07817 275
59.09828 291
59.11839 317
59.13851 290
59.15862 283
59.17873 283
59.19885 291
59.21896 294
59.23908 275
59.25919 288
59.2793 295
59.29942 301
59.31953 293
59.33964 300
59.35976 261
59.37987 260
59.39998 304
59.4201 302
59.44021 297
59.46033 322
59.48044 331
59.50055 329
59.52067 336
59.54078 350
59.56089 357
59.58101 354
59.60112 393
59.62124 418
59.64135 413
59.66146 453
59.68158 496
59.70169 527
59.7218 594
59.74192 648
59.76203 774
59.78215 922
59.80226 1055
59.82237 1195
59.84249 1417
59.8626 1550
59.88271 1761
59.90283 1752
59.92294 1620
59.94305 1407
59.96317 1197
59.98328 1095
60.0034 1016
60.02351 1005
60.04362 1044
60.06374 1064
60.08385 940
60.10396 833
60.12408 627
60.14419 548
60.16431 467
60.18442 451
60.20453 395
60.22465 356
60.24476 357
60.26487 321
60.28499 345
60.3051 330
60.32522 326
60.34533 276
60.36544 302
60.38556 316
60.40567 317
60.42578 310
60.4459 286
60.46601 289
60.48612 303
60.50624 269
60.52635 294
60.54647 316
60.56658 272
60.58669 325
60.60681 288
60.62692 282
60.64703 298
60.66715 286
60.68726 273
60.70738 295
60.72749 280
60.7476 261
60.76772 301
60.78783 281
60.80794 287
60.82806 291
60.84817 291
60.86828 281
60.8884 303
60.90851 291
60.92863 298
60.94874 292
60.96885 276
60.98897 266
61.00908 305
61.02919 290
61.04931 282
61.06942 270
61.08954 309
61.10965 286
61.12976 306
61.14988 287
61.16999 294
61.1901 271
61.21022 297
61.23033 267
61.25045 295
61.27056 270
61.29067 304
61.31079 277
61.3309 280
61.35101 279
61.37113 240
61.39124 288
61.41135 263
61.43147 295
61.45158 285
61.4717 251
61.49181 255
61.51192 286
61.53204 280
61.55215 290
61.57226 286
61.59238 286
61.61249 261
61.63261 262
61.65272 272
61.67283 271
61.69295 294
61.71306 272
61.73317 297
61.75329 276
61.7734 306
61.79352 289
61.81363 265
61.83374 283
61.85386 254
61.87397 287
61.89408 312
61.9142 302
61.93431 315
61.95442 298
61.97454 284
61.99465 293
62.01477 298
62.03488 299
62.05499 323
62.07511 358
62.09522 309
62.11533 324
62.13545 322
62.15556 380
62.17568 349
62.19579 346
62.2159 351
62.23602 331
62.25613 353
62.27624 375
62.29636 323
62.31647 329
62.33659 351
62.3567 327
62.37681 355
62.39693 326
62.41704 365
62.43715 350
62.45727 371
62.47738 332
62.49749 320
62.51761 338
62.53772 323
62.55784 327
62.57795 325
62.59806 330
62.61818 301
62.63829 313
62.6584 319
62.67852 328
62.69863 286
62.71875 315
62.73886 316
62.75897 288
62.77909 310
62.7992 306
62.81931 301
62.83943 317
62.85954 276
62.87965 283
62.89977 328
62.91988 278
62.94 318
62.96011 294
62.98022 319
63.00034 310
63.02045 307
63.04056 301
63.06068 320
63.08079 314
63.10091 296
63.12102 297
63.14113 302
63.16125 292
63.18136 275
63.20147 287
63.22159 237
63.2417 279
63.26182 283
63.28193 289
63.30204 280
63.32216 317
63.34227 299
63.36238 267
63.3825 266
63.40261 275
63.42272 284
63.44284 294
63.46295 311
63.48307 316
63.50318 294
63.52329 294
63.54341 296
63.56352 306
63.58363 298
63.60375 308
63.62386 289
63.64398 284
63.66409 338
63.6842 305
63.70432 324
63.72443 348
63.74454 331
63.76466 351
63.78477 349
63.80489 383
63.825 386
63.84511 415
63.86523 452
63.88534 479
63.90545 514
63.92557 544
63.94568 576
63.96579 532
63.98591 565
64.00602 535
64.02614 471
64.04625 450
64.06636 425
64.08648 406
64.10659 441
64.1267 457
64.14682 415
64.16693 442
64.18705 372
64.20716 355
64.22727 332
64.24739 300
64.2675 312
64.28761 302
64.30773 318
64.32784 287
64.34796 302
64.36807 284
64.38818 285
64.4083 294
64.42841 299
64.44852 301
64.46864 295
64.48875 289
64.50886 292
64.52898 269
64.54909 300
64.56921 275
64.58932 249
64.60943 277
64.62955 315
64.64966 291
64.66977 257
64.68989 272
64.71 297
64.73012 301
64.75023 256
64.77034 258
64.79046 302
64.81057 281
64.83068 279
64.8508 294
64.87091 296
64.89102 283
64.91114 255
64.93125 258
64.95137 265
64.97148 267
64.99159 282
65.01171 288
65.03182 299
65.05193 297
65.07205 307
65.09216 288
65.11228 290
65.13239 272
65.1525 288
65.17262 295
65.19273 321
65.21284 303
65.23296 282
65.25307 293
65.27319 280
65.2933 270
65.31341 272
65.33353 279
65.35364 287
65.37375 261
65.39387 294
65.41398 244
65.43409 303
65.45421 281
65.47432 280
65.49444 258
65.51455 252
65.53466 259
65.55478 307
65.57489 276
65.595 283
65.61512 292
65.63523 289
65.65535 357
65.67546 326
65.69557 343
65.71569 347
65.7358 322
65.75591 350
65.77603 320
65.79614 292
65.81626 286
65.83637 283
65.85648 290
65.8766 292
65.89671 310
65.91682 319
65.93694 277
65.95705 333
65.97716 288
65.99728 272
66.01739 276
66.03751 280
66.05762 255
66.07773 270
66.09785 273
66.11796 286
66.13807 273
66.15819 303
66.1783 281
66.19842 304
66.21853 267
66.23864 280
66.25876 274
66.27887 323
66.29898 280
66.3191 279
66.33921 289
66.35933 259
66.37944 276
66.39955 273
66.41967 256
66.43978 263
66.45989 306
66.48001 257
66.50012 225
66.52023 252
66.54035 264
66.56046 269
66.58058 269
66.60069 270
66.6208 284
66.64092 276
66.66103 259
66.68114 265
66.70126 279
66.72137 259
66.74149 261
66.7616 265
66.78171 269
66.80183 248
66.82194 262
66.84205 286
66.86217 270
66.88228 260
66.90239 267
66.92251 273
66.94262 262
66.96274 294
66.98285 273
67.00296 282
67.02308 273
67.04319 267
67.0633 281
67.08342 248
67.10353 270
67.12365 287
67.14376 297
67.16387 300
67.18399 295
67.2041 288
67.22421 297
67.24433 301
67.26444 305
67.28456 307
67.30467 286
67.32478 300
67.3449 332
67.36501 349
67.38512 334
67.40524 351
67.42535 348
67.44546 350
67.46558 387
67.48569 386
67.50581 495
67.52592 534
67.54603 598
67.56615 643
67.58626 727
67.60637 869
67.62649 912
67.6466 1039
67.66672 1099
67.68683 1062
67.70694 1115
67.72706 926
67.74717 797
67.76728 748
67.7874 686
67.80751 753
67.82763 760
67.84774 818
67.86785 800
67.88797 766
67.90808 831
67.92819 818
67.94831 780
67.96842 811
67.98853 963
68.00865 1035
68.02876 1185
68.04888 1350
68.06899 1380
68.0891 1451
68.10922 1397
68.12933 1308
68.14944 1158
68.16956 1079
68.18967 1137
68.20979 1327
68.2299 1370
68.25001 1361
68.27013 1310
68.29024 1254
68.31035 1047
68.33047 901
68.35058 751
68.3707 648
68.39081 658
68.41092 619
68.43104 633
68.45115 623
68.47126 574
68.49138 525
68.51149 458
68.5316 369
68.55172 323
68.57183 335
68.59195 315
68.61206 323
68.63217 308
68.65229 317
68.6724 304
68.69251 256
68.71263 274
68.73274 262
68.75286 316
68.77297 288
68.79308 279
68.8132 282
68.83331 312
68.85342 302
68.87354 283
68.89365 262
68.91376 263
68.93388 289
68.95399 283
68.97411 274
68.99422 285
69.01433 265
69.03445 268
69.05456 275
69.07467 262
69.09479 256
69.1149 261
69.13502 282
69.15513 248
69.17524 238
69.19536 288
69.21547 243
69.23558 247
69.2557 270
69.27581 242
69.29593 273
69.31604 261
69.33615 277
69.35627 242
69.37638 251
69.39649 251
69.41661 239
69.43672 260
69.45683 267
69.47695 246
69.49706 245
69.51718 271
69.53729 256
69.5574 241
69.57752 257
69.59763 252
69.61774 264
69.63786 254
69.65797 268
69.67809 272
69.6982 239
69.71831 259
69.73843 263
69.75854 277
69.77865 251
69.79877 251
69.81888 262
69.839 228
69.85911 251
69.87922 256
69.89934 246
69.91945 262
69.93956 247
69.95968 247
69.97979 257
69.9999 288
70.02002 280
70.04013 261
70.06025 238
70.08036 225
70.10047 295
70.12059 256
70.1407 266
70.16081 264
70.18093 264
70.20104 236
70.22116 264
70.24127 270
70.26138 256
70.2815 252
70.30161 236
70.32172 255
70.34184 278
70.36195 260
70.38207 242
70.40218 231
70.42229 237
70.44241 249
70.46252 254
70.48263 246
70.50275 232
70.52286 239
70.54297 287
70.56309 265
70.5832 239
70.60332 278
70.62343 254
70.64354 246
70.66366 266
70.68377 269
70.70388 245
70.724 279
70.74411 246
70.76423 246
70.78434 264
70.80445 257
70.82457 258
70.84468 242
70.86479 241
70.88491 264
70.90502 260
70.92513 258
70.94525 266
70.96536 236
70.98548 261
71.00559 268
71.0257 249
71.04582 264
71.06593 241
71.08604 244
71.10616 248
71.12627 253
71.14639 268
71.1665 263
71.18661 264
71.20673 262
71.22684 259
71.24695 236
71.26707 243
71.28718 240
71.3073 255
71.32741 234
71.34752 256
71.36764 239
71.38775 241
71.40786 274
71.42798 261
71.44809 254
71.4682 264
71.48832 237
71.50843 237
71.52855 254
71.54866 276
71.56877 263
71.58889 252
71.609 270
71.62911 261
71.64923 260
71.66934 276
71.68946 257
71.70957 240
71.72968 244
71.7498 250
71.76991 241
71.79002 259
71.81014 254
71.83025 264
71.85037 283
71.87048 251
71.89059 276
71.91071 276
71.93082 266
71.95093 243
71.97105 256
71.99116 278
72.01127 226
72.03139 282
72.0515 264
72.07162 278
72.09173 285
72.11184 261
72.13196 290
72.15207 290
72.17218 246
72.1923 267
72.21241 273
72.23253 270
72.25264 267
72.27275 260
72.29287 265
72.31298 257
72.33309 247
72.35321 245
72.37332 240
72.39344 240
72.41355 256
72.43366 249
72.45378 248
72.47389 247
72.494 249
72.51412 267
72.53423 266
72.55434 233
72.57446 247
72.59457 243
72.61469 279
72.6348 267
72.65491 235
72.67503 263
72.69514 271
72.71525 249
72.73537 241
72.75548 260
72.7756 261
72.79571 251
72.81582 269
72.83594 274
72.85605 253
72.87616 251
72.89628 231
72.91639 279
72.9365 274
72.95662 284
72.97673 291
72.99685 282
73.01696 280
73.03707 264
73.05719 280
73.0773 277
73.09741 313
73.11753 298
73.13764 290
73.15776 305
73.17787 309
73.19798 277
73.2181 324
73.23821 325
73.25832 357
73.27844 346
73.29855 375
73.31867 397
73.33878 489
73.35889 519
73.37901 557
73.39912 557
73.41923 545
73.43935 523
73.45946 450
73.47957 412
73.49969 385
73.5198 374
73.53992 367
73.56003 386
73.58014 389
73.60026 353
73.62037 418
73.64048 392
73.6606 341
73.68071 375
73.70083 349
73.72094 292
73.74105 302
73.76117 279
73.78128 280
73.80139 271
73.82151 255
73.84162 306
73.86174 260
73.88185 288
73.90196 252
73.92208 257
73.94219 252
73.9623 257
73.98242 255
74.00253 244
74.02264 254
74.04276 272
74.06287 239
74.08299 237
74.1031 233
74.12321 234
74.14333 254
74.16344 247
74.18355 254
74.20367 256
74.22378 263
74.2439 241
74.26401 243
74.28412 262
74.30424 224
74.32435 240
74.34446 234
74.36458 231
74.38469 235
74.40481 234
74.42492 249
74.44503 266
74.46515 244
74.48526 267
74.50537 236
74.52549 249
74.5456 256
74.56571 236
74.58583 240
74.60594 250
74.62606 254
74.64617 244
74.66628 234
74.6864 247
74.70651 268
74.72662 247
74.74674 242
74.76685 258
74.78697 255
74.80708 247
74.82719 266
74.84731 277
74.86742 247
74.88753 231
74.90765 249
74.92776 229
74.94787 252
74.96799 250
74.9881 246
75.00822 274
