3.00117 20801
3.02128 20055
3.0414 19512
3.06151 19177
3.08162 18306
3.10174 18050
3.12185 17855
3.14197 16734
3.16208 16878
3.18219 16031
3.20231 15916
3.22242 14991
3.24253 14566
3.26265 14374
3.28276 13701
3.30288 13456
3.32299 12766
3.3431 12481
3.36322 12289
3.38333 11799
3.40344 11356
3.42356 10877
3.44367 10565
3.46379 10421
3.4839 9650
3.50401 9818
3.52413 9101
3.54424 9010
3.56435 8649
3.58447 8420
3.60458 8094
3.62469 7593
3.64481 7327
3.66492 7187
3.68504 6787
3.70515 6689
3.72526 6215
3.74538 5735
3.76549 5975
3.7856 5564
3.80572 5420
3.82583 5148
3.84595 4839
3.86606 4804
3.88617 4474
3.90629 4326
3.9264 3992
3.94651 3855
3.96663 3892
3.98674 3557
4.00686 3506
4.02697 3235
4.04708 3060
4.0672 3041
4.08731 2957
4.10742 2833
4.12754 2699
4.14765 2356
4.16776 2445
4.18788 2364
4.20799 2230
4.22811 2052
4.24822 1968
4.26833 2006
4.28845 1913
4.30856 1797
4.32867 1703
4.34879 1520
4.3689 1619
4.38902 1621
4.40913 1544
4.42924 1527
4.44936 1520
4.46947 1385
4.48958 1374
4.5097 1340
4.52981 1234
4.54992 1216
4.57004 1206
4.59015 1217
4.61027 1116
4.63038 1095
4.65049 1111
4.67061 1092
4.69072 1089
4.71083 1016
4.73095 1051
4.75106 1026
4.77118 1002
4.79129 949
4.8114 886
4.83152 876
4.85163 789
4.87174 827
4.89186 909
4.91197 775
4.93209 788
4.9522 764
4.97231 731
4.99243 734
5.01254 674
5.03265 683
5.05277 664
5.07288 673
5.09299 668
5.11311 610
5.13322 593
5.15334 607
5.17345 592
5.19356 616
5.21368 562
5.23379 517
5.2539 548
5.27402 530
5.29413 497
5.31425 456
5.33436 545
5.35447 471
5.37459 471
5.3947 478
5.41481 432
5.43493 399
5.45504 427
5.47516 395
5.49527 377
5.51538 384
5.5355 376
5.55561 391
5.57572 382
5.59584 335
5.61595 334
5.63606 324
5.65618 317
5.67629 336
5.69641 339
5.71652 320
5.73663 304
5.75675 307
5.77686 271
5.79697 322
5.81709 326
5.8372 304
5.85732 297
5.87743 242
5.89754 275
5.91766 283
5.93777 246
5.95788 276
5.978 287
5.99811 225
6.01823 222
6.03834 231
6.05845 242
6.07857 270
6.09868 258
6.11879 264
6.13891 262
6.15902 233
6.17913 256
6.19925 241
6.21936 257
6.23948 231
6.25959 228
6.2797 203
6.29982 208
6.31993 209
6.34004 239
6.36016 236
6.38027 204
6.40039 212
6.4205 246
6.44061 233
6.46073 231
6.48084 228
6.50095 213
6.52107 223
6.54118 255
6.56129 225
6.58141 214
6.60152 205
6.62164 248
6.64175 224
6.66186 208
6.68198 207
6.70209 215
6.7222 208
6.74232 251
6.76243 244
6.78255 207
6.80266 198
6.82277 224
6.84289 219
6.863 207
6.88311 205
6.90323 224
6.92334 209
6.94346 225
6.96357 186
6.98368 196
7.0038 239
7.02391 219
7.04402 220
7.06414 195
7.08425 241
7.10436 185
7.12448 219
7.14459 196
7.16471 214
7.18482 200
7.20493 228
7.22505 237
7.24516 198
7.26527 215
7.28539 209
7.3055 215
7.32562 221
7.34573 237
7.36584 194
7.38596 205
7.40607 218
7.42618 225
7.4463 208
7.46641 196
7.48653 226
7.50664 202
7.52675 185
7.54687 214
7.56698 213
7.58709 214
7.60721 203
7.62732 227
7.64743 220
7.66755 242
7.68766 242
7.70778 241
7.72789 219
7.748 205
7.76812 241
7.78823 230
7.80834 195
7.82846 255
7.84857 229
7.86869 214
7.8888 218
7.90891 206
7.92903 226
7.94914 223
7.96925 223
7.98937 246
8.00948 245
8.0296 224
8.04971 217
8.06982 217
8.08994 216
8.11005 230
8.13016 231
8.15028 233
8.17039 260
8.1905 251
8.21062 231
8.23073 257
8.25085 254
8.27096 251
8.29107 237
8.31119 214
8.3313 265
8.35141 257
8.37153 249
8.39164 251
8.41176 234
8.43187 272
8.45198 238
8.4721 253
8.49221 258
8.51232 257
8.53244 299
8.55255 253
8.57266 300
8.59278 278
8.61289 282
8.63301 305
8.65312 318
8.67323 301
8.69335 346
8.71346 387
8.73357 366
8.75369 381
8.7738 381
8.79392 426
8.81403 383
8.83414 386
8.85426 353
8.87437 352
8.89448 329
8.9146 304
8.93471 302
8.95483 265
8.97494 273
8.99505 289
9.01517 282
9.03528 259
9.05539 252
9.07551 277
9.09562 259
9.11573 262
9.13585 280
9.15596 269
9.17608 254
9.19619 258
9.2163 233
9.23642 247
9.25653 221
9.27664 230
9.29676 231
9.31687 215
9.33699 227
9.3571 248
9.37721 201
9.39733 258
9.41744 244
9.43755 224
9.45767 253
9.47778 231
9.4979 223
9.51801 237
9.53812 238
9.55824 264
9.57835 277
9.59846 195
9.61858 243
9.63869 221
9.6588 233
9.67892 234
9.69903 233
9.71915 250
9.73926 219
9.75937 249
9.77949 220
9.7996 228
9.81971 228
9.83983 237
9.85994 255
9.88006 227
9.90017 244
9.92028 225
9.9404 258
9.96051 220
9.98062 211
10.00074 250
10.02085 231
10.04097 220
10.06108 204
10.08119 213
10.10131 215
10.12142 217
10.14153 245
10.16165 244
10.18176 233
10.20187 211
10.22199 231
10.2421 251
10.26222 202
10.28233 249
10.30244 256
10.32256 208
10.34267 246
10.36278 242
10.3829 250
10.40301 239
10.42313 247
10.44324 221
10.46335 215
10.48347 235
10.50358 254
10.52369 243
10.54381 225
10.56392 237
10.58403 222
10.60415 239
10.62426 212
10.64438 220
10.66449 239
10.6846 229
10.70472 199
10.72483 247
10.74494 225
10.76506 239
10.78517 235
10.80529 243
10.8254 249
10.84551 248
10.86563 233
10.88574 219
10.90585 230
10.92597 216
10.94608 248
10.9662 247
10.98631 237
11.00642 224
11.02654 251
11.04665 243
11.06676 230
11.08688 248
11.10699 231
11.1271 245
11.14722 225
11.16733 230
11.18745 248
11.20756 249
11.22767 235
11.24779 228
11.2679 222
11.28801 261
11.30813 279
11.32824 246
11.34836 256
11.36847 285
11.38858 268
11.4087 259
11.42881 245
11.44892 232
11.46904 235
11.48915 247
11.50927 217
11.52938 265
11.54949 246
11.56961 250
11.58972 264
11.60983 256
11.62995 255
11.65006 237
11.67017 221
11.69029 279
11.7104 262
11.73052 275
11.75063 272
11.77074 260
11.79086 271
11.81097 252
11.83108 268
11.8512 264
11.87131 286
11.89143 240
11.91154 261
11.93165 277
11.95177 248
11.97188 251
11.99199 260
12.01211 274
12.03222 273
12.05234 300
12.07245 283
12.09256 273
12.11268 298
12.13279 272
12.1529 288
12.17302 277
12.19313 307
12.21324 267
12.23336 281
12.25347 307
12.27359 308
12.2937 321
12.31381 329
12.33393 283
12.35404 281
12.37415 291
12.39427 305
12.41438 278
12.4345 237
12.45461 284
12.47472 261
12.49484 265
12.51495 271
12.53506 245
12.55518 269
12.57529 258
12.5954 260
12.61552 256
12.63563 264
12.65575 245
12.67586 250
12.69597 241
12.71609 236
12.7362 250
12.75631 219
12.77643 239
12.79654 249
12.81666 245
12.83677 216
12.85688 253
12.877 255
12.89711 232
12.91722 228
12.93734 234
12.95745 236
12.97757 235
12.99768 221
13.01779 258
13.03791 244
13.05802 238
13.07813 250
13.09825 274
13.11836 217
13.13847 268
13.15859 242
13.1787 258
13.19882 254
13.21893 255
13.23904 240
13.25916 226
13.27927 228
13.29938 213
13.3195 253
13.33961 233
13.35973 268
13.37984 258
13.39995 240
13.42007 249
13.44018 236
13.46029 237
13.48041 241
13.50052 232
13.52064 258
13.54075 294
13.56086 291
13.58098 317
13.60109 310
13.6212 313
13.64132 333
13.66143 319
13.68154 297
13.70166 291
13.72177 274
13.74189 329
13.762 309
13.78211 301
13.80223 360
13.82234 383
13.84245 345
13.86257 346
13.88268 383
13.9028 309
13.92291 314
13.94302 288
13.96314 250
13.98325 233
14.00336 253
14.02348 254
14.04359 265
14.06371 225
14.08382 222
14.10393 227
14.12405 203
14.14416 218
14.16427 204
14.18439 220
14.2045 225
14.22461 185
14.24473 211
14.26484 231
14.28496 205
14.30507 225
14.32518 181
14.3453 203
14.36541 215
14.38552 197
14.40564 222
14.42575 210
14.44587 239
14.46598 190
14.48609 220
14.50621 205
14.52632 220
14.54643 231
14.56655 229
14.58666 225
14.60677 220
14.62689 193
14.647 208
14.66712 193
14.68723 179
14.70734 243
14.72746 201
14.74757 200
14.76768 230
14.7878 229
14.80791 200
14.82803 225
14.84814 232
14.86825 278
14.88837 272
14.90848 250
14.92859 237
14.94871 233
14.96882 238
14.98894 249
15.00905 265
15.02916 273
15.04928 245
15.06939 243
15.0895 259
15.10962 260
15.12973 258
15.14984 222
15.16996 231
15.19007 246
15.21019 240
15.2303 187
15.25041 232
15.27053 231
15.29064 231
15.31075 224
15.33087 186
15.35098 194
15.3711 206
15.39121 212
15.41132 195
15.43144 200
15.45155 182
15.47166 205
15.49178 184
15.51189 185
15.53201 205
15.55212 194
15.57223 213
15.59235 189
15.61246 201
15.63257 181
15.65269 197
15.6728 239
15.69291 219
15.71303 227
15.73314 202
15.75326 245
15.77337 260
15.79348 223
15.8136 211
15.83371 222
15.85382 186
15.87394 195
15.89405 206
15.91417 194
15.93428 192
15.95439 173
15.97451 191
15.99462 213
16.01473 201
16.03485 193
16.05496 221
16.07508 199
16.09519 201
16.1153 190
16.13542 180
16.15553 168
16.17564 193
16.19576 171
16.21587 177
16.23598 191
16.2561 186
16.27621 203
16.29633 188
16.31644 182
16.33655 174
16.35667 183
16.37678 170
16.39689 196
16.41701 213
16.43712 210
16.45724 180
16.47735 220
16.49746 210
16.51758 199
16.53769 206
16.5578 195
16.57792 217
16.59803 167
16.61814 193
16.63826 174
16.65837 188
16.67849 181
16.6986 186
16.71871 211
16.73883 178
16.75894 178
16.77905 187
16.79917 182
16.81928 210
16.8394 175
16.85951 206
16.87962 176
16.89974 176
16.91985 200
16.93996 222
16.96008 207
16.98019 197
17.00031 186
17.02042 222
17.04053 202
17.06065 190
17.08076 162
17.10087 183
17.12099 185
17.1411 188
17.16121 194
17.18133 194
17.20144 211
17.22156 191
17.24167 211
17.26178 164
17.2819 186
17.30201 207
17.32212 219
17.34224 194
17.36235 184
17.38247 178
17.40258 194
17.42269 191
17.44281 212
17.46292 199
17.48303 204
17.50315 190
17.52326 187
17.54338 178
17.56349 198
17.5836 192
17.60372 181
17.62383 202
17.64394 195
17.66406 175
17.68417 242
17.70428 203
17.7244 186
17.74451 161
17.76463 209
17.78474 193
17.80485 175
17.82497 173
17.84508 180
17.86519 185
17.88531 218
17.90542 145
17.92554 171
17.94565 211
17.96576 199
17.98588 176
18.00599 239
18.0261 186
18.04622 201
18.06633 185
18.08645 206
18.10656 186
18.12667 186
18.14679 170
18.1669 191
18.18701 189
18.20713 183
18.22724 191
18.24735 191
18.26747 174
18.28758 190
18.3077 210
18.32781 203
18.34792 179
18.36804 197
18.38815 198
18.40826 185
18.42838 197
18.44849 196
18.46861 184
18.48872 191
18.50883 202
18.52895 175
18.54906 178
18.56917 192
18.58929 195
18.6094 186
18.62951 186
18.64963 222
18.66974 217
18.68986 194
18.70997 181
18.73008 208
18.7502 185
18.77031 190
18.79042 201
18.81054 183
18.83065 195
18.85077 193
18.87088 223
18.89099 193
18.91111 234
18.93122 210
18.95133 221
18.97145 190
18.99156 229
19.01168 221
19.03179 199
19.0519 178
19.07202 226
19.09213 219
19.11224 217
19.13236 200
19.15247 201
19.17258 230
19.1927 233
19.21281 213
19.23293 234
19.25304 251
19.27315 282
19.29327 276
19.31338 235
19.33349 248
19.35361 230
19.37372 239
19.39384 207
19.41395 217
19.43406 217
19.45418 214
19.47429 225
19.4944 232
19.51452 247
19.53463 255
19.55475 218
19.57486 216
19.59497 249
19.61509 260
19.6352 239
19.65531 252
19.67543 259
19.69554 271
19.71565 278
19.73577 304
19.75588 282
19.776 251
19.79611 300
19.81622 299
19.83634 328
19.85645 344
19.87656 333
19.89668 330
19.91679 321
19.93691 323
19.95702 314
19.97713 297
19.99725 321
20.01736 310
20.03747 339
20.05759 315
20.0777 276
20.09782 305
20.11793 300
20.13804 301
20.15816 269
20.17827 287
20.19838 296
20.2185 294
20.23861 323
20.25872 309
20.27884 305
20.29895 302
20.31907 340
20.33918 319
20.35929 329
20.37941 333
20.39952 340
20.41963 356
20.43975 338
20.45986 335
20.47998 320
20.50009 352
20.5202 346
20.54032 368
20.56043 376
20.58054 381
20.60066 428
20.62077 443
20.64088 520
20.661 585
20.68111 696
20.70123 887
20.72134 1122
20.74145 1528
20.76157 1918
20.78168 2282
20.80179 2772
20.82191 3320
20.84202 3326
20.86214 3041
20.88225 2700
20.90236 2018
20.92248 1561
20.94259 1379
20.9627 1014
20.98282 1032
21.00293 1005
21.02305 966
21.04316 878
21.06327 779
21.08339 693
21.1035 569
21.12361 452
21.14373 426
21.16384 426
21.18395 401
21.20407 340
21.22418 331
21.2443 341
21.26441 314
21.28452 294
21.30464 313
21.32475 316
21.34486 293
21.36498 323
21.38509 278
21.40521 306
21.42532 285
21.44543 317
21.46555 285
21.48566 277
21.50577 325
21.52589 320
21.546 298
21.56612 296
21.58623 272
21.60634 288
21.62646 300
21.64657 304
21.66668 279
21.6868 319
21.70691 341
21.72702 287
21.74714 343
21.76725 336
21.78737 381
21.80748 362
21.82759 427
21.84771 520
21.86782 629
21.88793 737
21.90805 925
21.92816 1027
21.94828 1264
21.96839 1392
21.9885 1263
22.00862 1191
22.02873 997
22.04884 765
22.06896 635
22.08907 510
22.10919 442
22.1293 386
22.14941 357
22.16953 390
22.18964 378
22.20975 343
22.22987 429
22.24998 353
22.27009 366
22.29021 415
22.31032 390
22.33044 384
22.35055 347
22.37066 344
22.39078 336
22.41089 339
22.431 311
22.45112 325
22.47123 309
22.49135 325
22.51146 345
22.53157 310
22.55169 312
22.5718 332
22.59191 311
22.61203 296
22.63214 339
22.65225 318
22.67237 321
22.69248 280
22.7126 290
22.73271 318
22.75282 297
22.77294 335
22.79305 325
22.81316 316
22.83328 360
22.85339 388
22.87351 478
22.89362 491
22.91373 532
22.93385 518
22.95396 504
22.97407 445
22.99419 446
23.0143 418
23.03442 404
23.05453 430
23.07464 426
23.09476 449
23.11487 478
23.13498 479
23.1551 492
23.17521 563
23.19532 485
23.21544 490
23.23555 428
23.25567 432
23.27578 395
23.29589 398
23.31601 387
23.33612 386
23.35623 351
23.37635 365
23.39646 377
23.41658 401
23.43669 421
23.4568 417
23.47692 463
23.49703 544
23.51714 540
23.53726 608
23.55737 694
23.57749 792
23.5976 785
23.61771 766
23.63783 651
23.65794 628
23.67805 569
23.69817 475
23.71828 430
23.73839 442
23.75851 458
23.77862 479
23.79874 510
23.81885 604
23.83896 599
23.85908 656
23.87919 713
23.8993 843
23.91942 943
23.93953 896
23.95965 990
23.97976 935
23.99987 854
24.01999 756
24.0401 631
24.06021 574
24.08033 524
24.10044 472
24.12056 477
24.14067 456
24.16078 499
24.1809 539
24.20101 601
24.22112 693
24.24124 704
24.26135 835
24.28146 724
24.30158 840
24.32169 805
24.34181 689
24.36192 665
24.38203 531
24.40215 465
24.42226 458
24.44237 467
24.46249 356
24.4826 350
24.50272 383
24.52283 334
24.54294 330
24.56306 354
24.58317 344
24.60328 387
24.6234 374
24.64351 409
24.66362 399
24.68374 367
24.70385 408
24.72397 377
24.74408 394
24.76419 353
24.78431 384
24.80442 370
24.82453 358
24.84465 358
24.86476 348
24.88488 370
24.90499 373
24.9251 366
24.94522 349
24.96533 335
24.98544 328
25.00556 308
25.02567 314
25.04579 328
25.0659 340
25.08601 294
25.10613 357
25.12624 325
25.14635 305
25.16647 339
25.18658 319
25.20669 306
25.22681 328
25.24692 330
25.26704 360
25.28715 323
25.30726 329
25.32738 380
25.34749 412
25.3676 411
25.38772 493
25.40783 541
25.42795 566
25.44806 670
25.46817 712
25.48829 797
25.5084 846
25.52851 822
25.54863 813
25.56874 821
25.58886 774
25.60897 727
25.62908 708
25.6492 676
25.66931 589
25.68942 568
25.70954 513
25.72965 490
25.74976 484
25.76988 467
25.78999 420
25.81011 414
25.83022 376
25.85033 378
25.87045 397
25.89056 392
25.91067 370
25.93079 379
25.9509 404
25.97102 430
25.99113 426
26.01124 424
26.03136 445
26.05147 472
26.07158 461
26.0917 482
26.11181 480
26.13193 499
26.15204 549
26.17215 591
26.19227 609
26.21238 655
26.23249 739
26.25261 820
26.27272 897
26.29283 947
26.31295 1089
26.33306 1283
26.35318 1376
26.37329 1637
26.3934 1879
26.41352 2321
26.43363 2593
26.45374 3141
26.47386 3925
26.49397 4955
26.51409 6417
26.5342 8259
26.55431 10179
26.57443 12586
26.59454 13648
26.61465 14377
26.63477 13730
26.65488 11663
26.67499 9126
26.69511 6963
26.71522 5010
26.73534 3225
26.75545 2043
26.77556 1436
26.79568 1143
26.81579 980
26.8359 976
26.85602 847
26.87613 912
26.89625 869
26.91636 927
26.93647 904
26.95659 911
26.9767 1004
26.99681 1071
27.01693 1162
27.03704 1033
27.05716 1005
27.07727 973
27.09738 881
27.1175 805
27.13761 720
27.15772 735
27.17784 643
27.19795 713
27.21806 668
27.23818 691
27.25829 740
27.27841 761
27.29852 896
27.31863 993
27.33875 1100
27.35886 1299
27.37897 1409
27.39909 1508
27.4192 1740
27.43932 1678
27.45943 1637
27.47954 1428
27.49966 1402
27.51977 1238
27.53988 1079
27.56 985
27.58011 835
27.60023 894
27.62034 954
27.64045 1023
27.66057 1198
27.68068 1365
27.70079 1556
27.72091 1892
27.74102 1912
27.76113 2104
27.78125 2152
27.80136 2143
27.82148 2174
27.84159 1990
27.8617 2037
27.88182 2132
27.90193 2049
27.92204 2032
27.94216 2059
27.96227 1925
27.98239 1738
28.0025 1446
28.02261 1266
28.04273 970
28.06284 899
28.08295 732
28.10307 601
28.12318 585
28.1433 592
28.16341 580
28.18352 622
28.20364 737
28.22375 689
28.24386 734
28.26398 771
28.28409 709
28.3042 649
28.32432 581
28.34443 541
28.36455 447
28.38466 414
28.40477 375
28.42489 348
28.445 340
28.46511 308
28.48523 308
28.50534 289
28.52546 300
28.54557 292
28.56568 278
28.5858 287
28.60591 270
28.62602 281
28.64614 294
28.66625 287
28.68636 252
28.70648 306
28.72659 262
28.74671 303
28.76682 272
28.78693 248
28.80705 253
28.82716 259
28.84727 261
28.86739 291
28.8875 252
28.90762 251
28.92773 262
28.94784 295
28.96796 236
28.98807 254
29.00818 240
29.0283 270
29.04841 260
29.06853 274
29.08864 268
29.10875 294
29.12887 271
29.14898 274
29.16909 257
29.18921 283
29.20932 285
29.22943 282
29.24955 300
29.26966 303
29.28978 313
29.30989 331
29.33 410
29.35012 398
29.37023 404
29.39034 422
29.41046 412
29.43057 430
29.45069 385
29.4708 424
29.49091 374
29.51103 358
29.53114 321
29.55125 363
29.57137 325
29.59148 337
29.6116 371
29.63171 372
29.65182 435
29.67194 428
29.69205 489
29.71216 479
29.73228 517
29.75239 508
29.7725 548
29.79262 533
29.81273 536
29.83285 516
29.85296 492
29.87307 477
29.89319 393
29.9133 383
29.93341 415
29.95353 406
29.97364 361
29.99376 364
30.01387 396
30.03398 367
30.0541 429
30.07421 431
30.09432 433
30.11444 429
30.13455 456
30.15467 507
30.17478 528
30.19489 541
30.21501 533
30.23512 555
30.25523 629
30.27535 647
30.29546 610
30.31557 646
30.33569 744
30.3558 750
30.37592 748
30.39603 745
30.41614 720
30.43626 750
30.45637 628
30.47648 589
30.4966 491
30.51671 462
30.53683 400
30.55694 387
30.57705 394
30.59717 379
30.61728 377
30.63739 390
30.65751 401
30.67762 429
30.69773 486
30.71785 473
30.73796 494
30.75808 483
30.77819 518
30.7983 522
30.81842 453
30.83853 443
30.85864 403
30.87876 407
30.89887 345
30.91899 352
30.9391 317
30.95921 294
30.97933 273
30.99944 281
31.01955 251
31.03967 244
31.05978 244
31.0799 259
31.10001 256
31.12012 266
31.14024 239
31.16035 292
31.18046 276
31.20058 301
31.22069 254
31.2408 325
31.26092 318
31.28103 351
31.30115 387
31.32126 413
31.34137 434
31.36149 443
31.3816 423
31.40171 401
31.42183 348
31.44194 341
31.46206 349
31.48217 308
31.50228 279
31.5224 293
31.54251 303
31.56262 284
31.58274 261
31.60285 280
31.62297 280
31.64308 273
31.66319 276
31.68331 263
31.70342 234
31.72353 224
31.74365 226
31.76376 220
31.78387 235
31.80399 234
31.8241 253
31.84422 233
31.86433 239
31.88444 221
31.90456 234
31.92467 259
31.94478 223
31.9649 238
31.98501 229
32.00513 242
32.02524 276
32.04535 286
32.06547 290
32.08558 276
32.10569 276
32.12581 302
32.14592 319
32.16604 268
32.18615 303
32.20626 285
32.22638 302
32.24649 291
32.2666 287
32.28672 284
32.30683 271
32.32694 298
32.34706 305
32.36717 301
32.38729 286
32.4074 292
32.42751 297
32.44763 275
32.46774 306
32.48785 298
32.50797 283
32.52808 285
32.5482 245
32.56831 257
32.58842 255
32.60854 207
32.62865 207
32.64876 208
32.66888 200
32.68899 197
32.7091 208
32.72922 223
32.74933 194
32.76945 184
32.78956 194
32.80967 199
32.82979 211
32.8499 231
32.87001 228
32.89013 225
32.91024 225
32.93036 211
32.95047 221
32.97058 220
32.9907 246
33.01081 178
33.03092 209
33.05104 191
33.07115 207
33.09127 192
33.11138 205
33.13149 220
33.15161 200
33.17172 214
33.19183 219
33.21195 189
33.23206 218
33.25217 217
33.27229 217
33.2924 209
33.31252 225
33.33263 200
33.35274 212
33.37286 195
33.39297 182
33.41308 202
33.4332 208
33.45331 206
33.47343 223
33.49354 209
33.51365 233
33.53377 206
33.55388 185
33.57399 184
33.59411 214
33.61422 229
33.63434 242
33.65445 243
33.67456 240
33.69468 289
33.71479 299
33.7349 316
33.75502 312
33.77513 359
33.79524 357
33.81536 344
33.83547 333
33.85559 350
33.8757 271
33.89581 321
33.91593 312
33.93604 316
33.95615 315
33.97627 268
33.99638 284
34.0165 328
34.03661 280
34.05672 325
34.07684 356
34.09695 343
34.11706 372
34.13718 370
34.15729 406
34.17741 402
34.19752 456
34.21763 460
34.23775 406
34.25786 436
34.27797 382
34.29809 353
34.3182 404
34.33831 343
34.35843 322
34.37854 339
34.39866 301
34.41877 291
34.43888 333
34.459 314
34.47911 320
34.49922 311
34.51934 282
34.53945 296
34.55957 317
34.57968 282
34.59979 323
34.61991 345
34.64002 280
34.66013 317
34.68025 301
34.70036 336
34.72047 337
34.74059 359
34.7607 333
34.78082 321
34.80093 357
34.82104 315
34.84116 310
34.86127 331
34.88138 362
34.9015 367
34.92161 371
34.94173 349
34.96184 349
34.98195 381
35.00207 355
35.02218 320
35.04229 349
35.06241 354
35.08252 371
35.10264 367
35.12275 360
35.14286 399
35.16298 428
35.18309 474
35.2032 458
35.22332 509
35.24343 529
35.26354 471
35.28366 533
35.30377 472
35.32389 478
35.344 480
35.36411 494
35.38423 428
35.40434 491
35.42445 431
35.44457 409
35.46468 422
35.4848 440
35.50491 414
35.52502 457
35.54514 469
35.56525 448
35.58536 420
35.60548 398
35.62559 370
35.64571 352
35.66582 387
35.68593 343
35.70605 360
35.72616 321
35.74627 349
35.76639 339
35.7865 308
35.80661 320
35.82673 297
35.84684 314
35.86696 319
35.88707 293
35.90718 269
35.9273 301
35.94741 328
35.96752 276
35.98764 349
36.00775 341
36.02787 337
36.04798 309
36.06809 325
36.08821 347
36.10832 374
36.12843 369
36.14855 386
36.16866 374
36.18878 407
36.20889 372
36.229 374
36.24912 408
36.26923 400
36.28934 393
36.30946 405
36.32957 465
36.34968 446
36.3698 523
36.38991 651
36.41003 708
36.43014 755
36.45025 907
36.47037 1011
36.49048 1088
36.51059 1090
36.53071 1174
36.55082 1049
36.57094 905
36.59105 750
36.61116 694
36.63128 645
36.65139 491
36.6715 401
36.69162 328
36.71173 373
36.73184 304
36.75196 303
36.77207 324
36.79219 328
36.8123 330
36.83241 346
36.85253 367
36.87264 373
36.89275 377
36.91287 394
36.93298 386
36.9531 397
36.97321 394
36.99332 428
37.01344 394
37.03355 406
37.05366 369
37.07378 387
37.09389 336
37.11401 301
37.13412 293
37.15423 313
37.17435 263
37.19446 273
37.21457 235
37.23469 269
37.2548 261
37.27491 269
37.29503 286
37.31514 244
37.33526 263
37.35537 291
37.37548 285
37.3956 290
37.41571 266
37.43582 299
37.45594 297
37.47605 282
37.49617 284
37.51628 315
37.53639 322
37.55651 305
37.57662 326
37.59673 292
37.61685 289
37.63696 294
37.65708 291
37.67719 281
37.6973 257
37.71742 254
37.73753 260
37.75764 232
37.77776 249
37.79787 252
37.81798 244
37.8381 207
37.85821 228
37.87833 220
37.89844 230
37.91855 218
37.93867 213
37.95878 220
37.97889 233
37.99901 209
38.01912 241
38.03924 240
38.05935 190
38.07946 232
38.09958 243
38.11969 246
38.1398 229
38.15992 232
38.18003 249
38.20015 236
38.22026 229
38.24037 234
38.26049 255
38.2806 236
38.30071 238
38.32083 279
38.34094 225
38.36105 279
38.38117 284
38.40128 265
38.4214 331
38.44151 292
38.46162 333
38.48174 307
38.50185 323
38.52196 350
38.54208 323
38.56219 324
38.58231 286
38.60242 263
38.62253 274
38.64265 245
38.66276 255
38.68287 251
38.70299 244
38.7231 230
38.74321 237
38.76333 237
38.78344 246
38.80356 231
38.82367 241
38.84378 255
38.8639 223
38.88401 248
38.90412 241
38.92424 276
38.94435 308
38.96447 292
38.98458 285
39.00469 308
39.02481 330
39.04492 296
39.06503 324
39.08515 315
39.10526 361
39.12538 373
39.14549 309
39.1656 339
39.18572 339
39.20583 356
39.22594 366
39.24606 374
39.26617 445
39.28628 462
39.3064 569
39.32651 635
39.34663 759
39.36674 830
39.38685 988
39.40697 1043
39.42708 1109
39.44719 1102
39.46731 999
39.48742 868
39.50754 718
39.52765 665
39.54776 648
39.56788 535
39.58799 462
39.6081 346
39.62822 324
39.64833 305
39.66845 302
39.68856 273
39.70867 285
39.72879 263
39.7489 250
39.76901 255
39.78913 249
39.80924 218
39.82935 236
39.84947 222
39.86958 215
39.8897 208
39.90981 263
39.92992 234
39.95004 263
39.97015 230
39.99026 255
40.01038 264
40.03049 279
40.05061 285
40.07072 325
40.09083 326
40.11095 341
40.13106 396
40.15117 415
40.17129 453
40.1914 542
40.21152 562
40.23163 570
40.25174 635
40.27186 602
40.29197 570
40.31208 531
40.3322 442
40.35231 379
40.37242 390
40.39254 323
40.41265 314
40.43277 235
40.45288 258
40.47299 231
40.49311 246
40.51322 231
40.53333 250
40.55345 241
40.57356 239
40.59368 221
40.61379 234
40.6339 200
40.65402 250
40.67413 268
40.69424 222
40.71436 231
40.73447 239
40.75458 256
40.7747 230
40.79481 278
40.81493 254
40.83504 260
40.85515 233
40.87527 242
40.89538 234
40.91549 258
40.93561 225
40.95572 229
40.97584 203
40.99595 203
41.01606 235
41.03618 214
41.05629 224
41.0764 237
41.09652 215
41.11663 259
41.13675 222
41.15686 212
41.17697 253
41.19709 228
41.2172 257
41.23731 238
41.25743 230
41.27754 243
41.29765 219
41.31777 208
41.33788 258
41.358 228
41.37811 264
41.39822 239
41.41834 231
41.43845 260
41.45856 246
41.47868 239
41.49879 262
41.51891 264
41.53902 302
41.55913 283
41.57925 319
41.59936 296
41.61947 328
41.63959 366
41.6597 354
41.67982 400
41.69993 385
41.72004 443
41.74016 460
41.76027 480
41.78038 489
41.8005 452
41.82061 445
41.84072 424
41.86084 377
41.88095 356
41.90107 309
41.92118 313
41.94129 318
41.96141 264
41.98152 281
42.00163 276
42.02175 269
42.04186 245
42.06198 267
42.08209 258
42.1022 271
42.12232 278
42.14243 292
42.16254 290
42.18266 318
42.20277 338
42.22289 409
42.243 414
42.26311 488
42.28323 484
42.30334 612
42.32345 612
42.34357 691
42.36368 714
42.38379 786
42.40391 814
42.42402 767
42.44414 709
42.46425 667
42.48436 581
42.50448 530
42.52459 473
42.5447 454
42.56482 394
42.58493 332
42.60505 293
42.62516 287
42.64527 304
42.66539 300
42.6855 317
42.70561 326
42.72573 305
42.74584 316
42.76595 330
42.78607 362
42.80618 343
42.8263 315
42.84641 350
42.86652 337
42.88664 318
42.90675 332
42.92686 318
42.94698 336
42.96709 296
42.98721 322
43.00732 275
43.02743 277
43.04755 263
43.06766 238
43.08777 265
43.10789 263
43.128 228
43.14812 253
43.16823 251
43.18834 239
43.20846 230
43.22857 241
43.24868 216
43.2688 231
43.28891 188
43.30902 194
43.32914 221
43.34925 194
43.36937 209
43.38948 214
43.40959 222
43.42971 223
43.44982 214
43.46993 223
43.49005 192
43.51016 208
43.53028 223
43.55039 207
43.5705 221
43.59062 204
43.61073 217
43.63084 215
43.65096 224
43.67107 220
43.69119 204
43.7113 179
43.73141 212
43.75153 207
43.77164 199
43.79175 198
43.81187 205
43.83198 193
43.85209 180
43.87221 197
43.89232 212
43.91244 208
43.93255 205
43.95266 203
43.97278 204
43.99289 228
44.013 215
44.03312 209
44.05323 236
44.07335 193
44.09346 208
44.11357 192
44.13369 184
44.1538 172
44.17391 186
44.19403 209
44.21414 191
44.23426 218
44.25437 210
44.27448 189
44.2946 198
44.31471 183
44.33482 192
44.35494 201
44.37505 206
44.39516 208
44.41528 183
44.43539 214
44.45551 207
44.47562 171
44.49573 207
44.51585 209
44.53596 211
44.55607 236
44.57619 203
44.5963 197
44.61642 203
44.63653 199
44.65664 227
44.67676 202
44.69687 210
44.71698 204
44.7371 232
44.75721 205
44.77732 231
44.79744 213
44.81755 253
44.83767 228
44.85778 229
44.87789 209
44.89801 210
44.91812 229
44.93823 254
44.95835 219
44.97846 207
44.99858 215
45.01869 220
45.0388 226
45.05892 235
45.07903 241
45.09914 266
45.11926 218
45.13937 237
45.15949 236
45.1796 246
45.19971 213
45.21983 196
45.23994 256
45.26005 249
45.28017 227
45.30028 237
45.32039 248
45.34051 264
45.36062 262
45.38074 255
45.40085 265
45.42096 300
45.44108 310
45.46119 279
45.4813 326
45.50142 333
45.52153 361
45.54165 353
45.56176 391
45.58187 401
45.60199 415
45.6221 478
45.64221 512
45.66233 555
45.68244 536
45.70256 567
45.72267 632
45.74278 662
45.7629 689
45.78301 585
45.80312 561
45.82324 480
45.84335 445
45.86346 423
45.88358 410
45.90369 340
45.92381 326
45.94392 253
45.96403 246
45.98415 241
46.00426 208
46.02437 230
46.04449 244
46.0646 200
46.08472 231
46.10483 232
46.12494 252
46.14506 223
46.16517 235
46.18528 251
46.2054 241
46.22551 242
46.24563 224
46.26574 225
46.28585 199
46.30597 208
46.32608 205
46.34619 209
46.36631 209
46.38642 197
46.40653 205
46.42665 200
46.44676 191
46.46688 213
46.48699 184
46.5071 193
46.52722 184
46.54733 174
46.56744 204
46.58756 201
46.60767 199
46.62779 200
46.6479 195
46.66801 189
46.68813 189
46.70824 208
46.72835 211
46.74847 227
46.76858 240
46.78869 211
46.80881 222
46.82892 241
46.84904 244
46.86915 221
46.88926 218
46.90938 198
46.92949 222
46.9496 218
46.96972 215
46.98983 225
47.00995 258
47.03006 237
47.05017 255
47.07029 247
47.0904 257
47.11051 265
47.13063 240
47.15074 291
47.17086 279
47.19097 268
47.21108 237
47.2312 254
47.25131 233
47.27142 258
47.29154 249
47.31165 241
47.33176 250
47.35188 293
47.37199 263
47.39211 308
47.41222 276
47.43233 303
47.45245 328
47.47256 299
47.49267 312
47.51279 296
47.5329 299
47.55302 300
47.57313 253
47.59324 269
47.61336 238
47.63347 239
47.65358 226
47.6737 221
47.69381 207
47.71393 223
47.73404 191
47.75415 210
47.77427 190
47.79438 172
47.81449 190
47.83461 173
47.85472 193
47.87483 202
47.89495 221
47.91506 190
47.93518 188
47.95529 206
47.9754 182
47.99552 212
48.01563 203
48.03574 199
48.05586 203
48.07597 217
48.09609 211
48.1162 231
48.13631 239
48.15643 234
48.17654 249
48.19665 226
48.21677 244
48.23688 256
48.257 248
48.27711 222
48.29722 264
48.31734 266
48.33745 272
48.35756 232
48.37768 217
48.39779 224
48.4179 209
48.43802 241
48.45813 233
48.47825 214
48.49836 201
48.51847 224
48.53859 216
48.5587 196
48.57881 203
48.59893 219
48.61904 219
48.63916 220
48.65927 230
48.67938 216
48.6995 235
48.71961 194
48.73972 258
48.75984 276
48.77995 271
48.80006 239
48.82018 272
48.84029 274
48.86041 274
48.88052 296
48.90063 268
48.92075 295
48.94086 284
48.96097 302
48.98109 269
49.0012 300
49.02132 321
49.04143 301
49.06154 318
49.08166 328
49.10177 342
49.12188 354
49.142 334
49.16211 315
49.18223 318
49.20234 278
49.22245 311
49.24257 266
49.26268 281
49.28279 285
49.30291 253
49.32302 234
49.34313 204
49.36325 215
49.38336 225
49.40348 229
49.42359 224
49.4437 231
49.46382 227
49.48393 242
49.50404 243
49.52416 251
49.54427 248
49.56439 274
49.5845 281
49.60461 289
49.62473 320
49.64484 325
49.66495 342
49.68507 360
49.70518 384
49.7253 438
49.74541 454
49.76552 459
49.78564 481
49.80575 493
49.82586 525
49.84598 561
49.86609 581
49.8862 622
49.90632 669
49.92643 665
49.94655 778
49.96666 919
49.98677 995
50.00689 1136
50.027 1284
50.04711 1396
50.06723 1531
50.08734 1607
50.10746 1547
50.12757 1411
50.14768 1191
50.1678 1042
50.18791 975
50.20802 875
50.22814 855
50.24825 831
50.26837 710
50.28848 540
50.30859 461
50.32871 419
50.34882 388
50.36893 372
50.38905 429
50.40916 416
50.42927 408
50.44939 510
50.4695 474
50.48962 502
50.50973 506
50.52984 432
50.54996 462
50.57007 447
50.59018 444
50.6103 447
50.63041 437
50.65053 421
50.67064 421
50.69075 394
50.71087 345
50.73098 363
50.75109 349
50.77121 346
50.79132 297
50.81143 345
50.83155 302
50.85166 320
50.87178 300
50.89189 257
50.912 271
50.93212 280
50.95223 261
50.97234 267
50.99246 246
51.01257 267
51.03269 241
51.0528 250
51.07291 257
51.09303 253
51.11314 272
51.13325 270
51.15337 291
51.17348 338
51.1936 359
51.21371 380
51.23382 322
51.25394 356
51.27405 362
51.29416 357
51.31428 327
51.33439 342
51.3545 321
51.37462 291
51.39473 280
51.41485 300
51.43496 290
51.45507 260
51.47519 209
51.4953 216
51.51541 205
51.53553 210
51.55564 200
51.57576 204
51.59587 184
51.61598 198
51.6361 191
51.65621 197
51.67632 173
51.69644 195
51.71655 163
51.73667 198
51.75678 184
51.77689 194
51.79701 174
51.81712 184
51.83723 180
51.85735 197
51.87746 205
51.89757 185
51.91769 194
51.9378 184
51.95792 189
51.97803 190
51.99814 185
52.01826 174
52.03837 198
52.05848 182
52.0786 187
52.09871 193
52.11883 205
52.13894 209
52.15905 210
52.17917 208
52.19928 220
52.21939 216
52.23951 194
52.25962 212
52.27974 234
52.29985 213
52.31996 198
52.34008 252
52.36019 232
52.3803 255
52.40042 235
52.42053 227
52.44064 234
52.46076 219
52.48087 236
52.50099 234
52.5211 225
52.54121 253
52.56133 239
52.58144 277
52.60155 251
52.62167 267
52.64178 262
52.6619 274
52.68201 236
52.70212 285
52.72224 219
52.74235 259
52.76246 259
52.78258 245
52.80269 224
52.8228 225
52.84292 245
52.86303 219
52.88315 260
52.90326 260
52.92337 225
52.94349 254
52.9636 231
52.98371 229
53.00383 233
53.02394 271
53.04406 238
53.06417 260
53.08428 229
53.1044 280
53.12451 232
53.14462 258
53.16474 207
53.18485 242
53.20497 217
53.22508 228
53.24519 224
53.26531 224
53.28542 201
53.30553 233
53.32565 228
53.34576 215
53.36587 227
53.38599 206
53.4061 209
53.42622 206
53.44633 221
53.46644 212
53.48656 220
53.50667 200
53.52678 207
53.5469 195
53.56701 201
53.58713 202
53.60724 200
53.62735 210
53.64747 191
53.66758 211
53.68769 201
53.70781 214
53.72792 197
53.74804 221
53.76815 208
53.78826 188
53.80838 184
53.82849 214
53.8486 206
53.86872 204
53.88883 190
53.90894 249
53.92906 217
53.94917 227
53.96929 251
53.9894 208
54.00951 217
54.02963 220
54.04974 220
54.06985 248
54.08997 233
54.11008 217
54.1302 239
54.15031 236
54.17042 209
54.19054 229
54.21065 242
54.23076 257
54.25088 247
54.27099 216
54.29111 275
54.31122 274
54.33133 267
54.35145 274
54.37156 266
54.39167 221
54.41179 255
54.4319 251
54.45201 243
54.47213 233
54.49224 231
54.51236 234
54.53247 247
54.55258 247
54.5727 262
54.59281 273
54.61292 281
54.63304 294
54.65315 306
54.67327 365
54.69338 384
54.71349 384
54.73361 455
54.75372 498
54.77383 510
54.79395 542
54.81406 574
54.83417 614
54.85429 554
54.8744 517
54.89452 470
54.91463 411
54.93474 397
54.95486 403
54.97497 367
54.99508 377
55.0152 348
55.03531 304
55.05543 288
55.07554 288
55.09565 280
55.11577 280
55.13588 285
55.15599 331
55.17611 303
55.19622 339
55.21634 357
55.23645 370
55.25656 414
55.27668 430
55.29679 407
55.3169 389
55.33702 371
55.35713 330
55.37724 311
55.39736 325
55.41747 329
55.43759 299
55.4577 289
55.47781 293
55.49793 272
55.51804 245
55.53815 234
55.55827 229
55.57838 241
55.5985 219
55.61861 238
55.63872 242
55.65884 210
55.67895 226
55.69906 196
55.71918 206
55.73929 212
55.75941 182
55.77952 214
55.79963 204
55.81975 211
55.83986 193
55.85997 173
55.88009 198
55.9002 195
55.92031 193
55.94043 198
55.96054 179
55.98066 222
56.00077 192
56.02088 187
56.041 179
56.06111 227
56.08122 190
56.10134 211
56.12145 202
56.14157 196
56.16168 192
56.18179 184
56.20191 168
56.22202 167
56.24213 177
56.26225 184
56.28236 181
56.30248 167
56.32259 182
56.3427 176
56.36282 204
56.38293 190
56.40304 186
56.42316 183
56.44327 172
56.46338 178
56.4835 195
56.50361 205
56.52373 193
56.54384 194
56.56395 182
56.58407 168
56.60418 228
56.62429 215
56.64441 218
56.66452 189
56.68464 183
56.70475 178
56.72486 185
56.74498 195
56.76509 195
56.7852 210
56.80532 206
56.82543 189
56.84554 181
56.86566 205
56.88577 181
56.90589 199
56.926 175
56.94611 195
56.96623 200
56.98634 184
57.00645 200
57.02657 187
57.04668 193
57.0668 203
57.08691 196
57.10702 228
57.12714 214
57.14725 187
57.16736 202
57.18748 225
57.20759 216
57.22771 223
57.24782 237
57.26793 188
57.28805 225
57.30816 219
57.32827 235
57.34839 228
57.3685 228
57.38861 214
57.40873 217
57.42884 233
57.44896 239
57.46907 221
57.48918 212
57.5093 228
57.52941 232
57.54952 214
57.56964 193
57.58975 217
57.60987 183
57.62998 215
57.65009 208
57.67021 200
57.69032 208
57.71043 193
57.73055 182
57.75066 178
57.77078 198
57.79089 189
57.811 184
57.83112 208
57.85123 167
57.87134 204
57.89146 197
57.91157 165
57.93168 196
57.9518 176
57.97191 166
57.99203 180
58.01214 176
58.03225 203
58.05237 167
58.07248 184
58.09259 178
58.11271 189
58.13282 190
58.15294 194
58.17305 200
58.19316 211
58.21328 202
58.23339 208
58.2535 181
58.27362 228
58.29373 200
58.31385 217
58.33396 215
58.35407 248
58.37419 234
58.3943 234
58.41441 214
58.43453 225
58.45464 232
58.47475 226
58.49487 223
58.51498 266
58.5351 230
58.55521 224
58.57532 238
58.59544 239
58.61555 206
58.63566 223
58.65578 237
58.67589 216
58.69601 211
58.71612 218
58.73623 226
58.75635 212
58.77646 219
58.79657 205
58.81669 214
58.8368 188
58.85691 220
58.87703 195
58.89714 181
58.91726 216
58.93737 206
58.95748 169
58.9776 198
58.99771 179
59.01782 200
59.03794 197
59.05805 198
59.07817 166
59.09828 164
59.11839 187
59.13851 216
59.15862 212
59.17873 217
59.19885 209
59.21896 202
59.23908 197
59.25919 189
59.2793 200
59.29942 208
59.31953 219
59.33964 231
59.35976 226
59.37987 204
59.39998 231
59.4201 234
59.44021 228
59.46033 191
59.48044 259
59.50055 213
59.52067 261
59.54078 278
59.56089 287
59.58101 261
59.60112 282
59.62124 307
59.64135 323
59.66146 338
59.68158 368
59.70169 375
59.7218 454
59.74192 457
59.76203 519
59.78215 597
59.80226 684
59.82237 822
59.84249 859
59.8626 996
59.88271 1012
59.90283 1081
59.92294 1002
59.94305 903
59.96317 794
59.98328 711
60.0034 649
60.02351 636
60.04362 642
60.06374 605
60.08385 576
60.10396 575
60.12408 492
60.14419 380
60.16431 343
60.18442 322
60.20453 298
60.22465 306
60.24476 312
60.26487 280
60.28499 266
60.3051 251
60.32522 253
60.34533 249
60.36544 245
60.38556 242
60.40567 208
60.42578 246
60.4459 242
60.46601 238
60.48612 209
60.50624 232
60.52635 223
60.54647 215
60.56658 239
60.58669 216
60.60681 214
60.62692 219
60.64703 229
60.66715 215
60.68726 208
60.70738 195
60.72749 221
60.7476 204
60.76772 206
60.78783 236
60.80794 209
60.82806 214
60.84817 228
60.86828 213
60.8884 205
60.90851 203
60.92863 211
60.94874 214
60.96885 214
60.98897 207
61.00908 227
61.02919 239
61.04931 245
61.06942 248
61.08954 267
61.10965 255
61.12976 238
61.14988 246
61.16999 235
61.1901 275
61.21022 210
61.23033 226
61.25045 244
61.27056 219
61.29067 216
61.31079 219
61.3309 197
61.35101 212
61.37113 222
61.39124 219
61.41135 202
61.43147 209
61.45158 193
61.4717 188
61.49181 192
61.51192 164
61.53204 205
61.55215 215
61.57226 210
61.59238 192
61.61249 204
61.63261 228
61.65272 214
61.67283 229
61.69295 238
61.71306 219
61.73317 184
61.75329 223
61.7734 216
61.79352 195
61.81363 232
61.83374 214
61.85386 230
61.87397 218
61.89408 211
61.9142 227
61.93431 207
61.95442 246
61.97454 227
61.99465 242
62.01477 237
62.03488 225
62.05499 245
62.07511 228
62.09522 246
62.11533 227
62.13545 247
62.15556 231
62.17568 271
62.19579 236
62.2159 229
62.23602 229
62.25613 249
62.27624 230
62.29636 244
62.31647 222
62.33659 237
62.3567 226
62.37681 219
62.39693 237
62.41704 206
62.43715 216
62.45727 240
62.47738 227
62.49749 211
62.51761 225
62.53772 207
62.55784 228
62.57795 200
62.59806 185
62.61818 233
62.63829 229
62.6584 229
62.67852 216
62.69863 212
62.71875 216
62.73886 214
62.75897 216
62.77909 224
62.7992 243
62.81931 234
62.83943 211
62.85954 257
62.87965 249
62.89977 243
62.91988 248
62.94 244
62.96011 248
62.98022 272
63.00034 272
63.02045 262
63.04056 256
63.06068 256
63.08079 269
63.10091 254
63.12102 228
63.14113 228
63.16125 222
63.18136 255
63.20147 225
63.22159 224
63.2417 242
63.26182 231
63.28193 237
63.30204 247
63.32216 240
63.34227 241
63.36238 233
63.3825 236
63.40261 229
63.42272 237
63.44284 236
63.46295 216
63.48307 221
63.50318 220
63.52329 254
63.54341 279
63.56352 255
63.58363 273
63.60375 257
63.62386 281
63.64398 291
63.66409 290
63.6842 269
63.70432 305
63.72443 308
63.74454 353
63.76466 329
63.78477 326
63.80489 319
63.825 374
63.84511 314
63.86523 407
63.88534 376
63.90545 344
63.92557 392
63.94568 417
63.96579 429
63.98591 397
64.00602 345
64.02614 363
64.04625 311
64.06636 308
64.08648 300
64.10659 276
64.1267 282
64.14682 301
64.16693 275
64.18705 297
64.20716 239
64.22727 209
64.24739 209
64.2675 220
64.28761 211
64.30773 197
64.32784 187
64.34796 201
64.36807 189
64.38818 179
64.4083 160
64.42841 177
64.44852 162
64.46864 180
64.48875 198
64.50886 154
64.52898 181
64.54909 159
64.56921 189
64.58932 158
64.60943 181
64.62955 178
64.64966 183
64.66977 170
64.68989 153
64.71 179
64.73012 158
64.75023 185
64.77034 174
64.79046 194
64.81057 224
64.83068 192
64.8508 205
64.87091 216
64.89102 211
64.91114 195
64.93125 203
64.95137 215
64.97148 217
64.99159 237
65.01171 203
65.03182 240
65.05193 251
65.07205 218
65.09216 237
65.11228 254
65.13239 233
65.1525 247
65.17262 241
65.19273 228
65.21284 234
65.23296 253
65.25307 208
65.27319 243
65.2933 245
65.31341 279
65.33353 226
65.35364 250
65.37375 222
65.39387 223
65.41398 225
65.43409 219
65.45421 234
65.47432 201
65.49444 238
65.51455 183
65.53466 206
65.55478 212
65.57489 212
65.595 194
65.61512 204
65.63523 207
65.65535 212
65.67546 195
65.69557 226
65.71569 196
65.7358 195
65.75591 201
65.77603 228
65.79614 168
65.81626 210
65.83637 214
65.85648 192
65.8766 183
65.89671 177
65.91682 181
65.93694 174
65.95705 188
65.97716 186
65.99728 195
66.01739 217
66.03751 192
66.05762 191
66.07773 203
66.09785 218
66.11796 229
66.13807 212
66.15819 208
66.1783 218
66.19842 225
66.21853 215
66.23864 198
66.25876 194
66.27887 212
66.29898 214
66.3191 202
66.33921 214
66.35933 209
66.37944 225
66.39955 207
66.41967 185
66.43978 212
66.45989 205
66.48001 200
66.50012 192
66.52023 194
66.54035 202
66.56046 195
66.58058 204
66.60069 206
66.6208 186
66.64092 211
66.66103 197
66.68114 198
66.70126 223
66.72137 202
66.74149 225
66.7616 238
66.78171 210
66.80183 193
66.82194 199
66.84205 206
66.86217 196
66.88228 189
66.90239 203
66.92251 203
66.94262 226
66.96274 201
66.98285 206
67.00296 212
67.02308 211
67.04319 219
67.0633 215
67.08342 232
67.10353 216
67.12365 206
67.14376 224
67.16387 207
67.18399 237
67.2041 205
67.22421 202
67.24433 211
67.26444 234
67.28456 213
67.30467 254
67.32478 233
67.3449 241
67.36501 237
67.38512 244
67.40524 280
67.42535 271
67.44546 298
67.46558 310
67.48569 318
67.50581 363
67.52592 373
67.54603 408
67.56615 420
67.58626 486
67.60637 532
67.62649 575
67.6466 681
67.66672 735
67.68683 714
67.70694 684
67.72706 672
67.74717 587
67.76728 518
67.7874 501
67.80751 499
67.82763 533
67.84774 556
67.86785 563
67.88797 573
67.90808 612
67.92819 573
67.94831 565
67.96842 627
67.98853 659
68.00865 717
68.02876 805
68.04888 787
68.06899 832
68.0891 860
68.10922 913
68.12933 907
68.14944 823
68.16956 742
68.18967 787
68.20979 769
68.2299 859
68.25001 821
68.27013 831
68.29024 764
68.31035 697
68.33047 596
68.35058 522
68.3707 459
68.39081 442
68.41092 423
68.43104 462
68.45115 433
68.47126 400
68.49138 361
68.51149 337
68.5316 263
68.55172 254
68.57183 242
68.59195 228
68.61206 207
68.63217 221
68.65229 227
68.6724 197
68.69251 202
68.71263 206
68.73274 211
68.75286 203
68.77297 197
68.79308 222
68.8132 221
68.83331 235
68.85342 210
68.87354 213
68.89365 205
68.91376 212
68.93388 205
68.95399 199
68.97411 197
68.99422 233
69.01433 175
69.03445 208
69.05456 231
69.07467 219
69.09479 241
69.1149 255
69.13502 241
69.15513 234
69.17524 243
69.19536 227
69.21547 234
69.23558 232
69.2557 225
69.27581 259
69.29593 234
69.31604 227
69.33615 239
69.35627 206
69.37638 236
69.39649 241
69.41661 225
69.43672 207
69.45683 204
69.47695 209
69.49706 201
69.51718 210
69.53729 209
69.5574 215
69.57752 211
69.59763 208
69.61774 200
69.63786 225
69.65797 204
69.67809 222
69.6982 204
69.71831 228
69.73843 224
69.75854 219
69.77865 220
69.79877 209
69.81888 236
69.839 205
69.85911 221
69.87922 198
69.89934 198
69.91945 223
69.93956 195
69.95968 194
69.97979 175
69.9999 163
70.02002 185
70.04013 185
70.06025 189
70.08036 163
70.10047 181
70.12059 159
70.1407 167
70.16081 164
70.18093 162
70.20104 178
70.22116 147
70.24127 163
70.26138 159
70.2815 170
70.30161 186
70.32172 173
70.34184 163
70.36195 141
70.38207 167
70.40218 151
70.42229 170
70.44241 164
70.46252 180
70.48263 169
70.50275 172
70.52286 198
70.54297 159
70.56309 177
70.5832 176
70.60332 179
70.62343 171
70.64354 193
70.66366 199
70.68377 178
70.70388 177
70.724 178
70.74411 193
70.76423 180
70.78434 173
70.80445 175
70.82457 193
70.84468 183
70.86479 182
70.88491 186
70.90502 173
70.92513 202
70.94525 186
70.96536 199
70.98548 187
71.00559 187
71.0257 167
71.04582 182
71.06593 225
71.08604 197
71.10616 225
71.12627 203
71.14639 180
71.1665 226
71.18661 207
71.20673 216
71.22684 221
71.24695 214
71.26707 214
71.28718 203
71.3073 228
71.32741 227
71.34752 204
71.36764 225
71.38775 222
71.40786 213
71.42798 209
71.44809 205
71.4682 209
71.48832 200
71.50843 195
71.52855 185
71.54866 202
71.56877 203
71.58889 201
71.609 201
71.62911 208
71.64923 190
71.66934 185
71.68946 196
71.70957 198
71.72968 171
71.7498 180
71.76991 189
71.79002 183
71.81014 168
71.83025 182
71.85037 169
71.87048 153
71.89059 172
71.91071 187
71.93082 183
71.95093 169
71.97105 196
71.99116 197
72.01127 180
72.03139 183
72.0515 180
72.07162 168
72.09173 204
72.11184 179
72.13196 176
72.15207 187
72.17218 185
72.1923 181
72.21241 169
72.23253 195
72.25264 182
72.27275 190
72.29287 194
72.31298 170
72.33309 182
72.35321 187
72.37332 187
72.39344 163
72.41355 180
72.43366 171
72.45378 186
72.47389 161
72.494 150
72.51412 187
72.53423 180
72.55434 170
72.57446 165
72.59457 195
72.61469 194
72.6348 181
72.65491 145
72.67503 187
72.69514 198
72.71525 164
72.73537 171
72.75548 177
72.7756 172
72.79571 177
72.81582 157
72.83594 182
72.85605 205
72.87616 183
72.89628 188
72.91639 173
72.9365 183
72.95662 213
72.97673 166
72.99685 200
73.01696 186
73.03707 203
73.05719 201
73.0773 213
73.09741 243
73.11753 204
73.13764 228
73.15776 211
73.17787 239
73.19798 234
73.2181 267
73.23821 238
73.25832 275
73.27844 274
73.29855 293
73.31867 303
73.33878 299
73.35889 368
73.37901 372
73.39912 371
73.41923 348
73.43935 358
73.45946 329
73.47957 273
73.49969 287
73.5198 252
73.53992 250
73.56003 269
73.58014 254
73.60026 278
73.62037 289
73.64048 261
73.6606 275
73.68071 249
73.70083 258
73.72094 220
73.74105 192
73.76117 236
73.78128 188
73.80139 232
73.82151 210
73.84162 185
73.86174 224
73.88185 185
73.90196 202
73.92208 197
73.94219 212
73.9623 176
73.98242 192
74.00253 167
74.02264 220
74.04276 165
74.06287 204
74.08299 205
74.1031 174
74.12321 174
74.14333 147
74.16344 177
74.18355 197
74.20367 191
74.22378 162
74.2439 197
74.26401 179
74.28412 171
74.30424 175
74.32435 171
74.34446 180
74.36458 175
74.38469 198
74.40481 183
74.42492 220
74.44503 172
74.46515 205
74.48526 201
74.50537 207
74.52549 192
74.5456 227
74.56571 186
74.58583 204
74.60594 221
74.62606 203
74.64617 209
74.66628 206
74.6864 217
74.70651 201
74.72662 224
74.74674 190
74.76685 201
74.78697 220
74.80708 193
74.82719 214
74.84731 204
74.86742 193
74.88753 209
74.90765 202
74.92776 197
74.94787 200
74.96799 191
74.9881 188
75.00822 186
