3.00117 20457
3.02128 19630
3.0414 18911
3.06151 18755
3.08162 18090
3.10174 17746
3.12185 17087
3.14197 16394
3.16208 16233
3.18219 15311
3.20231 15134
3.22242 14951
3.24253 14092
3.26265 13913
3.28276 13373
3.30288 13094
3.32299 12891
3.3431 11935
3.36322 11823
3.38333 11035
3.40344 10922
3.42356 10894
3.44367 9958
3.46379 9942
3.4839 9342
3.50401 9503
3.52413 9174
3.54424 8450
3.56435 8288
3.58447 7906
3.60458 7711
3.62469 7556
3.64481 6988
3.66492 7008
3.68504 6442
3.70515 6320
3.72526 6324
3.74538 5749
3.76549 5662
3.7856 5326
3.80572 5285
3.82583 5020
3.84595 4639
3.86606 4668
3.88617 4356
3.90629 4196
3.9264 4048
3.94651 3710
3.96663 3850
3.98674 3520
4.00686 3316
4.02697 3102
4.04708 2996
4.0672 2978
4.08731 2826
4.10742 2701
4.12754 2694
4.14765 2365
4.16776 2315
4.18788 2336
4.20799 2268
4.22811 2218
4.24822 1955
4.26833 1970
4.28845 1939
4.30856 1813
4.32867 1873
4.34879 1653
4.3689 1654
4.38902 1616
4.40913 1703
4.42924 1648
4.44936 1400
4.46947 1452
4.48958 1460
4.5097 1454
4.52981 1379
4.54992 1237
4.57004 1231
4.59015 1312
4.61027 1316
4.63038 1374
4.65049 1196
4.67061 1235
4.69072 1130
4.71083 1133
4.73095 1194
4.75106 1010
4.77118 1067
4.79129 1067
4.8114 941
4.83152 983
4.85163 920
4.87174 919
4.89186 896
4.91197 932
4.93209 933
4.9522 847
4.97231 827
4.99243 855
5.01254 807
5.03265 804
5.05277 741
5.07288 839
5.09299 745
5.11311 745
5.13322 684
5.15334 654
5.17345 725
5.19356 666
5.21368 663
5.23379 665
5.2539 618
5.27402 572
5.29413 595
5.31425 575
5.33436 603
5.35447 564
5.37459 547
5.3947 545
5.41481 559
5.43493 519
5.45504 546
5.47516 483
5.49527 512
5.51538 530
5.5355 495
5.55561 465
5.57572 445
5.59584 463
5.61595 449
5.63606 444
5.65618 442
5.67629 435
5.69641 426
5.71652 437
5.73663 440
5.75675 428
5.77686 428
5.79697 402
5.81709 421
5.8372 393
5.85732 425
5.87743 381
5.89754 365
5.91766 387
5.93777 379
5.95788 404
5.978 363
5.99811 331
6.01823 395
6.03834 366
6.05845 393
6.07857 338
6.09868 373
6.11879 371
6.13891 340
6.15902 393
6.17913 412
6.19925 361
6.21936 349
6.23948 352
6.25959 346
6.2797 337
6.29982 359
6.31993 335
6.34004 309
6.36016 313
6.38027 325
6.40039 326
6.4205 329
6.44061 315
6.46073 319
6.48084 341
6.50095 354
6.52107 352
6.54118 304
6.56129 302
6.58141 314
6.60152 305
6.62164 345
6.64175 335
6.66186 314
6.68198 300
6.70209 320
6.7222 339
6.74232 330
6.76243 353
6.78255 317
6.80266 334
6.82277 333
6.84289 326
6.863 307
6.88311 313
6.90323 353
6.92334 331
6.94346 329
6.96357 336
6.98368 315
7.0038 324
7.02391 324
7.04402 341
7.06414 348
7.08425 352
7.10436 320
7.12448 311
7.14459 328
7.16471 294
7.18482 321
7.20493 286
7.22505 331
7.24516 328
7.26527 293
7.28539 346
7.3055 348
7.32562 317
7.34573 317
7.36584 296
7.38596 334
7.40607 313
7.42618 309
7.4463 345
7.46641 323
7.48653 343
7.50664 322
7.52675 326
7.54687 262
7.56698 305
7.58709 349
7.60721 332
7.62732 293
7.64743 324
7.66755 354
7.68766 340
7.70778 346
7.72789 327
7.748 355
7.76812 303
7.78823 353
7.80834 313
7.82846 351
7.84857 310
7.86869 316
7.8888 314
7.90891 339
7.92903 341
7.94914 319
7.96925 371
7.98937 346
8.00948 342
8.0296 320
8.04971 290
8.06982 322
8.08994 321
8.11005 332
8.13016 296
8.15028 319
8.17039 307
8.1905 360
8.21062 332
8.23073 365
8.25085 355
8.27096 336
8.29107 293
8.31119 340
8.3313 378
8.35141 368
8.37153 332
8.39164 331
8.41176 356
8.43187 339
8.45198 351
8.4721 296
8.49221 339
8.51232 354
8.53244 363
8.55255 342
8.57266 327
8.59278 354
8.61289 342
8.63301 349
8.65312 334
8.67323 335
8.69335 378
8.71346 381
8.73357 436
8.75369 412
8.7738 401
8.79392 373
8.81403 419
8.83414 371
8.85426 353
8.87437 401
8.89448 330
8.9146 337
8.93471 358
8.95483 348
8.97494 342
8.99505 336
9.01517 335
9.03528 345
9.05539 324
9.07551 331
9.09562 302
9.11573 354
9.13585 298
9.15596 339
9.17608 341
9.19619 321
9.2163 307
9.23642 360
9.25653 332
9.27664 302
9.29676 310
9.31687 313
9.33699 320
9.3571 308
9.37721 325
9.39733 339
9.41744 322
9.43755 322
9.45767 333
9.47778 284
9.4979 291
9.51801 340
9.53812 301
9.55824 300
9.57835 307
9.59846 326
9.61858 312
9.63869 310
9.6588 304
9.67892 279
9.69903 299
9.71915 292
9.73926 310
9.75937 317
9.77949 325
9.7996 309
9.81971 318
9.83983 312
9.85994 264
9.88006 314
9.90017 292
9.92028 313
9.9404 296
9.96051 331
9.98062 321
10.00074 319
10.02085 368
10.04097 341
10.06108 328
10.08119 348
10.10131 318
10.12142 295
10.14153 292
10.16165 329
10.18176 303
10.20187 326
10.22199 282
10.2421 297
10.26222 313
10.28233 321
10.30244 309
10.32256 312
10.34267 314
10.36278 318
10.3829 323
10.40301 333
10.42313 318
10.44324 349
10.46335 327
10.48347 325
10.50358 336
10.52369 326
10.54381 310
10.56392 341
10.58403 300
10.60415 333
10.62426 323
10.64438 343
10.66449 287
10.6846 303
10.70472 352
10.72483 311
10.74494 325
10.76506 342
10.78517 318
10.80529 292
10.8254 327
10.84551 331
10.86563 355
10.88574 298
10.90585 316
10.92597 317
10.94608 346
10.9662 285
10.98631 329
11.00642 325
11.02654 357
11.04665 325
11.06676 319
11.08688 339
11.10699 327
11.1271 337
11.14722 333
11.16733 334
11.18745 318
11.20756 284
11.22767 324
11.24779 310
11.2679 296
11.28801 361
11.30813 364
11.32824 324
11.34836 310
11.36847 316
11.38858 356
11.4087 314
11.42881 303
11.44892 338
11.46904 355
11.48915 311
11.50927 326
11.52938 342
11.54949 369
11.56961 388
11.58972 351
11.60983 366
11.62995 413
11.65006 366
11.67017 369
11.69029 364
11.7104 411
11.73052 361
11.75063 356
11.77074 417
11.79086 383
11.81097 439
11.83108 361
11.8512 392
11.87131 372
11.89143 436
11.91154 451
11.93165 415
11.95177 428
11.97188 462
11.99199 470
12.01211 467
12.03222 468
12.05234 522
12.07245 488
12.09256 552
12.11268 483
12.13279 552
12.1529 532
12.17302 596
12.19313 534
12.21324 558
12.23336 596
12.25347 540
12.27359 598
12.2937 616
12.31381 581
12.33393 610
12.35404 542
12.37415 573
12.39427 533
12.41438 536
12.4345 549
12.45461 504
12.47472 498
12.49484 472
12.51495 398
12.53506 429
12.55518 397
12.57529 405
12.5954 400
12.61552 416
12.63563 350
12.65575 370
12.67586 382
12.69597 359
12.71609 349
12.7362 348
12.75631 340
12.77643 355
12.79654 298
12.81666 365
12.83677 319
12.85688 300
12.877 333
12.89711 326
12.91722 345
12.93734 304
12.95745 364
12.97757 359
12.99768 338
13.01779 305
13.03791 324
13.05802 343
13.07813 306
13.09825 349
13.11836 342
13.13847 367
13.15859 367
13.1787 286
13.19882 352
13.21893 335
13.23904 360
13.25916 322
13.27927 322
13.29938 290
13.3195 291
13.33961 318
13.35973 341
13.37984 321
13.39995 279
13.42007 316
13.44018 325
13.46029 331
13.48041 330
13.50052 343
13.52064 307
13.54075 337
13.56086 406
13.58098 419
13.60109 423
13.6212 383
13.64132 427
13.66143 357
13.68154 419
13.70166 338
13.72177 313
13.74189 275
13.762 275
13.78211 309
13.80223 285
13.82234 273
13.84245 282
13.86257 303
13.88268 276
13.9028 262
13.92291 272
13.94302 282
13.96314 307
13.98325 291
14.00336 236
14.02348 298
14.04359 266
14.06371 267
14.08382 261
14.10393 286
14.12405 278
14.14416 280
14.16427 269
14.18439 275
14.2045 287
14.22461 282
14.24473 272
14.26484 269
14.28496 272
14.30507 262
14.32518 318
14.3453 251
14.36541 247
14.38552 283
14.40564 297
14.42575 250
14.44587 297
14.46598 260
14.48609 284
14.50621 256
14.52632 251
14.54643 281
14.56655 274
14.58666 268
14.60677 312
14.62689 303
14.647 280
14.66712 284
14.68723 241
14.70734 274
14.72746 265
14.74757 250
14.76768 281
14.7878 288
14.80791 299
14.82803 287
14.84814 299
14.86825 321
14.88837 324
14.90848 334
14.92859 328
14.94871 344
14.96882 297
14.98894 346
15.00905 322
15.02916 298
15.04928 349
15.06939 333
15.0895 304
15.10962 354
15.12973 291
15.14984 282
15.16996 284
15.19007 335
15.21019 330
15.2303 279
15.25041 308
15.27053 265
15.29064 262
15.31075 263
15.33087 243
15.35098 271
15.3711 265
15.39121 262
15.41132 248
15.43144 240
15.45155 242
15.47166 265
15.49178 286
15.51189 247
15.53201 276
15.55212 263
15.57223 289
15.59235 263
15.61246 289
15.63257 272
15.65269 242
15.6728 259
15.69291 268
15.71303 297
15.73314 275
15.75326 276
15.77337 250
15.79348 279
15.8136 247
15.83371 239
15.85382 256
15.87394 242
15.89405 239
15.91417 255
15.93428 241
15.95439 266
15.97451 271
15.99462 239
16.01473 231
16.03485 267
16.05496 263
16.07508 260
16.09519 275
16.1153 278
16.13542 276
16.15553 238
16.17564 255
16.19576 237
16.21587 259
16.23598 251
16.2561 295
16.27621 255
16.29633 275
16.31644 283
16.33655 232
16.35667 232
16.37678 246
16.39689 268
16.41701 260
16.43712 260
16.45724 257
16.47735 250
16.49746 252
16.51758 279
16.53769 278
16.5578 241
16.57792 295
16.59803 269
16.61814 244
16.63826 270
16.65837 245
16.67849 266
16.6986 256
16.71871 253
16.73883 258
16.75894 255
16.77905 230
16.79917 257
16.81928 271
16.8394 262
16.85951 260
16.87962 265
16.89974 280
16.91985 261
16.93996 235
16.96008 301
16.98019 257
17.00031 253
17.02042 246
17.04053 228
17.06065 254
17.08076 270
17.10087 301
17.12099 260
17.1411 282
17.16121 264
17.18133 233
17.20144 250
17.22156 254
17.24167 298
17.26178 258
17.2819 262
17.30201 263
17.32212 235
17.34224 265
17.36235 256
17.38247 262
17.40258 259
17.42269 284
17.44281 265
17.46292 265
17.48303 223
17.50315 281
17.52326 263
17.54338 241
17.56349 282
17.5836 298
17.60372 282
17.62383 260
17.64394 264
17.66406 267
17.68417 272
17.70428 324
17.7244 247
17.74451 269
17.76463 275
17.78474 249
17.80485 284
17.82497 267
17.84508 261
17.86519 290
17.88531 279
17.90542 301
17.92554 274
17.94565 316
17.96576 289
17.98588 276
18.00599 289
18.0261 323
18.04622 298
18.06633 287
18.08645 283
18.10656 300
18.12667 287
18.14679 337
18.1669 330
18.18701 416
18.20713 448
18.22724 495
18.24735 467
18.26747 457
18.28758 501
18.3077 480
18.32781 350
18.34792 354
18.36804 351
18.38815 309
18.40826 290
18.42838 319
18.44849 292
18.46861 293
18.48872 287
18.50883 277
18.52895 272
18.54906 280
18.56917 279
18.58929 287
18.6094 311
18.62951 281
18.64963 269
18.66974 279
18.68986 265
18.70997 288
18.73008 263
18.7502 287
18.77031 267
18.79042 269
18.81054 273
18.83065 268
18.85077 237
18.87088 259
18.89099 252
18.91111 283
18.93122 286
18.95133 252
18.97145 288
18.99156 272
19.01168 249
19.03179 248
19.0519 286
19.07202 272
19.09213 271
19.11224 316
19.13236 304
19.15247 303
19.17258 314
19.1927 301
19.21281 336
19.23293 339
19.25304 343
19.27315 325
19.29327 339
19.31338 342
19.33349 357
19.35361 311
19.37372 290
19.39384 322
19.41395 324
19.43406 348
19.45418 335
19.47429 306
19.4944 288
19.51452 319
19.53463 337
19.55475 354
19.57486 328
19.59497 351
19.61509 359
19.6352 359
19.65531 370
19.67543 383
19.69554 413
19.71565 430
19.73577 489
19.75588 515
19.776 522
19.79611 557
19.81622 559
19.83634 578
19.85645 634
19.87656 619
19.89668 620
19.91679 524
19.93691 588
19.95702 574
19.97713 549
19.99725 560
20.01736 526
20.03747 563
20.05759 510
20.0777 499
20.09782 551
20.11793 561
20.13804 542
20.15816 552
20.17827 593
20.19838 528
20.2185 625
20.23861 594
20.25872 605
20.27884 594
20.29895 617
20.31907 632
20.33918 602
20.35929 614
20.37941 572
20.39952 583
20.41963 602
20.43975 607
20.45986 580
20.47998 588
20.50009 608
20.5202 571
20.54032 609
20.56043 658
20.58054 635
20.60066 682
20.62077 711
20.64088 781
20.661 796
20.68111 1023
20.70123 1187
20.72134 1518
20.74145 1869
20.76157 2195
20.78168 2792
20.80179 3047
20.82191 3145
20.84202 3028
20.86214 2704
20.88225 2329
20.90236 1954
20.92248 1740
20.94259 1581
20.9627 1521
20.98282 1390
21.00293 1310
21.02305 1217
21.04316 1063
21.06327 800
21.08339 805
21.1035 648
21.12361 631
21.14373 579
21.16384 582
21.18395 594
21.20407 526
21.22418 497
21.2443 503
21.26441 550
21.28452 512
21.30464 506
21.32475 473
21.34486 485
21.36498 478
21.38509 469
21.40521 448
21.42532 493
21.44543 469
21.46555 476
21.48566 457
21.50577 484
21.52589 457
21.546 451
21.56612 448
21.58623 457
21.60634 446
21.62646 477
21.64657 448
21.66668 462
21.6868 434
21.70691 406
21.72702 431
21.74714 430
21.76725 431
21.78737 435
21.80748 385
21.82759 411
21.84771 446
21.86782 393
21.88793 385
21.90805 460
21.92816 434
21.94828 409
21.96839 436
21.9885 432
22.00862 450
22.02873 430
22.04884 413
22.06896 479
22.08907 429
22.10919 409
22.1293 426
22.14941 427
22.16953 425
22.18964 432
22.20975 453
22.22987 500
22.24998 504
22.27009 514
22.29021 515
22.31032 561
22.33044 569
22.35055 544
22.37066 514
22.39078 508
22.41089 462
22.431 523
22.45112 518
22.47123 471
22.49135 439
22.51146 491
22.53157 431
22.55169 425
22.5718 491
22.59191 422
22.61203 439
22.63214 437
22.65225 424
22.67237 399
22.69248 416
22.7126 380
22.73271 406
22.75282 368
22.77294 407
22.79305 393
22.81316 400
22.83328 399
22.85339 406
22.87351 419
22.89362 418
22.91373 441
22.93385 442
22.95396 497
22.97407 473
22.99419 493
23.0143 500
23.03442 492
23.05453 543
23.07464 549
23.09476 540
23.11487 582
23.13498 602
23.1551 607
23.17521 615
23.19532 655
23.21544 679
23.23555 636
23.25567 630
23.27578 570
23.29589 564
23.31601 584
23.33612 525
23.35623 560
23.37635 559
23.39646 509
23.41658 539
23.43669 545
23.4568 531
23.47692 578
23.49703 585
23.51714 558
23.53726 561
23.55737 553
23.57749 562
23.5976 553
23.61771 529
23.63783 557
23.65794 514
23.67805 551
23.69817 538
23.71828 527
23.73839 566
23.75851 547
23.77862 531
23.79874 537
23.81885 540
23.83896 588
23.85908 622
23.87919 656
23.8993 620
23.91942 639
23.93953 619
23.95965 653
23.97976 582
23.99987 607
24.01999 577
24.0401 512
24.06021 447
24.08033 420
24.10044 429
24.12056 444
24.14067 459
24.16078 417
24.1809 494
24.20101 442
24.22112 431
24.24124 452
24.26135 512
24.28146 517
24.30158 538
24.32169 511
24.34181 530
24.36192 538
24.38203 516
24.40215 475
24.42226 523
24.44237 544
24.46249 513
24.4826 508
24.50272 531
24.52283 528
24.54294 532
24.56306 531
24.58317 551
24.60328 571
24.6234 584
24.64351 634
24.66362 607
24.68374 657
24.70385 589
24.72397 627
24.74408 625
24.76419 601
24.78431 684
24.80442 630
24.82453 593
24.84465 655
24.86476 656
24.88488 675
24.90499 655
24.9251 606
24.94522 562
24.96533 571
24.98544 621
25.00556 555
25.02567 565
25.04579 477
25.0659 577
25.08601 514
25.10613 494
25.12624 536
25.14635 540
25.16647 521
25.18658 497
25.20669 517
25.22681 518
25.24692 470
25.26704 528
25.28715 472
25.30726 509
25.32738 528
25.34749 497
25.3676 497
25.38772 574
25.40783 714
25.42795 708
25.44806 737
25.46817 830
25.48829 947
25.5084 892
25.52851 972
25.54863 957
25.56874 994
25.58886 1029
25.60897 936
25.62908 886
25.6492 793
25.66931 696
25.68942 670
25.70954 609
25.72965 560
25.74976 527
25.76988 492
25.78999 475
25.81011 470
25.83022 478
25.85033 495
25.87045 483
25.89056 527
25.91067 433
25.93079 476
25.9509 496
25.97102 492
25.99113 469
26.01124 488
26.03136 524
26.05147 517
26.07158 539
26.0917 556
26.11181 537
26.13193 637
26.15204 588
26.17215 655
26.19227 626
26.21238 695
26.23249 800
26.25261 798
26.27272 951
26.29283 979
26.31295 1063
26.33306 1269
26.35318 1409
26.37329 1560
26.3934 1788
26.41352 2203
26.43363 2735
26.45374 3459
26.47386 4361
26.49397 5874
26.51409 7293
26.5342 9043
26.55431 10603
26.57443 11923
26.59454 12231
26.61465 11412
26.63477 10295
26.65488 8116
26.67499 6107
26.69511 4457
26.71522 3213
26.73534 2243
26.75545 1677
26.77556 1325
26.79568 1162
26.81579 1063
26.8359 1075
26.85602 1142
26.87613 1066
26.89625 1085
26.91636 1060
26.93647 1200
26.95659 1284
26.9767 1459
26.99681 1453
27.01693 1478
27.03704 1428
27.05716 1446
27.07727 1241
27.09738 1102
27.1175 993
27.13761 906
27.15772 798
27.17784 807
27.19795 848
27.21806 827
27.23818 783
27.25829 956
27.27841 966
27.29852 1107
27.31863 1267
27.33875 1365
27.35886 1612
27.37897 1714
27.39909 1884
27.4192 2030
27.43932 1982
27.45943 1946
27.47954 1709
27.49966 1434
27.51977 1275
27.53988 1011
27.56 821
27.58011 697
27.60023 518
27.62034 502
27.64045 489
27.66057 437
27.68068 472
27.70079 439
27.72091 439
27.74102 459
27.76113 440
27.78125 448
27.80136 468
27.82148 444
27.84159 413
27.8617 429
27.88182 404
27.90193 402
27.92204 420
27.94216 376
27.96227 398
27.98239 396
28.0025 359
28.02261 387
28.04273 369
28.06284 355
28.08295 409
28.10307 322
28.12318 337
28.1433 361
28.16341 408
28.18352 354
28.20364 381
28.22375 340
28.24386 359
28.26398 340
28.28409 324
28.3042 344
28.32432 326
28.34443 365
28.36455 360
28.38466 327
28.40477 358
28.42489 332
28.445 332
28.46511 327
28.48523 346
28.50534 358
28.52546 294
28.54557 321
28.56568 347
28.5858 330
28.60591 334
28.62602 357
28.64614 351
28.66625 333
28.68636 306
28.70648 346
28.72659 355
28.74671 311
28.76682 301
28.78693 308
28.80705 330
28.82716 309
28.84727 316
28.86739 337
28.8875 345
28.90762 320
28.92773 342
28.94784 310
28.96796 331
28.98807 330
29.00818 312
29.0283 317
29.04841 332
29.06853 319
29.08864 302
29.10875 339
29.12887 342
29.14898 344
29.16909 306
29.18921 334
29.20932 324
29.22943 362
29.24955 333
29.26966 392
29.28978 411
29.30989 388
29.33 444
29.35012 448
29.37023 448
29.39034 477
29.41046 475
29.43057 474
29.45069 470
29.4708 457
29.49091 478
29.51103 484
29.53114 479
29.55125 450
29.57137 465
29.59148 464
29.6116 505
29.63171 457
29.65182 443
29.67194 442
29.69205 487
29.71216 465
29.73228 476
29.75239 465
29.7725 461
29.79262 485
29.81273 463
29.83285 487
29.85296 454
29.87307 483
29.89319 464
29.9133 486
29.93341 489
29.95353 494
29.97364 520
29.99376 534
30.01387 572
30.03398 557
30.0541 524
30.07421 554
30.09432 570
30.11444 571
30.13455 573
30.15467 601
30.17478 552
30.19489 497
30.21501 499
30.23512 458
30.25523 465
30.27535 394
30.29546 367
30.31557 394
30.33569 361
30.3558 391
30.37592 350
30.39603 349
30.41614 344
30.43626 348
30.45637 361
30.47648 351
30.4966 381
30.51671 393
30.53683 398
30.55694 406
30.57705 406
30.59717 399
30.61728 469
30.63739 509
30.65751 560
30.67762 553
30.69773 650
30.71785 642
30.73796 615
30.75808 608
30.77819 676
30.7983 556
30.81842 608
30.83853 571
30.85864 515
30.87876 495
30.89887 457
30.91899 415
30.9391 370
30.95921 341
30.97933 320
30.99944 332
31.01955 315
31.03967 308
31.05978 275
31.0799 286
31.10001 319
31.12012 299
31.14024 307
31.16035 299
31.18046 301
31.20058 287
31.22069 272
31.2408 310
31.26092 287
31.28103 297
31.30115 311
31.32126 306
31.34137 310
31.36149 299
31.3816 293
31.40171 277
31.42183 292
31.44194 286
31.46206 298
31.48217 313
31.50228 295
31.5224 273
31.54251 273
31.56262 273
31.58274 277
31.60285 290
31.62297 289
31.64308 291
31.66319 301
31.68331 279
31.70342 278
31.72353 299
31.74365 276
31.76376 295
31.78387 304
31.80399 305
31.8241 301
31.84422 287
31.86433 313
31.88444 311
31.90456 321
31.92467 285
31.94478 285
31.9649 295
31.98501 271
32.00513 353
32.02524 342
32.04535 365
32.06547 395
32.08558 376
32.10569 373
32.12581 387
32.14592 359
32.16604 375
32.18615 380
32.20626 402
32.22638 419
32.24649 369
32.2666 440
32.28672 413
32.30683 405
32.32694 426
32.34706 401
32.36717 409
32.38729 387
32.4074 415
32.42751 413
32.44763 392
32.46774 350
32.48785 370
32.50797 316
32.52808 354
32.5482 319
32.56831 315
32.58842 335
32.60854 317
32.62865 275
32.64876 296
32.66888 285
32.68899 289
32.7091 299
32.72922 279
32.74933 279
32.76945 295
32.78956 280
32.80967 301
32.82979 289
32.8499 343
32.87001 295
32.89013 287
32.91024 288
32.93036 286
32.95047 307
32.97058 317
32.9907 326
33.01081 312
33.03092 285
33.05104 295
33.07115 322
33.09127 294
33.11138 343
33.13149 330
33.15161 325
33.17172 338
33.19183 322
33.21195 347
33.23206 307
33.25217 343
33.27229 332
33.2924 308
33.31252 287
33.33263 297
33.35274 273
33.37286 272
33.39297 295
33.41308 291
33.4332 307
33.45331 301
33.47343 296
33.49354 310
33.51365 304
33.53377 297
33.55388 266
33.57399 260
33.59411 302
33.61422 311
33.63434 301
33.65445 282
33.67456 273
33.69468 261
33.71479 295
33.7349 293
33.75502 292
33.77513 335
33.79524 311
33.81536 301
33.83547 309
33.85559 317
33.8757 322
33.89581 333
33.91593 362
33.93604 389
33.95615 349
33.97627 345
33.99638 372
34.0165 403
34.03661 429
34.05672 461
34.07684 493
34.09695 459
34.11706 457
34.13718 508
34.15729 474
34.17741 512
34.19752 492
34.21763 513
34.23775 511
34.25786 482
34.27797 487
34.29809 488
34.3182 448
34.33831 495
34.35843 447
34.37854 469
34.39866 435
34.41877 502
34.43888 467
34.459 464
34.47911 439
34.49922 437
34.51934 475
34.53945 460
34.55957 422
34.57968 442
34.59979 468
34.61991 481
34.64002 433
34.66013 469
34.68025 452
34.70036 472
34.72047 448
34.74059 464
34.7607 518
34.78082 522
34.80093 537
34.82104 501
34.84116 546
34.86127 546
34.88138 546
34.9015 626
34.92161 594
34.94173 532
34.96184 569
34.98195 574
35.00207 548
35.02218 572
35.04229 556
35.06241 552
35.08252 543
35.10264 542
35.12275 490
35.14286 565
35.16298 535
35.18309 515
35.2032 480
35.22332 550
35.24343 527
35.26354 579
35.28366 590
35.30377 576
35.32389 591
35.344 597
35.36411 626
35.38423 622
35.40434 616
35.42445 606
35.44457 621
35.46468 629
35.4848 611
35.50491 553
35.52502 580
35.54514 531
35.56525 572
35.58536 532
35.60548 531
35.62559 484
35.64571 461
35.66582 441
35.68593 470
35.70605 480
35.72616 541
35.74627 459
35.76639 449
35.7865 442
35.80661 465
35.82673 455
35.84684 453
35.86696 458
35.88707 438
35.90718 484
35.9273 460
35.94741 443
35.96752 420
35.98764 379
36.00775 411
36.02787 389
36.04798 369
36.06809 353
36.08821 435
36.10832 375
36.12843 376
36.14855 386
36.16866 390
36.18878 390
36.20889 414
36.229 408
36.24912 416
36.26923 437
36.28934 452
36.30946 517
36.32957 521
36.34968 553
36.3698 651
36.38991 738
36.41003 740
36.43014 877
36.45025 1035
36.47037 1074
36.49048 1106
36.51059 1012
36.53071 890
36.55082 875
36.57094 770
36.59105 663
36.61116 593
36.63128 593
36.65139 451
36.6715 426
36.69162 403
36.71173 373
36.73184 431
36.75196 370
36.77207 408
36.79219 413
36.8123 440
36.83241 432
36.85253 443
36.87264 397
36.89275 412
36.91287 458
36.93298 437
36.9531 439
36.97321 440
36.99332 446
37.01344 451
37.03355 438
37.05366 412
37.07378 431
37.09389 393
37.11401 398
37.13412 398
37.15423 399
37.17435 401
37.19446 390
37.21457 363
37.23469 371
37.2548 363
37.27491 392
37.29503 355
37.31514 388
37.33526 414
37.35537 401
37.37548 401
37.3956 370
37.41571 382
37.43582 384
37.45594 407
37.47605 387
37.49617 409
37.51628 363
37.53639 397
37.55651 408
37.57662 409
37.59673 423
37.61685 403
37.63696 381
37.65708 387
37.67719 387
37.6973 376
37.71742 397
37.73753 391
37.75764 389
37.77776 373
37.79787 372
37.81798 404
37.8381 367
37.85821 400
37.87833 348
37.89844 365
37.91855 378
37.93867 375
37.95878 366
37.97889 406
37.99901 356
38.01912 375
38.03924 405
38.05935 380
38.07946 369
38.09958 381
38.11969 395
38.1398 401
38.15992 386
38.18003 428
38.20015 389
38.22026 396
38.24037 435
38.26049 440
38.2806 430
38.30071 430
38.32083 451
38.34094 437
38.36105 448
38.38117 431
38.40128 459
38.4214 454
38.44151 469
38.46162 470
38.48174 461
38.50185 505
38.52196 466
38.54208 467
38.56219 470
38.58231 425
38.60242 438
38.62253 425
38.64265 421
38.66276 425
38.68287 418
38.70299 387
38.7231 383
38.74321 351
38.76333 344
38.78344 369
38.80356 348
38.82367 355
38.84378 353
38.8639 347
38.88401 355
38.90412 370
38.92424 337
38.94435 394
38.96447 384
38.98458 380
39.00469 375
39.02481 372
39.04492 380
39.06503 412
39.08515 403
39.10526 431
39.12538 419
39.14549 444
39.1656 410
39.18572 451
39.20583 461
39.22594 511
39.24606 554
39.26617 545
39.28628 596
39.3064 658
39.32651 719
39.34663 848
39.36674 955
39.38685 985
39.40697 1045
39.42708 970
39.44719 871
39.46731 837
39.48742 728
39.50754 616
39.52765 600
39.54776 493
39.56788 475
39.58799 423
39.6081 368
39.62822 358
39.64833 365
39.66845 313
39.68856 309
39.70867 360
39.72879 332
39.7489 344
39.76901 318
39.78913 345
39.80924 295
39.82935 320
39.84947 321
39.86958 334
39.8897 317
39.90981 314
39.92992 360
39.95004 326
39.97015 350
39.99026 318
40.01038 352
40.03049 380
40.05061 379
40.07072 389
40.09083 423
40.11095 465
40.13106 459
40.15117 519
40.17129 549
40.1914 553
40.21152 631
40.23163 646
40.25174 633
40.27186 584
40.29197 518
40.31208 518
40.3322 464
40.35231 460
40.37242 397
40.39254 383
40.41265 378
40.43277 360
40.45288 357
40.47299 366
40.49311 329
40.51322 330
40.53333 299
40.55345 300
40.57356 321
40.59368 326
40.61379 337
40.6339 293
40.65402 340
40.67413 347
40.69424 304
40.71436 318
40.73447 307
40.75458 308
40.7747 282
40.79481 321
40.81493 311
40.83504 308
40.85515 338
40.87527 315
40.89538 335
40.91549 354
40.93561 307
40.95572 293
40.97584 332
40.99595 329
41.01606 308
41.03618 348
41.05629 295
41.0764 325
41.09652 313
41.11663 292
41.13675 299
41.15686 291
41.17697 332
41.19709 326
41.2172 322
41.23731 322
41.25743 329
41.27754 310
41.29765 344
41.31777 335
41.33788 331
41.358 321
41.37811 337
41.39822 324
41.41834 346
41.43845 306
41.45856 311
41.47868 361
41.49879 349
41.51891 361
41.53902 364
41.55913 375
41.57925 410
41.59936 385
41.61947 427
41.63959 466
41.6597 550
41.67982 547
41.69993 591
41.72004 577
41.74016 566
41.76027 521
41.78038 547
41.8005 507
41.82061 494
41.84072 452
41.86084 429
41.88095 422
41.90107 379
41.92118 347
41.94129 342
41.96141 359
41.98152 349
42.00163 315
42.02175 334
42.04186 333
42.06198 371
42.08209 327
42.1022 302
42.12232 346
42.14243 345
42.16254 368
42.18266 347
42.20277 359
42.22289 404
42.243 426
42.26311 438
42.28323 543
42.30334 607
42.32345 652
42.34357 695
42.36368 768
42.38379 771
42.40391 767
42.42402 704
42.44414 678
42.46425 644
42.48436 588
42.50448 525
42.52459 497
42.5447 484
42.56482 400
42.58493 405
42.60505 378
42.62516 388
42.64527 357
42.66539 378
42.6855 363
42.70561 399
42.72573 324
42.74584 327
42.76595 335
42.78607 332
42.80618 280
42.8263 332
42.84641 305
42.86652 290
42.88664 308
42.90675 305
42.92686 326
42.94698 300
42.96709 294
42.98721 317
43.00732 299
43.02743 309
43.04755 300
43.06766 340
43.08777 298
43.10789 321
43.128 277
43.14812 306
43.16823 288
43.18834 297
43.20846 275
43.22857 251
43.24868 260
43.2688 249
43.28891 276
43.30902 277
43.32914 275
43.34925 292
43.36937 256
43.38948 265
43.40959 282
43.42971 310
43.44982 307
43.46993 303
43.49005 332
43.51016 273
43.53028 335
43.55039 274
43.5705 281
43.59062 305
43.61073 293
43.63084 308
43.65096 272
43.67107 272
43.69119 245
43.7113 298
43.73141 272
43.75153 264
43.77164 260
43.79175 293
43.81187 255
43.83198 294
43.85209 280
43.87221 306
43.89232 275
43.91244 260
43.93255 280
43.95266 269
43.97278 282
43.99289 299
44.013 301
44.03312 308
44.05323 305
44.07335 309
44.09346 309
44.11357 350
44.13369 303
44.1538 307
44.17391 290
44.19403 288
44.21414 300
44.23426 293
44.25437 263
44.27448 287
44.2946 294
44.31471 271
44.33482 253
44.35494 304
44.37505 271
44.39516 270
44.41528 273
44.43539 293
44.45551 267
44.47562 271
44.49573 294
44.51585 267
44.53596 293
44.55607 275
44.57619 283
44.5963 268
44.61642 274
44.63653 283
44.65664 296
44.67676 297
44.69687 281
44.71698 289
44.7371 277
44.75721 238
44.77732 283
44.79744 310
44.81755 280
44.83767 293
44.85778 286
44.87789 302
44.89801 284
44.91812 311
44.93823 307
44.95835 310
44.97846 281
44.99858 290
45.01869 327
45.0388 305
45.05892 307
45.07903 305
45.09914 318
45.11926 322
45.13937 286
45.15949 290
45.1796 311
45.19971 344
45.21983 320
45.23994 306
45.26005 375
45.28017 326
45.30028 339
45.32039 342
45.34051 326
45.36062 354
45.38074 352
45.40085 364
45.42096 380
45.44108 368
45.46119 395
45.4813 367
45.50142 385
45.52153 407
45.54165 415
45.56176 439
45.58187 447
45.60199 517
45.6221 489
45.64221 566
45.66233 603
45.68244 592
45.70256 621
45.72267 621
45.74278 613
45.7629 653
45.78301 546
45.80312 537
45.82324 487
45.84335 479
45.86346 454
45.88358 419
45.90369 397
45.92381 361
45.94392 355
45.96403 308
45.98415 310
46.00426 342
46.02437 314
46.04449 295
46.0646 330
46.08472 296
46.10483 349
46.12494 294
46.14506 266
46.16517 307
46.18528 285
46.2054 297
46.22551 342
46.24563 277
46.26574 299
46.28585 272
46.30597 286
46.32608 294
46.34619 312
46.36631 270
46.38642 273
46.40653 298
46.42665 240
46.44676 260
46.46688 274
46.48699 260
46.5071 256
46.52722 260
46.54733 283
46.56744 276
46.58756 324
46.60767 266
46.62779 266
46.6479 284
46.66801 317
46.68813 259
46.70824 313
46.72835 256
46.74847 291
46.76858 282
46.78869 274
46.80881 281
46.82892 324
46.84904 298
46.86915 314
46.88926 315
46.90938 328
46.92949 298
46.9496 335
46.96972 356
46.98983 372
47.00995 346
47.03006 353
47.05017 336
47.07029 376
47.0904 372
47.11051 343
47.13063 319
47.15074 340
47.17086 333
47.19097 352
47.21108 331
47.2312 330
47.25131 304
47.27142 330
47.29154 308
47.31165 319
47.33176 335
47.35188 365
47.37199 348
47.39211 343
47.41222 339
47.43233 317
47.45245 349
47.47256 318
47.49267 282
47.51279 298
47.5329 294
47.55302 325
47.57313 284
47.59324 297
47.61336 290
47.63347 299
47.65358 296
47.6737 267
47.69381 281
47.71393 265
47.73404 316
47.75415 287
47.77427 282
47.79438 290
47.81449 285
47.83461 281
47.85472 291
47.87483 268
47.89495 292
47.91506 303
47.93518 256
47.95529 279
47.9754 242
47.99552 291
48.01563 277
48.03574 285
48.05586 309
48.07597 275
48.09609 294
48.1162 289
48.13631 242
48.15643 266
48.17654 264
48.19665 273
48.21677 253
48.23688 250
48.257 265
48.27711 281
48.29722 281
48.31734 273
48.33745 290
48.35756 275
48.37768 305
48.39779 258
48.4179 270
48.43802 266
48.45813 250
48.47825 282
48.49836 266
48.51847 302
48.53859 259
48.5587 281
48.57881 263
48.59893 287
48.61904 290
48.63916 322
48.65927 280
48.67938 277
48.6995 286
48.71961 302
48.73972 309
48.75984 315
48.77995 331
48.80006 350
48.82018 321
48.84029 309
48.86041 328
48.88052 341
48.90063 328
48.92075 338
48.94086 344
48.96097 338
48.98109 348
49.0012 331
49.02132 305
49.04143 331
49.06154 301
49.08166 274
49.10177 273
49.12188 318
49.142 319
49.16211 280
49.18223 274
49.20234 292
49.22245 277
49.24257 299
49.26268 282
49.28279 284
49.30291 276
49.32302 281
49.34313 320
49.36325 279
49.38336 287
49.40348 276
49.42359 286
49.4437 279
49.46382 269
49.48393 310
49.50404 275
49.52416 308
49.54427 300
49.56439 277
49.5845 298
49.60461 261
49.62473 267
49.64484 286
49.66495 328
49.68507 318
49.70518 322
49.7253 313
49.74541 327
49.76552 404
49.78564 375
49.80575 393
49.82586 388
49.84598 422
49.86609 471
49.8862 508
49.90632 588
49.92643 604
49.94655 747
49.96666 823
49.98677 981
50.00689 1084
50.027 1216
50.04711 1368
50.06723 1270
50.08734 1314
50.10746 1320
50.12757 1136
50.14768 1050
50.1678 914
50.18791 851
50.20802 823
50.22814 730
50.24825 636
50.26837 587
50.28848 480
50.30859 431
50.32871 437
50.34882 431
50.36893 416
50.38905 497
50.40916 503
50.42927 515
50.44939 554
50.4695 613
50.48962 574
50.50973 639
50.52984 563
50.54996 587
50.57007 532
50.59018 563
50.6103 513
50.63041 495
50.65053 487
50.67064 446
50.69075 462
50.71087 430
50.73098 415
50.75109 416
50.77121 382
50.79132 397
50.81143 390
50.83155 356
50.85166 335
50.87178 363
50.89189 364
50.912 353
50.93212 327
50.95223 315
50.97234 294
50.99246 298
51.01257 290
51.03269 311
51.0528 330
51.07291 270
51.09303 307
51.11314 298
51.13325 275
51.15337 288
51.17348 251
51.1936 252
51.21371 243
51.23382 250
51.25394 271
51.27405 225
51.29416 266
51.31428 276
51.33439 321
51.3545 256
51.37462 258
51.39473 282
51.41485 238
51.43496 256
51.45507 238
51.47519 260
51.4953 276
51.51541 269
51.53553 282
51.55564 236
51.57576 246
51.59587 260
51.61598 231
51.6361 259
51.65621 248
51.67632 249
51.69644 265
51.71655 242
51.73667 246
51.75678 268
51.77689 250
51.79701 282
51.81712 239
51.83723 247
51.85735 242
51.87746 244
51.89757 243
51.91769 248
51.9378 220
51.95792 225
51.97803 227
51.99814 231
52.01826 262
52.03837 272
52.05848 267
52.0786 260
52.09871 283
52.11883 263
52.13894 267
52.15905 257
52.17917 251
52.19928 249
52.21939 273
52.23951 229
52.25962 287
52.27974 257
52.29985 240
52.31996 260
52.34008 231
52.36019 276
52.3803 259
52.40042 259
52.42053 288
52.44064 288
52.46076 259
52.48087 272
52.50099 270
52.5211 239
52.54121 247
52.56133 302
52.58144 257
52.60155 276
52.62167 264
52.64178 265
52.6619 280
52.68201 265
52.70212 260
52.72224 260
52.74235 282
52.76246 248
52.78258 267
52.80269 276
52.8228 258
52.84292 240
52.86303 244
52.88315 258
52.90326 276
52.92337 254
52.94349 260
52.9636 253
52.98371 259
53.00383 254
53.02394 254
53.04406 249
53.06417 251
53.08428 259
53.1044 266
53.12451 253
53.14462 267
53.16474 262
53.18485 304
53.20497 281
53.22508 271
53.24519 310
53.26531 303
53.28542 275
53.30553 270
53.32565 269
53.34576 294
53.36587 290
53.38599 266
53.4061 265
53.42622 279
53.44633 278
53.46644 268
53.48656 272
53.50667 260
53.52678 268
53.5469 265
53.56701 298
53.58713 284
53.60724 291
53.62735 267
53.64747 286
53.66758 268
53.68769 269
53.70781 286
53.72792 290
53.74804 304
53.76815 278
53.78826 305
53.80838 288
53.82849 292
53.8486 302
53.86872 285
53.88883 303
53.90894 290
53.92906 311
53.94917 294
53.96929 304
53.9894 337
54.00951 308
54.02963 305
54.04974 291
54.06985 319
54.08997 333
54.11008 315
54.1302 327
54.15031 332
54.17042 329
54.19054 288
54.21065 309
54.23076 331
54.25088 348
54.27099 305
54.29111 319
54.31122 355
54.33133 331
54.35145 359
54.37156 343
54.39167 303
54.41179 325
54.4319 345
54.45201 347
54.47213 383
54.49224 306
54.51236 370
54.53247 349
54.55258 323
54.5727 354
54.59281 375
54.61292 372
54.63304 388
54.65315 435
54.67327 479
54.69338 458
54.71349 486
54.73361 574
54.75372 597
54.77383 624
54.79395 620
54.81406 662
54.83417 602
54.85429 576
54.8744 552
54.89452 489
54.91463 487
54.93474 511
54.95486 480
54.97497 451
54.99508 433
55.0152 432
55.03531 433
55.05543 360
55.07554 393
55.09565 392
55.11577 395
55.13588 372
55.15599 398
55.17611 445
55.19622 421
55.21634 488
55.23645 445
55.25656 479
55.27668 452
55.29679 431
55.3169 438
55.33702 392
55.35713 409
55.37724 381
55.39736 410
55.41747 381
55.43759 419
55.4577 366
55.47781 345
55.49793 332
55.51804 350
55.53815 323
55.55827 327
55.57838 333
55.5985 308
55.61861 306
55.63872 298
55.65884 325
55.67895 322
55.69906 288
55.71918 309
55.73929 307
55.75941 327
55.77952 283
55.79963 288
55.81975 298
55.83986 300
55.85997 289
55.88009 291
55.9002 293
55.92031 271
55.94043 282
55.96054 269
55.98066 281
56.00077 299
56.02088 302
56.041 284
56.06111 295
56.08122 270
56.10134 252
56.12145 255
56.14157 263
56.16168 289
56.18179 283
56.20191 308
56.22202 271
56.24213 255
56.26225 286
56.28236 283
56.30248 263
56.32259 296
56.3427 297
56.36282 261
56.38293 314
56.40304 282
56.42316 287
56.44327 285
56.46338 283
56.4835 247
56.50361 300
56.52373 270
56.54384 285
56.56395 283
56.58407 312
56.60418 287
56.62429 285
56.64441 319
56.66452 288
56.68464 325
56.70475 333
56.72486 274
56.74498 332
56.76509 305
56.7852 300
56.80532 312
56.82543 309
56.84554 310
56.86566 309
56.88577 307
56.90589 286
56.926 308
56.94611 260
56.96623 311
56.98634 311
57.00645 284
57.02657 280
57.04668 307
57.0668 279
57.08691 271
57.10702 313
57.12714 302
57.14725 286
57.16736 297
57.18748 314
57.20759 300
57.22771 293
57.24782 281
57.26793 266
57.28805 294
57.30816 305
57.32827 276
57.34839 286
57.3685 244
57.38861 251
57.40873 259
57.42884 277
57.44896 278
57.46907 291
57.48918 281
57.5093 286
57.52941 272
57.54952 261
57.56964 272
57.58975 286
57.60987 254
57.62998 283
57.65009 258
57.67021 244
57.69032 256
57.71043 247
57.73055 252
57.75066 242
57.77078 243
57.79089 244
57.811 271
57.83112 266
57.85123 256
57.87134 245
57.89146 260
57.91157 246
57.93168 291
57.9518 274
57.97191 240
57.99203 256
58.01214 290
58.03225 275
58.05237 248
58.07248 292
58.09259 261
58.11271 259
58.13282 258
58.15294 243
58.17305 288
58.19316 224
58.21328 223
58.23339 256
58.2535 259
58.27362 274
58.29373 254
58.31385 276
58.33396 272
58.35407 237
58.37419 261
58.3943 256
58.41441 264
58.43453 272
58.45464 270
58.47475 260
58.49487 260
58.51498 297
58.5351 278
58.55521 302
58.57532 271
58.59544 314
58.61555 273
58.63566 261
58.65578 312
58.67589 292
58.69601 291
58.71612 303
58.73623 269
58.75635 261
58.77646 278
58.79657 256
58.81669 251
58.8368 262
58.85691 273
58.87703 242
58.89714 258
58.91726 258
58.93737 231
58.95748 246
58.9776 237
58.99771 246
59.01782 244
59.03794 258
59.05805 249
59.07817 278
59.09828 233
59.11839 257
59.13851 245
59.15862 251
59.17873 221
59.19885 246
59.21896 301
59.23908 234
59.25919 283
59.2793 261
59.29942 233
59.31953 256
59.33964 228
59.35976 268
59.37987 289
59.39998 277
59.4201 275
59.44021 289
59.46033 324
59.48044 308
59.50055 304
59.52067 333
59.54078 313
59.56089 302
59.58101 312
59.60112 352
59.62124 355
59.64135 348
59.66146 423
59.68158 456
59.70169 494
59.7218 488
59.74192 546
59.76203 618
59.78215 689
59.80226 719
59.82237 853
59.84249 890
59.8626 936
59.88271 946
59.90283 947
59.92294 837
59.94305 744
59.96317 658
59.98328 667
60.0034 650
60.02351 630
60.04362 649
60.06374 561
60.08385 552
60.10396 462
60.12408 456
60.14419 386
60.16431 346
60.18442 320
60.20453 327
60.22465 320
60.24476 279
60.26487 349
60.28499 324
60.3051 305
60.32522 277
60.34533 309
60.36544 297
60.38556 308
60.40567 285
60.42578 306
60.4459 281
60.46601 258
60.48612 265
60.50624 304
60.52635 283
60.54647 297
60.56658 279
60.58669 263
60.60681 259
60.62692 268
60.64703 269
60.66715 275
60.68726 270
60.70738 284
60.72749 273
60.7476 286
60.76772 280
60.78783 296
60.80794 260
60.82806 252
60.84817 274
60.86828 275
60.8884 264
60.90851 262
60.92863 260
60.94874 264
60.96885 316
60.98897 286
61.00908 291
61.02919 286
61.04931 288
61.06942 320
61.08954 296
61.10965 294
61.12976 316
61.14988 304
61.16999 298
61.1901 276
61.21022 283
61.23033 266
61.25045 289
61.27056 270
61.29067 271
61.31079 278
61.3309 295
61.35101 251
61.37113 256
61.39124 293
61.41135 276
61.43147 268
61.45158 254
61.4717 302
61.49181 318
61.51192 298
61.53204 308
61.55215 276
61.57226 304
61.59238 278
61.61249 264
61.63261 314
61.65272 272
61.67283 281
61.69295 324
61.71306 310
61.73317 283
61.75329 292
61.7734 288
61.79352 313
61.81363 291
61.83374 315
61.85386 275
61.87397 307
61.89408 323
61.9142 322
61.93431 307
61.95442 327
61.97454 325
61.99465 319
62.01477 353
62.03488 340
62.05499 313
62.07511 345
62.09522 360
62.11533 368
62.13545 379
62.15556 373
62.17568 374
62.19579 390
62.2159 361
62.23602 400
62.25613 382
62.27624 396
62.29636 424
62.31647 387
62.33659 411
62.3567 418
62.37681 386
62.39693 358
62.41704 375
62.43715 380
62.45727 406
62.47738 333
62.49749 361
62.51761 365
62.53772 366
62.55784 353
62.57795 369
62.59806 358
62.61818 347
62.63829 326
62.6584 327
62.67852 304
62.69863 322
62.71875 337
62.73886 335
62.75897 309
62.77909 295
62.7992 319
62.81931 306
62.83943 304
62.85954 293
62.87965 301
62.89977 284
62.91988 275
62.94 270
62.96011 301
62.98022 316
63.00034 298
63.02045 281
63.04056 309
63.06068 298
63.08079 291
63.10091 291
63.12102 298
63.14113 298
63.16125 300
63.18136 275
63.20147 319
63.22159 306
63.2417 265
63.26182 306
63.28193 281
63.30204 275
63.32216 239
63.34227 273
63.36238 244
63.3825 293
63.40261 278
63.42272 294
63.44284 237
63.46295 301
63.48307 305
63.50318 278
63.52329 294
63.54341 292
63.56352 315
63.58363 289
63.60375 308
63.62386 310
63.64398 289
63.66409 332
63.6842 315
63.70432 336
63.72443 321
63.74454 311
63.76466 320
63.78477 358
63.80489 350
63.825 376
63.84511 390
63.86523 386
63.88534 446
63.90545 423
63.92557 439
63.94568 445
63.96579 422
63.98591 406
64.00602 385
64.02614 368
64.04625 369
64.06636 400
64.08648 375
64.10659 359
64.1267 369
64.14682 371
64.16693 312
64.18705 324
64.20716 326
64.22727 306
64.24739 293
64.2675 261
64.28761 282
64.30773 278
64.32784 280
64.34796 291
64.36807 283
64.38818 264
64.4083 268
64.42841 272
64.44852 249
64.46864 245
64.48875 273
64.50886 259
64.52898 274
64.54909 272
64.56921 283
64.58932 257
64.60943 290
64.62955 236
64.64966 242
64.66977 255
64.68989 248
64.71 269
64.73012 230
64.75023 246
64.77034 268
64.79046 271
64.81057 242
64.83068 293
64.8508 258
64.87091 269
64.89102 264
64.91114 287
64.93125 260
64.95137 296
64.97148 292
64.99159 243
65.01171 269
65.03182 308
65.05193 276
65.07205 271
65.09216 275
65.11228 269
65.13239 255
65.1525 285
65.17262 279
65.19273 308
65.21284 274
65.23296 299
65.25307 287
65.27319 296
65.2933 291
65.31341 286
65.33353 273
65.35364 282
65.37375 290
65.39387 255
65.41398 283
65.43409 258
65.45421 263
65.47432 244
65.49444 242
65.51455 249
65.53466 252
65.55478 248
65.57489 239
65.595 256
65.61512 247
65.63523 258
65.65535 260
65.67546 287
65.69557 290
65.71569 273
65.7358 292
65.75591 251
65.77603 253
65.79614 215
65.81626 261
65.83637 235
65.85648 254
65.8766 261
65.89671 269
65.91682 260
65.93694 284
65.95705 264
65.97716 243
65.99728 232
66.01739 272
66.03751 226
66.05762 272
66.07773 280
66.09785 276
66.11796 250
66.13807 287
66.15819 321
66.1783 271
66.19842 319
66.21853 273
66.23864 313
66.25876 283
66.27887 271
66.29898 265
66.3191 294
66.33921 280
66.35933 264
66.37944 273
66.39955 264
66.41967 269
66.43978 275
66.45989 272
66.48001 287
66.50012 278
66.52023 270
66.54035 249
66.56046 220
66.58058 268
66.60069 250
66.6208 246
66.64092 225
66.66103 229
66.68114 226
66.70126 256
66.72137 228
66.74149 266
66.7616 228
66.78171 257
66.80183 246
66.82194 251
66.84205 260
66.86217 284
66.88228 267
66.90239 250
66.92251 240
66.94262 240
66.96274 242
66.98285 265
67.00296 246
67.02308 235
67.04319 266
67.0633 255
67.08342 244
67.10353 265
67.12365 239
67.14376 274
67.16387 263
67.18399 254
67.2041 245
67.22421 266
67.24433 269
67.26444 284
67.28456 266
67.30467 299
67.32478 273
67.3449 290
67.36501 259
67.38512 302
67.40524 299
67.42535 299
67.44546 327
67.46558 328
67.48569 363
67.50581 401
67.52592 410
67.54603 509
67.56615 519
67.58626 582
67.60637 587
67.62649 624
67.6466 668
67.66672 610
67.68683 645
67.70694 578
67.72706 566
67.74717 574
67.76728 476
67.7874 490
67.80751 537
67.82763 506
67.84774 543
67.86785 598
67.88797 580
67.90808 533
67.92819 559
67.94831 571
67.96842 622
67.98853 640
68.00865 712
68.02876 769
68.04888 827
68.06899 830
68.0891 830
68.10922 746
68.12933 766
68.14944 688
68.16956 707
68.18967 670
68.20979 796
68.2299 740
68.25001 750
68.27013 686
68.29024 648
68.31035 576
68.33047 556
68.35058 482
68.3707 412
68.39081 436
68.41092 415
68.43104 410
68.45115 382
68.47126 353
68.49138 324
68.51149 310
68.5316 308
68.55172 272
68.57183 290
68.59195 240
68.61206 293
68.63217 253
68.65229 250
68.6724 253
68.69251 270
68.71263 262
68.73274 238
68.75286 240
68.77297 224
68.79308 275
68.8132 248
68.83331 251
68.85342 250
68.87354 246
68.89365 280
68.91376 255
68.93388 249
68.95399 276
68.97411 231
68.99422 249
69.01433 246
69.03445 247
69.05456 229
69.07467 213
69.09479 229
69.1149 251
69.13502 241
69.15513 222
69.17524 217
69.19536 208
69.21547 230
69.23558 195
69.2557 233
69.27581 228
69.29593 229
69.31604 196
69.33615 214
69.35627 214
69.37638 217
69.39649 220
69.41661 228
69.43672 207
69.45683 235
69.47695 236
69.49706 234
69.51718 239
69.53729 224
69.5574 222
69.57752 232
69.59763 230
69.61774 216
69.63786 222
69.65797 230
69.67809 230
69.6982 233
69.71831 221
69.73843 239
69.75854 213
69.77865 228
69.79877 222
69.81888 232
69.839 201
69.85911 211
69.87922 248
69.89934 206
69.91945 209
69.93956 241
69.95968 232
69.97979 239
69.9999 227
70.02002 236
70.04013 252
70.06025 249
70.08036 223
70.10047 228
70.12059 252
70.1407 252
70.16081 224
70.18093 256
70.20104 235
70.22116 225
70.24127 211
70.26138 258
70.2815 201
70.30161 237
70.32172 243
70.34184 271
70.36195 242
70.38207 232
70.40218 206
70.42229 234
70.44241 239
70.46252 225
70.48263 263
70.50275 215
70.52286 258
70.54297 250
70.56309 256
70.5832 259
70.60332 234
70.62343 245
70.64354 242
70.66366 267
70.68377 242
70.70388 262
70.724 229
70.74411 225
70.76423 245
70.78434 232
70.80445 241
70.82457 238
70.84468 223
70.86479 231
70.88491 215
70.90502 211
70.92513 236
70.94525 265
70.96536 223
70.98548 224
71.00559 245
71.0257 205
71.04582 231
71.06593 207
71.08604 226
71.10616 238
71.12627 227
71.14639 221
71.1665 233
71.18661 212
71.20673 224
71.22684 217
71.24695 215
71.26707 250
71.28718 224
71.3073 228
71.32741 224
71.34752 242
71.36764 252
71.38775 227
71.40786 248
71.42798 246
71.44809 261
71.4682 246
71.48832 267
71.50843 281
71.52855 278
71.54866 240
71.56877 259
71.58889 232
71.609 246
71.62911 269
71.64923 255
71.66934 248
71.68946 251
71.70957 255
71.72968 242
71.7498 256
71.76991 265
71.79002 247
71.81014 247
71.83025 238
71.85037 234
71.87048 265
71.89059 259
71.91071 260
71.93082 259
71.95093 259
71.97105 263
71.99116 250
72.01127 256
72.03139 266
72.0515 253
72.07162 240
72.09173 258
72.11184 268
72.13196 290
72.15207 264
72.17218 261
72.1923 271
72.21241 247
72.23253 231
72.25264 259
72.27275 263
72.29287 236
72.31298 287
72.33309 272
72.35321 275
72.37332 267
72.39344 267
72.41355 271
72.43366 251
72.45378 232
72.47389 246
72.494 257
72.51412 235
72.53423 265
72.55434 247
72.57446 263
72.59457 246
72.61469 239
72.6348 250
72.65491 253
72.67503 241
72.69514 236
72.71525 233
72.73537 245
72.75548 249
72.7756 242
72.79571 243
72.81582 256
72.83594 256
72.85605 241
72.87616 277
72.89628 269
72.91639 266
72.9365 263
72.95662 257
72.97673 291
72.99685 260
73.01696 292
73.03707 257
73.05719 284
73.0773 246
73.09741 258
73.11753 281
73.13764 296
73.15776 279
73.17787 286
73.19798 277
73.2181 305
73.23821 302
73.25832 295
73.27844 363
73.29855 344
73.31867 353
73.33878 375
73.35889 391
73.37901 388
73.39912 441
73.41923 413
73.43935 358
73.45946 344
73.47957 369
73.49969 309
73.5198 324
73.53992 341
73.56003 336
73.58014 315
73.60026 306
73.62037 336
73.64048 319
73.6606 291
73.68071 308
73.70083 287
73.72094 268
73.74105 249
73.76117 276
73.78128 266
73.80139 247
73.82151 259
73.84162 243
73.86174 257
73.88185 252
73.90196 226
73.92208 288
73.94219 250
73.9623 221
73.98242 276
74.00253 251
74.02264 262
74.04276 262
74.06287 239
74.08299 237
74.1031 245
74.12321 256
74.14333 223
74.16344 233
74.18355 243
74.20367 252
74.22378 259
74.2439 238
74.26401 237
74.28412 243
74.30424 233
74.32435 265
74.34446 234
74.36458 280
74.38469 266
74.40481 254
74.42492 251
74.44503 254
74.46515 252
74.48526 245
74.50537 233
74.52549 237
74.5456 244
74.56571 243
74.58583 259
74.60594 232
74.62606 214
74.64617 276
74.66628 234
74.6864 252
74.70651 238
74.72662 231
74.74674 259
74.76685 252
74.78697 258
74.80708 258
74.82719 250
74.84731 233
74.86742 243
74.88753 270
74.90765 251
74.92776 244
74.94787 277
74.96799 254
74.9881 255
75.00822 239
