3.00117 19857
3.02128 19196
3.0414 18826
3.06151 18589
3.08162 18178
3.10174 17460
3.12185 17036
3.14197 16415
3.16208 15757
3.18219 15606
3.20231 14626
3.22242 14799
3.24253 14451
3.26265 13529
3.28276 13703
3.30288 13061
3.32299 12508
3.3431 12040
3.36322 11608
3.38333 11407
3.40344 11033
3.42356 10556
3.44367 10154
3.46379 9600
3.4839 9519
3.50401 8919
3.52413 8806
3.54424 8549
3.56435 8167
3.58447 7884
3.60458 7557
3.62469 7339
3.64481 6887
3.66492 6749
3.68504 6733
3.70515 6160
3.72526 5888
3.74538 5692
3.76549 5221
3.7856 5218
3.80572 4980
3.82583 4816
3.84595 4570
3.86606 4303
3.88617 4236
3.90629 3991
3.9264 3957
3.94651 3663
3.96663 3402
3.98674 3489
4.00686 3121
4.02697 3112
4.04708 3052
4.0672 2699
4.08731 2794
4.10742 2630
4.12754 2478
4.14765 2252
4.16776 2155
4.18788 2187
4.20799 2029
4.22811 1893
4.24822 1853
4.26833 1751
4.28845 1730
4.30856 1754
4.32867 1649
4.34879 1601
4.3689 1542
4.38902 1592
4.40913 1570
4.42924 1342
4.44936 1358
4.46947 1324
4.48958 1415
4.5097 1325
4.52981 1224
4.54992 1257
4.57004 1252
4.59015 1145
4.61027 1223
4.63038 1051
4.65049 1091
4.67061 1013
4.69072 1070
4.71083 1010
4.73095 1032
4.75106 945
4.77118 926
4.79129 911
4.8114 919
4.83152 831
4.85163 863
4.87174 831
4.89186 760
4.91197 803
4.93209 747
4.9522 765
4.97231 686
4.99243 731
5.01254 711
5.03265 673
5.05277 668
5.07288 612
5.09299 616
5.11311 608
5.13322 612
5.15334 572
5.17345 543
5.19356 544
5.21368 539
5.23379 537
5.2539 563
5.27402 484
5.29413 464
5.31425 501
5.33436 478
5.35447 426
5.37459 456
5.3947 395
5.41481 439
5.43493 360
5.45504 391
5.47516 404
5.49527 351
5.51538 350
5.5355 352
5.55561 366
5.57572 398
5.59584 343
5.61595 313
5.63606 364
5.65618 265
5.67629 340
5.69641 348
5.71652 337
5.73663 272
5.75675 289
5.77686 302
5.79697 295
5.81709 267
5.8372 243
5.85732 249
5.87743 237
5.89754 261
5.91766 227
5.93777 225
5.95788 236
5.978 259
5.99811 238
6.01823 250
6.03834 241
6.05845 262
6.07857 211
6.09868 226
6.11879 236
6.13891 228
6.15902 188
6.17913 217
6.19925 217
6.21936 210
6.23948 182
6.25959 204
6.2797 230
6.29982 214
6.31993 168
6.34004 224
6.36016 203
6.38027 213
6.40039 209
6.4205 189
6.44061 207
6.46073 226
6.48084 213
6.50095 196
6.52107 207
6.54118 179
6.56129 186
6.58141 192
6.60152 194
6.62164 164
6.64175 174
6.66186 199
6.68198 182
6.70209 181
6.7222 160
6.74232 200
6.76243 187
6.78255 179
6.80266 184
6.82277 174
6.84289 194
6.863 206
6.88311 166
6.90323 208
6.92334 202
6.94346 187
6.96357 190
6.98368 187
7.0038 193
7.02391 208
7.04402 175
7.06414 194
7.08425 180
7.10436 174
7.12448 217
7.14459 200
7.16471 170
7.18482 194
7.20493 201
7.22505 203
7.24516 184
7.26527 193
7.28539 220
7.3055 208
7.32562 179
7.34573 205
7.36584 176
7.38596 185
7.40607 227
7.42618 147
7.4463 197
7.46641 194
7.48653 223
7.50664 213
7.52675 199
7.54687 211
7.56698 219
7.58709 209
7.60721 183
7.62732 201
7.64743 256
7.66755 206
7.68766 236
7.70778 238
7.72789 192
7.748 238
7.76812 210
7.78823 191
7.80834 211
7.82846 212
7.84857 196
7.86869 205
7.8888 227
7.90891 201
7.92903 193
7.94914 176
7.96925 216
7.98937 229
8.00948 195
8.0296 201
8.04971 219
8.06982 227
8.08994 203
8.11005 248
8.13016 233
8.15028 221
8.17039 201
8.1905 186
8.21062 232
8.23073 237
8.25085 205
8.27096 219
8.29107 234
8.31119 230
8.3313 196
8.35141 228
8.37153 226
8.39164 225
8.41176 199
8.43187 206
8.45198 206
8.4721 250
8.49221 193
8.51232 191
8.53244 238
8.55255 164
8.57266 233
8.59278 211
8.61289 203
8.63301 198
8.65312 203
8.67323 206
8.69335 224
8.71346 206
8.73357 235
8.75369 238
8.7738 238
8.79392 217
8.81403 227
8.83414 213
8.85426 197
8.87437 231
8.89448 248
8.9146 229
8.93471 250
8.95483 221
8.97494 213
8.99505 245
9.01517 257
9.03528 200
9.05539 223
9.07551 217
9.09562 226
9.11573 228
9.13585 253
9.15596 236
9.17608 215
9.19619 244
9.2163 212
9.23642 206
9.25653 228
9.27664 221
9.29676 236
9.31687 208
9.33699 230
9.3571 206
9.37721 232
9.39733 221
9.41744 224
9.43755 214
9.45767 244
9.47778 242
9.4979 261
9.51801 234
9.53812 221
9.55824 214
9.57835 237
9.59846 220
9.61858 225
9.63869 230
9.6588 229
9.67892 219
9.69903 240
9.71915 219
9.73926 236
9.75937 253
9.77949 256
9.7996 258
9.81971 248
9.83983 278
9.85994 235
9.88006 259
9.90017 238
9.92028 250
9.9404 218
9.96051 194
9.98062 223
10.00074 220
10.02085 246
10.04097 238
10.06108 195
10.08119 213
10.10131 226
10.12142 246
10.14153 231
10.16165 220
10.18176 239
10.20187 224
10.22199 215
10.2421 241
10.26222 238
10.28233 207
10.30244 218
10.32256 239
10.34267 222
10.36278 244
10.3829 235
10.40301 209
10.42313 219
10.44324 222
10.46335 242
10.48347 213
10.50358 233
10.52369 243
10.54381 229
10.56392 230
10.58403 271
10.60415 250
10.62426 237
10.64438 210
10.66449 240
10.6846 208
10.70472 224
10.72483 226
10.74494 229
10.76506 227
10.78517 228
10.80529 210
10.8254 210
10.84551 214
10.86563 207
10.88574 194
10.90585 219
10.92597 241
10.94608 234
10.9662 258
10.98631 256
11.00642 195
11.02654 243
11.04665 224
11.06676 213
11.08688 194
11.10699 214
11.1271 227
11.14722 232
11.16733 216
11.18745 223
11.20756 235
11.22767 204
11.24779 232
11.2679 253
11.28801 254
11.30813 229
11.32824 247
11.34836 220
11.36847 227
11.38858 233
11.4087 207
11.42881 229
11.44892 221
11.46904 233
11.48915 237
11.50927 213
11.52938 232
11.54949 215
11.56961 269
11.58972 246
11.60983 226
11.62995 277
11.65006 267
11.67017 232
11.69029 216
11.7104 242
11.73052 206
11.75063 230
11.77074 266
11.79086 279
11.81097 285
11.83108 248
11.8512 239
11.87131 250
11.89143 239
11.91154 248
11.93165 274
11.95177 246
11.97188 287
11.99199 274
12.01211 253
12.03222 272
12.05234 288
12.07245 292
12.09256 307
12.11268 318
12.13279 312
12.1529 320
12.17302 391
12.19313 345
12.21324 409
12.23336 428
12.25347 462
12.27359 462
12.2937 502
12.31381 478
12.33393 504
12.35404 465
12.37415 419
12.39427 423
12.41438 401
12.4345 398
12.45461 395
12.47472 318
12.49484 316
12.51495 310
12.53506 272
12.55518 260
12.57529 266
12.5954 261
12.61552 245
12.63563 263
12.65575 259
12.67586 253
12.69597 257
12.71609 235
12.7362 223
12.75631 229
12.77643 232
12.79654 259
12.81666 196
12.83677 230
12.85688 241
12.877 207
12.89711 212
12.91722 241
12.93734 230
12.95745 215
12.97757 196
12.99768 223
13.01779 185
13.03791 241
13.05802 217
13.07813 211
13.09825 223
13.11836 201
13.13847 195
13.15859 231
13.1787 214
13.19882 216
13.21893 209
13.23904 233
13.25916 219
13.27927 208
13.29938 218
13.3195 204
13.33961 203
13.35973 192
13.37984 193
13.39995 220
13.42007 218
13.44018 196
13.46029 223
13.48041 193
13.50052 201
13.52064 187
13.54075 193
13.56086 182
13.58098 178
13.60109 218
13.6212 207
13.64132 229
13.66143 196
13.68154 204
13.70166 214
13.72177 216
13.74189 198
13.762 193
13.78211 206
13.80223 208
13.82234 185
13.84245 176
13.86257 208
13.88268 204
13.9028 202
13.92291 192
13.94302 186
13.96314 206
13.98325 205
14.00336 222
14.02348 208
14.04359 230
14.06371 209
14.08382 214
14.10393 166
14.12405 178
14.14416 185
14.16427 161
14.18439 192
14.2045 175
14.22461 216
14.24473 210
14.26484 198
14.28496 180
14.30507 186
14.32518 186
14.3453 196
14.36541 211
14.38552 200
14.40564 203
14.42575 197
14.44587 187
14.46598 203
14.48609 203
14.50621 170
14.52632 211
14.54643 175
14.56655 195
14.58666 170
14.60677 207
14.62689 177
14.647 209
14.66712 183
14.68723 201
14.70734 197
14.72746 211
14.74757 189
14.76768 182
14.7878 179
14.80791 180
14.82803 191
14.84814 180
14.86825 197
14.88837 185
14.90848 183
14.92859 198
14.94871 192
14.96882 199
14.98894 206
15.00905 214
15.02916 188
15.04928 180
15.06939 187
15.0895 173
15.10962 184
15.12973 163
15.14984 181
15.16996 194
15.19007 203
15.21019 182
15.2303 198
15.25041 199
15.27053 189
15.29064 175
15.31075 188
15.33087 177
15.35098 159
15.3711 166
15.39121 185
15.41132 165
15.43144 181
15.45155 181
15.47166 181
15.49178 192
15.51189 160
15.53201 170
15.55212 173
15.57223 179
15.59235 174
15.61246 182
15.63257 166
15.65269 173
15.6728 200
15.69291 161
15.71303 170
15.73314 174
15.75326 201
15.77337 153
15.79348 203
15.8136 196
15.83371 188
15.85382 198
15.87394 167
15.89405 180
15.91417 170
15.93428 197
15.95439 190
15.97451 189
15.99462 195
16.01473 175
16.03485 204
16.05496 160
16.07508 177
16.09519 172
16.1153 183
16.13542 164
16.15553 197
16.17564 184
16.19576 185
16.21587 172
16.23598 169
16.2561 173
16.27621 183
16.29633 205
16.31644 178
16.33655 201
16.35667 176
16.37678 165
16.39689 188
16.41701 145
16.43712 200
16.45724 181
16.47735 155
16.49746 166
16.51758 162
16.53769 169
16.5578 166
16.57792 158
16.59803 175
16.61814 196
16.63826 185
16.65837 182
16.67849 166
16.6986 174
16.71871 181
16.73883 189
16.75894 182
16.77905 186
16.79917 195
16.81928 179
16.8394 167
16.85951 195
16.87962 167
16.89974 193
16.91985 179
16.93996 155
16.96008 167
16.98019 194
17.00031 163
17.02042 178
17.04053 187
17.06065 205
17.08076 161
17.10087 196
17.12099 186
17.1411 174
17.16121 179
17.18133 181
17.20144 184
17.22156 178
17.24167 181
17.26178 166
17.2819 165
17.30201 175
17.32212 173
17.34224 203
17.36235 181
17.38247 168
17.40258 146
17.42269 168
17.44281 148
17.46292 167
17.48303 174
17.50315 191
17.52326 154
17.54338 191
17.56349 173
17.5836 179
17.60372 178
17.62383 190
17.64394 172
17.66406 173
17.68417 171
17.70428 172
17.7244 172
17.74451 190
17.76463 171
17.78474 194
17.80485 163
17.82497 141
17.84508 197
17.86519 172
17.88531 180
17.90542 165
17.92554 175
17.94565 163
17.96576 189
17.98588 177
18.00599 159
18.0261 158
18.04622 180
18.06633 162
18.08645 171
18.10656 156
18.12667 172
18.14679 145
18.1669 164
18.18701 179
18.20713 183
18.22724 201
18.24735 188
18.26747 191
18.28758 163
18.3077 184
18.32781 167
18.34792 190
18.36804 185
18.38815 169
18.40826 168
18.42838 150
18.44849 141
18.46861 194
18.48872 160
18.50883 165
18.52895 168
18.54906 172
18.56917 165
18.58929 175
18.6094 157
18.62951 167
18.64963 178
18.66974 196
18.68986 170
18.70997 167
18.73008 180
18.7502 185
18.77031 197
18.79042 174
18.81054 170
18.83065 208
18.85077 206
18.87088 192
18.89099 153
18.91111 183
18.93122 178
18.95133 181
18.97145 190
18.99156 176
19.01168 161
19.03179 155
19.0519 164
19.07202 178
19.09213 169
19.11224 133
19.13236 175
19.15247 157
19.17258 165
19.1927 182
19.21281 149
19.23293 191
19.25304 208
19.27315 165
19.29327 180
19.31338 187
19.33349 179
19.35361 199
19.37372 173
19.39384 182
19.41395 182
19.43406 171
19.45418 156
19.47429 181
19.4944 194
19.51452 221
19.53463 209
19.55475 213
19.57486 192
19.59497 203
19.61509 211
19.6352 232
19.65531 189
19.67543 185
19.69554 220
19.71565 220
19.73577 290
19.75588 242
19.776 251
19.79611 292
19.81622 308
19.83634 307
19.85645 311
19.87656 304
19.89668 335
19.91679 315
19.93691 340
19.95702 345
19.97713 305
19.99725 331
20.01736 317
20.03747 309
20.05759 291
20.0777 314
20.09782 344
20.11793 329
20.13804 346
20.15816 350
20.17827 376
20.19838 342
20.2185 370
20.23861 368
20.25872 394
20.27884 383
20.29895 381
20.31907 366
20.33918 351
20.35929 381
20.37941 405
20.39952 393
20.41963 415
20.43975 388
20.45986 445
20.47998 403
20.50009 496
20.5202 482
20.54032 484
20.56043 490
20.58054 520
20.60066 584
20.62077 628
20.64088 683
20.661 837
20.68111 1106
20.70123 1453
20.72134 2041
20.74145 2796
20.76157 3717
20.78168 5150
20.80179 6446
20.82191 7857
20.84202 8185
20.86214 7887
20.88225 6448
20.90236 4625
20.92248 3092
20.94259 1980
20.9627 1184
20.98282 840
21.00293 671
21.02305 614
21.04316 562
21.06327 540
21.08339 488
21.1035 509
21.12361 460
21.14373 413
21.16384 381
21.18395 399
21.20407 377
21.22418 380
21.2443 402
21.26441 346
21.28452 378
21.30464 392
21.32475 384
21.34486 369
21.36498 348
21.38509 354
21.40521 336
21.42532 325
21.44543 317
21.46555 316
21.48566 291
21.50577 329
21.52589 327
21.546 293
21.56612 310
21.58623 258
21.60634 287
21.62646 270
21.64657 257
21.66668 317
21.6868 280
21.70691 279
21.72702 274
21.74714 262
21.76725 275
21.78737 263
21.80748 292
21.82759 248
21.84771 276
21.86782 279
21.88793 236
21.90805 293
21.92816 274
21.94828 239
21.96839 246
21.9885 245
22.00862 257
22.02873 222
22.04884 262
22.06896 253
22.08907 225
22.10919 233
22.1293 254
22.14941 211
22.16953 244
22.18964 246
22.20975 214
22.22987 223
22.24998 255
22.27009 261
22.29021 263
22.31032 247
22.33044 242
22.35055 241
22.37066 213
22.39078 227
22.41089 222
22.431 227
22.45112 245
22.47123 219
22.49135 215
22.51146 224
22.53157 233
22.55169 219
22.5718 230
22.59191 262
22.61203 223
22.63214 252
22.65225 234
22.67237 251
22.69248 227
22.7126 234
22.73271 215
22.75282 225
22.77294 233
22.79305 229
22.81316 232
22.83328 233
22.85339 212
22.87351 233
22.89362 254
22.91373 217
22.93385 242
22.95396 202
22.97407 230
22.99419 209
23.0143 228
23.03442 243
23.05453 222
23.07464 250
23.09476 256
23.11487 246
23.13498 231
23.1551 226
23.17521 212
23.19532 203
23.21544 236
23.23555 210
23.25567 193
23.27578 200
23.29589 222
23.31601 190
23.33612 194
23.35623 234
23.37635 229
23.39646 248
23.41658 231
23.43669 202
23.4568 217
23.47692 220
23.49703 190
23.51714 219
23.53726 207
23.55737 239
23.57749 202
23.5976 218
23.61771 207
23.63783 202
23.65794 203
23.67805 241
23.69817 222
23.71828 230
23.73839 242
23.75851 223
23.77862 254
23.79874 270
23.81885 215
23.83896 260
23.85908 239
23.87919 251
23.8993 277
23.91942 280
23.93953 303
23.95965 297
23.97976 292
23.99987 319
24.01999 275
24.0401 288
24.06021 267
24.08033 265
24.10044 233
24.12056 219
24.14067 251
24.16078 208
24.1809 236
24.20101 235
24.22112 265
24.24124 241
24.26135 236
24.28146 210
24.30158 234
24.32169 231
24.34181 247
24.36192 252
24.38203 228
24.40215 242
24.42226 245
24.44237 227
24.46249 220
24.4826 258
24.50272 238
24.52283 233
24.54294 256
24.56306 292
24.58317 285
24.60328 273
24.6234 283
24.64351 302
24.66362 336
24.68374 329
24.70385 339
24.72397 362
24.74408 380
24.76419 375
24.78431 384
24.80442 381
24.82453 338
24.84465 366
24.86476 390
24.88488 384
24.90499 330
24.9251 309
24.94522 344
24.96533 316
24.98544 298
25.00556 279
25.02567 339
25.04579 253
25.0659 256
25.08601 264
25.10613 260
25.12624 282
25.14635 256
25.16647 261
25.18658 253
25.20669 261
25.22681 257
25.24692 276
25.26704 265
25.28715 246
25.30726 245
25.32738 281
25.34749 269
25.3676 276
25.38772 249
25.40783 252
25.42795 285
25.44806 242
25.46817 270
25.48829 278
25.5084 281
25.52851 275
25.54863 277
25.56874 275
25.58886 259
25.60897 325
25.62908 317
25.6492 344
25.66931 347
25.68942 403
25.70954 421
25.72965 458
25.74976 429
25.76988 408
25.78999 475
25.81011 478
25.83022 475
25.85033 470
25.87045 495
25.89056 458
25.91067 556
25.93079 514
25.9509 499
25.97102 558
25.99113 566
26.01124 523
26.03136 574
26.05147 573
26.07158 639
26.0917 641
26.11181 637
26.13193 736
26.15204 765
26.17215 780
26.19227 888
26.21238 914
26.23249 1029
26.25261 1115
26.27272 1162
26.29283 1287
26.31295 1363
26.33306 1509
26.35318 1723
26.37329 2003
26.3934 2431
26.41352 2980
26.43363 3647
26.45374 4743
26.47386 6421
26.49397 9050
26.51409 12414
26.5342 17243
26.55431 22808
26.57443 28764
26.59454 34916
26.61465 37678
26.63477 36723
26.65488 31356
26.67499 23862
26.69511 18178
26.71522 12983
26.73534 8137
26.75545 4446
26.77556 2866
26.79568 2188
26.81579 1933
26.8359 1686
26.85602 1493
26.87613 1355
26.89625 1254
26.91636 1134
26.93647 962
26.95659 895
26.9767 789
26.99681 757
27.01693 715
27.03704 603
27.05716 606
27.07727 559
27.09738 561
27.1175 508
27.13761 506
27.15772 493
27.17784 443
27.19795 498
27.21806 481
27.23818 439
27.25829 454
27.27841 413
27.29852 426
27.31863 422
27.33875 373
27.35886 408
27.37897 411
27.39909 393
27.4192 414
27.43932 369
27.45943 423
27.47954 406
27.49966 354
27.51977 375
27.53988 378
27.56 336
27.58011 355
27.60023 321
27.62034 316
27.64045 342
27.66057 331
27.68068 301
27.70079 314
27.72091 333
27.74102 327
27.76113 315
27.78125 307
27.80136 324
27.82148 295
27.84159 288
27.8617 315
27.88182 284
27.90193 280
27.92204 308
27.94216 317
27.96227 284
27.98239 256
28.0025 272
28.02261 310
28.04273 280
28.06284 289
28.08295 255
28.10307 265
28.12318 293
28.1433 286
28.16341 283
28.18352 270
28.20364 293
28.22375 286
28.24386 247
28.26398 271
28.28409 254
28.3042 253
28.32432 240
28.34443 249
28.36455 283
28.38466 272
28.40477 237
28.42489 263
28.445 256
28.46511 259
28.48523 260
28.50534 232
28.52546 278
28.54557 222
28.56568 238
28.5858 239
28.60591 251
28.62602 241
28.64614 243
28.66625 258
28.68636 274
28.70648 232
28.72659 258
28.74671 267
28.76682 248
28.78693 245
28.80705 225
28.82716 251
28.84727 237
28.86739 252
28.8875 248
28.90762 265
28.92773 230
28.94784 238
28.96796 244
28.98807 242
29.00818 225
29.0283 215
29.04841 252
29.06853 247
29.08864 226
29.10875 232
29.12887 205
29.14898 236
29.16909 199
29.18921 243
29.20932 219
29.22943 254
29.24955 241
29.26966 245
29.28978 206
29.30989 231
29.33 252
29.35012 211
29.37023 258
29.39034 218
29.41046 214
29.43057 243
29.45069 229
29.4708 250
29.49091 217
29.51103 227
29.53114 253
29.55125 198
29.57137 208
29.59148 206
29.6116 232
29.63171 239
29.65182 202
29.67194 240
29.69205 210
29.71216 223
29.73228 217
29.75239 214
29.7725 199
29.79262 231
29.81273 206
29.83285 218
29.85296 225
29.87307 229
29.89319 210
29.9133 207
29.93341 205
29.95353 237
29.97364 180
29.99376 196
30.01387 188
30.03398 209
30.0541 211
30.07421 220
30.09432 212
30.11444 197
30.13455 201
30.15467 218
30.17478 231
30.19489 231
30.21501 205
30.23512 197
30.25523 207
30.27535 205
30.29546 222
30.31557 213
30.33569 207
30.3558 199
30.37592 202
30.39603 183
30.41614 207
30.43626 232
30.45637 193
30.47648 188
30.4966 224
30.51671 191
30.53683 187
30.55694 208
30.57705 191
30.59717 229
30.61728 221
30.63739 197
30.65751 185
30.67762 193
30.69773 160
30.71785 210
30.73796 189
30.75808 222
30.77819 219
30.7983 195
30.81842 189
30.83853 221
30.85864 216
30.87876 209
30.89887 200
30.91899 217
30.9391 199
30.95921 217
30.97933 193
30.99944 192
31.01955 211
31.03967 178
31.05978 198
31.0799 226
31.10001 173
31.12012 197
31.14024 207
31.16035 194
31.18046 192
31.20058 208
31.22069 212
31.2408 193
31.26092 205
31.28103 207
31.30115 210
31.32126 194
31.34137 186
31.36149 200
31.3816 151
31.40171 193
31.42183 195
31.44194 170
31.46206 216
31.48217 189
31.50228 149
31.5224 207
31.54251 173
31.56262 189
31.58274 163
31.60285 176
31.62297 191
31.64308 204
31.66319 159
31.68331 192
31.70342 188
31.72353 174
31.74365 203
31.76376 194
31.78387 193
31.80399 194
31.8241 173
31.84422 165
31.86433 170
31.88444 178
31.90456 182
31.92467 170
31.94478 174
31.9649 180
31.98501 192
32.00513 172
32.02524 172
32.04535 173
32.06547 204
32.08558 169
32.10569 163
32.12581 164
32.14592 192
32.16604 187
32.18615 180
32.20626 200
32.22638 183
32.24649 203
32.2666 191
32.28672 202
32.30683 195
32.32694 157
32.34706 182
32.36717 167
32.38729 165
32.4074 175
32.42751 177
32.44763 189
32.46774 199
32.48785 192
32.50797 184
32.52808 198
32.5482 217
32.56831 196
32.58842 168
32.60854 210
32.62865 189
32.64876 200
32.66888 174
32.68899 199
32.7091 200
32.72922 183
32.74933 195
32.76945 176
32.78956 189
32.80967 186
32.82979 191
32.8499 179
32.87001 178
32.89013 176
32.91024 187
32.93036 154
32.95047 171
32.97058 201
32.9907 172
33.01081 189
33.03092 192
33.05104 202
33.07115 158
33.09127 170
33.11138 162
33.13149 176
33.15161 195
33.17172 168
33.19183 180
33.21195 174
33.23206 195
33.25217 188
33.27229 181
33.2924 193
33.31252 177
33.33263 171
33.35274 210
33.37286 200
33.39297 185
33.41308 151
33.4332 201
33.45331 167
33.47343 161
33.49354 185
33.51365 166
33.53377 172
33.55388 135
33.57399 188
33.59411 161
33.61422 156
33.63434 160
33.65445 174
33.67456 177
33.69468 148
33.71479 159
33.7349 167
33.75502 149
33.77513 163
33.79524 143
33.81536 142
33.83547 143
33.85559 156
33.8757 163
33.89581 170
33.91593 126
33.93604 151
33.95615 170
33.97627 136
33.99638 165
34.0165 151
34.03661 166
34.05672 168
34.07684 165
34.09695 148
34.11706 173
34.13718 165
34.15729 159
34.17741 168
34.19752 137
34.21763 161
34.23775 148
34.25786 156
34.27797 172
34.29809 166
34.3182 138
34.33831 165
34.35843 169
34.37854 156
34.39866 155
34.41877 170
34.43888 140
34.459 189
34.47911 164
34.49922 171
34.51934 166
34.53945 173
34.55957 176
34.57968 167
34.59979 184
34.61991 151
34.64002 204
34.66013 154
34.68025 191
34.70036 187
34.72047 181
34.74059 197
34.7607 213
34.78082 207
34.80093 204
34.82104 183
34.84116 216
34.86127 210
34.88138 236
34.9015 226
34.92161 232
34.94173 226
34.96184 210
34.98195 249
35.00207 255
35.02218 228
35.04229 218
35.06241 237
35.08252 224
35.10264 206
35.12275 215
35.14286 209
35.16298 228
35.18309 205
35.2032 213
35.22332 214
35.24343 219
35.26354 220
35.28366 240
35.30377 230
35.32389 218
35.344 206
35.36411 224
35.38423 195
35.40434 221
35.42445 228
35.44457 212
35.46468 210
35.4848 199
35.50491 246
35.52502 241
35.54514 237
35.56525 220
35.58536 219
35.60548 220
35.62559 211
35.64571 247
35.66582 243
35.68593 252
35.70605 249
35.72616 212
35.74627 220
35.76639 211
35.7865 222
35.80661 265
35.82673 245
35.84684 247
35.86696 257
35.88707 237
35.90718 242
35.9273 240
35.94741 230
35.96752 240
35.98764 228
36.00775 265
36.02787 238
36.04798 241
36.06809 236
36.08821 287
36.10832 261
36.12843 267
36.14855 307
36.16866 253
36.18878 274
36.20889 286
36.229 296
36.24912 334
36.26923 368
36.28934 400
36.30946 431
36.32957 510
36.34968 619
36.3698 792
36.38991 919
36.41003 1141
36.43014 1416
36.45025 1689
36.47037 2054
36.49048 2450
36.51059 2547
36.53071 2536
36.55082 2198
36.57094 1815
36.59105 1480
36.61116 1321
36.63128 1129
36.65139 782
36.6715 537
36.69162 393
36.71173 373
36.73184 327
36.75196 309
36.77207 300
36.79219 281
36.8123 302
36.83241 259
36.85253 284
36.87264 262
36.89275 265
36.91287 245
36.93298 208
36.9531 231
36.97321 219
36.99332 211
37.01344 230
37.03355 223
37.05366 212
37.07378 210
37.09389 187
37.11401 206
37.13412 215
37.15423 224
37.17435 186
37.19446 197
37.21457 210
37.23469 200
37.2548 229
37.27491 212
37.29503 194
37.31514 169
37.33526 202
37.35537 183
37.37548 199
37.3956 220
37.41571 215
37.43582 172
37.45594 185
37.47605 182
37.49617 192
37.51628 195
37.53639 190
37.55651 199
37.57662 190
37.59673 177
37.61685 193
37.63696 203
37.65708 225
37.67719 200
37.6973 203
37.71742 197
37.73753 200
37.75764 194
37.77776 206
37.79787 187
37.81798 182
37.8381 178
37.85821 189
37.87833 176
37.89844 185
37.91855 204
37.93867 216
37.95878 197
37.97889 187
37.99901 224
38.01912 208
38.03924 214
38.05935 211
38.07946 197
38.09958 214
38.11969 227
38.1398 228
38.15992 224
38.18003 226
38.20015 203
38.22026 225
38.24037 236
38.26049 219
38.2806 240
38.30071 234
38.32083 225
38.34094 216
38.36105 253
38.38117 228
38.40128 238
38.4214 226
38.44151 231
38.46162 218
38.48174 220
38.50185 217
38.52196 255
38.54208 223
38.56219 190
38.58231 222
38.60242 231
38.62253 238
38.64265 231
38.66276 184
38.68287 225
38.70299 227
38.7231 209
38.74321 223
38.76333 228
38.78344 229
38.80356 200
38.82367 205
38.84378 247
38.8639 206
38.88401 218
38.90412 240
38.92424 239
38.94435 232
38.96447 232
38.98458 248
39.00469 248
39.02481 230
39.04492 237
39.06503 223
39.08515 273
39.10526 272
39.12538 292
39.14549 278
39.1656 326
39.18572 332
39.20583 386
39.22594 421
39.24606 507
39.26617 620
39.28628 655
39.3064 849
39.32651 1056
39.34663 1191
39.36674 1490
39.38685 1843
39.40697 2072
39.42708 2296
39.44719 2337
39.46731 2139
39.48742 1660
39.50754 1359
39.52765 1377
39.54776 1234
39.56788 1036
39.58799 734
39.6081 513
39.62822 343
39.64833 326
39.66845 287
39.68856 266
39.70867 253
39.72879 250
39.7489 241
39.76901 231
39.78913 234
39.80924 229
39.82935 218
39.84947 232
39.86958 206
39.8897 241
39.90981 230
39.92992 234
39.95004 245
39.97015 241
39.99026 272
40.01038 241
40.03049 258
40.05061 308
40.07072 357
40.09083 414
40.11095 433
40.13106 524
40.15117 566
40.17129 716
40.1914 822
40.21152 959
40.23163 1105
40.25174 1167
40.27186 1234
40.29197 1087
40.31208 892
40.3322 769
40.35231 691
40.37242 671
40.39254 551
40.41265 460
40.43277 298
40.45288 276
40.47299 240
40.49311 261
40.51322 220
40.53333 218
40.55345 194
40.57356 218
40.59368 202
40.61379 185
40.6339 198
40.65402 198
40.67413 195
40.69424 202
40.71436 198
40.73447 168
40.75458 189
40.7747 179
40.79481 170
40.81493 201
40.83504 197
40.85515 193
40.87527 179
40.89538 170
40.91549 180
40.93561 195
40.95572 195
40.97584 201
40.99595 173
41.01606 178
41.03618 199
41.05629 190
41.0764 190
41.09652 161
41.11663 220
41.13675 202
41.15686 199
41.17697 190
41.19709 203
41.2172 191
41.23731 179
41.25743 176
41.27754 200
41.29765 172
41.31777 186
41.33788 192
41.358 202
41.37811 179
41.39822 180
41.41834 167
41.43845 192
41.45856 198
41.47868 203
41.49879 202
41.51891 200
41.53902 190
41.55913 191
41.57925 189
41.59936 188
41.61947 145
41.63959 162
41.6597 192
41.67982 208
41.69993 199
41.72004 179
41.74016 165
41.76027 204
41.78038 202
41.8005 205
41.82061 177
41.84072 184
41.86084 206
41.88095 199
41.90107 193
41.92118 175
41.94129 186
41.96141 213
41.98152 223
42.00163 180
42.02175 190
42.04186 214
42.06198 201
42.08209 241
42.1022 244
42.12232 228
42.14243 246
42.16254 310
42.18266 306
42.20277 327
42.22289 401
42.243 430
42.26311 554
42.28323 614
42.30334 705
42.32345 901
42.34357 1060
42.36368 1287
42.38379 1463
42.40391 1565
42.42402 1597
42.44414 1494
42.46425 1253
42.48436 1027
42.50448 947
42.52459 862
42.5447 773
42.56482 660
42.58493 476
42.60505 344
42.62516 302
42.64527 252
42.66539 221
42.6855 239
42.70561 219
42.72573 184
42.74584 215
42.76595 180
42.78607 193
42.80618 191
42.8263 189
42.84641 193
42.86652 178
42.88664 143
42.90675 186
42.92686 181
42.94698 161
42.96709 161
42.98721 181
43.00732 156
43.02743 156
43.04755 174
43.06766 160
43.08777 162
43.10789 168
43.128 149
43.14812 167
43.16823 178
43.18834 157
43.20846 180
43.22857 151
43.24868 168
43.2688 197
43.28891 151
43.30902 140
43.32914 173
43.34925 172
43.36937 158
43.38948 152
43.40959 159
43.42971 149
43.44982 143
43.46993 162
43.49005 148
43.51016 152
43.53028 158
43.55039 140
43.5705 169
43.59062 169
43.61073 140
43.63084 154
43.65096 148
43.67107 151
43.69119 149
43.7113 143
43.73141 142
43.75153 166
43.77164 166
43.79175 143
43.81187 157
43.83198 162
43.85209 168
43.87221 140
43.89232 143
43.91244 173
43.93255 173
43.95266 155
43.97278 130
43.99289 148
44.013 159
44.03312 160
44.05323 141
44.07335 155
44.09346 171
44.11357 152
44.13369 168
44.1538 159
44.17391 166
44.19403 181
44.21414 156
44.23426 144
44.25437 138
44.27448 149
44.2946 154
44.31471 161
44.33482 178
44.35494 151
44.37505 155
44.39516 161
44.41528 134
44.43539 158
44.45551 134
44.47562 161
44.49573 145
44.51585 167
44.53596 151
44.55607 155
44.57619 151
44.5963 154
44.61642 172
44.63653 143
44.65664 157
44.67676 171
44.69687 157
44.71698 145
44.7371 161
44.75721 162
44.77732 173
44.79744 150
44.81755 170
44.83767 176
44.85778 163
44.87789 145
44.89801 167
44.91812 150
44.93823 158
44.95835 149
44.97846 166
44.99858 184
45.01869 155
45.0388 155
45.05892 169
45.07903 135
45.09914 160
45.11926 167
45.13937 173
45.15949 151
45.1796 185
45.19971 153
45.21983 163
45.23994 173
45.26005 164
45.28017 178
45.30028 185
45.32039 195
45.34051 196
45.36062 171
45.38074 207
45.40085 197
45.42096 213
45.44108 188
45.46119 223
45.4813 222
45.50142 257
45.52153 258
45.54165 280
45.56176 327
45.58187 338
45.60199 411
45.6221 409
45.64221 536
45.66233 640
45.68244 722
45.70256 896
45.72267 997
45.74278 1110
45.7629 1062
45.78301 1022
45.80312 914
45.82324 673
45.84335 686
45.86346 664
45.88358 582
45.90369 513
45.92381 436
45.94392 326
45.96403 266
45.98415 244
46.00426 199
46.02437 208
46.04449 183
46.0646 199
46.08472 187
46.10483 181
46.12494 162
46.14506 154
46.16517 167
46.18528 161
46.2054 147
46.22551 170
46.24563 155
46.26574 150
46.28585 165
46.30597 137
46.32608 165
46.34619 147
46.36631 152
46.38642 150
46.40653 155
46.42665 155
46.44676 155
46.46688 152
46.48699 138
46.5071 163
46.52722 151
46.54733 158
46.56744 164
46.58756 160
46.60767 150
46.62779 170
46.6479 160
46.66801 157
46.68813 143
46.70824 134
46.72835 143
46.74847 151
46.76858 161
46.78869 160
46.80881 158
46.82892 169
46.84904 156
46.86915 143
46.88926 140
46.90938 155
46.92949 166
46.9496 150
46.96972 165
46.98983 145
47.00995 135
47.03006 158
47.05017 154
47.07029 149
47.0904 143
47.11051 172
47.13063 138
47.15074 178
47.17086 151
47.19097 157
47.21108 150
47.2312 179
47.25131 149
47.27142 148
47.29154 136
47.31165 144
47.33176 155
47.35188 152
47.37199 136
47.39211 135
47.41222 158
47.43233 146
47.45245 147
47.47256 162
47.49267 154
47.51279 152
47.5329 135
47.55302 145
47.57313 156
47.59324 145
47.61336 149
47.63347 155
47.65358 133
47.6737 155
47.69381 148
47.71393 153
47.73404 134
47.75415 149
47.77427 136
47.79438 131
47.81449 164
47.83461 174
47.85472 147
47.87483 142
47.89495 160
47.91506 150
47.93518 142
47.95529 141
47.9754 142
47.99552 156
48.01563 147
48.03574 141
48.05586 164
48.07597 164
48.09609 132
48.1162 154
48.13631 122
48.15643 137
48.17654 152
48.19665 150
48.21677 125
48.23688 127
48.257 173
48.27711 128
48.29722 155
48.31734 156
48.33745 162
48.35756 182
48.37768 164
48.39779 174
48.4179 156
48.43802 181
48.45813 183
48.47825 167
48.49836 171
48.51847 166
48.53859 150
48.5587 156
48.57881 166
48.59893 152
48.61904 163
48.63916 161
48.65927 157
48.67938 145
48.6995 175
48.71961 153
48.73972 139
48.75984 178
48.77995 152
48.80006 167
48.82018 156
48.84029 146
48.86041 175
48.88052 164
48.90063 184
48.92075 167
48.94086 174
48.96097 156
48.98109 174
49.0012 148
49.02132 166
49.04143 182
49.06154 160
49.08166 160
49.10177 165
49.12188 176
49.142 177
49.16211 192
49.18223 163
49.20234 178
49.22245 157
49.24257 169
49.26268 190
49.28279 164
49.30291 161
49.32302 153
49.34313 196
49.36325 179
49.38336 200
49.40348 187
49.42359 165
49.4437 194
49.46382 185
49.48393 170
49.50404 199
49.52416 203
49.54427 200
49.56439 227
49.5845 208
49.60461 203
49.62473 254
49.64484 242
49.66495 235
49.68507 261
49.70518 274
49.7253 269
49.74541 276
49.76552 356
49.78564 367
49.80575 411
49.82586 431
49.84598 493
49.86609 555
49.8862 636
49.90632 721
49.92643 866
49.94655 1067
49.96666 1277
49.98677 1590
50.00689 1964
50.027 2374
50.04711 2735
50.06723 3198
50.08734 3618
50.10746 3564
50.12757 3285
50.14768 2821
50.1678 2205
50.18791 1904
50.20802 1840
50.22814 1874
50.24825 1730
50.26837 1442
50.28848 1058
50.30859 701
50.32871 513
50.34882 413
50.36893 353
50.38905 369
50.40916 307
50.42927 273
50.44939 281
50.4695 262
50.48962 265
50.50973 283
50.52984 266
50.54996 273
50.57007 250
50.59018 282
50.6103 275
50.63041 250
50.65053 239
50.67064 231
50.69075 234
50.71087 225
50.73098 216
50.75109 204
50.77121 201
50.79132 191
50.81143 195
50.83155 185
50.85166 169
50.87178 174
50.89189 180
50.912 178
50.93212 175
50.95223 173
50.97234 160
50.99246 187
51.01257 154
51.03269 144
51.0528 155
51.07291 156
51.09303 145
51.11314 160
51.13325 149
51.15337 155
51.17348 144
51.1936 153
51.21371 151
51.23382 137
51.25394 139
51.27405 138
51.29416 151
51.31428 182
51.33439 129
51.3545 126
51.37462 134
51.39473 134
51.41485 147
51.43496 120
51.45507 138
51.47519 128
51.4953 141
51.51541 136
51.53553 131
51.55564 143
51.57576 133
51.59587 135
51.61598 131
51.6361 147
51.65621 132
51.67632 134
51.69644 132
51.71655 135
51.73667 128
51.75678 140
51.77689 145
51.79701 119
51.81712 170
51.83723 132
51.85735 161
51.87746 145
51.89757 140
51.91769 149
51.9378 140
51.95792 131
51.97803 155
51.99814 141
52.01826 132
52.03837 138
52.05848 110
52.0786 123
52.09871 149
52.11883 146
52.13894 150
52.15905 153
52.17917 116
52.19928 150
52.21939 115
52.23951 157
52.25962 134
52.27974 133
52.29985 133
52.31996 131
52.34008 147
52.36019 144
52.3803 144
52.40042 149
52.42053 120
52.44064 134
52.46076 130
52.48087 137
52.50099 137
52.5211 136
52.54121 128
52.56133 142
52.58144 134
52.60155 134
52.62167 145
52.64178 151
52.6619 119
52.68201 139
52.70212 138
52.72224 156
52.74235 142
52.76246 140
52.78258 147
52.80269 131
52.8228 130
52.84292 153
52.86303 144
52.88315 143
52.90326 157
52.92337 146
52.94349 149
52.9636 142
52.98371 155
53.00383 150
53.02394 178
53.04406 160
53.06417 145
53.08428 135
53.1044 145
53.12451 165
53.14462 158
53.16474 150
53.18485 172
53.20497 152
53.22508 158
53.24519 167
53.26531 124
53.28542 159
53.30553 156
53.32565 134
53.34576 153
53.36587 163
53.38599 149
53.4061 173
53.42622 178
53.44633 170
53.46644 177
53.48656 148
53.50667 137
53.52678 148
53.5469 165
53.56701 146
53.58713 150
53.60724 158
53.62735 148
53.64747 189
53.66758 160
53.68769 156
53.70781 144
53.72792 160
53.74804 136
53.76815 152
53.78826 150
53.80838 174
53.82849 159
53.8486 158
53.86872 134
53.88883 161
53.90894 135
53.92906 165
53.94917 157
53.96929 167
53.9894 142
54.00951 173
54.02963 146
54.04974 129
54.06985 152
54.08997 170
54.11008 172
54.1302 156
54.15031 160
54.17042 159
54.19054 171
54.21065 175
54.23076 168
54.25088 162
54.27099 180
54.29111 181
54.31122 176
54.33133 206
54.35145 184
54.37156 201
54.39167 180
54.41179 209
54.4319 214
54.45201 218
54.47213 229
54.49224 267
54.51236 225
54.53247 254
54.55258 243
54.5727 251
54.59281 292
54.61292 309
54.63304 352
54.65315 349
54.67327 410
54.69338 488
54.71349 559
54.73361 675
54.75372 782
54.77383 870
54.79395 963
54.81406 1038
54.83417 1153
54.85429 1009
54.8744 893
54.89452 744
54.91463 722
54.93474 650
54.95486 643
54.97497 641
54.99508 609
55.0152 561
55.03531 423
55.05543 358
55.07554 337
55.09565 315
55.11577 303
55.13588 326
55.15599 332
55.17611 422
55.19622 412
55.21634 461
55.23645 511
55.25656 563
55.27668 568
55.29679 601
55.3169 560
55.33702 486
55.35713 408
55.37724 371
55.39736 381
55.41747 379
55.43759 384
55.4577 351
55.47781 278
55.49793 241
55.51804 222
55.53815 178
55.55827 173
55.57838 163
55.5985 189
55.61861 182
55.63872 178
55.65884 169
55.67895 162
55.69906 162
55.71918 162
55.73929 170
55.75941 162
55.77952 153
55.79963 142
55.81975 177
55.83986 147
55.85997 125
55.88009 132
55.9002 148
55.92031 143
55.94043 174
55.96054 145
55.98066 130
56.00077 154
56.02088 155
56.041 131
56.06111 168
56.08122 157
56.10134 131
56.12145 143
56.14157 155
56.16168 143
56.18179 144
56.20191 139
56.22202 152
56.24213 137
56.26225 150
56.28236 155
56.30248 153
56.32259 171
56.3427 117
56.36282 141
56.38293 131
56.40304 142
56.42316 150
56.44327 168
56.46338 164
56.4835 161
56.50361 156
56.52373 130
56.54384 144
56.56395 127
56.58407 147
56.60418 151
56.62429 161
56.64441 151
56.66452 143
56.68464 161
56.70475 154
56.72486 134
56.74498 132
56.76509 157
56.7852 159
56.80532 156
56.82543 147
56.84554 145
56.86566 126
56.88577 148
56.90589 126
56.926 128
56.94611 147
56.96623 152
56.98634 155
57.00645 148
57.02657 152
57.04668 177
57.0668 166
57.08691 163
57.10702 166
57.12714 174
57.14725 196
57.16736 204
57.18748 176
57.20759 164
57.22771 178
57.24782 203
57.26793 171
57.28805 157
57.30816 159
57.32827 166
57.34839 185
57.3685 160
57.38861 125
57.40873 170
57.42884 141
57.44896 142
57.46907 131
57.48918 145
57.5093 134
57.52941 140
57.54952 133
57.56964 151
57.58975 134
57.60987 144
57.62998 134
57.65009 130
57.67021 138
57.69032 167
57.71043 139
57.73055 129
57.75066 144
57.77078 130
57.79089 140
57.811 123
57.83112 149
57.85123 168
57.87134 131
57.89146 126
57.91157 158
57.93168 138
57.9518 120
57.97191 147
57.99203 140
58.01214 128
58.03225 132
58.05237 159
58.07248 129
58.09259 137
58.11271 132
58.13282 132
58.15294 140
58.17305 115
58.19316 140
58.21328 118
58.23339 159
58.2535 142
58.27362 132
58.29373 149
58.31385 149
58.33396 146
58.35407 158
58.37419 133
58.3943 149
58.41441 124
58.43453 142
58.45464 149
58.47475 145
58.49487 131
58.51498 143
58.5351 133
58.55521 143
58.57532 136
58.59544 154
58.61555 132
58.63566 144
58.65578 164
58.67589 146
58.69601 135
58.71612 145
58.73623 161
58.75635 106
58.77646 117
58.79657 134
58.81669 178
58.8368 134
58.85691 164
58.87703 139
58.89714 141
58.91726 150
58.93737 140
58.95748 154
58.9776 146
58.99771 149
59.01782 149
59.03794 148
59.05805 152
59.07817 135
59.09828 160
59.11839 150
59.13851 175
59.15862 175
59.17873 178
59.19885 155
59.21896 164
59.23908 174
59.25919 160
59.2793 176
59.29942 190
59.31953 170
59.33964 151
59.35976 178
59.37987 183
59.39998 177
59.4201 195
59.44021 207
59.46033 196
59.48044 225
59.50055 225
59.52067 248
59.54078 240
59.56089 268
59.58101 315
59.60112 324
59.62124 332
59.64135 405
59.66146 393
59.68158 438
59.70169 511
59.7218 599
59.74192 686
59.76203 874
59.78215 985
59.80226 1210
59.82237 1373
59.84249 1633
59.8626 1922
59.88271 2049
59.90283 2098
59.92294 2058
59.94305 1869
59.96317 1588
59.98328 1298
60.0034 1173
60.02351 1117
60.04362 1165
60.06374 1177
60.08385 1110
60.10396 889
60.12408 826
60.14419 561
60.16431 402
60.18442 339
60.20453 295
60.22465 230
60.24476 262
60.26487 216
60.28499 213
60.3051 186
60.32522 186
60.34533 181
60.36544 173
60.38556 193
60.40567 179
60.42578 164
60.4459 164
60.46601 164
60.48612 145
60.50624 153
60.52635 160
60.54647 168
60.56658 159
60.58669 144
60.60681 165
60.62692 146
60.64703 148
60.66715 148
60.68726 162
60.70738 142
60.72749 144
60.7476 149
60.76772 131
60.78783 156
60.80794 127
60.82806 148
60.84817 139
60.86828 147
60.8884 135
60.90851 149
60.92863 138
60.94874 150
60.96885 151
60.98897 134
61.00908 151
61.02919 115
61.04931 135
61.06942 124
61.08954 121
61.10965 122
61.12976 127
61.14988 162
61.16999 129
61.1901 122
61.21022 147
61.23033 138
61.25045 118
61.27056 126
61.29067 115
61.31079 133
61.3309 135
61.35101 124
61.37113 118
61.39124 154
61.41135 112
61.43147 137
61.45158 138
61.4717 113
61.49181 117
61.51192 153
61.53204 120
61.55215 139
61.57226 148
61.59238 134
61.61249 144
61.63261 151
61.65272 140
61.67283 135
61.69295 155
61.71306 119
61.73317 143
61.75329 143
61.7734 138
61.79352 144
61.81363 121
61.83374 154
61.85386 145
61.87397 122
61.89408 127
61.9142 126
61.93431 141
61.95442 144
61.97454 138
61.99465 158
62.01477 164
62.03488 165
62.05499 153
62.07511 182
62.09522 147
62.11533 172
62.13545 172
62.15556 155
62.17568 188
62.19579 171
62.2159 168
62.23602 174
62.25613 201
62.27624 213
62.29636 170
62.31647 197
62.33659 196
62.3567 173
62.37681 159
62.39693 179
62.41704 158
62.43715 168
62.45727 162
62.47738 145
62.49749 159
62.51761 130
62.53772 135
62.55784 157
62.57795 149
62.59806 132
62.61818 157
62.63829 135
62.6584 145
62.67852 128
62.69863 165
62.71875 140
62.73886 146
62.75897 127
62.77909 131
62.7992 143
62.81931 138
62.83943 117
62.85954 133
62.87965 140
62.89977 144
62.91988 137
62.94 138
62.96011 128
62.98022 129
63.00034 134
63.02045 155
63.04056 122
63.06068 137
63.08079 143
63.10091 114
63.12102 130
63.14113 117
63.16125 133
63.18136 171
63.20147 117
63.22159 122
63.2417 118
63.26182 137
63.28193 148
63.30204 143
63.32216 122
63.34227 144
63.36238 141
63.3825 135
63.40261 159
63.42272 151
63.44284 158
63.46295 134
63.48307 149
63.50318 144
63.52329 131
63.54341 149
63.56352 137
63.58363 155
63.60375 133
63.62386 156
63.64398 163
63.66409 153
63.6842 183
63.70432 174
63.72443 154
63.74454 191
63.76466 232
63.78477 225
63.80489 234
63.825 220
63.84511 252
63.86523 294
63.88534 320
63.90545 335
63.92557 430
63.94568 419
63.96579 475
63.98591 488
64.00602 457
64.02614 420
64.04625 367
64.06636 299
64.08648 330
64.10659 280
64.1267 293
64.14682 289
64.16693 291
64.18705 296
64.20716 219
64.22727 218
64.24739 192
64.2675 145
64.28761 143
64.30773 167
64.32784 140
64.34796 127
64.36807 118
64.38818 135
64.4083 135
64.42841 137
64.44852 139
64.46864 126
64.48875 113
64.50886 140
64.52898 152
64.54909 144
64.56921 128
64.58932 107
64.60943 117
64.62955 124
64.64966 130
64.66977 126
64.68989 113
64.71 132
64.73012 127
64.75023 121
64.77034 141
64.79046 121
64.81057 135
64.83068 127
64.8508 116
64.87091 108
64.89102 120
64.91114 126
64.93125 144
64.95137 115
64.97148 104
64.99159 137
65.01171 126
65.03182 121
65.05193 148
65.07205 119
65.09216 135
65.11228 116
65.13239 137
65.1525 135
65.17262 136
65.19273 133
65.21284 125
65.23296 127
65.25307 129
65.27319 129
65.2933 124
65.31341 149
65.33353 128
65.35364 113
65.37375 131
65.39387 112
65.41398 124
65.43409 133
65.45421 131
65.47432 145
65.49444 138
65.51455 133
65.53466 135
65.55478 153
65.57489 170
65.595 156
65.61512 174
65.63523 173
65.65535 204
65.67546 198
65.69557 188
65.71569 219
65.7358 202
65.75591 216
65.77603 208
65.79614 184
65.81626 162
65.83637 181
65.85648 197
65.8766 164
65.89671 177
65.91682 175
65.93694 145
65.95705 149
65.97716 161
65.99728 139
66.01739 125
66.03751 132
66.05762 141
66.07773 117
66.09785 134
66.11796 151
66.13807 147
66.15819 119
66.1783 142
66.19842 125
66.21853 132
66.23864 138
66.25876 134
66.27887 141
66.29898 145
66.3191 140
66.33921 129
66.35933 119
66.37944 140
66.39955 142
66.41967 140
66.43978 156
66.45989 121
66.48001 141
66.50012 138
66.52023 122
66.54035 128
66.56046 135
66.58058 132
66.60069 126
66.6208 153
66.64092 130
66.66103 133
66.68114 136
66.70126 130
66.72137 124
66.74149 133
66.7616 149
66.78171 153
66.80183 138
66.82194 147
66.84205 134
66.86217 141
66.88228 151
66.90239 134
66.92251 162
66.94262 135
66.96274 155
66.98285 164
67.00296 132
67.02308 151
67.04319 154
67.0633 167
67.08342 143
67.10353 159
67.12365 158
67.14376 166
67.16387 182
67.18399 186
67.2041 181
67.22421 170
67.24433 175
67.26444 187
67.28456 224
67.30467 230
67.32478 230
67.3449 236
67.36501 256
67.38512 262
67.40524 293
67.42535 303
67.44546 309
67.46558 346
67.48569 407
67.50581 456
67.52592 514
67.54603 590
67.56615 683
67.58626 738
67.60637 871
67.62649 1003
67.6466 1157
67.66672 1163
67.68683 1262
67.70694 1253
67.72706 1085
67.74717 1042
67.76728 887
67.7874 817
67.80751 815
67.82763 867
67.84774 910
67.86785 960
67.88797 1013
67.90808 970
67.92819 976
67.94831 932
67.96842 942
67.98853 1111
68.00865 1177
68.02876 1298
68.04888 1415
68.06899 1593
68.0891 1672
68.10922 1621
68.12933 1594
68.14944 1509
68.16956 1406
68.18967 1323
68.20979 1337
68.2299 1381
68.25001 1506
68.27013 1508
68.29024 1434
68.31035 1294
68.33047 1112
68.35058 872
68.3707 766
68.39081 640
68.41092 603
68.43104 616
68.45115 550
68.47126 524
68.49138 485
68.51149 411
68.5316 347
68.55172 278
68.57183 240
68.59195 225
68.61206 237
68.63217 198
68.65229 201
68.6724 172
68.69251 168
68.71263 172
68.73274 149
68.75286 158
68.77297 172
68.79308 154
68.8132 160
68.83331 159
68.85342 149
68.87354 163
68.89365 157
68.91376 155
68.93388 138
68.95399 142
68.97411 142
68.99422 138
69.01433 140
69.03445 146
69.05456 141
69.07467 141
69.09479 139
69.1149 157
69.13502 140
69.15513 141
69.17524 122
69.19536 147
69.21547 133
69.23558 115
69.2557 131
69.27581 126
69.29593 138
69.31604 126
69.33615 149
69.35627 145
69.37638 127
69.39649 131
69.41661 136
69.43672 123
69.45683 132
69.47695 135
69.49706 122
69.51718 116
69.53729 142
69.5574 147
69.57752 130
69.59763 121
69.61774 109
69.63786 119
69.65797 102
69.67809 129
69.6982 131
69.71831 122
69.73843 116
69.75854 125
69.77865 126
69.79877 145
69.81888 116
69.839 118
69.85911 134
69.87922 109
69.89934 123
69.91945 142
69.93956 116
69.95968 154
69.97979 120
69.9999 136
70.02002 122
70.04013 130
70.06025 126
70.08036 125
70.10047 128
70.12059 107
70.1407 124
70.16081 114
70.18093 117
70.20104 116
70.22116 146
70.24127 128
70.26138 123
70.2815 136
70.30161 106
70.32172 125
70.34184 119
70.36195 139
70.38207 115
70.40218 118
70.42229 111
70.44241 114
70.46252 119
70.48263 110
70.50275 130
70.52286 129
70.54297 127
70.56309 116
70.5832 122
70.60332 125
70.62343 137
70.64354 118
70.66366 127
70.68377 116
70.70388 110
70.724 132
70.74411 122
70.76423 104
70.78434 119
70.80445 120
70.82457 120
70.84468 116
70.86479 121
70.88491 116
70.90502 122
70.92513 110
70.94525 111
70.96536 130
70.98548 95
71.00559 131
71.0257 134
71.04582 121
71.06593 110
71.08604 119
71.10616 121
71.12627 131
71.14639 133
71.1665 129
71.18661 115
71.20673 113
71.22684 108
71.24695 129
71.26707 102
71.28718 123
71.3073 128
71.32741 112
71.34752 110
71.36764 106
71.38775 122
71.40786 109
71.42798 120
71.44809 125
71.4682 104
71.48832 126
71.50843 123
71.52855 139
71.54866 126
71.56877 113
71.58889 106
71.609 112
71.62911 131
71.64923 119
71.66934 108
71.68946 120
71.70957 103
71.72968 116
71.7498 124
71.76991 111
71.79002 102
71.81014 125
71.83025 116
71.85037 115
71.87048 138
71.89059 122
71.91071 101
71.93082 104
71.95093 112
71.97105 112
71.99116 118
72.01127 121
72.03139 106
72.0515 123
72.07162 113
72.09173 112
72.11184 116
72.13196 99
72.15207 139
72.17218 117
72.1923 129
72.21241 123
72.23253 128
72.25264 120
72.27275 122
72.29287 119
72.31298 112
72.33309 115
72.35321 114
72.37332 110
72.39344 106
72.41355 114
72.43366 116
72.45378 97
72.47389 116
72.494 137
72.51412 123
72.53423 110
72.55434 118
72.57446 122
72.59457 112
72.61469 105
72.6348 121
72.65491 121
72.67503 112
72.69514 123
72.71525 109
72.73537 134
72.75548 120
72.7756 123
72.79571 115
72.81582 126
72.83594 99
72.85605 112
72.87616 115
72.89628 131
72.91639 140
72.9365 126
72.95662 124
72.97673 130
72.99685 140
73.01696 122
73.03707 155
73.05719 141
73.0773 151
73.09741 134
73.11753 174
73.13764 156
73.15776 184
73.17787 191
73.19798 172
73.2181 227
73.23821 212
73.25832 256
73.27844 249
73.29855 304
73.31867 339
73.33878 372
73.35889 360
73.37901 460
73.39912 437
73.41923 471
73.43935 464
73.45946 382
73.47957 374
73.49969 307
73.5198 290
73.53992 294
73.56003 299
73.58014 278
73.60026 279
73.62037 302
73.64048 293
73.6606 247
73.68071 235
73.70083 235
73.72094 205
73.74105 146
73.76117 140
73.78128 127
73.80139 137
73.82151 122
73.84162 145
73.86174 114
73.88185 109
73.90196 125
73.92208 139
73.94219 130
73.9623 137
73.98242 103
74.00253 100
74.02264 119
74.04276 127
74.06287 115
74.08299 125
74.1031 123
74.12321 134
74.14333 131
74.16344 129
74.18355 123
74.20367 125
74.22378 117
74.2439 123
74.26401 117
74.28412 133
74.30424 123
74.32435 120
74.34446 126
74.36458 105
74.38469 123
74.40481 102
74.42492 110
74.44503 119
74.46515 135
74.48526 112
74.50537 118
74.52549 120
74.5456 102
74.56571 122
74.58583 114
74.60594 113
74.62606 108
74.64617 123
74.66628 120
74.6864 120
74.70651 105
74.72662 116
74.74674 111
74.76685 123
74.78697 113
74.80708 112
74.82719 134
74.84731 120
74.86742 131
74.88753 114
74.90765 118
74.92776 146
74.94787 121
74.96799 135
74.9881 135
75.00822 116
