3.00117 17039
3.02128 16488
3.0414 16068
3.06151 15353
3.08162 14857
3.10174 14515
3.12185 14056
3.14197 13836
3.16208 13083
3.18219 12603
3.20231 12839
3.22242 12060
3.24253 11843
3.26265 11251
3.28276 11047
3.30288 10599
3.32299 10074
3.3431 9947
3.36322 9469
3.38333 9055
3.40344 8929
3.42356 8571
3.44367 8325
3.46379 7650
3.4839 7526
3.50401 7377
3.52413 7008
3.54424 6981
3.56435 6552
3.58447 6304
3.60458 6308
3.62469 5751
3.64481 5891
3.66492 5312
3.68504 5129
3.70515 5254
3.72526 4579
3.74538 4629
3.76549 4302
3.7856 4111
3.80572 3965
3.82583 3659
3.84595 3710
3.86606 3380
3.88617 3248
3.90629 3348
3.9264 3013
3.94651 2976
3.96663 2745
3.98674 2656
4.00686 2563
4.02697 2376
4.04708 2396
4.0672 2285
4.08731 2188
4.10742 2132
4.12754 2077
4.14765 1992
4.16776 1816
4.18788 1815
4.20799 1759
4.22811 1706
4.24822 1702
4.26833 1546
4.28845 1499
4.30856 1583
4.32867 1432
4.34879 1506
4.3689 1362
4.38902 1300
4.40913 1461
4.42924 1417
4.44936 1341
4.46947 1218
4.48958 1284
4.5097 1219
4.52981 1186
4.54992 1084
4.57004 1063
4.59015 1060
4.61027 1113
4.63038 1038
4.65049 960
4.67061 1045
4.69072 961
4.71083 946
4.73095 983
4.75106 918
4.77118 978
4.79129 866
4.8114 843
4.83152 852
4.85163 773
4.87174 878
4.89186 734
4.91197 711
4.93209 773
4.9522 657
4.97231 701
4.99243 671
5.01254 673
5.03265 779
5.05277 650
5.07288 627
5.09299 632
5.11311 630
5.13322 644
5.15334 584
5.17345 630
5.19356 594
5.21368 593
5.23379 551
5.2539 501
5.27402 543
5.29413 527
5.31425 496
5.33436 533
5.35447 530
5.37459 511
5.3947 510
5.41481 434
5.43493 482
5.45504 454
5.47516 463
5.49527 465
5.51538 438
5.5355 456
5.55561 416
5.57572 466
5.59584 474
5.61595 401
5.63606 443
5.65618 359
5.67629 370
5.69641 407
5.71652 411
5.73663 412
5.75675 371
5.77686 384
5.79697 390
5.81709 393
5.8372 368
5.85732 343
5.87743 425
5.89754 363
5.91766 390
5.93777 344
5.95788 371
5.978 385
5.99811 354
6.01823 379
6.03834 382
6.05845 358
6.07857 354
6.09868 339
6.11879 367
6.13891 347
6.15902 343
6.17913 308
6.19925 348
6.21936 343
6.23948 359
6.25959 336
6.2797 347
6.29982 351
6.31993 317
6.34004 361
6.36016 348
6.38027 307
6.40039 306
6.4205 333
6.44061 307
6.46073 362
6.48084 321
6.50095 330
6.52107 313
6.54118 364
6.56129 330
6.58141 320
6.60152 335
6.62164 329
6.64175 286
6.66186 309
6.68198 347
6.70209 311
6.7222 341
6.74232 317
6.76243 306
6.78255 315
6.80266 301
6.82277 324
6.84289 316
6.863 310
6.88311 304
6.90323 340
6.92334 329
6.94346 283
6.96357 315
6.98368 304
7.0038 317
7.02391 316
7.04402 319
7.06414 312
7.08425 312
7.10436 351
7.12448 304
7.14459 308
7.16471 310
7.18482 319
7.20493 286
7.22505 290
7.24516 313
7.26527 303
7.28539 343
7.3055 319
7.32562 283
7.34573 297
7.36584 311
7.38596 307
7.40607 317
7.42618 315
7.4463 327
7.46641 316
7.48653 293
7.50664 292
7.52675 261
7.54687 280
7.56698 297
7.58709 294
7.60721 296
7.62732 313
7.64743 296
7.66755 312
7.68766 289
7.70778 304
7.72789 270
7.748 299
7.76812 322
7.78823 325
7.80834 284
7.82846 319
7.84857 337
7.86869 298
7.8888 276
7.90891 327
7.92903 303
7.94914 326
7.96925 297
7.98937 338
8.00948 315
8.0296 333
8.04971 350
8.06982 317
8.08994 356
8.11005 354
8.13016 342
8.15028 338
8.17039 340
8.1905 322
8.21062 336
8.23073 352
8.25085 362
8.27096 356
8.29107 372
8.31119 365
8.3313 372
8.35141 387
8.37153 394
8.39164 427
8.41176 427
8.43187 381
8.45198 360
8.4721 440
8.49221 410
8.51232 409
8.53244 422
8.55255 451
8.57266 513
8.59278 448
8.61289 498
8.63301 507
8.65312 523
8.67323 472
8.69335 487
8.71346 529
8.73357 490
8.75369 477
8.7738 505
8.79392 544
8.81403 499
8.83414 506
8.85426 459
8.87437 440
8.89448 415
8.9146 428
8.93471 444
8.95483 379
8.97494 440
8.99505 369
9.01517 333
9.03528 365
9.05539 365
9.07551 345
9.09562 364
9.11573 361
9.13585 357
9.15596 308
9.17608 327
9.19619 332
9.2163 299
9.23642 297
9.25653 311
9.27664 323
9.29676 305
9.31687 305
9.33699 343
9.3571 308
9.37721 280
9.39733 336
9.41744 302
9.43755 296
9.45767 304
9.47778 322
9.4979 322
9.51801 341
9.53812 300
9.55824 302
9.57835 300
9.59846 300
9.61858 336
9.63869 290
9.6588 302
9.67892 302
9.69903 322
9.71915 293
9.73926 327
9.75937 315
9.77949 325
9.7996 308
9.81971 307
9.83983 270
9.85994 299
9.88006 292
9.90017 266
9.92028 318
9.9404 283
9.96051 297
9.98062 311
10.00074 294
10.02085 347
10.04097 304
10.06108 312
10.08119 284
10.10131 314
10.12142 316
10.14153 323
10.16165 277
10.18176 323
10.20187 298
10.22199 273
10.2421 320
10.26222 327
10.28233 301
10.30244 323
10.32256 359
10.34267 317
10.36278 355
10.3829 346
10.40301 399
10.42313 401
10.44324 417
10.46335 421
10.48347 435
10.50358 413
10.52369 384
10.54381 357
10.56392 296
10.58403 310
10.60415 296
10.62426 313
10.64438 307
10.66449 293
10.6846 268
10.70472 272
10.72483 287
10.74494 309
10.76506 295
10.78517 292
10.80529 316
10.8254 300
10.84551 359
10.86563 327
10.88574 316
10.90585 274
10.92597 354
10.94608 339
10.9662 312
10.98631 338
11.00642 342
11.02654 305
11.04665 308
11.06676 352
11.08688 332
11.10699 322
11.1271 298
11.14722 341
11.16733 320
11.18745 299
11.20756 315
11.22767 299
11.24779 322
11.2679 295
11.28801 292
11.30813 302
11.32824 315
11.34836 309
11.36847 321
11.38858 300
11.4087 325
11.42881 294
11.44892 316
11.46904 276
11.48915 283
11.50927 336
11.52938 303
11.54949 316
11.56961 332
11.58972 309
11.60983 301
11.62995 292
11.65006 336
11.67017 283
11.69029 303
11.7104 308
11.73052 318
11.75063 345
11.77074 301
11.79086 335
11.81097 336
11.83108 303
11.8512 317
11.87131 313
11.89143 321
11.91154 300
11.93165 322
11.95177 344
11.97188 327
11.99199 352
12.01211 335
12.03222 373
12.05234 334
12.07245 350
12.09256 337
12.11268 317
12.13279 317
12.1529 322
12.17302 330
12.19313 338
12.21324 320
12.23336 328
12.25347 330
12.27359 336
12.2937 352
12.31381 324
12.33393 334
12.35404 302
12.37415 288
12.39427 314
12.41438 307
12.4345 336
12.45461 297
12.47472 302
12.49484 304
12.51495 290
12.53506 298
12.55518 327
12.57529 314
12.5954 310
12.61552 295
12.63563 299
12.65575 288
12.67586 304
12.69597 297
12.71609 275
12.7362 324
12.75631 310
12.77643 262
12.79654 344
12.81666 291
12.83677 313
12.85688 287
12.877 298
12.89711 267
12.91722 259
12.93734 304
12.95745 256
12.97757 291
12.99768 247
13.01779 277
13.03791 278
13.05802 293
13.07813 298
13.09825 286
13.11836 287
13.13847 282
13.15859 291
13.1787 302
13.19882 301
13.21893 294
13.23904 307
13.25916 252
13.27927 293
13.29938 283
13.3195 262
13.33961 263
13.35973 252
13.37984 287
13.39995 278
13.42007 275
13.44018 295
13.46029 323
13.48041 320
13.50052 297
13.52064 329
13.54075 301
13.56086 291
13.58098 304
13.60109 302
13.6212 297
13.64132 314
13.66143 297
13.68154 317
13.70166 320
13.72177 339
13.74189 370
13.762 402
13.78211 434
13.80223 437
13.82234 409
13.84245 453
13.86257 385
13.88268 411
13.9028 409
13.92291 335
13.94302 389
13.96314 337
13.98325 316
14.00336 284
14.02348 307
14.04359 297
14.06371 285
14.08382 299
14.10393 277
14.12405 292
14.14416 251
14.16427 311
14.18439 299
14.2045 258
14.22461 291
14.24473 281
14.26484 280
14.28496 278
14.30507 296
14.32518 296
14.3453 281
14.36541 265
14.38552 274
14.40564 274
14.42575 271
14.44587 295
14.46598 268
14.48609 274
14.50621 265
14.52632 279
14.54643 266
14.56655 244
14.58666 279
14.60677 288
14.62689 267
14.647 267
14.66712 262
14.68723 255
14.70734 312
14.72746 272
14.74757 299
14.76768 263
14.7878 263
14.80791 265
14.82803 246
14.84814 277
14.86825 305
14.88837 286
14.90848 287
14.92859 285
14.94871 323
14.96882 295
14.98894 281
15.00905 317
15.02916 302
15.04928 323
15.06939 331
15.0895 331
15.10962 319
15.12973 314
15.14984 274
15.16996 293
15.19007 281
15.21019 294
15.2303 281
15.25041 296
15.27053 278
15.29064 245
15.31075 266
15.33087 279
15.35098 259
15.3711 297
15.39121 295
15.41132 296
15.43144 245
15.45155 252
15.47166 275
15.49178 296
15.51189 265
15.53201 281
15.55212 307
15.57223 267
15.59235 267
15.61246 311
15.63257 277
15.65269 293
15.6728 290
15.69291 315
15.71303 325
15.73314 282
15.75326 288
15.77337 309
15.79348 293
15.8136 262
15.83371 284
15.85382 289
15.87394 265
15.89405 264
15.91417 247
15.93428 238
15.95439 250
15.97451 226
15.99462 286
16.01473 291
16.03485 269
16.05496 273
16.07508 264
16.09519 244
16.1153 232
16.13542 278
16.15553 261
16.17564 258
16.19576 246
16.21587 254
16.23598 270
16.2561 281
16.27621 255
16.29633 249
16.31644 311
16.33655 261
16.35667 266
16.37678 271
16.39689 269
16.41701 256
16.43712 244
16.45724 250
16.47735 244
16.49746 303
16.51758 270
16.53769 273
16.5578 270
16.57792 255
16.59803 255
16.61814 259
16.63826 267
16.65837 277
16.67849 246
16.6986 253
16.71871 292
16.73883 260
16.75894 255
16.77905 252
16.79917 294
16.81928 244
16.8394 283
16.85951 277
16.87962 280
16.89974 302
16.91985 264
16.93996 258
16.96008 293
16.98019 254
17.00031 275
17.02042 272
17.04053 246
17.06065 253
17.08076 289
17.10087 271
17.12099 280
17.1411 251
17.16121 257
17.18133 255
17.20144 264
17.22156 314
17.24167 276
17.26178 282
17.2819 265
17.30201 310
17.32212 281
17.34224 276
17.36235 277
17.38247 280
17.40258 305
17.42269 300
17.44281 293
17.46292 269
17.48303 288
17.50315 315
17.52326 317
17.54338 340
17.56349 332
17.5836 321
17.60372 379
17.62383 396
17.64394 387
17.66406 364
17.68417 364
17.70428 345
17.7244 328
17.74451 317
17.76463 280
17.78474 285
17.80485 321
17.82497 302
17.84508 292
17.86519 302
17.88531 278
17.90542 293
17.92554 286
17.94565 292
17.96576 289
17.98588 299
18.00599 296
18.0261 290
18.04622 264
18.06633 279
18.08645 251
18.10656 271
18.12667 273
18.14679 270
18.1669 247
18.18701 296
18.20713 269
18.22724 273
18.24735 287
18.26747 289
18.28758 238
18.3077 243
18.32781 274
18.34792 264
18.36804 269
18.38815 290
18.40826 266
18.42838 292
18.44849 274
18.46861 293
18.48872 295
18.50883 275
18.52895 284
18.54906 269
18.56917 277
18.58929 273
18.6094 270
18.62951 255
18.64963 287
18.66974 261
18.68986 295
18.70997 240
18.73008 271
18.7502 264
18.77031 306
18.79042 277
18.81054 306
18.83065 291
18.85077 251
18.87088 283
18.89099 292
18.91111 253
18.93122 316
18.95133 298
18.97145 317
18.99156 276
19.01168 291
19.03179 271
19.0519 299
19.07202 303
19.09213 313
19.11224 308
19.13236 292
19.15247 328
19.17258 336
19.1927 375
19.21281 414
19.23293 383
19.25304 372
19.27315 388
19.29327 367
19.31338 342
19.33349 377
19.35361 322
19.37372 347
19.39384 354
19.41395 353
19.43406 330
19.45418 374
19.47429 371
19.4944 365
19.51452 349
19.53463 373
19.55475 370
19.57486 399
19.59497 394
19.61509 380
19.6352 364
19.65531 371
19.67543 375
19.69554 387
19.71565 389
19.73577 388
19.75588 425
19.776 419
19.79611 423
19.81622 405
19.83634 442
19.85645 429
19.87656 413
19.89668 442
19.91679 392
19.93691 397
19.95702 382
19.97713 367
19.99725 377
20.01736 394
20.03747 356
20.05759 377
20.0777 392
20.09782 393
20.11793 380
20.13804 380
20.15816 411
20.17827 377
20.19838 352
20.2185 366
20.23861 383
20.25872 382
20.27884 388
20.29895 398
20.31907 390
20.33918 393
20.35929 380
20.37941 369
20.39952 388
20.41963 421
20.43975 436
20.45986 390
20.47998 393
20.50009 407
20.5202 408
20.54032 389
20.56043 417
20.58054 429
20.60066 452
20.62077 493
20.64088 521
20.661 567
20.68111 658
20.70123 756
20.72134 931
20.74145 1116
20.76157 1314
20.78168 1652
20.80179 1792
20.82191 1886
20.84202 1927
20.86214 1789
20.88225 1455
20.90236 1214
20.92248 920
20.94259 744
20.9627 645
20.98282 537
21.00293 519
21.02305 539
21.04316 482
21.06327 452
21.08339 425
21.1035 396
21.12361 419
21.14373 385
21.16384 390
21.18395 382
21.20407 342
21.22418 382
21.2443 356
21.26441 389
21.28452 399
21.30464 354
21.32475 319
21.34486 360
21.36498 371
21.38509 376
21.40521 364
21.42532 368
21.44543 391
21.46555 346
21.48566 350
21.50577 317
21.52589 365
21.546 374
21.56612 362
21.58623 392
21.60634 417
21.62646 407
21.64657 358
21.66668 379
21.6868 378
21.70691 386
21.72702 422
21.74714 419
21.76725 419
21.78737 477
21.80748 527
21.82759 580
21.84771 608
21.86782 710
21.88793 855
21.90805 1021
21.92816 1098
21.94828 1319
21.96839 1406
21.9885 1514
22.00862 1367
22.02873 1252
22.04884 1094
22.06896 909
22.08907 755
22.10919 675
22.1293 585
22.14941 502
22.16953 489
22.18964 468
22.20975 414
22.22987 438
22.24998 453
22.27009 446
22.29021 458
22.31032 426
22.33044 388
22.35055 380
22.37066 388
22.39078 362
22.41089 358
22.431 335
22.45112 327
22.47123 342
22.49135 356
22.51146 361
22.53157 352
22.55169 314
22.5718 349
22.59191 335
22.61203 377
22.63214 368
22.65225 395
22.67237 363
22.69248 374
22.7126 341
22.73271 367
22.75282 363
22.77294 383
22.79305 397
22.81316 460
22.83328 493
22.85339 468
22.87351 487
22.89362 497
22.91373 489
22.93385 511
22.95396 503
22.97407 489
22.99419 426
23.0143 460
23.03442 468
23.05453 376
23.07464 360
23.09476 426
23.11487 367
23.13498 443
23.1551 414
23.17521 410
23.19532 391
23.21544 368
23.23555 393
23.25567 437
23.27578 380
23.29589 400
23.31601 401
23.33612 427
23.35623 401
23.37635 405
23.39646 411
23.41658 478
23.43669 512
23.4568 515
23.47692 579
23.49703 603
23.51714 691
23.53726 769
23.55737 761
23.57749 763
23.5976 762
23.61771 701
23.63783 661
23.65794 619
23.67805 520
23.69817 502
23.71828 476
23.73839 506
23.75851 526
23.77862 520
23.79874 571
23.81885 605
23.83896 639
23.85908 671
23.87919 663
23.8993 621
23.91942 656
23.93953 614
23.95965 624
23.97976 614
23.99987 578
24.01999 574
24.0401 576
24.06021 616
24.08033 580
24.10044 651
24.12056 662
24.14067 671
24.16078 702
24.1809 769
24.20101 799
24.22112 749
24.24124 749
24.26135 834
24.28146 758
24.30158 761
24.32169 778
24.34181 668
24.36192 607
24.38203 607
24.40215 527
24.42226 493
24.44237 459
24.46249 446
24.4826 409
24.50272 400
24.52283 397
24.54294 386
24.56306 368
24.58317 391
24.60328 384
24.6234 396
24.64351 440
24.66362 429
24.68374 393
24.70385 396
24.72397 356
24.74408 378
24.76419 361
24.78431 388
24.80442 394
24.82453 373
24.84465 355
24.86476 378
24.88488 373
24.90499 383
24.9251 381
24.94522 407
24.96533 365
24.98544 387
25.00556 415
25.02567 421
25.04579 348
25.0659 376
25.08601 347
25.10613 382
25.12624 368
25.14635 403
25.16647 381
25.18658 408
25.20669 429
25.22681 386
25.24692 432
25.26704 449
25.28715 441
25.30726 471
25.32738 505
25.34749 520
25.3676 530
25.38772 570
25.40783 622
25.42795 667
25.44806 685
25.46817 714
25.48829 666
25.5084 619
25.52851 692
25.54863 666
25.56874 600
25.58886 552
25.60897 514
25.62908 520
25.6492 542
25.66931 517
25.68942 476
25.70954 452
25.72965 477
25.74976 461
25.76988 484
25.78999 447
25.81011 414
25.83022 450
25.85033 459
25.87045 437
25.89056 407
25.91067 429
25.93079 431
25.9509 474
25.97102 437
25.99113 508
26.01124 475
26.03136 458
26.05147 489
26.07158 559
26.0917 545
26.11181 598
26.13193 557
26.15204 619
26.17215 626
26.19227 666
26.21238 688
26.23249 722
26.25261 777
26.27272 785
26.29283 877
26.31295 924
26.33306 1079
26.35318 1211
26.37329 1248
26.3934 1525
26.41352 1696
26.43363 1974
26.45374 2454
26.47386 2996
26.49397 3657
26.51409 4580
26.5342 5617
26.55431 6563
26.57443 7388
26.59454 7753
26.61465 7820
26.63477 7020
26.65488 5899
26.67499 4617
26.69511 3553
26.71522 2443
26.73534 1800
26.75545 1230
26.77556 969
26.79568 804
26.81579 737
26.8359 657
26.85602 646
26.87613 619
26.89625 625
26.91636 649
26.93647 642
26.95659 623
26.9767 599
26.99681 592
27.01693 622
27.03704 544
27.05716 619
27.07727 570
27.09738 544
27.1175 522
27.13761 529
27.15772 487
27.17784 498
27.19795 479
27.21806 498
27.23818 519
27.25829 465
27.27841 534
27.29852 565
27.31863 597
27.33875 613
27.35886 575
27.37897 642
27.39909 656
27.4192 690
27.43932 686
27.45943 719
27.47954 718
27.49966 752
27.51977 719
27.53988 678
27.56 798
27.58011 802
27.60023 883
27.62034 985
27.64045 1200
27.66057 1399
27.68068 1609
27.70079 1765
27.72091 1972
27.74102 2083
27.76113 2174
27.78125 2151
27.80136 2205
27.82148 2118
27.84159 2214
27.8617 2113
27.88182 2171
27.90193 2057
27.92204 2012
27.94216 1865
27.96227 1790
27.98239 1563
28.0025 1413
28.02261 1297
28.04273 1157
28.06284 953
28.08295 864
28.10307 846
28.12318 747
28.1433 721
28.16341 748
28.18352 727
28.20364 745
28.22375 786
28.24386 811
28.26398 806
28.28409 808
28.3042 749
28.32432 673
28.34443 655
28.36455 614
28.38466 605
28.40477 583
28.42489 536
28.445 481
28.46511 454
28.48523 411
28.50534 420
28.52546 418
28.54557 373
28.56568 361
28.5858 428
28.60591 360
28.62602 366
28.64614 367
28.66625 352
28.68636 358
28.70648 352
28.72659 376
28.74671 359
28.76682 319
28.78693 329
28.80705 340
28.82716 328
28.84727 330
28.86739 343
28.8875 364
28.90762 341
28.92773 341
28.94784 324
28.96796 347
28.98807 343
29.00818 320
29.0283 324
29.04841 343
29.06853 346
29.08864 336
29.10875 343
29.12887 350
29.14898 322
29.16909 340
29.18921 332
29.20932 312
29.22943 387
29.24955 328
29.26966 325
29.28978 385
29.30989 314
29.33 330
29.35012 372
29.37023 369
29.39034 352
29.41046 343
29.43057 364
29.45069 381
29.4708 357
29.49091 361
29.51103 389
29.53114 419
29.55125 383
29.57137 403
29.59148 390
29.6116 391
29.63171 443
29.65182 512
29.67194 453
29.69205 495
29.71216 514
29.73228 492
29.75239 452
29.7725 497
29.79262 462
29.81273 497
29.83285 478
29.85296 431
29.87307 419
29.89319 429
29.9133 402
29.93341 444
29.95353 448
29.97364 432
29.99376 450
30.01387 407
30.03398 443
30.0541 468
30.07421 447
30.09432 524
30.11444 478
30.13455 509
30.15467 492
30.17478 552
30.19489 496
30.21501 539
30.23512 555
30.25523 556
30.27535 628
30.29546 708
30.31557 660
30.33569 712
30.3558 710
30.37592 736
30.39603 801
30.41614 741
30.43626 747
30.45637 716
30.47648 717
30.4966 659
30.51671 627
30.53683 551
30.55694 540
30.57705 530
30.59717 492
30.61728 479
30.63739 541
30.65751 578
30.67762 584
30.69773 620
30.71785 640
30.73796 658
30.75808 669
30.77819 698
30.7983 666
30.81842 612
30.83853 605
30.85864 535
30.87876 507
30.89887 419
30.91899 420
30.9391 379
30.95921 370
30.97933 331
30.99944 325
31.01955 390
31.03967 362
31.05978 366
31.0799 366
31.10001 387
31.12012 351
31.14024 373
31.16035 398
31.18046 362
31.20058 378
31.22069 426
31.2408 422
31.26092 434
31.28103 440
31.30115 452
31.32126 462
31.34137 496
31.36149 485
31.3816 471
31.40171 480
31.42183 415
31.44194 408
31.46206 449
31.48217 418
31.50228 357
31.5224 372
31.54251 371
31.56262 419
31.58274 389
31.60285 383
31.62297 441
31.64308 435
31.66319 431
31.68331 424
31.70342 412
31.72353 465
31.74365 447
31.76376 445
31.78387 396
31.80399 411
31.8241 373
31.84422 370
31.86433 377
31.88444 349
31.90456 344
31.92467 341
31.94478 331
31.9649 337
31.98501 356
32.00513 345
32.02524 335
32.04535 345
32.06547 361
32.08558 345
32.10569 341
32.12581 363
32.14592 325
32.16604 325
32.18615 328
32.20626 364
32.22638 309
32.24649 309
32.2666 326
32.28672 330
32.30683 339
32.32694 327
32.34706 307
32.36717 326
32.38729 318
32.4074 323
32.42751 338
32.44763 335
32.46774 315
32.48785 315
32.50797 308
32.52808 344
32.5482 317
32.56831 291
32.58842 304
32.60854 277
32.62865 293
32.64876 310
32.66888 297
32.68899 295
32.7091 320
32.72922 307
32.74933 301
32.76945 339
32.78956 335
32.80967 381
32.82979 373
32.8499 373
32.87001 369
32.89013 368
32.91024 398
32.93036 364
32.95047 371
32.97058 376
32.9907 373
33.01081 399
33.03092 374
33.05104 376
33.07115 350
33.09127 328
33.11138 375
33.13149 397
33.15161 355
33.17172 385
33.19183 401
33.21195 389
33.23206 417
33.25217 429
33.27229 424
33.2924 403
33.31252 393
33.33263 440
33.35274 415
33.37286 394
33.39297 384
33.41308 387
33.4332 323
33.45331 378
33.47343 361
33.49354 360
33.51365 368
33.53377 340
33.55388 331
33.57399 348
33.59411 419
33.61422 376
33.63434 402
33.65445 418
33.67456 428
33.69468 474
33.71479 429
33.7349 463
33.75502 451
33.77513 432
33.79524 436
33.81536 480
33.83547 449
33.85559 453
33.8757 458
33.89581 420
33.91593 406
33.93604 418
33.95615 415
33.97627 432
33.99638 458
34.0165 448
34.03661 461
34.05672 478
34.07684 523
34.09695 537
34.11706 532
34.13718 528
34.15729 542
34.17741 534
34.19752 575
34.21763 572
34.23775 589
34.25786 601
34.27797 594
34.29809 604
34.3182 569
34.33831 504
34.35843 522
34.37854 561
34.39866 574
34.41877 580
34.43888 540
34.459 511
34.47911 506
34.49922 484
34.51934 470
34.53945 414
34.55957 413
34.57968 401
34.59979 398
34.61991 414
34.64002 409
34.66013 365
34.68025 375
34.70036 343
34.72047 359
34.74059 380
34.7607 403
34.78082 368
34.80093 387
34.82104 397
34.84116 426
34.86127 412
34.88138 412
34.9015 435
34.92161 438
34.94173 427
34.96184 431
34.98195 464
35.00207 481
35.02218 463
35.04229 445
35.06241 455
35.08252 465
35.10264 478
35.12275 475
35.14286 476
35.16298 488
35.18309 501
35.2032 505
35.22332 497
35.24343 506
35.26354 508
35.28366 517
35.30377 602
35.32389 542
35.344 548
35.36411 543
35.38423 474
35.40434 524
35.42445 490
35.44457 522
35.46468 470
35.4848 485
35.50491 504
35.52502 482
35.54514 446
35.56525 422
35.58536 433
35.60548 377
35.62559 427
35.64571 431
35.66582 400
35.68593 396
35.70605 421
35.72616 370
35.74627 378
35.76639 407
35.7865 350
35.80661 395
35.82673 364
35.84684 349
35.86696 353
35.88707 386
35.90718 369
35.9273 386
35.94741 405
35.96752 388
35.98764 369
36.00775 387
36.02787 386
36.04798 400
36.06809 400
36.08821 410
36.10832 412
36.12843 411
36.14855 399
36.16866 391
36.18878 414
36.20889 401
36.229 398
36.24912 397
36.26923 471
36.28934 395
36.30946 386
36.32957 472
36.34968 489
36.3698 545
36.38991 611
36.41003 687
36.43014 686
36.45025 756
36.47037 847
36.49048 843
36.51059 828
36.53071 808
36.55082 749
36.57094 734
36.59105 658
36.61116 614
36.63128 550
36.65139 509
36.6715 466
36.69162 435
36.71173 471
36.73184 434
36.75196 453
36.77207 435
36.79219 459
36.8123 473
36.83241 470
36.85253 498
36.87264 471
36.89275 467
36.91287 446
36.93298 514
36.9531 492
36.97321 479
36.99332 490
37.01344 467
37.03355 446
37.05366 446
37.07378 459
37.09389 399
37.11401 414
37.13412 404
37.15423 389
37.17435 395
37.19446 407
37.21457 417
37.23469 403
37.2548 436
37.27491 482
37.29503 502
37.31514 519
37.33526 503
37.35537 511
37.37548 492
37.3956 479
37.41571 499
37.43582 485
37.45594 439
37.47605 442
37.49617 441
37.51628 439
37.53639 433
37.55651 390
37.57662 414
37.59673 396
37.61685 406
37.63696 386
37.65708 385
37.67719 403
37.6973 386
37.71742 376
37.73753 325
37.75764 344
37.77776 327
37.79787 330
37.81798 321
37.8381 322
37.85821 290
37.87833 311
37.89844 293
37.91855 296
37.93867 308
37.95878 295
37.97889 335
37.99901 278
38.01912 294
38.03924 314
38.05935 320
38.07946 300
38.09958 322
38.11969 313
38.1398 338
38.15992 340
38.18003 341
38.20015 339
38.22026 351
38.24037 340
38.26049 345
38.2806 339
38.30071 336
38.32083 308
38.34094 353
38.36105 358
38.38117 341
38.40128 332
38.4214 340
38.44151 339
38.46162 376
38.48174 340
38.50185 374
38.52196 353
38.54208 356
38.56219 315
38.58231 327
38.60242 329
38.62253 336
38.64265 341
38.66276 333
38.68287 339
38.70299 326
38.7231 341
38.74321 292
38.76333 348
38.78344 318
38.80356 341
38.82367 314
38.84378 349
38.8639 346
38.88401 325
38.90412 376
38.92424 398
38.94435 356
38.96447 397
38.98458 395
39.00469 377
39.02481 445
39.04492 405
39.06503 445
39.08515 416
39.10526 451
39.12538 440
39.14549 442
39.1656 456
39.18572 461
39.20583 457
39.22594 456
39.24606 476
39.26617 458
39.28628 551
39.3064 582
39.32651 615
39.34663 664
39.36674 756
39.38685 714
39.40697 771
39.42708 780
39.44719 767
39.46731 677
39.48742 597
39.50754 583
39.52765 536
39.54776 511
39.56788 462
39.58799 417
39.6081 381
39.62822 342
39.64833 360
39.66845 358
39.68856 339
39.70867 323
39.72879 319
39.7489 349
39.76901 311
39.78913 327
39.80924 353
39.82935 339
39.84947 297
39.86958 330
39.8897 305
39.90981 349
39.92992 320
39.95004 311
39.97015 330
39.99026 326
40.01038 333
40.03049 315
40.05061 351
40.07072 348
40.09083 391
40.11095 353
40.13106 426
40.15117 426
40.17129 468
40.1914 448
40.21152 519
40.23163 497
40.25174 474
40.27186 462
40.29197 461
40.31208 412
40.3322 397
40.35231 418
40.37242 392
40.39254 314
40.41265 328
40.43277 352
40.45288 354
40.47299 311
40.49311 316
40.51322 335
40.53333 322
40.55345 297
40.57356 308
40.59368 303
40.61379 318
40.6339 293
40.65402 312
40.67413 330
40.69424 313
40.71436 331
40.73447 301
40.75458 331
40.7747 339
40.79481 326
40.81493 314
40.83504 282
40.85515 322
40.87527 333
40.89538 297
40.91549 307
40.93561 324
40.95572 305
40.97584 303
40.99595 311
41.01606 296
41.03618 325
41.05629 340
41.0764 315
41.09652 322
41.11663 354
41.13675 347
41.15686 338
41.17697 297
41.19709 332
41.2172 366
41.23731 373
41.25743 354
41.27754 350
41.29765 333
41.31777 333
41.33788 349
41.358 379
41.37811 374
41.39822 374
41.41834 364
41.43845 392
41.45856 370
41.47868 386
41.49879 392
41.51891 395
41.53902 428
41.55913 384
41.57925 429
41.59936 404
41.61947 466
41.63959 430
41.6597 456
41.67982 441
41.69993 441
41.72004 436
41.74016 412
41.76027 358
41.78038 420
41.8005 376
41.82061 378
41.84072 347
41.86084 364
41.88095 315
41.90107 337
41.92118 320
41.94129 330
41.96141 360
41.98152 356
42.00163 340
42.02175 354
42.04186 321
42.06198 333
42.08209 328
42.1022 326
42.12232 327
42.14243 395
42.16254 366
42.18266 406
42.20277 399
42.22289 437
42.243 458
42.26311 460
42.28323 525
42.30334 508
42.32345 620
42.34357 652
42.36368 621
42.38379 675
42.40391 662
42.42402 611
42.44414 583
42.46425 569
42.48436 497
42.50448 467
42.52459 458
42.5447 491
42.56482 378
42.58493 446
42.60505 417
42.62516 415
42.64527 397
42.66539 370
42.6855 405
42.70561 384
42.72573 453
42.74584 437
42.76595 408
42.78607 436
42.80618 449
42.8263 433
42.84641 424
42.86652 421
42.88664 412
42.90675 373
42.92686 359
42.94698 317
42.96709 368
42.98721 379
43.00732 337
43.02743 295
43.04755 324
43.06766 297
43.08777 336
43.10789 289
43.128 321
43.14812 286
43.16823 308
43.18834 324
43.20846 313
43.22857 319
43.24868 285
43.2688 308
43.28891 314
43.30902 298
43.32914 267
43.34925 297
43.36937 309
43.38948 283
43.40959 298
43.42971 308
43.44982 301
43.46993 272
43.49005 289
43.51016 304
43.53028 280
43.55039 288
43.5705 315
43.59062 331
43.61073 307
43.63084 336
43.65096 304
43.67107 306
43.69119 295
43.7113 283
43.73141 293
43.75153 269
43.77164 300
43.79175 258
43.81187 271
43.83198 267
43.85209 254
43.87221 295
43.89232 298
43.91244 254
43.93255 276
43.95266 259
43.97278 340
43.99289 272
44.013 308
44.03312 294
44.05323 280
44.07335 291
44.09346 310
44.11357 261
44.13369 282
44.1538 275
44.17391 312
44.19403 297
44.21414 290
44.23426 279
44.25437 256
44.27448 270
44.2946 236
44.31471 247
44.33482 291
44.35494 292
44.37505 291
44.39516 281
44.41528 301
44.43539 327
44.45551 289
44.47562 293
44.49573 289
44.51585 300
44.53596 298
44.55607 274
44.57619 279
44.5963 303
44.61642 309
44.63653 319
44.65664 325
44.67676 307
44.69687 314
44.71698 321
44.7371 319
44.75721 298
44.77732 327
44.79744 322
44.81755 334
44.83767 333
44.85778 322
44.87789 356
44.89801 334
44.91812 316
44.93823 316
44.95835 293
44.97846 341
44.99858 323
45.01869 332
45.0388 323
45.05892 357
45.07903 351
45.09914 315
45.11926 319
45.13937 321
45.15949 318
45.1796 290
45.19971 318
45.21983 335
45.23994 346
45.26005 334
45.28017 311
45.30028 308
45.32039 335
45.34051 349
45.36062 335
45.38074 337
45.40085 325
45.42096 336
45.44108 364
45.46119 369
45.4813 363
45.50142 365
45.52153 358
45.54165 384
45.56176 380
45.58187 383
45.60199 384
45.6221 449
45.64221 433
45.66233 482
45.68244 457
45.70256 487
45.72267 504
45.74278 532
45.7629 541
45.78301 484
45.80312 475
45.82324 417
45.84335 393
45.86346 407
45.88358 357
45.90369 353
45.92381 336
45.94392 353
45.96403 302
45.98415 268
46.00426 269
46.02437 291
46.04449 306
46.0646 295
46.08472 278
46.10483 294
46.12494 284
46.14506 297
46.16517 265
46.18528 270
46.2054 256
46.22551 273
46.24563 275
46.26574 260
46.28585 282
46.30597 273
46.32608 258
46.34619 287
46.36631 247
46.38642 288
46.40653 282
46.42665 255
46.44676 254
46.46688 265
46.48699 259
46.5071 272
46.52722 284
46.54733 255
46.56744 279
46.58756 269
46.60767 261
46.62779 266
46.6479 258
46.66801 298
46.68813 258
46.70824 286
46.72835 304
46.74847 272
46.76858 278
46.78869 317
46.80881 299
46.82892 274
46.84904 265
46.86915 305
46.88926 287
46.90938 295
46.92949 273
46.9496 257
46.96972 278
46.98983 288
47.00995 306
47.03006 310
47.05017 279
47.07029 248
47.0904 283
47.11051 289
47.13063 269
47.15074 297
47.17086 298
47.19097 294
47.21108 268
47.2312 300
47.25131 283
47.27142 315
47.29154 281
47.31165 256
47.33176 319
47.35188 356
47.37199 326
47.39211 321
47.41222 343
47.43233 307
47.45245 306
47.47256 300
47.49267 287
47.51279 349
47.5329 289
47.55302 315
47.57313 293
47.59324 296
47.61336 272
47.63347 298
47.65358 282
47.6737 280
47.69381 291
47.71393 285
47.73404 268
47.75415 291
47.77427 274
47.79438 302
47.81449 283
47.83461 272
47.85472 294
47.87483 303
47.89495 296
47.91506 294
47.93518 296
47.95529 290
47.9754 299
47.99552 282
48.01563 303
48.03574 282
48.05586 301
48.07597 262
48.09609 335
48.1162 317
48.13631 349
48.15643 351
48.17654 343
48.19665 357
48.21677 344
48.23688 358
48.257 365
48.27711 367
48.29722 358
48.31734 361
48.33745 384
48.35756 333
48.37768 304
48.39779 325
48.4179 341
48.43802 337
48.45813 369
48.47825 329
48.49836 348
48.51847 304
48.53859 350
48.5587 322
48.57881 339
48.59893 328
48.61904 328
48.63916 325
48.65927 298
48.67938 303
48.6995 297
48.71961 287
48.73972 299
48.75984 287
48.77995 309
48.80006 270
48.82018 325
48.84029 306
48.86041 324
48.88052 314
48.90063 304
48.92075 323
48.94086 297
48.96097 332
48.98109 301
49.0012 315
49.02132 349
49.04143 349
49.06154 339
49.08166 381
49.10177 346
49.12188 337
49.142 388
49.16211 365
49.18223 333
49.20234 361
49.22245 335
49.24257 319
49.26268 325
49.28279 320
49.30291 324
49.32302 337
49.34313 334
49.36325 308
49.38336 321
49.40348 284
49.42359 287
49.4437 325
49.46382 302
49.48393 313
49.50404 282
49.52416 315
49.54427 336
49.56439 381
49.5845 357
49.60461 364
49.62473 369
49.64484 397
49.66495 401
49.68507 408
49.70518 436
49.7253 456
49.74541 455
49.76552 437
49.78564 502
49.80575 529
49.82586 528
49.84598 568
49.86609 560
49.8862 583
49.90632 620
49.92643 687
49.94655 691
49.96666 682
49.98677 846
50.00689 886
50.027 978
50.04711 969
50.06723 977
50.08734 1098
50.10746 962
50.12757 900
50.14768 835
50.1678 692
50.18791 702
50.20802 610
50.22814 609
50.24825 502
50.26837 476
50.28848 394
50.30859 367
50.32871 340
50.34882 348
50.36893 316
50.38905 362
50.40916 317
50.42927 346
50.44939 382
50.4695 363
50.48962 350
50.50973 357
50.52984 361
50.54996 346
50.57007 356
50.59018 342
50.6103 349
50.63041 367
50.65053 355
50.67064 342
50.69075 356
50.71087 359
50.73098 353
50.75109 325
50.77121 354
50.79132 312
50.81143 293
50.83155 297
50.85166 325
50.87178 307
50.89189 273
50.912 281
50.93212 318
50.95223 324
50.97234 276
50.99246 313
51.01257 337
51.03269 357
51.0528 329
51.07291 353
51.09303 363
51.11314 331
51.13325 332
51.15337 377
51.17348 342
51.1936 382
51.21371 380
51.23382 378
51.25394 396
51.27405 377
51.29416 389
51.31428 423
51.33439 369
51.3545 358
51.37462 365
51.39473 333
51.41485 330
51.43496 317
51.45507 267
51.47519 287
51.4953 288
51.51541 300
51.53553 270
51.55564 277
51.57576 230
51.59587 267
51.61598 285
51.6361 242
51.65621 275
51.67632 264
51.69644 256
51.71655 269
51.73667 213
51.75678 295
51.77689 256
51.79701 253
51.81712 253
51.83723 273
51.85735 269
51.87746 266
51.89757 234
51.91769 254
51.9378 278
51.95792 267
51.97803 259
51.99814 273
52.01826 271
52.03837 245
52.05848 283
52.0786 245
52.09871 250
52.11883 286
52.13894 256
52.15905 302
52.17917 284
52.19928 286
52.21939 265
52.23951 274
52.25962 268
52.27974 243
52.29985 306
52.31996 267
52.34008 315
52.36019 322
52.3803 296
52.40042 310
52.42053 319
52.44064 305
52.46076 275
52.48087 307
52.50099 309
52.5211 327
52.54121 306
52.56133 314
52.58144 273
52.60155 289
52.62167 305
52.64178 281
52.6619 310
52.68201 297
52.70212 299
52.72224 313
52.74235 301
52.76246 285
52.78258 275
52.80269 267
52.8228 273
52.84292 296
52.86303 289
52.88315 293
52.90326 297
52.92337 312
52.94349 315
52.9636 305
52.98371 308
53.00383 313
53.02394 328
53.04406 290
53.06417 321
53.08428 332
53.1044 302
53.12451 293
53.14462 310
53.16474 332
53.18485 324
53.20497 274
53.22508 336
53.24519 294
53.26531 282
53.28542 296
53.30553 276
53.32565 302
53.34576 284
53.36587 276
53.38599 282
53.4061 283
53.42622 278
53.44633 278
53.46644 285
53.48656 279
53.50667 288
53.52678 279
53.5469 296
53.56701 288
53.58713 287
53.60724 311
53.62735 270
53.64747 297
53.66758 282
53.68769 313
53.70781 298
53.72792 291
53.74804 295
53.76815 294
53.78826 277
53.80838 325
53.82849 310
53.8486 298
53.86872 334
53.88883 291
53.90894 291
53.92906 286
53.94917 331
53.96929 294
53.9894 286
54.00951 320
54.02963 298
54.04974 315
54.06985 323
54.08997 356
54.11008 338
54.1302 297
54.15031 312
54.17042 281
54.19054 320
54.21065 319
54.23076 298
54.25088 342
54.27099 358
54.29111 335
54.31122 331
54.33133 313
54.35145 304
54.37156 349
54.39167 327
54.41179 367
54.4319 354
54.45201 302
54.47213 334
54.49224 319
54.51236 329
54.53247 324
54.55258 313
54.5727 356
54.59281 372
54.61292 344
54.63304 334
54.65315 367
54.67327 405
54.69338 439
54.71349 455
54.73361 475
54.75372 460
54.77383 537
54.79395 526
54.81406 517
54.83417 502
54.85429 515
54.8744 435
54.89452 432
54.91463 435
54.93474 413
54.95486 383
54.97497 442
54.99508 370
55.0152 383
55.03531 365
55.05543 339
55.07554 308
55.09565 324
55.11577 334
55.13588 299
55.15599 353
55.17611 394
55.19622 375
55.21634 387
55.23645 355
55.25656 400
55.27668 406
55.29679 372
55.3169 368
55.33702 338
55.35713 365
55.37724 345
55.39736 353
55.41747 333
55.43759 328
55.4577 359
55.47781 296
55.49793 301
55.51804 301
55.53815 310
55.55827 296
55.57838 285
55.5985 282
55.61861 308
55.63872 286
55.65884 260
55.67895 301
55.69906 272
55.71918 291
55.73929 304
55.75941 273
55.77952 298
55.79963 303
55.81975 293
55.83986 296
55.85997 313
55.88009 315
55.9002 347
55.92031 326
55.94043 338
55.96054 359
55.98066 343
56.00077 331
56.02088 369
56.041 320
56.06111 346
56.08122 308
56.10134 351
56.12145 322
56.14157 339
56.16168 326
56.18179 321
56.20191 299
56.22202 302
56.24213 328
56.26225 288
56.28236 283
56.30248 291
56.32259 304
56.3427 298
56.36282 293
56.38293 292
56.40304 296
56.42316 293
56.44327 317
56.46338 323
56.4835 300
56.50361 311
56.52373 298
56.54384 290
56.56395 295
56.58407 306
56.60418 283
56.62429 323
56.64441 301
56.66452 314
56.68464 309
56.70475 303
56.72486 287
56.74498 257
56.76509 309
56.7852 268
56.80532 260
56.82543 275
56.84554 261
56.86566 317
56.88577 297
56.90589 245
56.926 261
56.94611 253
56.96623 274
56.98634 266
57.00645 266
57.02657 240
57.04668 256
57.0668 301
57.08691 267
57.10702 246
57.12714 258
57.14725 295
57.16736 249
57.18748 268
57.20759 273
57.22771 280
57.24782 260
57.26793 242
57.28805 306
57.30816 307
57.32827 279
57.34839 296
57.3685 282
57.38861 276
57.40873 300
57.42884 292
57.44896 267
57.46907 324
57.48918 288
57.5093 286
57.52941 281
57.54952 272
57.56964 294
57.58975 299
57.60987 281
57.62998 287
57.65009 259
57.67021 262
57.69032 261
57.71043 285
57.73055 276
57.75066 274
57.77078 282
57.79089 257
57.811 286
57.83112 282
57.85123 295
57.87134 300
57.89146 304
57.91157 272
57.93168 275
57.9518 293
57.97191 285
57.99203 278
58.01214 282
58.03225 275
58.05237 291
58.07248 296
58.09259 293
58.11271 320
58.13282 281
58.15294 271
58.17305 292
58.19316 299
58.21328 285
58.23339 321
58.2535 307
58.27362 320
58.29373 319
58.31385 275
58.33396 309
58.35407 298
58.37419 286
58.3943 329
58.41441 353
58.43453 306
58.45464 262
58.47475 321
58.49487 331
58.51498 299
58.5351 297
58.55521 316
58.57532 301
58.59544 297
58.61555 286
58.63566 286
58.65578 292
58.67589 298
58.69601 283
58.71612 267
58.73623 277
58.75635 275
58.77646 246
58.79657 249
58.81669 255
58.8368 282
58.85691 245
58.87703 243
58.89714 264
58.91726 265
58.93737 250
58.95748 263
58.9776 251
58.99771 251
59.01782 251
59.03794 273
59.05805 278
59.07817 255
59.09828 240
59.11839 294
59.13851 271
59.15862 270
59.17873 275
59.19885 301
59.21896 269
59.23908 276
59.25919 270
59.2793 279
59.29942 324
59.31953 243
59.33964 278
59.35976 255
59.37987 267
59.39998 269
59.4201 292
59.44021 292
59.46033 265
59.48044 285
59.50055 255
59.52067 306
59.54078 296
59.56089 335
59.58101 295
59.60112 348
59.62124 336
59.64135 355
59.66146 374
59.68158 355
59.70169 465
59.7218 421
59.74192 462
59.76203 459
59.78215 530
59.80226 555
59.82237 632
59.84249 708
59.8626 721
59.88271 691
59.90283 748
59.92294 725
59.94305 657
59.96317 573
59.98328 554
60.0034 602
60.02351 604
60.04362 551
60.06374 577
60.08385 521
60.10396 524
60.12408 452
60.14419 444
60.16431 441
60.18442 416
60.20453 388
60.22465 377
60.24476 393
60.26487 416
60.28499 346
60.3051 372
60.32522 355
60.34533 357
60.36544 342
60.38556 348
60.40567 335
60.42578 348
60.4459 294
60.46601 333
60.48612 312
60.50624 297
60.52635 294
60.54647 312
60.56658 277
60.58669 317
60.60681 269
60.62692 300
60.64703 276
60.66715 297
60.68726 274
60.70738 276
60.72749 288
60.7476 296
60.76772 287
60.78783 312
60.80794 290
60.82806 297
60.84817 255
60.86828 312
60.8884 285
60.90851 303
60.92863 273
60.94874 319
60.96885 283
60.98897 285
61.00908 286
61.02919 296
61.04931 287
61.06942 297
61.08954 280
61.10965 285
61.12976 269
61.14988 245
61.16999 311
61.1901 282
61.21022 295
61.23033 269
61.25045 264
61.27056 284
61.29067 282
61.31079 308
61.3309 281
61.35101 274
61.37113 316
61.39124 276
61.41135 316
61.43147 293
61.45158 285
61.4717 271
61.49181 297
61.51192 304
61.53204 306
61.55215 286
61.57226 276
61.59238 279
61.61249 320
61.63261 313
61.65272 278
61.67283 288
61.69295 295
61.71306 272
61.73317 294
61.75329 305
61.7734 290
61.79352 282
61.81363 285
61.83374 272
61.85386 285
61.87397 302
61.89408 271
61.9142 256
61.93431 283
61.95442 286
61.97454 314
61.99465 285
62.01477 295
62.03488 263
62.05499 293
62.07511 266
62.09522 276
62.11533 306
62.13545 282
62.15556 280
62.17568 301
62.19579 307
62.2159 288
62.23602 257
62.25613 313
62.27624 281
62.29636 301
62.31647 298
62.33659 294
62.3567 278
62.37681 278
62.39693 251
62.41704 274
62.43715 280
62.45727 268
62.47738 266
62.49749 268
62.51761 289
62.53772 245
62.55784 255
62.57795 253
62.59806 266
62.61818 292
62.63829 275
62.6584 259
62.67852 270
62.69863 287
62.71875 311
62.73886 283
62.75897 269
62.77909 274
62.7992 290
62.81931 284
62.83943 289
62.85954 268
62.87965 276
62.89977 269
62.91988 272
62.94 319
62.96011 266
62.98022 301
63.00034 279
63.02045 253
63.04056 282
63.06068 290
63.08079 254
63.10091 275
63.12102 264
63.14113 259
63.16125 292
63.18136 275
63.20147 262
63.22159 284
63.2417 293
63.26182 309
63.28193 266
63.30204 268
63.32216 283
63.34227 317
63.36238 311
63.3825 280
63.40261 288
63.42272 315
63.44284 318
63.46295 318
63.48307 306
63.50318 318
63.52329 327
63.54341 338
63.56352 331
63.58363 350
63.60375 339
63.62386 344
63.64398 339
63.66409 311
63.6842 359
63.70432 370
63.72443 347
63.74454 370
63.76466 390
63.78477 387
63.80489 375
63.825 370
63.84511 378
63.86523 366
63.88534 375
63.90545 389
63.92557 387
63.94568 342
63.96579 394
63.98591 381
64.00602 382
64.02614 323
64.04625 332
64.06636 337
64.08648 327
64.10659 318
64.1267 321
64.14682 295
64.16693 276
64.18705 301
64.20716 294
64.22727 295
64.24739 310
64.2675 274
64.28761 272
64.30773 272
64.32784 276
64.34796 249
64.36807 251
64.38818 273
64.4083 266
64.42841 277
64.44852 250
64.46864 280
64.48875 254
64.50886 268
64.52898 264
64.54909 245
64.56921 261
64.58932 272
64.60943 285
64.62955 246
64.64966 250
64.66977 289
64.68989 283
64.71 282
64.73012 267
64.75023 288
64.77034 224
64.79046 246
64.81057 288
64.83068 278
64.8508 266
64.87091 261
64.89102 253
64.91114 229
64.93125 292
64.95137 269
64.97148 278
64.99159 278
65.01171 289
65.03182 280
65.05193 268
65.07205 269
65.09216 237
65.11228 270
65.13239 269
65.1525 280
65.17262 298
65.19273 268
65.21284 274
65.23296 281
65.25307 264
65.27319 255
65.2933 286
65.31341 275
65.33353 265
65.35364 278
65.37375 263
65.39387 286
65.41398 262
65.43409 264
65.45421 290
65.47432 286
65.49444 252
65.51455 287
65.53466 253
65.55478 252
65.57489 284
65.595 257
65.61512 242
65.63523 250
65.65535 275
65.67546 266
65.69557 257
65.71569 240
65.7358 254
65.75591 252
65.77603 228
65.79614 256
65.81626 250
65.83637 229
65.85648 255
65.8766 272
65.89671 262
65.91682 259
65.93694 276
65.95705 264
65.97716 289
65.99728 287
66.01739 269
66.03751 264
66.05762 285
66.07773 274
66.09785 272
66.11796 268
66.13807 282
66.15819 273
66.1783 269
66.19842 278
66.21853 299
66.23864 279
66.25876 281
66.27887 287
66.29898 283
66.3191 318
66.33921 299
66.35933 292
66.37944 287
66.39955 295
66.41967 261
66.43978 305
66.45989 310
66.48001 307
66.50012 265
66.52023 283
66.54035 287
66.56046 266
66.58058 240
66.60069 287
66.6208 272
66.64092 276
66.66103 273
66.68114 237
66.70126 268
66.72137 262
66.74149 269
66.7616 284
66.78171 262
66.80183 257
66.82194 250
66.84205 273
66.86217 267
66.88228 263
66.90239 300
66.92251 272
66.94262 301
66.96274 283
66.98285 269
67.00296 313
67.02308 298
67.04319 305
67.0633 302
67.08342 301
67.10353 297
67.12365 296
67.14376 317
67.16387 287
67.18399 267
67.2041 279
67.22421 289
67.24433 305
67.26444 286
67.28456 309
67.30467 279
67.32478 273
67.3449 289
67.36501 296
67.38512 287
67.40524 311
67.42535 313
67.44546 295
67.46558 343
67.48569 371
67.50581 357
67.52592 385
67.54603 395
67.56615 458
67.58626 430
67.60637 496
67.62649 523
67.6466 514
67.66672 591
67.68683 541
67.70694 529
67.72706 435
67.74717 491
67.76728 447
67.7874 452
67.80751 436
67.82763 452
67.84774 451
67.86785 477
67.88797 507
67.90808 476
67.92819 518
67.94831 508
67.96842 518
67.98853 550
68.00865 573
68.02876 664
68.04888 620
68.06899 648
68.0891 648
68.10922 650
68.12933 578
68.14944 601
68.16956 570
68.18967 579
68.20979 624
68.2299 624
68.25001 592
68.27013 591
68.29024 617
68.31035 517
68.33047 453
68.35058 444
68.3707 407
68.39081 391
68.41092 398
68.43104 389
68.45115 369
68.47126 364
68.49138 304
68.51149 344
68.5316 333
68.55172 292
68.57183 273
68.59195 268
68.61206 297
68.63217 283
68.65229 284
68.6724 285
68.69251 278
68.71263 250
68.73274 279
68.75286 269
68.77297 255
68.79308 299
68.8132 254
68.83331 263
68.85342 281
68.87354 292
68.89365 285
68.91376 260
68.93388 262
68.95399 277
68.97411 262
68.99422 307
69.01433 283
69.03445 300
69.05456 263
69.07467 268
69.09479 300
69.1149 283
69.13502 306
69.15513 291
69.17524 294
69.19536 272
69.21547 274
69.23558 282
69.2557 290
69.27581 299
69.29593 287
69.31604 292
69.33615 310
69.35627 292
69.37638 306
69.39649 305
69.41661 313
69.43672 293
69.45683 272
69.47695 285
69.49706 279
69.51718 273
69.53729 270
69.5574 281
69.57752 281
69.59763 265
69.61774 309
69.63786 317
69.65797 286
69.67809 274
69.6982 264
69.71831 309
69.73843 273
69.75854 298
69.77865 291
69.79877 285
69.81888 290
69.839 273
69.85911 271
69.87922 295
69.89934 267
69.91945 256
69.93956 261
69.95968 279
69.97979 260
69.9999 246
70.02002 278
70.04013 259
70.06025 242
70.08036 226
70.10047 246
70.12059 241
70.1407 233
70.16081 236
70.18093 232
70.20104 219
70.22116 263
70.24127 231
70.26138 209
70.2815 208
70.30161 233
70.32172 223
70.34184 231
70.36195 240
70.38207 213
70.40218 211
70.42229 251
70.44241 241
70.46252 204
70.48263 207
70.50275 235
70.52286 221
70.54297 203
70.56309 215
70.5832 222
70.60332 258
70.62343 233
70.64354 240
70.66366 247
70.68377 229
70.70388 247
70.724 263
70.74411 229
70.76423 261
70.78434 251
70.80445 276
70.82457 286
70.84468 249
70.86479 226
70.88491 276
70.90502 289
70.92513 236
70.94525 264
70.96536 241
70.98548 276
71.00559 284
71.0257 251
71.04582 282
71.06593 262
71.08604 267
71.10616 263
71.12627 288
71.14639 278
71.1665 278
71.18661 302
71.20673 277
71.22684 277
71.24695 252
71.26707 278
71.28718 280
71.3073 240
71.32741 238
71.34752 235
71.36764 291
71.38775 253
71.40786 234
71.42798 252
71.44809 272
71.4682 255
71.48832 246
71.50843 266
71.52855 243
71.54866 260
71.56877 238
71.58889 243
71.609 220
71.62911 240
71.64923 242
71.66934 255
71.68946 223
71.70957 236
71.72968 254
71.7498 244
71.76991 269
71.79002 230
71.81014 222
71.83025 257
71.85037 223
71.87048 256
71.89059 258
71.91071 223
71.93082 234
71.95093 234
71.97105 254
71.99116 231
72.01127 237
72.03139 215
72.0515 274
72.07162 238
72.09173 233
72.11184 254
72.13196 220
72.15207 252
72.17218 232
72.1923 225
72.21241 238
72.23253 238
72.25264 229
72.27275 274
72.29287 238
72.31298 239
72.33309 239
72.35321 253
72.37332 224
72.39344 222
72.41355 219
72.43366 224
72.45378 226
72.47389 265
72.494 252
72.51412 257
72.53423 241
72.55434 253
72.57446 244
72.59457 263
72.61469 239
72.6348 242
72.65491 254
72.67503 247
72.69514 228
72.71525 230
72.73537 259
72.75548 278
72.7756 247
72.79571 247
72.81582 259
72.83594 247
72.85605 240
72.87616 248
72.89628 259
72.91639 229
72.9365 259
72.95662 242
72.97673 243
72.99685 247
73.01696 273
73.03707 235
73.05719 257
73.0773 257
73.09741 250
73.11753 264
73.13764 273
73.15776 258
73.17787 270
73.19798 253
73.2181 251
73.23821 268
73.25832 240
73.27844 304
73.29855 298
73.31867 292
73.33878 342
73.35889 336
73.37901 333
73.39912 345
73.41923 319
73.43935 306
73.45946 287
73.47957 336
73.49969 273
73.5198 267
73.53992 280
73.56003 289
73.58014 306
73.60026 268
73.62037 284
73.64048 257
73.6606 273
73.68071 289
73.70083 257
73.72094 265
73.74105 254
73.76117 253
73.78128 266
73.80139 257
73.82151 235
73.84162 250
73.86174 229
73.88185 256
73.90196 244
73.92208 262
73.94219 276
73.9623 241
73.98242 266
74.00253 248
74.02264 233
74.04276 247
74.06287 231
74.08299 236
74.1031 257
74.12321 253
74.14333 248
74.16344 267
74.18355 233
74.20367 233
74.22378 259
74.2439 245
74.26401 258
74.28412 211
74.30424 224
74.32435 251
74.34446 236
74.36458 248
74.38469 241
74.40481 242
74.42492 257
74.44503 245
74.46515 241
74.48526 255
74.50537 256
74.52549 262
74.5456 257
74.56571 230
74.58583 257
74.60594 281
74.62606 267
74.64617 263
74.66628 259
74.6864 268
74.70651 236
74.72662 260
74.74674 265
74.76685 277
74.78697 275
74.80708 278
74.82719 286
74.84731 261
74.86742 270
74.88753 251
74.90765 263
74.92776 266
74.94787 261
74.96799 259
74.9881 257
75.00822 276
