3.00117 20260
3.02128 19647
3.0414 19279
3.06151 18859
3.08162 18526
3.10174 17721
3.12185 17345
3.14197 16924
3.16208 16172
3.18219 16148
3.20231 15564
3.22242 15081
3.24253 14470
3.26265 13678
3.28276 13748
3.30288 13184
3.32299 12815
3.3431 12547
3.36322 11936
3.38333 11777
3.40344 11319
3.42356 10890
3.44367 10342
3.46379 10145
3.4839 9915
3.50401 9389
3.52413 9339
3.54424 8776
3.56435 8344
3.58447 8203
3.60458 7824
3.62469 7549
3.64481 7220
3.66492 6927
3.68504 6825
3.70515 6428
3.72526 6409
3.74538 5908
3.76549 5670
3.7856 5589
3.80572 5078
3.82583 5032
3.84595 4746
3.86606 4542
3.88617 4440
3.90629 4168
3.9264 4103
3.94651 3784
3.96663 3695
3.98674 3617
4.00686 3485
4.02697 3215
4.04708 3123
4.0672 2854
4.08731 2957
4.10742 2668
4.12754 2557
4.14765 2376
4.16776 2271
4.18788 2323
4.20799 2181
4.22811 2083
4.24822 1941
4.26833 1912
4.28845 1907
4.30856 1860
4.32867 1696
4.34879 1711
4.3689 1585
4.38902 1609
4.40913 1584
4.42924 1441
4.44936 1425
4.46947 1439
4.48958 1449
4.5097 1383
4.52981 1263
4.54992 1241
4.57004 1184
4.59015 1251
4.61027 1230
4.63038 1105
4.65049 1121
4.67061 1038
4.69072 1052
4.71083 1045
4.73095 999
4.75106 996
4.77118 964
4.79129 945
4.8114 935
4.83152 873
4.85163 862
4.87174 823
4.89186 831
4.91197 828
4.93209 730
4.9522 763
4.97231 749
4.99243 728
5.01254 768
5.03265 699
5.05277 612
5.07288 643
5.09299 621
5.11311 706
5.13322 587
5.15334 599
5.17345 560
5.19356 595
5.21368 589
5.23379 521
5.2539 543
5.27402 518
5.29413 491
5.31425 483
5.33436 461
5.35447 465
5.37459 474
5.3947 424
5.41481 428
5.43493 420
5.45504 395
5.47516 453
5.49527 372
5.51538 438
5.5355 327
5.55561 359
5.57572 411
5.59584 338
5.61595 377
5.63606 380
5.65618 303
5.67629 341
5.69641 336
5.71652 339
5.73663 296
5.75675 297
5.77686 315
5.79697 297
5.81709 280
5.8372 303
5.85732 329
5.87743 312
5.89754 262
5.91766 288
5.93777 274
5.95788 265
5.978 275
5.99811 293
6.01823 274
6.03834 278
6.05845 283
6.07857 250
6.09868 273
6.11879 317
6.13891 295
6.15902 278
6.17913 283
6.19925 293
6.21936 283
6.23948 292
6.25959 253
6.2797 231
6.29982 263
6.31993 257
6.34004 274
6.36016 269
6.38027 288
6.40039 262
6.4205 279
6.44061 236
6.46073 281
6.48084 206
6.50095 201
6.52107 228
6.54118 249
6.56129 246
6.58141 249
6.60152 243
6.62164 244
6.64175 222
6.66186 195
6.68198 241
6.70209 201
6.7222 225
6.74232 231
6.76243 212
6.78255 206
6.80266 221
6.82277 193
6.84289 237
6.863 224
6.88311 230
6.90323 243
6.92334 227
6.94346 222
6.96357 249
6.98368 241
7.0038 252
7.02391 219
7.04402 222
7.06414 230
7.08425 224
7.10436 243
7.12448 240
7.14459 238
7.16471 236
7.18482 208
7.20493 231
7.22505 204
7.24516 238
7.26527 201
7.28539 211
7.3055 231
7.32562 192
7.34573 228
7.36584 230
7.38596 193
7.40607 242
7.42618 248
7.4463 187
7.46641 217
7.48653 243
7.50664 221
7.52675 209
7.54687 209
7.56698 225
7.58709 221
7.60721 219
7.62732 202
7.64743 223
7.66755 218
7.68766 234
7.70778 225
7.72789 201
7.748 241
7.76812 230
7.78823 231
7.80834 197
7.82846 230
7.84857 226
7.86869 219
7.8888 246
7.90891 239
7.92903 230
7.94914 216
7.96925 227
7.98937 233
8.00948 226
8.0296 253
8.04971 249
8.06982 250
8.08994 219
8.11005 223
8.13016 233
8.15028 222
8.17039 238
8.1905 235
8.21062 222
8.23073 230
8.25085 204
8.27096 221
8.29107 226
8.31119 255
8.3313 235
8.35141 261
8.37153 245
8.39164 249
8.41176 236
8.43187 248
8.45198 214
8.4721 259
8.49221 220
8.51232 253
8.53244 201
8.55255 282
8.57266 261
8.59278 230
8.61289 231
8.63301 245
8.65312 238
8.67323 233
8.69335 256
8.71346 229
8.73357 250
8.75369 258
8.7738 242
8.79392 262
8.81403 258
8.83414 256
8.85426 236
8.87437 218
8.89448 234
8.9146 210
8.93471 245
8.95483 236
8.97494 241
8.99505 221
9.01517 225
9.03528 238
9.05539 242
9.07551 289
9.09562 225
9.11573 265
9.13585 259
9.15596 228
9.17608 253
9.19619 225
9.2163 221
9.23642 237
9.25653 246
9.27664 236
9.29676 218
9.31687 261
9.33699 236
9.3571 212
9.37721 231
9.39733 247
9.41744 252
9.43755 241
9.45767 253
9.47778 255
9.4979 226
9.51801 207
9.53812 249
9.55824 243
9.57835 236
9.59846 248
9.61858 230
9.63869 221
9.6588 258
9.67892 212
9.69903 237
9.71915 248
9.73926 250
9.75937 255
9.77949 240
9.7996 243
9.81971 227
9.83983 208
9.85994 247
9.88006 259
9.90017 193
9.92028 229
9.9404 249
9.96051 240
9.98062 215
10.00074 265
10.02085 261
10.04097 247
10.06108 244
10.08119 236
10.10131 246
10.12142 264
10.14153 251
10.16165 263
10.18176 253
10.20187 237
10.22199 217
10.2421 237
10.26222 271
10.28233 272
10.30244 262
10.32256 259
10.34267 249
10.36278 257
10.3829 255
10.40301 240
10.42313 265
10.44324 246
10.46335 254
10.48347 226
10.50358 216
10.52369 212
10.54381 231
10.56392 205
10.58403 247
10.60415 224
10.62426 232
10.64438 238
10.66449 220
10.6846 210
10.70472 233
10.72483 240
10.74494 259
10.76506 254
10.78517 214
10.80529 220
10.8254 238
10.84551 242
10.86563 267
10.88574 244
10.90585 241
10.92597 219
10.94608 241
10.9662 269
10.98631 238
11.00642 244
11.02654 252
11.04665 244
11.06676 267
11.08688 252
11.10699 228
11.1271 240
11.14722 236
11.16733 267
11.18745 250
11.20756 261
11.22767 237
11.24779 263
11.2679 226
11.28801 240
11.30813 249
11.32824 260
11.34836 269
11.36847 223
11.38858 228
11.4087 231
11.42881 236
11.44892 270
11.46904 218
11.48915 253
11.50927 267
11.52938 259
11.54949 239
11.56961 261
11.58972 244
11.60983 232
11.62995 250
11.65006 225
11.67017 226
11.69029 224
11.7104 238
11.73052 242
11.75063 270
11.77074 248
11.79086 286
11.81097 249
11.83108 263
11.8512 249
11.87131 282
11.89143 260
11.91154 252
11.93165 295
11.95177 261
11.97188 254
11.99199 259
12.01211 251
12.03222 305
12.05234 246
12.07245 297
12.09256 286
12.11268 226
12.13279 299
12.1529 264
12.17302 269
12.19313 252
12.21324 292
12.23336 289
12.25347 299
12.27359 321
12.2937 303
12.31381 255
12.33393 294
12.35404 312
12.37415 318
12.39427 290
12.41438 299
12.4345 304
12.45461 249
12.47472 301
12.49484 290
12.51495 232
12.53506 266
12.55518 268
12.57529 245
12.5954 245
12.61552 223
12.63563 241
12.65575 261
12.67586 265
12.69597 264
12.71609 230
12.7362 249
12.75631 243
12.77643 222
12.79654 244
12.81666 217
12.83677 238
12.85688 201
12.877 246
12.89711 194
12.91722 221
12.93734 194
12.95745 194
12.97757 215
12.99768 213
13.01779 227
13.03791 226
13.05802 229
13.07813 242
13.09825 205
13.11836 215
13.13847 212
13.15859 213
13.1787 199
13.19882 213
13.21893 222
13.23904 250
13.25916 196
13.27927 199
13.29938 210
13.3195 212
13.33961 211
13.35973 216
13.37984 246
13.39995 234
13.42007 245
13.44018 219
13.46029 211
13.48041 211
13.50052 207
13.52064 209
13.54075 207
13.56086 191
13.58098 195
13.60109 201
13.6212 213
13.64132 220
13.66143 237
13.68154 211
13.70166 195
13.72177 216
13.74189 210
13.762 225
13.78211 215
13.80223 188
13.82234 226
13.84245 218
13.86257 201
13.88268 228
13.9028 235
13.92291 224
13.94302 219
13.96314 221
13.98325 199
14.00336 223
14.02348 200
14.04359 213
14.06371 196
14.08382 215
14.10393 216
14.12405 224
14.14416 237
14.16427 196
14.18439 207
14.2045 210
14.22461 223
14.24473 224
14.26484 243
14.28496 222
14.30507 190
14.32518 211
14.3453 206
14.36541 187
14.38552 189
14.40564 217
14.42575 248
14.44587 194
14.46598 257
14.48609 228
14.50621 213
14.52632 203
14.54643 224
14.56655 209
14.58666 181
14.60677 211
14.62689 213
14.647 220
14.66712 238
14.68723 208
14.70734 208
14.72746 234
14.74757 197
14.76768 199
14.7878 196
14.80791 194
14.82803 217
14.84814 191
14.86825 187
14.88837 205
14.90848 207
14.92859 226
14.94871 228
14.96882 208
14.98894 196
15.00905 182
15.02916 188
15.04928 202
15.06939 193
15.0895 197
15.10962 196
15.12973 197
15.14984 186
15.16996 185
15.19007 180
15.21019 171
15.2303 174
15.25041 192
15.27053 175
15.29064 173
15.31075 172
15.33087 187
15.35098 196
15.3711 199
15.39121 222
15.41132 173
15.43144 184
15.45155 176
15.47166 223
15.49178 159
15.51189 193
15.53201 200
15.55212 207
15.57223 212
15.59235 207
15.61246 193
15.63257 201
15.65269 187
15.6728 200
15.69291 222
15.71303 189
15.73314 176
15.75326 229
15.77337 174
15.79348 203
15.8136 170
15.83371 193
15.85382 159
15.87394 173
15.89405 214
15.91417 200
15.93428 208
15.95439 177
15.97451 178
15.99462 196
16.01473 238
16.03485 171
16.05496 198
16.07508 173
16.09519 208
16.1153 191
16.13542 177
16.15553 155
16.17564 193
16.19576 196
16.21587 177
16.23598 180
16.2561 212
16.27621 199
16.29633 192
16.31644 172
16.33655 191
16.35667 172
16.37678 176
16.39689 181
16.41701 173
16.43712 195
16.45724 185
16.47735 192
16.49746 183
16.51758 205
16.53769 192
16.5578 177
16.57792 170
16.59803 184
16.61814 190
16.63826 164
16.65837 188
16.67849 174
16.6986 190
16.71871 179
16.73883 167
16.75894 206
16.77905 201
16.79917 205
16.81928 195
16.8394 181
16.85951 189
16.87962 172
16.89974 214
16.91985 175
16.93996 188
16.96008 196
16.98019 192
17.00031 173
17.02042 176
17.04053 195
17.06065 182
17.08076 212
17.10087 178
17.12099 192
17.1411 208
17.16121 177
17.18133 214
17.20144 182
17.22156 184
17.24167 173
17.26178 179
17.2819 184
17.30201 206
17.32212 164
17.34224 184
17.36235 200
17.38247 171
17.40258 191
17.42269 188
17.44281 179
17.46292 196
17.48303 174
17.50315 196
17.52326 208
17.54338 217
17.56349 184
17.5836 186
17.60372 206
17.62383 169
17.64394 206
17.66406 198
17.68417 191
17.70428 183
17.7244 201
17.74451 199
17.76463 192
17.78474 196
17.80485 179
17.82497 199
17.84508 221
17.86519 187
17.88531 195
17.90542 192
17.92554 203
17.94565 192
17.96576 214
17.98588 197
18.00599 220
18.0261 173
18.04622 192
18.06633 201
18.08645 198
18.10656 201
18.12667 244
18.14679 233
18.1669 209
18.18701 238
18.20713 237
18.22724 238
18.24735 226
18.26747 251
18.28758 253
18.3077 237
18.32781 264
18.34792 246
18.36804 228
18.38815 221
18.40826 252
18.42838 207
18.44849 212
18.46861 210
18.48872 222
18.50883 236
18.52895 226
18.54906 224
18.56917 186
18.58929 226
18.6094 201
18.62951 202
18.64963 186
18.66974 207
18.68986 213
18.70997 225
18.73008 214
18.7502 198
18.77031 225
18.79042 217
18.81054 203
18.83065 222
18.85077 197
18.87088 184
18.89099 206
18.91111 196
18.93122 203
18.95133 207
18.97145 202
18.99156 180
19.01168 187
19.03179 218
19.0519 180
19.07202 178
19.09213 187
19.11224 215
19.13236 188
19.15247 187
19.17258 216
19.1927 209
19.21281 196
19.23293 204
19.25304 200
19.27315 215
19.29327 196
19.31338 195
19.33349 192
19.35361 199
19.37372 224
19.39384 205
19.41395 218
19.43406 195
19.45418 203
19.47429 224
19.4944 243
19.51452 236
19.53463 223
19.55475 230
19.57486 233
19.59497 244
19.61509 244
19.6352 222
19.65531 236
19.67543 279
19.69554 317
19.71565 276
19.73577 294
19.75588 303
19.776 307
19.79611 328
19.81622 325
19.83634 329
19.85645 300
19.87656 307
19.89668 310
19.91679 333
19.93691 318
19.95702 327
19.97713 327
19.99725 282
20.01736 329
20.03747 317
20.05759 302
20.0777 333
20.09782 329
20.11793 322
20.13804 316
20.15816 342
20.17827 353
20.19838 353
20.2185 351
20.23861 395
20.25872 359
20.27884 388
20.29895 427
20.31907 363
20.33918 371
20.35929 358
20.37941 392
20.39952 392
20.41963 414
20.43975 354
20.45986 430
20.47998 435
20.50009 432
20.5202 452
20.54032 446
20.56043 498
20.58054 517
20.60066 561
20.62077 635
20.64088 713
20.661 945
20.68111 1216
20.70123 1646
20.72134 2198
20.74145 3022
20.76157 4190
20.78168 5521
20.80179 6717
20.82191 7739
20.84202 7863
20.86214 6858
20.88225 5498
20.90236 3933
20.92248 2617
20.94259 1648
20.9627 1006
20.98282 746
21.00293 606
21.02305 523
21.04316 472
21.06327 471
21.08339 444
21.1035 421
21.12361 407
21.14373 420
21.16384 408
21.18395 382
21.20407 366
21.22418 331
21.2443 330
21.26441 317
21.28452 315
21.30464 314
21.32475 322
21.34486 344
21.36498 315
21.38509 310
21.40521 311
21.42532 323
21.44543 294
21.46555 294
21.48566 295
21.50577 318
21.52589 299
21.546 284
21.56612 308
21.58623 318
21.60634 268
21.62646 273
21.64657 274
21.66668 297
21.6868 292
21.70691 313
21.72702 254
21.74714 265
21.76725 256
21.78737 290
21.80748 249
21.82759 272
21.84771 281
21.86782 265
21.88793 249
21.90805 265
21.92816 251
21.94828 276
21.96839 269
21.9885 280
22.00862 248
22.02873 250
22.04884 253
22.06896 259
22.08907 260
22.10919 256
22.1293 240
22.14941 266
22.16953 223
22.18964 261
22.20975 247
22.22987 247
22.24998 249
22.27009 259
22.29021 225
22.31032 253
22.33044 240
22.35055 231
22.37066 227
22.39078 262
22.41089 255
22.431 268
22.45112 220
22.47123 248
22.49135 266
22.51146 243
22.53157 236
22.55169 236
22.5718 258
22.59191 225
22.61203 247
22.63214 229
22.65225 256
22.67237 255
22.69248 209
22.7126 233
22.73271 232
22.75282 245
22.77294 242
22.79305 245
22.81316 250
22.83328 202
22.85339 228
22.87351 261
22.89362 247
22.91373 230
22.93385 189
22.95396 204
22.97407 253
22.99419 211
23.0143 235
23.03442 237
23.05453 238
23.07464 219
23.09476 228
23.11487 243
23.13498 250
23.1551 236
23.17521 232
23.19532 233
23.21544 221
23.23555 256
23.25567 243
23.27578 246
23.29589 217
23.31601 231
23.33612 217
23.35623 193
23.37635 219
23.39646 255
23.41658 236
23.43669 233
23.4568 244
23.47692 273
23.49703 255
23.51714 231
23.53726 221
23.55737 223
23.57749 215
23.5976 266
23.61771 249
23.63783 221
23.65794 248
23.67805 204
23.69817 220
23.71828 218
23.73839 231
23.75851 242
23.77862 238
23.79874 248
23.81885 261
23.83896 268
23.85908 262
23.87919 267
23.8993 261
23.91942 295
23.93953 294
23.95965 292
23.97976 333
23.99987 291
24.01999 284
24.0401 291
24.06021 263
24.08033 245
24.10044 261
24.12056 268
24.14067 236
24.16078 235
24.1809 216
24.20101 218
24.22112 208
24.24124 241
24.26135 205
24.28146 245
24.30158 227
24.32169 245
24.34181 273
24.36192 207
24.38203 245
24.40215 235
24.42226 241
24.44237 217
24.46249 265
24.4826 226
24.50272 214
24.52283 250
24.54294 262
24.56306 252
24.58317 272
24.60328 235
24.6234 261
24.64351 260
24.66362 254
24.68374 244
24.70385 271
24.72397 255
24.74408 256
24.76419 266
24.78431 277
24.80442 290
24.82453 254
24.84465 304
24.86476 265
24.88488 271
24.90499 300
24.9251 270
24.94522 272
24.96533 254
24.98544 259
25.00556 291
25.02567 267
25.04579 271
25.0659 295
25.08601 300
25.10613 278
25.12624 292
25.14635 300
25.16647 305
25.18658 341
25.20669 326
25.22681 337
25.24692 304
25.26704 350
25.28715 367
25.30726 315
25.32738 323
25.34749 315
25.3676 295
25.38772 320
25.40783 266
25.42795 294
25.44806 298
25.46817 273
25.48829 275
25.5084 284
25.52851 292
25.54863 264
25.56874 296
25.58886 304
25.60897 333
25.62908 343
25.6492 354
25.66931 363
25.68942 399
25.70954 357
25.72965 461
25.74976 416
25.76988 430
25.78999 464
25.81011 438
25.83022 442
25.85033 456
25.87045 508
25.89056 450
25.91067 446
25.93079 466
25.9509 494
25.97102 538
25.99113 521
26.01124 506
26.03136 539
26.05147 539
26.07158 595
26.0917 617
26.11181 661
26.13193 671
26.15204 725
26.17215 761
26.19227 835
26.21238 860
26.23249 969
26.25261 1083
26.27272 1100
26.29283 1203
26.31295 1317
26.33306 1452
26.35318 1755
26.37329 2008
26.3934 2543
26.41352 3149
26.43363 4173
26.45374 5572
26.47386 7668
26.49397 10631
26.51409 14263
26.5342 19285
26.55431 24944
26.57443 30317
26.59454 34108
26.61465 35524
26.63477 32599
26.65488 27116
26.67499 20625
26.69511 14823
26.71522 10313
26.73534 6195
26.75545 3520
26.77556 2341
26.79568 1835
26.81579 1590
26.8359 1408
26.85602 1261
26.87613 1158
26.89625 1088
26.91636 1016
26.93647 912
26.95659 845
26.9767 771
26.99681 720
27.01693 663
27.03704 571
27.05716 518
27.07727 521
27.09738 491
27.1175 532
27.13761 473
27.15772 438
27.17784 437
27.19795 433
27.21806 443
27.23818 374
27.25829 453
27.27841 424
27.29852 416
27.31863 418
27.33875 453
27.35886 420
27.37897 473
27.39909 460
27.4192 443
27.43932 440
27.45943 387
27.47954 380
27.49966 376
27.51977 357
27.53988 373
27.56 375
27.58011 401
27.60023 341
27.62034 300
27.64045 331
27.66057 326
27.68068 282
27.70079 320
27.72091 307
27.74102 323
27.76113 348
27.78125 352
27.80136 305
27.82148 319
27.84159 309
27.8617 302
27.88182 275
27.90193 307
27.92204 289
27.94216 316
27.96227 302
27.98239 299
28.0025 294
28.02261 281
28.04273 293
28.06284 291
28.08295 317
28.10307 289
28.12318 301
28.1433 252
28.16341 294
28.18352 276
28.20364 272
28.22375 278
28.24386 277
28.26398 293
28.28409 265
28.3042 250
28.32432 265
28.34443 263
28.36455 277
28.38466 268
28.40477 251
28.42489 275
28.445 273
28.46511 291
28.48523 274
28.50534 273
28.52546 251
28.54557 266
28.56568 280
28.5858 275
28.60591 257
28.62602 255
28.64614 256
28.66625 291
28.68636 258
28.70648 255
28.72659 265
28.74671 254
28.76682 241
28.78693 240
28.80705 252
28.82716 258
28.84727 219
28.86739 233
28.8875 239
28.90762 256
28.92773 248
28.94784 205
28.96796 251
28.98807 243
29.00818 253
29.0283 280
29.04841 244
29.06853 259
29.08864 242
29.10875 226
29.12887 247
29.14898 212
29.16909 236
29.18921 232
29.20932 255
29.22943 237
29.24955 248
29.26966 219
29.28978 242
29.30989 249
29.33 258
29.35012 225
29.37023 229
29.39034 242
29.41046 236
29.43057 233
29.45069 258
29.4708 241
29.49091 257
29.51103 242
29.53114 219
29.55125 225
29.57137 218
29.59148 226
29.6116 239
29.63171 235
29.65182 262
29.67194 222
29.69205 231
29.71216 239
29.73228 218
29.75239 237
29.7725 234
29.79262 247
29.81273 219
29.83285 234
29.85296 220
29.87307 240
29.89319 207
29.9133 223
29.93341 199
29.95353 245
29.97364 206
29.99376 242
30.01387 220
30.03398 191
30.0541 224
30.07421 200
30.09432 234
30.11444 231
30.13455 258
30.15467 230
30.17478 249
30.19489 247
30.21501 236
30.23512 250
30.25523 216
30.27535 206
30.29546 239
30.31557 216
30.33569 220
30.3558 261
30.37592 225
30.39603 220
30.41614 218
30.43626 205
30.45637 209
30.47648 201
30.4966 220
30.51671 212
30.53683 199
30.55694 204
30.57705 201
30.59717 222
30.61728 202
30.63739 209
30.65751 227
30.67762 227
30.69773 243
30.71785 223
30.73796 210
30.75808 243
30.77819 190
30.7983 213
30.81842 195
30.83853 227
30.85864 205
30.87876 201
30.89887 228
30.91899 202
30.9391 194
30.95921 183
30.97933 207
30.99944 203
31.01955 213
31.03967 216
31.05978 196
31.0799 210
31.10001 204
31.12012 211
31.14024 209
31.16035 213
31.18046 174
31.20058 227
31.22069 192
31.2408 189
31.26092 188
31.28103 201
31.30115 219
31.32126 159
31.34137 180
31.36149 210
31.3816 196
31.40171 198
31.42183 187
31.44194 187
31.46206 183
31.48217 231
31.50228 217
31.5224 193
31.54251 217
31.56262 222
31.58274 195
31.60285 208
31.62297 182
31.64308 224
31.66319 194
31.68331 191
31.70342 178
31.72353 199
31.74365 211
31.76376 200
31.78387 190
31.80399 208
31.8241 180
31.84422 187
31.86433 197
31.88444 178
31.90456 211
31.92467 183
31.94478 203
31.9649 180
31.98501 164
32.00513 196
32.02524 155
32.04535 218
32.06547 213
32.08558 192
32.10569 187
32.12581 193
32.14592 186
32.16604 202
32.18615 199
32.20626 176
32.22638 180
32.24649 167
32.2666 224
32.28672 186
32.30683 181
32.32694 175
32.34706 203
32.36717 175
32.38729 179
32.4074 215
32.42751 191
32.44763 173
32.46774 196
32.48785 186
32.50797 214
32.52808 223
32.5482 191
32.56831 203
32.58842 202
32.60854 181
32.62865 201
32.64876 168
32.66888 203
32.68899 186
32.7091 207
32.72922 168
32.74933 193
32.76945 172
32.78956 175
32.80967 189
32.82979 220
32.8499 173
32.87001 196
32.89013 192
32.91024 172
32.93036 190
32.95047 182
32.97058 209
32.9907 201
33.01081 178
33.03092 180
33.05104 180
33.07115 210
33.09127 187
33.11138 192
33.13149 193
33.15161 184
33.17172 185
33.19183 205
33.21195 174
33.23206 180
33.25217 196
33.27229 165
33.2924 196
33.31252 200
33.33263 181
33.35274 216
33.37286 162
33.39297 176
33.41308 175
33.4332 163
33.45331 185
33.47343 176
33.49354 201
33.51365 196
33.53377 188
33.55388 180
33.57399 202
33.59411 155
33.61422 181
33.63434 178
33.65445 192
33.67456 172
33.69468 195
33.71479 162
33.7349 167
33.75502 188
33.77513 190
33.79524 171
33.81536 168
33.83547 175
33.85559 176
33.8757 178
33.89581 185
33.91593 163
33.93604 175
33.95615 172
33.97627 165
33.99638 157
34.0165 176
34.03661 172
34.05672 140
34.07684 179
34.09695 155
34.11706 180
34.13718 179
34.15729 175
34.17741 189
34.19752 178
34.21763 177
34.23775 171
34.25786 179
34.27797 205
34.29809 194
34.3182 177
34.33831 177
34.35843 181
34.37854 172
34.39866 168
34.41877 159
34.43888 197
34.459 186
34.47911 186
34.49922 191
34.51934 180
34.53945 165
34.55957 183
34.57968 201
34.59979 183
34.61991 194
34.64002 188
34.66013 212
34.68025 223
34.70036 243
34.72047 199
34.74059 207
34.7607 217
34.78082 219
34.80093 216
34.82104 220
34.84116 226
34.86127 214
34.88138 216
34.9015 226
34.92161 222
34.94173 232
34.96184 259
34.98195 223
35.00207 226
35.02218 235
35.04229 196
35.06241 222
35.08252 210
35.10264 263
35.12275 230
35.14286 239
35.16298 232
35.18309 221
35.2032 236
35.22332 224
35.24343 235
35.26354 236
35.28366 242
35.30377 219
35.32389 225
35.344 234
35.36411 236
35.38423 231
35.40434 256
35.42445 226
35.44457 235
35.46468 253
35.4848 226
35.50491 273
35.52502 264
35.54514 225
35.56525 249
35.58536 274
35.60548 232
35.62559 224
35.64571 233
35.66582 225
35.68593 238
35.70605 229
35.72616 246
35.74627 225
35.76639 224
35.7865 254
35.80661 228
35.82673 235
35.84684 237
35.86696 226
35.88707 210
35.90718 252
35.9273 268
35.94741 231
35.96752 230
35.98764 226
36.00775 281
36.02787 255
36.04798 263
36.06809 278
36.08821 247
36.10832 238
36.12843 292
36.14855 311
36.16866 274
36.18878 279
36.20889 313
36.229 318
36.24912 399
36.26923 396
36.28934 425
36.30946 519
36.32957 541
36.34968 642
36.3698 840
36.38991 1032
36.41003 1273
36.43014 1591
36.45025 1854
36.47037 2242
36.49048 2376
36.51059 2465
36.53071 2262
36.55082 1942
36.57094 1534
36.59105 1412
36.61116 1179
36.63128 982
36.65139 719
36.6715 524
36.69162 388
36.71173 358
36.73184 302
36.75196 272
36.77207 276
36.79219 285
36.8123 235
36.83241 242
36.85253 240
36.87264 250
36.89275 244
36.91287 227
36.93298 207
36.9531 231
36.97321 243
36.99332 212
37.01344 199
37.03355 224
37.05366 241
37.07378 234
37.09389 210
37.11401 213
37.13412 193
37.15423 217
37.17435 199
37.19446 234
37.21457 220
37.23469 219
37.2548 237
37.27491 234
37.29503 197
37.31514 218
37.33526 199
37.35537 204
37.37548 240
37.3956 185
37.41571 230
37.43582 217
37.45594 221
37.47605 225
37.49617 248
37.51628 217
37.53639 208
37.55651 200
37.57662 209
37.59673 210
37.61685 226
37.63696 221
37.65708 195
37.67719 232
37.6973 231
37.71742 214
37.73753 226
37.75764 201
37.77776 271
37.79787 227
37.81798 222
37.8381 218
37.85821 232
37.87833 205
37.89844 198
37.91855 220
37.93867 209
37.95878 215
37.97889 217
37.99901 225
38.01912 228
38.03924 218
38.05935 228
38.07946 199
38.09958 213
38.11969 233
38.1398 212
38.15992 218
38.18003 220
38.20015 200
38.22026 193
38.24037 241
38.26049 233
38.2806 232
38.30071 220
38.32083 221
38.34094 249
38.36105 238
38.38117 243
38.40128 230
38.4214 260
38.44151 238
38.46162 200
38.48174 243
38.50185 245
38.52196 218
38.54208 245
38.56219 196
38.58231 234
38.60242 238
38.62253 246
38.64265 219
38.66276 214
38.68287 219
38.70299 227
38.7231 230
38.74321 217
38.76333 221
38.78344 213
38.80356 229
38.82367 190
38.84378 202
38.8639 223
38.88401 225
38.90412 216
38.92424 219
38.94435 197
38.96447 222
38.98458 227
39.00469 232
39.02481 241
39.04492 245
39.06503 241
39.08515 253
39.10526 294
39.12538 316
39.14549 293
39.1656 356
39.18572 382
39.20583 395
39.22594 432
39.24606 508
39.26617 648
39.28628 765
39.3064 955
39.32651 1141
39.34663 1419
39.36674 1692
39.38685 2076
39.40697 2155
39.42708 2286
39.44719 2194
39.46731 1862
39.48742 1469
39.50754 1309
39.52765 1278
39.54776 1065
39.56788 823
39.58799 635
39.6081 426
39.62822 318
39.64833 308
39.66845 293
39.68856 248
39.70867 254
39.72879 250
39.7489 243
39.76901 223
39.78913 222
39.80924 246
39.82935 241
39.84947 223
39.86958 238
39.8897 245
39.90981 230
39.92992 236
39.95004 249
39.97015 260
39.99026 288
40.01038 300
40.03049 286
40.05061 327
40.07072 362
40.09083 438
40.11095 512
40.13106 598
40.15117 747
40.17129 776
40.1914 922
40.21152 1096
40.23163 1089
40.25174 1236
40.27186 1079
40.29197 949
40.31208 847
40.3322 776
40.35231 663
40.37242 563
40.39254 484
40.41265 371
40.43277 309
40.45288 266
40.47299 251
40.49311 227
40.51322 248
40.53333 243
40.55345 235
40.57356 199
40.59368 211
40.61379 204
40.6339 203
40.65402 224
40.67413 213
40.69424 199
40.71436 184
40.73447 157
40.75458 193
40.7747 185
40.79481 206
40.81493 197
40.83504 198
40.85515 203
40.87527 192
40.89538 199
40.91549 197
40.93561 191
40.95572 181
40.97584 205
40.99595 200
41.01606 190
41.03618 214
41.05629 219
41.0764 214
41.09652 207
41.11663 209
41.13675 204
41.15686 223
41.17697 218
41.19709 197
41.2172 216
41.23731 191
41.25743 184
41.27754 187
41.29765 176
41.31777 207
41.33788 214
41.358 214
41.37811 209
41.39822 196
41.41834 174
41.43845 169
41.45856 184
41.47868 190
41.49879 187
41.51891 195
41.53902 190
41.55913 186
41.57925 179
41.59936 208
41.61947 196
41.63959 193
41.6597 199
41.67982 191
41.69993 197
41.72004 213
41.74016 183
41.76027 198
41.78038 205
41.8005 223
41.82061 198
41.84072 194
41.86084 225
41.88095 201
41.90107 189
41.92118 182
41.94129 204
41.96141 222
41.98152 219
42.00163 218
42.02175 191
42.04186 235
42.06198 230
42.08209 245
42.1022 241
42.12232 271
42.14243 275
42.16254 338
42.18266 353
42.20277 442
42.22289 458
42.243 468
42.26311 642
42.28323 707
42.30334 893
42.32345 1000
42.34357 1262
42.36368 1411
42.38379 1584
42.40391 1586
42.42402 1630
42.44414 1338
42.46425 1163
42.48436 1007
42.50448 925
42.52459 842
42.5447 750
42.56482 534
42.58493 421
42.60505 309
42.62516 271
42.64527 292
42.66539 221
42.6855 239
42.70561 207
42.72573 219
42.74584 228
42.76595 199
42.78607 220
42.80618 207
42.8263 196
42.84641 201
42.86652 177
42.88664 178
42.90675 200
42.92686 162
42.94698 171
42.96709 181
42.98721 171
43.00732 169
43.02743 197
43.04755 190
43.06766 183
43.08777 190
43.10789 173
43.128 175
43.14812 177
43.16823 194
43.18834 170
43.20846 171
43.22857 174
43.24868 190
43.2688 161
43.28891 176
43.30902 157
43.32914 184
43.34925 164
43.36937 194
43.38948 171
43.40959 185
43.42971 204
43.44982 182
43.46993 186
43.49005 183
43.51016 155
43.53028 183
43.55039 178
43.5705 187
43.59062 167
43.61073 186
43.63084 170
43.65096 195
43.67107 199
43.69119 169
43.7113 168
43.73141 160
43.75153 187
43.77164 171
43.79175 198
43.81187 177
43.83198 165
43.85209 148
43.87221 157
43.89232 180
43.91244 191
43.93255 179
43.95266 188
43.97278 189
43.99289 193
44.013 161
44.03312 186
44.05323 173
44.07335 181
44.09346 158
44.11357 148
44.13369 197
44.1538 176
44.17391 164
44.19403 169
44.21414 187
44.23426 164
44.25437 186
44.27448 171
44.2946 178
44.31471 174
44.33482 184
44.35494 194
44.37505 173
44.39516 177
44.41528 186
44.43539 189
44.45551 179
44.47562 182
44.49573 182
44.51585 155
44.53596 159
44.55607 160
44.57619 167
44.5963 186
44.61642 195
44.63653 175
44.65664 165
44.67676 178
44.69687 170
44.71698 193
44.7371 175
44.75721 167
44.77732 176
44.79744 164
44.81755 169
44.83767 170
44.85778 183
44.87789 182
44.89801 177
44.91812 182
44.93823 195
44.95835 172
44.97846 191
44.99858 190
45.01869 182
45.0388 188
45.05892 183
45.07903 174
45.09914 174
45.11926 180
45.13937 182
45.15949 170
45.1796 181
45.19971 172
45.21983 178
45.23994 198
45.26005 210
45.28017 212
45.30028 181
45.32039 173
45.34051 194
45.36062 207
45.38074 219
45.40085 224
45.42096 209
45.44108 259
45.46119 245
45.4813 254
45.50142 264
45.52153 295
45.54165 342
45.56176 320
45.58187 368
45.60199 453
45.6221 504
45.64221 625
45.66233 659
45.68244 828
45.70256 1016
45.72267 1087
45.74278 1089
45.7629 1158
45.78301 1006
45.80312 838
45.82324 749
45.84335 675
45.86346 669
45.88358 574
45.90369 502
45.92381 379
45.94392 271
45.96403 225
45.98415 210
46.00426 232
46.02437 201
46.04449 159
46.0646 204
46.08472 191
46.10483 180
46.12494 172
46.14506 185
46.16517 168
46.18528 168
46.2054 178
46.22551 161
46.24563 164
46.26574 168
46.28585 170
46.30597 162
46.32608 174
46.34619 162
46.36631 145
46.38642 172
46.40653 169
46.42665 181
46.44676 169
46.46688 176
46.48699 141
46.5071 157
46.52722 183
46.54733 180
46.56744 170
46.58756 145
46.60767 148
46.62779 167
46.6479 158
46.66801 172
46.68813 155
46.70824 176
46.72835 167
46.74847 165
46.76858 167
46.78869 154
46.80881 174
46.82892 182
46.84904 152
46.86915 171
46.88926 135
46.90938 170
46.92949 156
46.9496 173
46.96972 171
46.98983 159
47.00995 140
47.03006 155
47.05017 156
47.07029 149
47.0904 159
47.11051 174
47.13063 153
47.15074 183
47.17086 173
47.19097 168
47.21108 169
47.2312 155
47.25131 148
47.27142 155
47.29154 179
47.31165 171
47.33176 161
47.35188 161
47.37199 164
47.39211 163
47.41222 156
47.43233 176
47.45245 171
47.47256 175
47.49267 153
47.51279 145
47.5329 171
47.55302 170
47.57313 172
47.59324 174
47.61336 167
47.63347 174
47.65358 133
47.6737 170
47.69381 155
47.71393 180
47.73404 182
47.75415 155
47.77427 172
47.79438 162
47.81449 146
47.83461 162
47.85472 167
47.87483 163
47.89495 157
47.91506 162
47.93518 178
47.95529 190
47.9754 180
47.99552 175
48.01563 165
48.03574 184
48.05586 186
48.07597 188
48.09609 179
48.1162 164
48.13631 166
48.15643 163
48.17654 153
48.19665 149
48.21677 173
48.23688 163
48.257 174
48.27711 162
48.29722 167
48.31734 181
48.33745 162
48.35756 183
48.37768 184
48.39779 151
48.4179 168
48.43802 172
48.45813 167
48.47825 165
48.49836 166
48.51847 165
48.53859 177
48.5587 164
48.57881 179
48.59893 200
48.61904 151
48.63916 158
48.65927 170
48.67938 198
48.6995 166
48.71961 179
48.73972 188
48.75984 173
48.77995 194
48.80006 176
48.82018 155
48.84029 177
48.86041 168
48.88052 163
48.90063 164
48.92075 165
48.94086 185
48.96097 144
48.98109 164
49.0012 211
49.02132 164
49.04143 173
49.06154 187
49.08166 181
49.10177 197
49.12188 173
49.142 192
49.16211 177
49.18223 174
49.20234 192
49.22245 194
49.24257 176
49.26268 169
49.28279 200
49.30291 193
49.32302 183
49.34313 180
49.36325 194
49.38336 205
49.40348 188
49.42359 201
49.4437 191
49.46382 197
49.48393 200
49.50404 182
49.52416 212
49.54427 223
49.56439 195
49.5845 210
49.60461 248
49.62473 240
49.64484 230
49.66495 245
49.68507 279
49.70518 283
49.7253 322
49.74541 306
49.76552 349
49.78564 386
49.80575 437
49.82586 491
49.84598 584
49.86609 684
49.8862 649
49.90632 911
49.92643 1009
49.94655 1285
49.96666 1550
49.98677 1815
50.00689 2243
50.027 2631
50.04711 2963
50.06723 3427
50.08734 3627
50.10746 3490
50.12757 3053
50.14768 2455
50.1678 2061
50.18791 1999
50.20802 1924
50.22814 1781
50.24825 1540
50.26837 1245
50.28848 810
50.30859 597
50.32871 448
50.34882 395
50.36893 328
50.38905 304
50.40916 298
50.42927 274
50.44939 267
50.4695 254
50.48962 282
50.50973 241
50.52984 276
50.54996 289
50.57007 269
50.59018 284
50.6103 251
50.63041 268
50.65053 251
50.67064 236
50.69075 208
50.71087 190
50.73098 243
50.75109 186
50.77121 180
50.79132 200
50.81143 188
50.83155 168
50.85166 177
50.87178 180
50.89189 170
50.912 159
50.93212 177
50.95223 158
50.97234 151
50.99246 170
51.01257 177
51.03269 167
51.0528 161
51.07291 170
51.09303 144
51.11314 182
51.13325 160
51.15337 160
51.17348 152
51.1936 173
51.21371 164
51.23382 192
51.25394 161
51.27405 190
51.29416 173
51.31428 148
51.33439 154
51.3545 156
51.37462 142
51.39473 145
51.41485 163
51.43496 166
51.45507 151
51.47519 154
51.4953 145
51.51541 151
51.53553 183
51.55564 144
51.57576 145
51.59587 161
51.61598 147
51.6361 150
51.65621 176
51.67632 164
51.69644 158
51.71655 146
51.73667 146
51.75678 145
51.77689 146
51.79701 176
51.81712 163
51.83723 150
51.85735 144
51.87746 150
51.89757 159
51.91769 179
51.9378 172
51.95792 180
51.97803 162
51.99814 149
52.01826 177
52.03837 142
52.05848 179
52.0786 153
52.09871 160
52.11883 170
52.13894 190
52.15905 178
52.17917 147
52.19928 147
52.21939 155
52.23951 164
52.25962 165
52.27974 155
52.29985 151
52.31996 186
52.34008 139
52.36019 150
52.3803 148
52.40042 163
52.42053 149
52.44064 159
52.46076 161
52.48087 148
52.50099 152
52.5211 146
52.54121 141
52.56133 133
52.58144 161
52.60155 135
52.62167 139
52.64178 149
52.6619 168
52.68201 154
52.70212 164
52.72224 159
52.74235 148
52.76246 178
52.78258 154
52.80269 155
52.8228 149
52.84292 150
52.86303 157
52.88315 133
52.90326 184
52.92337 163
52.94349 154
52.9636 139
52.98371 162
53.00383 160
53.02394 160
53.04406 142
53.06417 165
53.08428 158
53.1044 152
53.12451 155
53.14462 160
53.16474 178
53.18485 142
53.20497 165
53.22508 193
53.24519 138
53.26531 167
53.28542 178
53.30553 179
53.32565 172
53.34576 195
53.36587 190
53.38599 194
53.4061 162
53.42622 174
53.44633 170
53.46644 180
53.48656 172
53.50667 180
53.52678 174
53.5469 176
53.56701 179
53.58713 161
53.60724 198
53.62735 187
53.64747 165
53.66758 182
53.68769 167
53.70781 183
53.72792 184
53.74804 172
53.76815 181
53.78826 186
53.80838 183
53.82849 192
53.8486 175
53.86872 188
53.88883 196
53.90894 206
53.92906 214
53.94917 205
53.96929 194
53.9894 211
54.00951 204
54.02963 188
54.04974 175
54.06985 200
54.08997 167
54.11008 203
54.1302 172
54.15031 210
54.17042 206
54.19054 198
54.21065 192
54.23076 215
54.25088 200
54.27099 222
54.29111 225
54.31122 223
54.33133 222
54.35145 204
54.37156 214
54.39167 209
54.41179 214
54.4319 209
54.45201 238
54.47213 230
54.49224 250
54.51236 251
54.53247 260
54.55258 320
54.5727 325
54.59281 305
54.61292 302
54.63304 365
54.65315 428
54.67327 516
54.69338 497
54.71349 648
54.73361 725
54.75372 902
54.77383 985
54.79395 1071
54.81406 1097
54.83417 1090
54.85429 926
54.8744 872
54.89452 776
54.91463 726
54.93474 724
54.95486 630
54.97497 638
54.99508 593
55.0152 489
55.03531 427
55.05543 360
55.07554 347
55.09565 340
55.11577 334
55.13588 330
55.15599 403
55.17611 389
55.19622 471
55.21634 509
55.23645 548
55.25656 616
55.27668 604
55.29679 557
55.3169 533
55.33702 444
55.35713 428
55.37724 390
55.39736 361
55.41747 382
55.43759 376
55.4577 299
55.47781 269
55.49793 244
55.51804 240
55.53815 222
55.55827 215
55.57838 194
55.5985 195
55.61861 180
55.63872 198
55.65884 194
55.67895 178
55.69906 187
55.71918 177
55.73929 175
55.75941 189
55.77952 175
55.79963 180
55.81975 181
55.83986 151
55.85997 186
55.88009 152
55.9002 150
55.92031 162
55.94043 173
55.96054 169
55.98066 154
56.00077 159
56.02088 179
56.041 146
56.06111 164
56.08122 160
56.10134 168
56.12145 160
56.14157 136
56.16168 153
56.18179 154
56.20191 147
56.22202 171
56.24213 153
56.26225 169
56.28236 158
56.30248 151
56.32259 151
56.3427 175
56.36282 136
56.38293 175
56.40304 183
56.42316 184
56.44327 172
56.46338 157
56.4835 163
56.50361 167
56.52373 140
56.54384 151
56.56395 164
56.58407 164
56.60418 159
56.62429 149
56.64441 136
56.66452 166
56.68464 174
56.70475 166
56.72486 172
56.74498 157
56.76509 135
56.7852 131
56.80532 149
56.82543 159
56.84554 169
56.86566 153
56.88577 143
56.90589 199
56.926 162
56.94611 152
56.96623 143
56.98634 194
57.00645 188
57.02657 170
57.04668 177
57.0668 177
57.08691 188
57.10702 176
57.12714 209
57.14725 206
57.16736 195
57.18748 214
57.20759 195
57.22771 199
57.24782 186
57.26793 177
57.28805 184
57.30816 168
57.32827 179
57.34839 153
57.3685 196
57.38861 189
57.40873 153
57.42884 151
57.44896 140
57.46907 154
57.48918 165
57.5093 143
57.52941 147
57.54952 145
57.56964 175
57.58975 165
57.60987 131
57.62998 144
57.65009 132
57.67021 160
57.69032 154
57.71043 148
57.73055 157
57.75066 155
57.77078 172
57.79089 158
57.811 173
57.83112 161
57.85123 168
57.87134 130
57.89146 149
57.91157 164
57.93168 172
57.9518 167
57.97191 136
57.99203 140
58.01214 174
58.03225 153
58.05237 165
58.07248 154
58.09259 170
58.11271 173
58.13282 141
58.15294 149
58.17305 170
58.19316 155
58.21328 155
58.23339 140
58.2535 144
58.27362 158
58.29373 152
58.31385 146
58.33396 178
58.35407 141
58.37419 142
58.3943 142
58.41441 189
58.43453 157
58.45464 163
58.47475 166
58.49487 156
58.51498 158
58.5351 145
58.55521 167
58.57532 155
58.59544 145
58.61555 150
58.63566 128
58.65578 144
58.67589 145
58.69601 136
58.71612 151
58.73623 152
58.75635 160
58.77646 146
58.79657 154
58.81669 138
58.8368 164
58.85691 169
58.87703 168
58.89714 195
58.91726 142
58.93737 141
58.95748 150
58.9776 151
58.99771 143
59.01782 142
59.03794 155
59.05805 159
59.07817 180
59.09828 136
59.11839 154
59.13851 170
59.15862 171
59.17873 160
59.19885 166
59.21896 168
59.23908 161
59.25919 190
59.2793 182
59.29942 220
59.31953 201
59.33964 215
59.35976 168
59.37987 182
59.39998 206
59.4201 228
59.44021 207
59.46033 233
59.48044 247
59.50055 211
59.52067 271
59.54078 248
59.56089 301
59.58101 304
59.60112 317
59.62124 366
59.64135 404
59.66146 466
59.68158 492
59.70169 590
59.7218 645
59.74192 799
59.76203 902
59.78215 1115
59.80226 1311
59.82237 1518
59.84249 1820
59.8626 2082
59.88271 2179
59.90283 2166
59.92294 2045
59.94305 1876
59.96317 1469
59.98328 1281
60.0034 1173
60.02351 1172
60.04362 1164
60.06374 1173
60.08385 1091
60.10396 890
60.12408 723
60.14419 539
60.16431 368
60.18442 332
60.20453 256
60.22465 241
60.24476 244
60.26487 219
60.28499 197
60.3051 207
60.32522 223
60.34533 185
60.36544 196
60.38556 165
60.40567 208
60.42578 174
60.4459 162
60.46601 179
60.48612 177
60.50624 188
60.52635 168
60.54647 167
60.56658 181
60.58669 168
60.60681 168
60.62692 167
60.64703 184
60.66715 174
60.68726 152
60.70738 183
60.72749 156
60.7476 167
60.76772 162
60.78783 167
60.80794 159
60.82806 172
60.84817 171
60.86828 137
60.8884 171
60.90851 179
60.92863 165
60.94874 157
60.96885 137
60.98897 151
61.00908 164
61.02919 156
61.04931 163
61.06942 157
61.08954 155
61.10965 155
61.12976 149
61.14988 124
61.16999 154
61.1901 155
61.21022 145
61.23033 151
61.25045 146
61.27056 182
61.29067 172
61.31079 149
61.3309 192
61.35101 155
61.37113 147
61.39124 156
61.41135 160
61.43147 162
61.45158 150
61.4717 159
61.49181 175
61.51192 174
61.53204 162
61.55215 157
61.57226 166
61.59238 152
61.61249 151
61.63261 157
61.65272 164
61.67283 183
61.69295 150
61.71306 161
61.73317 175
61.75329 152
61.7734 164
61.79352 178
61.81363 157
61.83374 140
61.85386 160
61.87397 178
61.89408 174
61.9142 177
61.93431 169
61.95442 173
61.97454 182
61.99465 181
62.01477 174
62.03488 212
62.05499 195
62.07511 180
62.09522 177
62.11533 182
62.13545 191
62.15556 164
62.17568 159
62.19579 202
62.2159 181
62.23602 178
62.25613 178
62.27624 175
62.29636 177
62.31647 156
62.33659 166
62.3567 158
62.37681 208
62.39693 162
62.41704 149
62.43715 179
62.45727 185
62.47738 156
62.49749 161
62.51761 185
62.53772 175
62.55784 180
62.57795 171
62.59806 157
62.61818 161
62.63829 187
62.6584 172
62.67852 179
62.69863 163
62.71875 168
62.73886 143
62.75897 166
62.77909 150
62.7992 149
62.81931 179
62.83943 149
62.85954 141
62.87965 157
62.89977 149
62.91988 180
62.94 162
62.96011 153
62.98022 145
63.00034 168
63.02045 145
63.04056 163
63.06068 120
63.08079 161
63.10091 160
63.12102 159
63.14113 142
63.16125 157
63.18136 142
63.20147 128
63.22159 149
63.2417 122
63.26182 151
63.28193 156
63.30204 145
63.32216 157
63.34227 159
63.36238 131
63.3825 149
63.40261 161
63.42272 160
63.44284 150
63.46295 151
63.48307 140
63.50318 164
63.52329 161
63.54341 168
63.56352 181
63.58363 165
63.60375 173
63.62386 169
63.64398 214
63.66409 177
63.6842 170
63.70432 191
63.72443 192
63.74454 239
63.76466 216
63.78477 236
63.80489 237
63.825 287
63.84511 324
63.86523 335
63.88534 374
63.90545 405
63.92557 456
63.94568 485
63.96579 504
63.98591 506
64.00602 480
64.02614 407
64.04625 375
64.06636 335
64.08648 340
64.10659 308
64.1267 328
64.14682 334
64.16693 331
64.18705 300
64.20716 256
64.22727 202
64.24739 207
64.2675 190
64.28761 182
64.30773 169
64.32784 167
64.34796 147
64.36807 156
64.38818 154
64.4083 165
64.42841 163
64.44852 141
64.46864 133
64.48875 137
64.50886 154
64.52898 153
64.54909 161
64.56921 162
64.58932 146
64.60943 138
64.62955 149
64.64966 154
64.66977 135
64.68989 142
64.71 132
64.73012 153
64.75023 146
64.77034 113
64.79046 139
64.81057 153
64.83068 134
64.8508 132
64.87091 142
64.89102 150
64.91114 163
64.93125 149
64.95137 154
64.97148 149
64.99159 150
65.01171 111
65.03182 150
65.05193 140
65.07205 143
65.09216 162
65.11228 152
65.13239 146
65.1525 140
65.17262 123
65.19273 143
65.21284 168
65.23296 148
65.25307 149
65.27319 141
65.2933 146
65.31341 151
65.33353 158
65.35364 155
65.37375 168
65.39387 137
65.41398 150
65.43409 160
65.45421 160
65.47432 154
65.49444 154
65.51455 196
65.53466 164
65.55478 181
65.57489 210
65.595 192
65.61512 231
65.63523 201
65.65535 204
65.67546 223
65.69557 226
65.71569 264
65.7358 244
65.75591 222
65.77603 209
65.79614 206
65.81626 209
65.83637 187
65.85648 222
65.8766 206
65.89671 212
65.91682 167
65.93694 174
65.95705 198
65.97716 164
65.99728 165
66.01739 159
66.03751 166
66.05762 159
66.07773 162
66.09785 169
66.11796 149
66.13807 157
66.15819 149
66.1783 150
66.19842 190
66.21853 143
66.23864 147
66.25876 149
66.27887 148
66.29898 163
66.3191 144
66.33921 165
66.35933 144
66.37944 167
66.39955 146
66.41967 152
66.43978 157
66.45989 162
66.48001 160
66.50012 163
66.52023 150
66.54035 142
66.56046 159
66.58058 127
66.60069 151
66.6208 155
66.64092 153
66.66103 160
66.68114 158
66.70126 158
66.72137 167
66.74149 162
66.7616 152
66.78171 149
66.80183 164
66.82194 174
66.84205 178
66.86217 172
66.88228 188
66.90239 149
66.92251 180
66.94262 192
66.96274 171
66.98285 177
67.00296 169
67.02308 168
67.04319 176
67.0633 161
67.08342 173
67.10353 177
67.12365 179
67.14376 175
67.16387 188
67.18399 175
67.2041 209
67.22421 206
67.24433 206
67.26444 218
67.28456 237
67.30467 241
67.32478 228
67.3449 247
67.36501 256
67.38512 284
67.40524 316
67.42535 352
67.44546 383
67.46558 417
67.48569 460
67.50581 504
67.52592 603
67.54603 660
67.56615 760
67.58626 907
67.60637 984
67.62649 1164
67.6466 1226
67.66672 1361
67.68683 1280
67.70694 1264
67.72706 1164
67.74717 976
67.76728 958
67.7874 903
67.80751 868
67.82763 914
67.84774 987
67.86785 1099
67.88797 1054
67.90808 1022
67.92819 1052
67.94831 1095
67.96842 1072
67.98853 1162
68.00865 1380
68.02876 1453
68.04888 1649
68.06899 1727
68.0891 1789
68.10922 1833
68.12933 1705
68.14944 1663
68.16956 1442
68.18967 1454
68.20979 1530
68.2299 1594
68.25001 1622
68.27013 1605
68.29024 1499
68.31035 1249
68.33047 1106
68.35058 884
68.3707 721
68.39081 643
68.41092 626
68.43104 597
68.45115 629
68.47126 580
68.49138 442
68.51149 382
68.5316 320
68.55172 273
68.57183 270
68.59195 263
68.61206 235
68.63217 208
68.65229 203
68.6724 192
68.69251 198
68.71263 178
68.73274 184
68.75286 171
68.77297 175
68.79308 203
68.8132 164
68.83331 147
68.85342 164
68.87354 172
68.89365 184
68.91376 194
68.93388 180
68.95399 178
68.97411 169
68.99422 182
69.01433 164
69.03445 164
69.05456 152
69.07467 169
69.09479 148
69.1149 190
69.13502 180
69.15513 146
69.17524 143
69.19536 144
69.21547 168
69.23558 158
69.2557 150
69.27581 158
69.29593 165
69.31604 144
69.33615 156
69.35627 164
69.37638 151
69.39649 170
69.41661 152
69.43672 137
69.45683 128
69.47695 153
69.49706 131
69.51718 151
69.53729 160
69.5574 142
69.57752 152
69.59763 147
69.61774 159
69.63786 142
69.65797 107
69.67809 152
69.6982 153
69.71831 139
69.73843 162
69.75854 147
69.77865 145
69.79877 120
69.81888 149
69.839 145
69.85911 136
69.87922 151
69.89934 134
69.91945 137
69.93956 154
69.95968 153
69.97979 154
69.9999 128
70.02002 151
70.04013 144
70.06025 150
70.08036 142
70.10047 143
70.12059 152
70.1407 144
70.16081 134
70.18093 131
70.20104 136
70.22116 138
70.24127 134
70.26138 141
70.2815 142
70.30161 132
70.32172 133
70.34184 133
70.36195 132
70.38207 142
70.40218 133
70.42229 152
70.44241 130
70.46252 144
70.48263 125
70.50275 152
70.52286 134
70.54297 130
70.56309 140
70.5832 145
70.60332 139
70.62343 120
70.64354 124
70.66366 145
70.68377 138
70.70388 131
70.724 131
70.74411 141
70.76423 142
70.78434 148
70.80445 163
70.82457 141
70.84468 140
70.86479 143
70.88491 153
70.90502 159
70.92513 123
70.94525 134
70.96536 131
70.98548 114
71.00559 137
71.0257 150
71.04582 138
71.06593 134
71.08604 131
71.10616 147
71.12627 147
71.14639 144
71.1665 148
71.18661 128
71.20673 132
71.22684 128
71.24695 129
71.26707 134
71.28718 143
71.3073 130
71.32741 131
71.34752 127
71.36764 135
71.38775 132
71.40786 138
71.42798 145
71.44809 115
71.4682 109
71.48832 136
71.50843 133
71.52855 148
71.54866 138
71.56877 141
71.58889 135
71.609 145
71.62911 126
71.64923 144
71.66934 132
71.68946 131
71.70957 136
71.72968 118
71.7498 125
71.76991 117
71.79002 129
71.81014 156
71.83025 140
71.85037 128
71.87048 136
71.89059 153
71.91071 118
71.93082 152
71.95093 128
71.97105 136
71.99116 116
72.01127 145
72.03139 121
72.0515 121
72.07162 138
72.09173 148
72.11184 137
72.13196 155
72.15207 137
72.17218 134
72.1923 131
72.21241 141
72.23253 124
72.25264 135
72.27275 125
72.29287 134
72.31298 120
72.33309 134
72.35321 138
72.37332 131
72.39344 135
72.41355 122
72.43366 125
72.45378 130
72.47389 142
72.494 139
72.51412 144
72.53423 132
72.55434 135
72.57446 128
72.59457 142
72.61469 121
72.6348 133
72.65491 115
72.67503 131
72.69514 134
72.71525 130
72.73537 154
72.75548 155
72.7756 124
72.79571 156
72.81582 142
72.83594 146
72.85605 141
72.87616 154
72.89628 144
72.91639 156
72.9365 170
72.95662 155
72.97673 146
72.99685 166
73.01696 159
73.03707 174
73.05719 164
73.0773 189
73.09741 180
73.11753 166
73.13764 182
73.15776 188
73.17787 209
73.19798 213
73.2181 260
73.23821 271
73.25832 280
73.27844 300
73.29855 369
73.31867 378
73.33878 444
73.35889 459
73.37901 481
73.39912 502
73.41923 512
73.43935 491
73.45946 450
73.47957 389
73.49969 362
73.5198 318
73.53992 336
73.56003 325
73.58014 329
73.60026 337
73.62037 359
73.64048 296
73.6606 294
73.68071 282
73.70083 216
73.72094 198
73.74105 167
73.76117 169
73.78128 164
73.80139 154
73.82151 153
73.84162 147
73.86174 146
73.88185 154
73.90196 144
73.92208 151
73.94219 131
73.9623 146
73.98242 153
74.00253 135
74.02264 130
74.04276 130
74.06287 141
74.08299 126
74.1031 132
74.12321 140
74.14333 128
74.16344 138
74.18355 138
74.20367 161
74.22378 144
74.2439 124
74.26401 140
74.28412 134
74.30424 148
74.32435 131
74.34446 121
74.36458 141
74.38469 135
74.40481 138
74.42492 144
74.44503 130
74.46515 143
74.48526 152
74.50537 138
74.52549 139
74.5456 114
74.56571 137
74.58583 140
74.60594 148
74.62606 120
74.64617 136
74.66628 137
74.6864 130
74.70651 150
74.72662 138
74.74674 145
74.76685 154
74.78697 127
74.80708 139
74.82719 135
74.84731 144
74.86742 150
74.88753 139
74.90765 151
74.92776 139
74.94787 142
74.96799 135
74.9881 143
75.00822 144
