3.00117 19712
3.02128 19584
3.0414 18887
3.06151 18498
3.08162 17628
3.10174 17506
3.12185 16925
3.14197 16100
3.16208 15970
3.18219 15614
3.20231 15178
3.22242 14972
3.24253 14105
3.26265 13369
3.28276 13215
3.30288 12833
3.32299 12694
3.3431 11757
3.36322 11827
3.38333 11261
3.40344 10860
3.42356 10792
3.44367 10088
3.46379 10042
3.4839 9452
3.50401 9148
3.52413 8739
3.54424 8311
3.56435 8329
3.58447 7795
3.60458 7660
3.62469 7496
3.64481 6863
3.66492 6736
3.68504 6765
3.70515 6251
3.72526 6138
3.74538 5671
3.76549 5538
3.7856 5400
3.80572 5106
3.82583 5046
3.84595 4699
3.86606 4392
3.88617 4336
3.90629 4050
3.9264 3913
3.94651 3666
3.96663 3555
3.98674 3552
4.00686 3169
4.02697 3329
4.04708 2881
4.0672 2792
4.08731 2771
4.10742 2543
4.12754 2516
4.14765 2386
4.16776 2275
4.18788 2234
4.20799 2230
4.22811 2092
4.24822 1958
4.26833 1917
4.28845 1955
4.30856 1799
4.32867 1870
4.34879 1610
4.3689 1576
4.38902 1542
4.40913 1551
4.42924 1607
4.44936 1449
4.46947 1443
4.48958 1368
4.5097 1369
4.52981 1329
4.54992 1287
4.57004 1288
4.59015 1252
4.61027 1248
4.63038 1188
4.65049 1086
4.67061 1089
4.69072 1029
4.71083 1078
4.73095 1016
4.75106 987
4.77118 964
4.79129 988
4.8114 917
4.83152 840
4.85163 880
4.87174 876
4.89186 849
4.91197 873
4.93209 799
4.9522 745
4.97231 786
4.99243 796
5.01254 721
5.03265 736
5.05277 748
5.07288 677
5.09299 645
5.11311 728
5.13322 616
5.15334 653
5.17345 608
5.19356 660
5.21368 619
5.23379 563
5.2539 553
5.27402 520
5.29413 538
5.31425 527
5.33436 475
5.35447 525
5.37459 487
5.3947 477
5.41481 480
5.43493 473
5.45504 472
5.47516 458
5.49527 457
5.51538 414
5.5355 431
5.55561 427
5.57572 402
5.59584 369
5.61595 429
5.63606 425
5.65618 370
5.67629 395
5.69641 333
5.71652 375
5.73663 326
5.75675 334
5.77686 346
5.79697 334
5.81709 333
5.8372 299
5.85732 332
5.87743 305
5.89754 328
5.91766 282
5.93777 308
5.95788 313
5.978 332
5.99811 323
6.01823 314
6.03834 305
6.05845 332
6.07857 312
6.09868 344
6.11879 285
6.13891 313
6.15902 312
6.17913 294
6.19925 286
6.21936 267
6.23948 303
6.25959 260
6.2797 269
6.29982 274
6.31993 261
6.34004 273
6.36016 271
6.38027 259
6.40039 296
6.4205 241
6.44061 297
6.46073 268
6.48084 247
6.50095 244
6.52107 262
6.54118 267
6.56129 229
6.58141 260
6.60152 242
6.62164 238
6.64175 244
6.66186 254
6.68198 247
6.70209 238
6.7222 244
6.74232 241
6.76243 218
6.78255 232
6.80266 233
6.82277 239
6.84289 238
6.863 240
6.88311 224
6.90323 232
6.92334 234
6.94346 238
6.96357 261
6.98368 243
7.0038 201
7.02391 221
7.04402 229
7.06414 225
7.08425 241
7.10436 233
7.12448 265
7.14459 218
7.16471 248
7.18482 242
7.20493 214
7.22505 236
7.24516 226
7.26527 240
7.28539 240
7.3055 243
7.32562 263
7.34573 232
7.36584 239
7.38596 250
7.40607 239
7.42618 247
7.4463 235
7.46641 219
7.48653 214
7.50664 254
7.52675 241
7.54687 249
7.56698 269
7.58709 244
7.60721 258
7.62732 250
7.64743 245
7.66755 238
7.68766 263
7.70778 211
7.72789 208
7.748 223
7.76812 227
7.78823 221
7.80834 254
7.82846 270
7.84857 274
7.86869 230
7.8888 220
7.90891 253
7.92903 253
7.94914 249
7.96925 289
7.98937 249
8.00948 226
8.0296 269
8.04971 237
8.06982 215
8.08994 245
8.11005 246
8.13016 242
8.15028 244
8.17039 224
8.1905 238
8.21062 238
8.23073 260
8.25085 262
8.27096 247
8.29107 251
8.31119 259
8.3313 242
8.35141 242
8.37153 241
8.39164 254
8.41176 218
8.43187 232
8.45198 280
8.4721 239
8.49221 249
8.51232 252
8.53244 264
8.55255 252
8.57266 241
8.59278 221
8.61289 224
8.63301 260
8.65312 250
8.67323 259
8.69335 266
8.71346 242
8.73357 277
8.75369 294
8.7738 271
8.79392 286
8.81403 247
8.83414 272
8.85426 248
8.87437 224
8.89448 259
8.9146 258
8.93471 283
8.95483 254
8.97494 278
8.99505 270
9.01517 249
9.03528 251
9.05539 279
9.07551 284
9.09562 263
9.11573 249
9.13585 269
9.15596 261
9.17608 267
9.19619 257
9.2163 283
9.23642 234
9.25653 258
9.27664 250
9.29676 273
9.31687 249
9.33699 219
9.3571 273
9.37721 259
9.39733 268
9.41744 278
9.43755 266
9.45767 249
9.47778 254
9.4979 239
9.51801 229
9.53812 260
9.55824 257
9.57835 287
9.59846 253
9.61858 235
9.63869 239
9.6588 277
9.67892 263
9.69903 233
9.71915 274
9.73926 248
9.75937 295
9.77949 266
9.7996 271
9.81971 276
9.83983 257
9.85994 259
9.88006 242
9.90017 225
9.92028 265
9.9404 235
9.96051 255
9.98062 268
10.00074 233
10.02085 262
10.04097 245
10.06108 257
10.08119 273
10.10131 240
10.12142 225
10.14153 270
10.16165 245
10.18176 229
10.20187 252
10.22199 247
10.2421 299
10.26222 244
10.28233 225
10.30244 262
10.32256 233
10.34267 239
10.36278 282
10.3829 249
10.40301 248
10.42313 298
10.44324 267
10.46335 226
10.48347 253
10.50358 245
10.52369 274
10.54381 275
10.56392 246
10.58403 247
10.60415 264
10.62426 262
10.64438 265
10.66449 272
10.6846 279
10.70472 275
10.72483 244
10.74494 262
10.76506 212
10.78517 273
10.80529 283
10.8254 259
10.84551 270
10.86563 294
10.88574 276
10.90585 299
10.92597 276
10.94608 288
10.9662 277
10.98631 259
11.00642 256
11.02654 275
11.04665 270
11.06676 260
11.08688 268
11.10699 276
11.1271 254
11.14722 268
11.16733 247
11.18745 280
11.20756 251
11.22767 277
11.24779 245
11.2679 287
11.28801 265
11.30813 289
11.32824 239
11.34836 275
11.36847 255
11.38858 273
11.4087 278
11.42881 261
11.44892 259
11.46904 304
11.48915 262
11.50927 263
11.52938 290
11.54949 285
11.56961 283
11.58972 274
11.60983 261
11.62995 261
11.65006 264
11.67017 313
11.69029 301
11.7104 315
11.73052 265
11.75063 270
11.77074 277
11.79086 286
11.81097 257
11.83108 318
11.8512 312
11.87131 308
11.89143 324
11.91154 367
11.93165 279
11.95177 351
11.97188 359
11.99199 337
12.01211 337
12.03222 315
12.05234 363
12.07245 372
12.09256 350
12.11268 401
12.13279 376
12.1529 352
12.17302 419
12.19313 392
12.21324 441
12.23336 421
12.25347 456
12.27359 432
12.2937 426
12.31381 411
12.33393 377
12.35404 420
12.37415 390
12.39427 391
12.41438 382
12.4345 354
12.45461 380
12.47472 381
12.49484 336
12.51495 362
12.53506 315
12.55518 335
12.57529 324
12.5954 289
12.61552 280
12.63563 305
12.65575 316
12.67586 327
12.69597 284
12.71609 266
12.7362 279
12.75631 252
12.77643 286
12.79654 278
12.81666 282
12.83677 248
12.85688 259
12.877 233
12.89711 241
12.91722 252
12.93734 265
12.95745 246
12.97757 262
12.99768 264
13.01779 227
13.03791 255
13.05802 245
13.07813 257
13.09825 239
13.11836 237
13.13847 245
13.15859 238
13.1787 249
13.19882 253
13.21893 247
13.23904 245
13.25916 250
13.27927 247
13.29938 250
13.3195 222
13.33961 260
13.35973 231
13.37984 226
13.39995 236
13.42007 253
13.44018 250
13.46029 227
13.48041 237
13.50052 239
13.52064 228
13.54075 244
13.56086 234
13.58098 267
13.60109 235
13.6212 226
13.64132 247
13.66143 248
13.68154 230
13.70166 207
13.72177 237
13.74189 231
13.762 235
13.78211 213
13.80223 230
13.82234 232
13.84245 217
13.86257 229
13.88268 216
13.9028 231
13.92291 202
13.94302 208
13.96314 229
13.98325 228
14.00336 210
14.02348 232
14.04359 215
14.06371 234
14.08382 224
14.10393 227
14.12405 231
14.14416 214
14.16427 234
14.18439 213
14.2045 210
14.22461 219
14.24473 192
14.26484 248
14.28496 226
14.30507 230
14.32518 225
14.3453 184
14.36541 239
14.38552 212
14.40564 237
14.42575 243
14.44587 188
14.46598 223
14.48609 204
14.50621 213
14.52632 192
14.54643 212
14.56655 206
14.58666 221
14.60677 237
14.62689 216
14.647 226
14.66712 222
14.68723 215
14.70734 229
14.72746 220
14.74757 218
14.76768 248
14.7878 204
14.80791 209
14.82803 185
14.84814 229
14.86825 216
14.88837 213
14.90848 208
14.92859 237
14.94871 199
14.96882 188
14.98894 223
15.00905 216
15.02916 218
15.04928 211
15.06939 203
15.0895 226
15.10962 190
15.12973 178
15.14984 225
15.16996 228
15.19007 194
15.21019 206
15.2303 217
15.25041 182
15.27053 211
15.29064 204
15.31075 223
15.33087 209
15.35098 207
15.3711 220
15.39121 191
15.41132 222
15.43144 201
15.45155 209
15.47166 223
15.49178 192
15.51189 199
15.53201 217
15.55212 203
15.57223 205
15.59235 184
15.61246 193
15.63257 228
15.65269 201
15.6728 233
15.69291 190
15.71303 204
15.73314 234
15.75326 214
15.77337 203
15.79348 192
15.8136 198
15.83371 215
15.85382 223
15.87394 211
15.89405 206
15.91417 203
15.93428 206
15.95439 213
15.97451 186
15.99462 216
16.01473 204
16.03485 219
16.05496 220
16.07508 234
16.09519 251
16.1153 227
16.13542 174
16.15553 192
16.17564 192
16.19576 205
16.21587 224
16.23598 226
16.2561 178
16.27621 222
16.29633 199
16.31644 203
16.33655 220
16.35667 208
16.37678 207
16.39689 201
16.41701 190
16.43712 225
16.45724 208
16.47735 197
16.49746 213
16.51758 203
16.53769 229
16.5578 228
16.57792 213
16.59803 210
16.61814 213
16.63826 192
16.65837 208
16.67849 179
16.6986 173
16.71871 214
16.73883 224
16.75894 196
16.77905 191
16.79917 173
16.81928 195
16.8394 210
16.85951 202
16.87962 214
16.89974 194
16.91985 203
16.93996 203
16.96008 201
16.98019 201
17.00031 208
17.02042 191
17.04053 217
17.06065 174
17.08076 212
17.10087 193
17.12099 181
17.1411 216
17.16121 194
17.18133 219
17.20144 211
17.22156 199
17.24167 209
17.26178 220
17.2819 221
17.30201 190
17.32212 214
17.34224 208
17.36235 199
17.38247 180
17.40258 195
17.42269 191
17.44281 199
17.46292 202
17.48303 209
17.50315 167
17.52326 222
17.54338 209
17.56349 193
17.5836 226
17.60372 182
17.62383 223
17.64394 204
17.66406 220
17.68417 212
17.70428 221
17.7244 188
17.74451 191
17.76463 229
17.78474 205
17.80485 202
17.82497 170
17.84508 194
17.86519 187
17.88531 214
17.90542 225
17.92554 177
17.94565 218
17.96576 211
17.98588 189
18.00599 184
18.0261 198
18.04622 180
18.06633 205
18.08645 200
18.10656 205
18.12667 214
18.14679 216
18.1669 196
18.18701 211
18.20713 219
18.22724 206
18.24735 208
18.26747 199
18.28758 194
18.3077 207
18.32781 213
18.34792 212
18.36804 205
18.38815 189
18.40826 223
18.42838 176
18.44849 194
18.46861 226
18.48872 207
18.50883 214
18.52895 212
18.54906 235
18.56917 191
18.58929 209
18.6094 234
18.62951 197
18.64963 221
18.66974 214
18.68986 202
18.70997 192
18.73008 199
18.7502 230
18.77031 221
18.79042 236
18.81054 216
18.83065 201
18.85077 211
18.87088 228
18.89099 215
18.91111 237
18.93122 197
18.95133 197
18.97145 185
18.99156 174
19.01168 221
19.03179 193
19.0519 228
19.07202 219
19.09213 168
19.11224 219
19.13236 213
19.15247 217
19.17258 208
19.1927 203
19.21281 181
19.23293 176
19.25304 218
19.27315 210
19.29327 182
19.31338 222
19.33349 209
19.35361 204
19.37372 198
19.39384 224
19.41395 214
19.43406 188
19.45418 202
19.47429 204
19.4944 215
19.51452 223
19.53463 208
19.55475 246
19.57486 217
19.59497 218
19.61509 263
19.6352 239
19.65531 256
19.67543 222
19.69554 264
19.71565 260
19.73577 289
19.75588 345
19.776 328
19.79611 328
19.81622 379
19.83634 386
19.85645 393
19.87656 409
19.89668 378
19.91679 405
19.93691 389
19.95702 340
19.97713 346
19.99725 381
20.01736 363
20.03747 345
20.05759 379
20.0777 358
20.09782 358
20.11793 397
20.13804 368
20.15816 397
20.17827 430
20.19838 425
20.2185 418
20.23861 432
20.25872 391
20.27884 399
20.29895 386
20.31907 411
20.33918 408
20.35929 437
20.37941 443
20.39952 469
20.41963 461
20.43975 506
20.45986 487
20.47998 480
20.50009 527
20.5202 488
20.54032 504
20.56043 495
20.58054 544
20.60066 667
20.62077 668
20.64088 792
20.661 1002
20.68111 1333
20.70123 1769
20.72134 2372
20.74145 3399
20.76157 4524
20.78168 5532
20.80179 6532
20.82191 7050
20.84202 7090
20.86214 6376
20.88225 5109
20.90236 3671
20.92248 2529
20.94259 1434
20.9627 975
20.98282 702
21.00293 634
21.02305 598
21.04316 545
21.06327 484
21.08339 508
21.1035 509
21.12361 444
21.14373 465
21.16384 420
21.18395 449
21.20407 427
21.22418 397
21.2443 409
21.26441 417
21.28452 386
21.30464 351
21.32475 361
21.34486 361
21.36498 366
21.38509 372
21.40521 338
21.42532 357
21.44543 345
21.46555 370
21.48566 375
21.50577 383
21.52589 372
21.546 306
21.56612 296
21.58623 348
21.60634 322
21.62646 339
21.64657 365
21.66668 334
21.6868 330
21.70691 327
21.72702 310
21.74714 312
21.76725 332
21.78737 332
21.80748 313
21.82759 334
21.84771 301
21.86782 301
21.88793 298
21.90805 311
21.92816 294
21.94828 286
21.96839 299
21.9885 279
22.00862 274
22.02873 295
22.04884 282
22.06896 343
22.08907 307
22.10919 313
22.1293 289
22.14941 252
22.16953 311
22.18964 289
22.20975 281
22.22987 278
22.24998 301
22.27009 282
22.29021 276
22.31032 272
22.33044 280
22.35055 271
22.37066 283
22.39078 250
22.41089 257
22.431 238
22.45112 267
22.47123 295
22.49135 274
22.51146 276
22.53157 301
22.55169 239
22.5718 255
22.59191 265
22.61203 247
22.63214 272
22.65225 264
22.67237 272
22.69248 271
22.7126 278
22.73271 265
22.75282 257
22.77294 213
22.79305 280
22.81316 279
22.83328 245
22.85339 280
22.87351 259
22.89362 279
22.91373 231
22.93385 256
22.95396 226
22.97407 290
22.99419 268
23.0143 259
23.03442 250
23.05453 253
23.07464 250
23.09476 255
23.11487 267
23.13498 260
23.1551 251
23.17521 243
23.19532 261
23.21544 246
23.23555 245
23.25567 249
23.27578 249
23.29589 265
23.31601 263
23.33612 258
23.35623 254
23.37635 249
23.39646 207
23.41658 260
23.43669 235
23.4568 253
23.47692 257
23.49703 239
23.51714 257
23.53726 282
23.55737 246
23.57749 239
23.5976 246
23.61771 267
23.63783 271
23.65794 253
23.67805 266
23.69817 240
23.71828 285
23.73839 233
23.75851 279
23.77862 287
23.79874 264
23.81885 299
23.83896 290
23.85908 281
23.87919 330
23.8993 329
23.91942 291
23.93953 349
23.95965 328
23.97976 393
23.99987 353
24.01999 320
24.0401 336
24.06021 287
24.08033 297
24.10044 276
24.12056 295
24.14067 304
24.16078 264
24.1809 280
24.20101 306
24.22112 279
24.24124 326
24.26135 253
24.28146 296
24.30158 248
24.32169 265
24.34181 267
24.36192 295
24.38203 261
24.40215 270
24.42226 278
24.44237 299
24.46249 311
24.4826 306
24.50272 300
24.52283 278
24.54294 303
24.56306 301
24.58317 326
24.60328 327
24.6234 332
24.64351 310
24.66362 323
24.68374 345
24.70385 337
24.72397 373
24.74408 353
24.76419 354
24.78431 363
24.80442 406
24.82453 386
24.84465 412
24.86476 364
24.88488 349
24.90499 393
24.9251 334
24.94522 369
24.96533 388
24.98544 343
25.00556 308
25.02567 347
25.04579 369
25.0659 353
25.08601 317
25.10613 375
25.12624 383
25.14635 296
25.16647 355
25.18658 308
25.20669 336
25.22681 343
25.24692 353
25.26704 322
25.28715 322
25.30726 301
25.32738 317
25.34749 329
25.3676 318
25.38772 298
25.40783 320
25.42795 291
25.44806 291
25.46817 285
25.48829 326
25.5084 292
25.52851 297
25.54863 302
25.56874 348
25.58886 325
25.60897 340
25.62908 353
25.6492 380
25.66931 390
25.68942 442
25.70954 426
25.72965 414
25.74976 469
25.76988 461
25.78999 438
25.81011 460
25.83022 458
25.85033 435
25.87045 486
25.89056 529
25.91067 493
25.93079 466
25.9509 487
25.97102 545
25.99113 506
26.01124 501
26.03136 567
26.05147 583
26.07158 596
26.0917 695
26.11181 687
26.13193 688
26.15204 778
26.17215 799
26.19227 875
26.21238 883
26.23249 1025
26.25261 1009
26.27272 1081
26.29283 1203
26.31295 1358
26.33306 1467
26.35318 1644
26.37329 2000
26.3934 2429
26.41352 3057
26.43363 4092
26.45374 5585
26.47386 7723
26.49397 10880
26.51409 14892
26.5342 20019
26.55431 25184
26.57443 29993
26.59454 31972
26.61465 31909
26.63477 28956
26.65488 23333
26.67499 17678
26.69511 12828
26.71522 8600
26.73534 5220
26.75545 3211
26.77556 2108
26.79568 1770
26.81579 1462
26.8359 1390
26.85602 1214
26.87613 1150
26.89625 1060
26.91636 942
26.93647 810
26.95659 752
26.9767 789
26.99681 637
27.01693 601
27.03704 560
27.05716 569
27.07727 536
27.09738 460
27.1175 494
27.13761 490
27.15772 484
27.17784 426
27.19795 437
27.21806 437
27.23818 422
27.25829 460
27.27841 426
27.29852 395
27.31863 379
27.33875 413
27.35886 407
27.37897 389
27.39909 423
27.4192 418
27.43932 357
27.45943 384
27.47954 365
27.49966 345
27.51977 348
27.53988 371
27.56 375
27.58011 344
27.60023 344
27.62034 348
27.64045 335
27.66057 342
27.68068 344
27.70079 318
27.72091 332
27.74102 332
27.76113 299
27.78125 314
27.80136 300
27.82148 302
27.84159 321
27.8617 278
27.88182 305
27.90193 303
27.92204 280
27.94216 291
27.96227 299
27.98239 316
28.0025 285
28.02261 290
28.04273 280
28.06284 298
28.08295 284
28.10307 284
28.12318 325
28.1433 280
28.16341 294
28.18352 277
28.20364 272
28.22375 292
28.24386 306
28.26398 286
28.28409 262
28.3042 305
28.32432 258
28.34443 300
28.36455 268
28.38466 230
28.40477 248
28.42489 251
28.445 279
28.46511 283
28.48523 287
28.50534 263
28.52546 259
28.54557 272
28.56568 277
28.5858 264
28.60591 262
28.62602 272
28.64614 290
28.66625 279
28.68636 277
28.70648 258
28.72659 266
28.74671 288
28.76682 279
28.78693 275
28.80705 224
28.82716 254
28.84727 238
28.86739 243
28.8875 283
28.90762 278
28.92773 252
28.94784 263
28.96796 287
28.98807 225
29.00818 287
29.0283 264
29.04841 252
29.06853 260
29.08864 275
29.10875 267
29.12887 269
29.14898 264
29.16909 231
29.18921 240
29.20932 256
29.22943 258
29.24955 283
29.26966 245
29.28978 262
29.30989 228
29.33 235
29.35012 255
29.37023 251
29.39034 239
29.41046 262
29.43057 277
29.45069 245
29.4708 254
29.49091 245
29.51103 281
29.53114 240
29.55125 237
29.57137 255
29.59148 248
29.6116 246
29.63171 250
29.65182 236
29.67194 263
29.69205 240
29.71216 244
29.73228 236
29.75239 233
29.7725 231
29.79262 234
29.81273 242
29.83285 259
29.85296 245
29.87307 242
29.89319 233
29.9133 252
29.93341 242
29.95353 233
29.97364 234
29.99376 245
30.01387 223
30.03398 212
30.0541 218
30.07421 241
30.09432 225
30.11444 267
30.13455 218
30.15467 234
30.17478 227
30.19489 258
30.21501 249
30.23512 217
30.25523 235
30.27535 210
30.29546 207
30.31557 213
30.33569 224
30.3558 239
30.37592 221
30.39603 238
30.41614 245
30.43626 255
30.45637 226
30.47648 257
30.4966 224
30.51671 249
30.53683 221
30.55694 242
30.57705 222
30.59717 224
30.61728 206
30.63739 212
30.65751 209
30.67762 242
30.69773 214
30.71785 241
30.73796 252
30.75808 247
30.77819 232
30.7983 223
30.81842 207
30.83853 226
30.85864 238
30.87876 195
30.89887 212
30.91899 199
30.9391 212
30.95921 230
30.97933 202
30.99944 217
31.01955 227
31.03967 216
31.05978 220
31.0799 211
31.10001 240
31.12012 218
31.14024 234
31.16035 219
31.18046 223
31.20058 205
31.22069 226
31.2408 232
31.26092 253
31.28103 200
31.30115 240
31.32126 224
31.34137 207
31.36149 243
31.3816 216
31.40171 218
31.42183 219
31.44194 225
31.46206 214
31.48217 237
31.50228 218
31.5224 186
31.54251 216
31.56262 230
31.58274 191
31.60285 251
31.62297 198
31.64308 215
31.66319 213
31.68331 193
31.70342 222
31.72353 198
31.74365 225
31.76376 196
31.78387 204
31.80399 218
31.8241 219
31.84422 219
31.86433 222
31.88444 189
31.90456 220
31.92467 195
31.94478 207
31.9649 228
31.98501 238
32.00513 220
32.02524 219
32.04535 224
32.06547 207
32.08558 204
32.10569 246
32.12581 224
32.14592 193
32.16604 252
32.18615 201
32.20626 195
32.22638 213
32.24649 199
32.2666 193
32.28672 193
32.30683 204
32.32694 218
32.34706 238
32.36717 191
32.38729 212
32.4074 241
32.42751 229
32.44763 231
32.46774 217
32.48785 223
32.50797 215
32.52808 225
32.5482 227
32.56831 213
32.58842 234
32.60854 230
32.62865 246
32.64876 249
32.66888 205
32.68899 208
32.7091 220
32.72922 228
32.74933 240
32.76945 228
32.78956 232
32.80967 209
32.82979 237
32.8499 229
32.87001 269
32.89013 266
32.91024 256
32.93036 288
32.95047 281
32.97058 280
32.9907 244
33.01081 271
33.03092 292
33.05104 302
33.07115 304
33.09127 322
33.11138 285
33.13149 285
33.15161 253
33.17172 276
33.19183 277
33.21195 296
33.23206 260
33.25217 270
33.27229 254
33.2924 259
33.31252 246
33.33263 239
33.35274 259
33.37286 245
33.39297 243
33.41308 224
33.4332 228
33.45331 244
33.47343 242
33.49354 236
33.51365 233
33.53377 223
33.55388 205
33.57399 217
33.59411 218
33.61422 203
33.63434 221
33.65445 245
33.67456 201
33.69468 206
33.71479 186
33.7349 212
33.75502 195
33.77513 174
33.79524 192
33.81536 219
33.83547 216
33.85559 191
33.8757 210
33.89581 230
33.91593 186
33.93604 192
33.95615 191
33.97627 190
33.99638 203
34.0165 212
34.03661 192
34.05672 204
34.07684 176
34.09695 204
34.11706 194
34.13718 185
34.15729 173
34.17741 184
34.19752 186
34.21763 194
34.23775 201
34.25786 185
34.27797 216
34.29809 212
34.3182 202
34.33831 174
34.35843 198
34.37854 166
34.39866 209
34.41877 189
34.43888 182
34.459 182
34.47911 199
34.49922 209
34.51934 199
34.53945 209
34.55957 233
34.57968 230
34.59979 181
34.61991 235
34.64002 218
34.66013 211
34.68025 202
34.70036 224
34.72047 224
34.74059 257
34.7607 233
34.78082 266
34.80093 267
34.82104 254
34.84116 278
34.86127 253
34.88138 256
34.9015 287
34.92161 257
34.94173 265
34.96184 279
34.98195 271
35.00207 289
35.02218 254
35.04229 234
35.06241 277
35.08252 268
35.10264 275
35.12275 274
35.14286 290
35.16298 232
35.18309 273
35.2032 249
35.22332 293
35.24343 272
35.26354 277
35.28366 275
35.30377 264
35.32389 255
35.344 288
35.36411 303
35.38423 290
35.40434 309
35.42445 262
35.44457 295
35.46468 341
35.4848 363
35.50491 380
35.52502 390
35.54514 370
35.56525 392
35.58536 351
35.60548 354
35.62559 383
35.64571 396
35.66582 372
35.68593 330
35.70605 363
35.72616 351
35.74627 332
35.76639 350
35.7865 324
35.80661 339
35.82673 332
35.84684 287
35.86696 309
35.88707 313
35.90718 283
35.9273 322
35.94741 281
35.96752 291
35.98764 287
36.00775 292
36.02787 290
36.04798 290
36.06809 295
36.08821 288
36.10832 268
36.12843 289
36.14855 297
36.16866 330
36.18878 273
36.20889 308
36.229 348
36.24912 369
36.26923 374
36.28934 432
36.30946 510
36.32957 558
36.34968 738
36.3698 840
36.38991 1056
36.41003 1271
36.43014 1523
36.45025 1855
36.47037 2119
36.49048 2163
36.51059 2236
36.53071 1999
36.55082 1801
36.57094 1501
36.59105 1276
36.61116 1080
36.63128 842
36.65139 658
36.6715 503
36.69162 368
36.71173 364
36.73184 348
36.75196 306
36.77207 305
36.79219 269
36.8123 292
36.83241 309
36.85253 274
36.87264 257
36.89275 269
36.91287 265
36.93298 218
36.9531 220
36.97321 243
36.99332 246
37.01344 223
37.03355 229
37.05366 229
37.07378 235
37.09389 232
37.11401 245
37.13412 246
37.15423 235
37.17435 225
37.19446 217
37.21457 235
37.23469 241
37.2548 221
37.27491 204
37.29503 234
37.31514 245
37.33526 257
37.35537 224
37.37548 212
37.3956 219
37.41571 210
37.43582 226
37.45594 250
37.47605 260
37.49617 232
37.51628 238
37.53639 260
37.55651 230
37.57662 261
37.59673 253
37.61685 226
37.63696 221
37.65708 218
37.67719 226
37.6973 237
37.71742 222
37.73753 268
37.75764 258
37.77776 220
37.79787 212
37.81798 225
37.8381 256
37.85821 225
37.87833 240
37.89844 259
37.91855 242
37.93867 272
37.95878 232
37.97889 212
37.99901 237
38.01912 251
38.03924 221
38.05935 243
38.07946 248
38.09958 279
38.11969 261
38.1398 260
38.15992 274
38.18003 255
38.20015 260
38.22026 278
38.24037 299
38.26049 280
38.2806 252
38.30071 277
38.32083 302
38.34094 290
38.36105 296
38.38117 313
38.40128 307
38.4214 266
38.44151 318
38.46162 264
38.48174 273
38.50185 311
38.52196 266
38.54208 280
38.56219 268
38.58231 292
38.60242 304
38.62253 280
38.64265 291
38.66276 234
38.68287 243
38.70299 258
38.7231 262
38.74321 234
38.76333 278
38.78344 278
38.80356 283
38.82367 285
38.84378 281
38.8639 246
38.88401 289
38.90412 270
38.92424 235
38.94435 309
38.96447 291
38.98458 303
39.00469 313
39.02481 325
39.04492 277
39.06503 302
39.08515 323
39.10526 334
39.12538 332
39.14549 347
39.1656 351
39.18572 417
39.20583 437
39.22594 462
39.24606 566
39.26617 664
39.28628 775
39.3064 950
39.32651 1210
39.34663 1453
39.36674 1660
39.38685 1982
39.40697 2175
39.42708 2138
39.44719 2120
39.46731 1745
39.48742 1556
39.50754 1260
39.52765 1185
39.54776 983
39.56788 757
39.58799 522
39.6081 451
39.62822 343
39.64833 334
39.66845 302
39.68856 289
39.70867 279
39.72879 265
39.7489 265
39.76901 250
39.78913 276
39.80924 270
39.82935 263
39.84947 251
39.86958 275
39.8897 234
39.90981 269
39.92992 263
39.95004 225
39.97015 268
39.99026 271
40.01038 302
40.03049 300
40.05061 330
40.07072 386
40.09083 443
40.11095 525
40.13106 593
40.15117 709
40.17129 828
40.1914 930
40.21152 1055
40.23163 1136
40.25174 1169
40.27186 1129
40.29197 990
40.31208 836
40.3322 724
40.35231 668
40.37242 546
40.39254 522
40.41265 408
40.43277 351
40.45288 278
40.47299 285
40.49311 271
40.51322 264
40.53333 279
40.55345 260
40.57356 211
40.59368 226
40.61379 240
40.6339 238
40.65402 231
40.67413 252
40.69424 247
40.71436 232
40.73447 223
40.75458 280
40.7747 236
40.79481 237
40.81493 242
40.83504 233
40.85515 268
40.87527 256
40.89538 235
40.91549 244
40.93561 264
40.95572 264
40.97584 240
40.99595 255
41.01606 233
41.03618 254
41.05629 233
41.0764 229
41.09652 240
41.11663 241
41.13675 238
41.15686 247
41.17697 223
41.19709 234
41.2172 225
41.23731 242
41.25743 233
41.27754 230
41.29765 220
41.31777 223
41.33788 203
41.358 217
41.37811 205
41.39822 209
41.41834 198
41.43845 209
41.45856 216
41.47868 230
41.49879 197
41.51891 195
41.53902 231
41.55913 222
41.57925 238
41.59936 197
41.61947 205
41.63959 239
41.6597 200
41.67982 224
41.69993 222
41.72004 245
41.74016 249
41.76027 224
41.78038 247
41.8005 217
41.82061 200
41.84072 224
41.86084 206
41.88095 235
41.90107 208
41.92118 229
41.94129 210
41.96141 236
41.98152 218
42.00163 239
42.02175 251
42.04186 252
42.06198 265
42.08209 266
42.1022 281
42.12232 290
42.14243 287
42.16254 319
42.18266 332
42.20277 342
42.22289 424
42.243 485
42.26311 617
42.28323 746
42.30334 873
42.32345 1033
42.34357 1253
42.36368 1425
42.38379 1479
42.40391 1484
42.42402 1484
42.44414 1443
42.46425 1163
42.48436 984
42.50448 854
42.52459 825
42.5447 709
42.56482 534
42.58493 444
42.60505 339
42.62516 269
42.64527 266
42.66539 246
42.6855 219
42.70561 218
42.72573 229
42.74584 230
42.76595 217
42.78607 214
42.80618 199
42.8263 217
42.84641 212
42.86652 224
42.88664 203
42.90675 193
42.92686 196
42.94698 197
42.96709 176
42.98721 206
43.00732 205
43.02743 191
43.04755 183
43.06766 194
43.08777 211
43.10789 207
43.128 180
43.14812 177
43.16823 195
43.18834 200
43.20846 217
43.22857 213
43.24868 200
43.2688 174
43.28891 171
43.30902 201
43.32914 194
43.34925 200
43.36937 174
43.38948 210
43.40959 169
43.42971 179
43.44982 173
43.46993 220
43.49005 193
43.51016 185
43.53028 180
43.55039 207
43.5705 181
43.59062 171
43.61073 197
43.63084 190
43.65096 181
43.67107 168
43.69119 219
43.7113 186
43.73141 173
43.75153 186
43.77164 191
43.79175 203
43.81187 198
43.83198 185
43.85209 197
43.87221 172
43.89232 169
43.91244 187
43.93255 206
43.95266 179
43.97278 169
43.99289 177
44.013 183
44.03312 185
44.05323 197
44.07335 192
44.09346 186
44.11357 203
44.13369 191
44.1538 177
44.17391 214
44.19403 196
44.21414 198
44.23426 186
44.25437 195
44.27448 158
44.2946 216
44.31471 187
44.33482 209
44.35494 214
44.37505 202
44.39516 193
44.41528 175
44.43539 209
44.45551 174
44.47562 174
44.49573 201
44.51585 174
44.53596 193
44.55607 184
44.57619 193
44.5963 193
44.61642 182
44.63653 184
44.65664 179
44.67676 177
44.69687 188
44.71698 188
44.7371 184
44.75721 196
44.77732 201
44.79744 191
44.81755 194
44.83767 190
44.85778 189
44.87789 165
44.89801 197
44.91812 210
44.93823 204
44.95835 192
44.97846 201
44.99858 200
45.01869 194
45.0388 188
45.05892 202
45.07903 193
45.09914 182
45.11926 206
45.13937 171
45.15949 214
45.1796 206
45.19971 192
45.21983 211
45.23994 219
45.26005 168
45.28017 217
45.30028 215
45.32039 208
45.34051 216
45.36062 227
45.38074 210
45.40085 254
45.42096 246
45.44108 242
45.46119 283
45.4813 266
45.50142 279
45.52153 317
45.54165 348
45.56176 348
45.58187 404
45.60199 482
45.6221 560
45.64221 603
45.66233 756
45.68244 909
45.70256 985
45.72267 1129
45.74278 1110
45.7629 1048
45.78301 959
45.80312 813
45.82324 758
45.84335 663
45.86346 599
45.88358 540
45.90369 472
45.92381 362
45.94392 328
45.96403 313
45.98415 223
46.00426 228
46.02437 227
46.04449 229
46.0646 206
46.08472 218
46.10483 203
46.12494 203
46.14506 201
46.16517 217
46.18528 198
46.2054 195
46.22551 178
46.24563 165
46.26574 208
46.28585 202
46.30597 202
46.32608 183
46.34619 161
46.36631 181
46.38642 217
46.40653 186
46.42665 187
46.44676 188
46.46688 171
46.48699 201
46.5071 171
46.52722 201
46.54733 195
46.56744 163
46.58756 188
46.60767 204
46.62779 169
46.6479 193
46.66801 190
46.68813 188
46.70824 191
46.72835 200
46.74847 174
46.76858 190
46.78869 167
46.80881 178
46.82892 189
46.84904 170
46.86915 189
46.88926 210
46.90938 179
46.92949 173
46.9496 188
46.96972 180
46.98983 190
47.00995 196
47.03006 184
47.05017 205
47.07029 206
47.0904 172
47.11051 198
47.13063 208
47.15074 191
47.17086 207
47.19097 172
47.21108 170
47.2312 176
47.25131 184
47.27142 202
47.29154 163
47.31165 202
47.33176 171
47.35188 185
47.37199 158
47.39211 175
47.41222 171
47.43233 179
47.45245 185
47.47256 197
47.49267 201
47.51279 174
47.5329 153
47.55302 157
47.57313 190
47.59324 199
47.61336 182
47.63347 192
47.65358 177
47.6737 175
47.69381 198
47.71393 184
47.73404 178
47.75415 186
47.77427 183
47.79438 176
47.81449 213
47.83461 200
47.85472 182
47.87483 198
47.89495 168
47.91506 203
47.93518 216
47.95529 205
47.9754 174
47.99552 182
48.01563 181
48.03574 190
48.05586 185
48.07597 196
48.09609 183
48.1162 193
48.13631 196
48.15643 182
48.17654 183
48.19665 183
48.21677 169
48.23688 171
48.257 187
48.27711 190
48.29722 165
48.31734 198
48.33745 217
48.35756 174
48.37768 189
48.39779 185
48.4179 207
48.43802 217
48.45813 195
48.47825 195
48.49836 207
48.51847 194
48.53859 216
48.5587 225
48.57881 206
48.59893 197
48.61904 194
48.63916 199
48.65927 172
48.67938 212
48.6995 184
48.71961 164
48.73972 191
48.75984 208
48.77995 196
48.80006 200
48.82018 221
48.84029 210
48.86041 204
48.88052 221
48.90063 214
48.92075 194
48.94086 189
48.96097 185
48.98109 222
49.0012 229
49.02132 196
49.04143 196
49.06154 199
49.08166 214
49.10177 199
49.12188 199
49.142 199
49.16211 212
49.18223 178
49.20234 208
49.22245 240
49.24257 183
49.26268 219
49.28279 238
49.30291 213
49.32302 237
49.34313 217
49.36325 273
49.38336 231
49.40348 224
49.42359 238
49.4437 237
49.46382 250
49.48393 275
49.50404 238
49.52416 248
49.54427 258
49.56439 260
49.5845 252
49.60461 277
49.62473 277
49.64484 228
49.66495 300
49.68507 324
49.70518 297
49.7253 311
49.74541 311
49.76552 377
49.78564 370
49.80575 417
49.82586 407
49.84598 505
49.86609 612
49.8862 691
49.90632 840
49.92643 1001
49.94655 1225
49.96666 1461
49.98677 1801
50.00689 2321
50.027 2622
50.04711 3029
50.06723 3198
50.08734 3453
50.10746 3249
50.12757 2765
50.14768 2418
50.1678 1951
50.18791 1872
50.20802 1773
50.22814 1711
50.24825 1421
50.26837 1182
50.28848 760
50.30859 572
50.32871 429
50.34882 357
50.36893 333
50.38905 308
50.40916 313
50.42927 279
50.44939 324
50.4695 307
50.48962 296
50.50973 290
50.52984 275
50.54996 317
50.57007 310
50.59018 276
50.6103 270
50.63041 242
50.65053 267
50.67064 239
50.69075 255
50.71087 248
50.73098 207
50.75109 223
50.77121 213
50.79132 205
50.81143 208
50.83155 182
50.85166 191
50.87178 204
50.89189 209
50.912 206
50.93212 219
50.95223 205
50.97234 194
50.99246 191
51.01257 181
51.03269 185
51.0528 175
51.07291 197
51.09303 149
51.11314 169
51.13325 167
51.15337 157
51.17348 173
51.1936 194
51.21371 190
51.23382 165
51.25394 171
51.27405 186
51.29416 187
51.31428 159
51.33439 194
51.3545 188
51.37462 186
51.39473 193
51.41485 174
51.43496 181
51.45507 171
51.47519 178
51.4953 147
51.51541 187
51.53553 174
51.55564 177
51.57576 185
51.59587 175
51.61598 160
51.6361 189
51.65621 171
51.67632 184
51.69644 170
51.71655 179
51.73667 164
51.75678 165
51.77689 165
51.79701 174
51.81712 208
51.83723 180
51.85735 180
51.87746 170
51.89757 156
51.91769 163
51.9378 171
51.95792 191
51.97803 152
51.99814 150
52.01826 151
52.03837 156
52.05848 169
52.0786 172
52.09871 157
52.11883 158
52.13894 186
52.15905 175
52.17917 181
52.19928 141
52.21939 176
52.23951 192
52.25962 172
52.27974 147
52.29985 170
52.31996 174
52.34008 179
52.36019 174
52.3803 169
52.40042 185
52.42053 156
52.44064 189
52.46076 151
52.48087 157
52.50099 191
52.5211 178
52.54121 191
52.56133 169
52.58144 194
52.60155 161
52.62167 183
52.64178 184
52.6619 172
52.68201 174
52.70212 184
52.72224 172
52.74235 173
52.76246 208
52.78258 169
52.80269 169
52.8228 153
52.84292 168
52.86303 192
52.88315 176
52.90326 167
52.92337 176
52.94349 185
52.9636 171
52.98371 217
53.00383 188
53.02394 217
53.04406 165
53.06417 175
53.08428 192
53.1044 193
53.12451 184
53.14462 185
53.16474 194
53.18485 200
53.20497 189
53.22508 178
53.24519 182
53.26531 173
53.28542 197
53.30553 192
53.32565 207
53.34576 213
53.36587 205
53.38599 186
53.4061 201
53.42622 206
53.44633 202
53.46644 232
53.48656 204
53.50667 188
53.52678 221
53.5469 219
53.56701 207
53.58713 208
53.60724 222
53.62735 218
53.64747 233
53.66758 227
53.68769 201
53.70781 225
53.72792 208
53.74804 212
53.76815 207
53.78826 227
53.80838 214
53.82849 214
53.8486 252
53.86872 216
53.88883 229
53.90894 221
53.92906 253
53.94917 251
53.96929 251
53.9894 252
54.00951 250
54.02963 240
54.04974 263
54.06985 236
54.08997 232
54.11008 258
54.1302 266
54.15031 239
54.17042 236
54.19054 243
54.21065 222
54.23076 263
54.25088 261
54.27099 234
54.29111 236
54.31122 275
54.33133 254
54.35145 254
54.37156 279
54.39167 248
54.41179 270
54.4319 264
54.45201 258
54.47213 250
54.49224 240
54.51236 313
54.53247 294
54.55258 291
54.5727 321
54.59281 326
54.61292 376
54.63304 395
54.65315 432
54.67327 455
54.69338 592
54.71349 706
54.73361 860
54.75372 919
54.77383 971
54.79395 1091
54.81406 1162
54.83417 1047
54.85429 1018
54.8744 849
54.89452 772
54.91463 747
54.93474 698
54.95486 701
54.97497 652
54.99508 632
55.0152 518
55.03531 472
55.05543 374
55.07554 362
55.09565 362
55.11577 340
55.13588 403
55.15599 413
55.17611 430
55.19622 480
55.21634 523
55.23645 549
55.25656 613
55.27668 547
55.29679 577
55.3169 510
55.33702 468
55.35713 431
55.37724 403
55.39736 400
55.41747 366
55.43759 413
55.4577 329
55.47781 303
55.49793 266
55.51804 278
55.53815 225
55.55827 228
55.57838 210
55.5985 223
55.61861 228
55.63872 224
55.65884 231
55.67895 222
55.69906 187
55.71918 234
55.73929 221
55.75941 219
55.77952 205
55.79963 218
55.81975 214
55.83986 201
55.85997 196
55.88009 201
55.9002 194
55.92031 216
55.94043 212
55.96054 192
55.98066 185
56.00077 210
56.02088 172
56.041 210
56.06111 194
56.08122 171
56.10134 171
56.12145 189
56.14157 189
56.16168 170
56.18179 193
56.20191 185
56.22202 174
56.24213 187
56.26225 222
56.28236 173
56.30248 198
56.32259 194
56.3427 194
56.36282 188
56.38293 189
56.40304 178
56.42316 162
56.44327 175
56.46338 173
56.4835 218
56.50361 227
56.52373 221
56.54384 200
56.56395 207
56.58407 194
56.60418 200
56.62429 193
56.64441 200
56.66452 214
56.68464 185
56.70475 175
56.72486 184
56.74498 219
56.76509 189
56.7852 192
56.80532 191
56.82543 200
56.84554 187
56.86566 172
56.88577 197
56.90589 196
56.926 186
56.94611 212
56.96623 187
56.98634 201
57.00645 164
57.02657 192
57.04668 198
57.0668 199
57.08691 201
57.10702 241
57.12714 205
57.14725 222
57.16736 212
57.18748 234
57.20759 205
57.22771 220
57.24782 222
57.26793 170
57.28805 211
57.30816 220
57.32827 204
57.34839 182
57.3685 225
57.38861 187
57.40873 190
57.42884 175
57.44896 198
57.46907 191
57.48918 184
57.5093 171
57.52941 185
57.54952 212
57.56964 177
57.58975 188
57.60987 172
57.62998 166
57.65009 217
57.67021 191
57.69032 176
57.71043 157
57.73055 194
57.75066 198
57.77078 199
57.79089 192
57.811 188
57.83112 143
57.85123 186
57.87134 194
57.89146 181
57.91157 161
57.93168 199
57.9518 203
57.97191 171
57.99203 175
58.01214 194
58.03225 188
58.05237 181
58.07248 193
58.09259 185
58.11271 177
58.13282 170
58.15294 156
58.17305 155
58.19316 170
58.21328 184
58.23339 182
58.2535 165
58.27362 166
58.29373 198
58.31385 182
58.33396 182
58.35407 185
58.37419 171
58.3943 180
58.41441 165
58.43453 183
58.45464 208
58.47475 159
58.49487 207
58.51498 189
58.5351 173
58.55521 179
58.57532 182
58.59544 190
58.61555 195
58.63566 168
58.65578 190
58.67589 172
58.69601 187
58.71612 142
58.73623 177
58.75635 177
58.77646 155
58.79657 178
58.81669 182
58.8368 173
58.85691 209
58.87703 206
58.89714 183
58.91726 185
58.93737 174
58.95748 181
58.9776 159
58.99771 168
59.01782 198
59.03794 189
59.05805 187
59.07817 186
59.09828 168
59.11839 189
59.13851 191
59.15862 183
59.17873 181
59.19885 205
59.21896 211
59.23908 191
59.25919 216
59.2793 183
59.29942 189
59.31953 202
59.33964 198
59.35976 245
59.37987 216
59.39998 209
59.4201 227
59.44021 219
59.46033 225
59.48044 225
59.50055 262
59.52067 293
59.54078 302
59.56089 325
59.58101 375
59.60112 324
59.62124 354
59.64135 392
59.66146 448
59.68158 468
59.70169 583
59.7218 678
59.74192 798
59.76203 956
59.78215 1118
59.80226 1291
59.82237 1624
59.84249 1866
59.8626 1976
59.88271 2214
59.90283 2221
59.92294 2002
59.94305 1672
59.96317 1453
59.98328 1343
60.0034 1191
60.02351 1199
60.04362 1198
60.06374 1151
60.08385 996
60.10396 863
60.12408 714
60.14419 513
60.16431 389
60.18442 346
60.20453 290
60.22465 290
60.24476 267
60.26487 272
60.28499 266
60.3051 248
60.32522 240
60.34533 234
60.36544 205
60.38556 235
60.40567 217
60.42578 207
60.4459 221
60.46601 220
60.48612 196
60.50624 191
60.52635 178
60.54647 189
60.56658 179
60.58669 206
60.60681 199
60.62692 194
60.64703 220
60.66715 158
60.68726 208
60.70738 179
60.72749 182
60.7476 191
60.76772 183
60.78783 177
60.80794 174
60.82806 172
60.84817 175
60.86828 175
60.8884 172
60.90851 182
60.92863 184
60.94874 193
60.96885 184
60.98897 161
61.00908 187
61.02919 171
61.04931 157
61.06942 160
61.08954 166
61.10965 186
61.12976 190
61.14988 197
61.16999 163
61.1901 193
61.21022 170
61.23033 207
61.25045 179
61.27056 219
61.29067 185
61.31079 163
61.3309 182
61.35101 197
61.37113 154
61.39124 171
61.41135 178
61.43147 191
61.45158 185
61.4717 184
61.49181 171
61.51192 177
61.53204 181
61.55215 191
61.57226 179
61.59238 176
61.61249 158
61.63261 178
61.65272 198
61.67283 183
61.69295 179
61.71306 186
61.73317 181
61.75329 182
61.7734 177
61.79352 185
61.81363 173
61.83374 175
61.85386 177
61.87397 195
61.89408 196
61.9142 202
61.93431 193
61.95442 176
61.97454 211
61.99465 207
62.01477 215
62.03488 236
62.05499 229
62.07511 225
62.09522 237
62.11533 224
62.13545 227
62.15556 229
62.17568 220
62.19579 257
62.2159 273
62.23602 262
62.25613 263
62.27624 265
62.29636 297
62.31647 271
62.33659 244
62.3567 239
62.37681 261
62.39693 256
62.41704 236
62.43715 255
62.45727 246
62.47738 212
62.49749 205
62.51761 216
62.53772 223
62.55784 196
62.57795 218
62.59806 219
62.61818 212
62.63829 208
62.6584 204
62.67852 180
62.69863 195
62.71875 186
62.73886 196
62.75897 205
62.77909 186
62.7992 189
62.81931 187
62.83943 176
62.85954 197
62.87965 190
62.89977 192
62.91988 185
62.94 194
62.96011 178
62.98022 183
63.00034 197
63.02045 178
63.04056 184
63.06068 185
63.08079 171
63.10091 179
63.12102 173
63.14113 174
63.16125 170
63.18136 148
63.20147 182
63.22159 179
63.2417 189
63.26182 174
63.28193 176
63.30204 171
63.32216 180
63.34227 199
63.36238 210
63.3825 173
63.40261 163
63.42272 163
63.44284 187
63.46295 180
63.48307 202
63.50318 192
63.52329 200
63.54341 174
63.56352 193
63.58363 215
63.60375 198
63.62386 205
63.64398 184
63.66409 218
63.6842 258
63.70432 214
63.72443 223
63.74454 228
63.76466 245
63.78477 313
63.80489 267
63.825 342
63.84511 336
63.86523 343
63.88534 434
63.90545 456
63.92557 504
63.94568 514
63.96579 512
63.98591 568
64.00602 482
64.02614 478
64.04625 388
64.06636 368
64.08648 388
64.10659 385
64.1267 396
64.14682 360
64.16693 339
64.18705 340
64.20716 308
64.22727 264
64.24739 258
64.2675 218
64.28761 190
64.30773 197
64.32784 205
64.34796 193
64.36807 174
64.38818 176
64.4083 194
64.42841 193
64.44852 187
64.46864 174
64.48875 183
64.50886 167
64.52898 172
64.54909 153
64.56921 167
64.58932 173
64.60943 168
64.62955 185
64.64966 156
64.66977 151
64.68989 168
64.71 184
64.73012 178
64.75023 156
64.77034 153
64.79046 182
64.81057 172
64.83068 171
64.8508 167
64.87091 198
64.89102 170
64.91114 171
64.93125 177
64.95137 191
64.97148 181
64.99159 201
65.01171 174
65.03182 164
65.05193 185
65.07205 168
65.09216 180
65.11228 189
65.13239 169
65.1525 187
65.17262 187
65.19273 194
65.21284 170
65.23296 156
65.25307 182
65.27319 173
65.2933 188
65.31341 173
65.33353 160
65.35364 181
65.37375 166
65.39387 169
65.41398 179
65.43409 189
65.45421 202
65.47432 193
65.49444 209
65.51455 207
65.53466 172
65.55478 197
65.57489 219
65.595 200
65.61512 239
65.63523 233
65.65535 220
65.67546 261
65.69557 265
65.71569 254
65.7358 239
65.75591 266
65.77603 225
65.79614 227
65.81626 256
65.83637 214
65.85648 215
65.8766 189
65.89671 212
65.91682 238
65.93694 223
65.95705 204
65.97716 176
65.99728 203
66.01739 179
66.03751 180
66.05762 181
66.07773 177
66.09785 180
66.11796 182
66.13807 158
66.15819 180
66.1783 195
66.19842 173
66.21853 179
66.23864 194
66.25876 162
66.27887 173
66.29898 203
66.3191 173
66.33921 173
66.35933 196
66.37944 172
66.39955 167
66.41967 191
66.43978 163
66.45989 172
66.48001 197
66.50012 163
66.52023 171
66.54035 192
66.56046 170
66.58058 178
66.60069 207
66.6208 185
66.64092 183
66.66103 161
66.68114 171
66.70126 176
66.72137 179
66.74149 200
66.7616 192
66.78171 183
66.80183 177
66.82194 177
66.84205 180
66.86217 175
66.88228 222
66.90239 187
66.92251 179
66.94262 196
66.96274 204
66.98285 172
67.00296 199
67.02308 201
67.04319 208
67.0633 196
67.08342 201
67.10353 186
67.12365 212
67.14376 225
67.16387 197
67.18399 206
67.2041 229
67.22421 216
67.24433 215
67.26444 254
67.28456 243
67.30467 250
67.32478 274
67.3449 267
67.36501 286
67.38512 291
67.40524 298
67.42535 361
67.44546 386
67.46558 423
67.48569 444
67.50581 524
67.52592 573
67.54603 650
67.56615 752
67.58626 880
67.60637 1067
67.62649 1146
67.6466 1322
67.66672 1405
67.68683 1286
67.70694 1248
67.72706 1127
67.74717 954
67.76728 869
67.7874 882
67.80751 887
67.82763 945
67.84774 992
67.86785 983
67.88797 1040
67.90808 1093
67.92819 1062
67.94831 1038
67.96842 1063
67.98853 1218
68.00865 1438
68.02876 1596
68.04888 1746
68.06899 1789
68.0891 1852
68.10922 1803
68.12933 1564
68.14944 1457
68.16956 1512
68.18967 1557
68.20979 1566
68.2299 1856
68.25001 1718
68.27013 1704
68.29024 1497
68.31035 1237
68.33047 1047
68.35058 898
68.3707 753
68.39081 749
68.41092 724
68.43104 687
68.45115 629
68.47126 573
68.49138 477
68.51149 429
68.5316 396
68.55172 294
68.57183 268
68.59195 278
68.61206 268
68.63217 224
68.65229 263
68.6724 187
68.69251 212
68.71263 222
68.73274 214
68.75286 205
68.77297 213
68.79308 212
68.8132 215
68.83331 226
68.85342 181
68.87354 188
68.89365 197
68.91376 215
68.93388 171
68.95399 188
68.97411 183
68.99422 192
69.01433 182
69.03445 172
69.05456 184
69.07467 198
69.09479 190
69.1149 195
69.13502 177
69.15513 172
69.17524 191
69.19536 174
69.21547 168
69.23558 172
69.2557 220
69.27581 175
69.29593 170
69.31604 195
69.33615 182
69.35627 190
69.37638 189
69.39649 201
69.41661 174
69.43672 175
69.45683 152
69.47695 169
69.49706 176
69.51718 167
69.53729 183
69.5574 154
69.57752 169
69.59763 158
69.61774 170
69.63786 172
69.65797 169
69.67809 164
69.6982 159
69.71831 174
69.73843 164
69.75854 159
69.77865 169
69.79877 154
69.81888 182
69.839 184
69.85911 160
69.87922 175
69.89934 181
69.91945 150
69.93956 172
69.95968 160
69.97979 181
69.9999 160
70.02002 173
70.04013 174
70.06025 167
70.08036 162
70.10047 147
70.12059 174
70.1407 164
70.16081 165
70.18093 190
70.20104 165
70.22116 154
70.24127 165
70.26138 164
70.2815 182
70.30161 163
70.32172 164
70.34184 188
70.36195 189
70.38207 170
70.40218 184
70.42229 150
70.44241 176
70.46252 158
70.48263 154
70.50275 152
70.52286 183
70.54297 149
70.56309 183
70.5832 184
70.60332 165
70.62343 168
70.64354 184
70.66366 177
70.68377 167
70.70388 177
70.724 172
70.74411 174
70.76423 175
70.78434 139
70.80445 175
70.82457 155
70.84468 154
70.86479 158
70.88491 155
70.90502 164
70.92513 158
70.94525 170
70.96536 158
70.98548 174
71.00559 164
71.0257 171
71.04582 144
71.06593 158
71.08604 166
71.10616 156
71.12627 159
71.14639 166
71.1665 159
71.18661 158
71.20673 166
71.22684 167
71.24695 162
71.26707 182
71.28718 170
71.3073 152
71.32741 183
71.34752 180
71.36764 167
71.38775 172
71.40786 179
71.42798 186
71.44809 171
71.4682 165
71.48832 148
71.50843 159
71.52855 171
71.54866 133
71.56877 169
71.58889 174
71.609 184
71.62911 153
71.64923 189
71.66934 164
71.68946 158
71.70957 156
71.72968 157
71.7498 178
71.76991 157
71.79002 196
71.81014 157
71.83025 171
71.85037 161
71.87048 173
71.89059 179
71.91071 189
71.93082 154
71.95093 173
71.97105 149
71.99116 159
72.01127 175
72.03139 158
72.0515 146
72.07162 192
72.09173 168
72.11184 160
72.13196 177
72.15207 156
72.17218 163
72.1923 179
72.21241 166
72.23253 172
72.25264 171
72.27275 163
72.29287 161
72.31298 175
72.33309 168
72.35321 146
72.37332 166
72.39344 163
72.41355 149
72.43366 168
72.45378 154
72.47389 158
72.494 175
72.51412 181
72.53423 154
72.55434 166
72.57446 146
72.59457 162
72.61469 160
72.6348 169
72.65491 152
72.67503 175
72.69514 171
72.71525 158
72.73537 161
72.75548 162
72.7756 187
72.79571 181
72.81582 163
72.83594 176
72.85605 178
72.87616 187
72.89628 172
72.91639 169
72.9365 182
72.95662 191
72.97673 194
72.99685 159
73.01696 189
73.03707 186
73.05719 200
73.0773 165
73.09741 195
73.11753 211
73.13764 220
73.15776 201
73.17787 229
73.19798 245
73.2181 268
73.23821 263
73.25832 267
73.27844 355
73.29855 410
73.31867 447
73.33878 447
73.35889 475
73.37901 537
73.39912 530
73.41923 537
73.43935 519
73.45946 471
73.47957 393
73.49969 343
73.5198 355
73.53992 324
73.56003 346
73.58014 347
73.60026 393
73.62037 355
73.64048 319
73.6606 322
73.68071 270
73.70083 260
73.72094 218
73.74105 177
73.76117 178
73.78128 184
73.80139 166
73.82151 192
73.84162 162
73.86174 180
73.88185 180
73.90196 164
73.92208 163
73.94219 166
73.9623 174
73.98242 154
74.00253 171
74.02264 160
74.04276 166
74.06287 175
74.08299 181
74.1031 175
74.12321 147
74.14333 172
74.16344 162
74.18355 161
74.20367 159
74.22378 157
74.2439 162
74.26401 159
74.28412 149
74.30424 167
74.32435 171
74.34446 173
74.36458 161
74.38469 151
74.40481 140
74.42492 149
74.44503 156
74.46515 136
74.48526 188
74.50537 179
74.52549 175
74.5456 184
74.56571 163
74.58583 163
74.60594 170
74.62606 146
74.64617 135
74.66628 176
74.6864 160
74.70651 159
74.72662 157
74.74674 172
74.76685 176
74.78697 164
74.80708 160
74.82719 161
74.84731 160
74.86742 143
74.88753 186
74.90765 149
74.92776 169
74.94787 156
74.96799 148
74.9881 167
75.00822 178
