3.00117 19333
3.02128 18606
3.0414 17739
3.06151 17710
3.08162 16729
3.10174 16602
3.12185 16177
3.14197 15768
3.16208 15456
3.18219 14591
3.20231 14673
3.22242 13760
3.24253 13509
3.26265 13375
3.28276 12793
3.30288 12471
3.32299 11949
3.3431 11422
3.36322 11354
3.38333 10758
3.40344 10493
3.42356 10129
3.44367 9606
3.46379 9493
3.4839 8964
3.50401 8967
3.52413 8525
3.54424 8087
3.56435 8186
3.58447 7410
3.60458 7510
3.62469 7006
3.64481 6762
3.66492 6743
3.68504 6235
3.70515 6126
3.72526 5775
3.74538 5480
3.76549 5526
3.7856 4965
3.80572 4914
3.82583 4724
3.84595 4363
3.86606 4433
3.88617 4063
3.90629 4005
3.9264 3871
3.94651 3607
3.96663 3424
3.98674 3216
4.00686 3243
4.02697 2962
4.04708 2839
4.0672 2838
4.08731 2517
4.10742 2584
4.12754 2364
4.14765 2234
4.16776 2234
4.18788 1930
4.20799 1959
4.22811 2000
4.24822 1833
4.26833 1823
4.28845 1653
4.30856 1602
4.32867 1560
4.34879 1583
4.3689 1523
4.38902 1384
4.40913 1455
4.42924 1401
4.44936 1408
4.46947 1474
4.48958 1179
4.5097 1246
4.52981 1334
4.54992 1232
4.57004 1142
4.59015 1055
4.61027 1050
4.63038 1050
4.65049 1106
4.67061 1042
4.69072 956
4.71083 957
4.73095 955
4.75106 900
4.77118 921
4.79129 878
4.8114 821
4.83152 853
4.85163 840
4.87174 794
4.89186 790
4.91197 715
4.93209 766
4.9522 734
4.97231 635
4.99243 694
5.01254 674
5.03265 643
5.05277 693
5.07288 629
5.09299 563
5.11311 505
5.13322 594
5.15334 591
5.17345 549
5.19356 537
5.21368 519
5.23379 530
5.2539 521
5.27402 469
5.29413 496
5.31425 469
5.33436 462
5.35447 489
5.37459 441
5.3947 412
5.41481 432
5.43493 413
5.45504 420
5.47516 396
5.49527 405
5.51538 412
5.5355 384
5.55561 381
5.57572 329
5.59584 391
5.61595 323
5.63606 341
5.65618 354
5.67629 330
5.69641 300
5.71652 276
5.73663 308
5.75675 286
5.77686 281
5.79697 313
5.81709 307
5.8372 269
5.85732 320
5.87743 232
5.89754 243
5.91766 283
5.93777 231
5.95788 281
5.978 259
5.99811 242
6.01823 256
6.03834 242
6.05845 232
6.07857 272
6.09868 249
6.11879 251
6.13891 204
6.15902 274
6.17913 242
6.19925 239
6.21936 230
6.23948 268
6.25959 253
6.2797 234
6.29982 231
6.31993 213
6.34004 222
6.36016 238
6.38027 218
6.40039 243
6.4205 199
6.44061 226
6.46073 224
6.48084 215
6.50095 221
6.52107 228
6.54118 204
6.56129 217
6.58141 190
6.60152 190
6.62164 216
6.64175 218
6.66186 236
6.68198 209
6.70209 214
6.7222 219
6.74232 215
6.76243 240
6.78255 213
6.80266 219
6.82277 202
6.84289 226
6.863 223
6.88311 213
6.90323 195
6.92334 250
6.94346 196
6.96357 205
6.98368 224
7.0038 205
7.02391 194
7.04402 198
7.06414 193
7.08425 194
7.10436 174
7.12448 226
7.14459 213
7.16471 203
7.18482 208
7.20493 223
7.22505 210
7.24516 209
7.26527 188
7.28539 208
7.3055 201
7.32562 232
7.34573 238
7.36584 189
7.38596 225
7.40607 235
7.42618 229
7.4463 231
7.46641 226
7.48653 197
7.50664 214
7.52675 206
7.54687 194
7.56698 189
7.58709 196
7.60721 217
7.62732 228
7.64743 220
7.66755 228
7.68766 217
7.70778 230
7.72789 201
7.748 233
7.76812 238
7.78823 234
7.80834 248
7.82846 244
7.84857 222
7.86869 208
7.8888 220
7.90891 248
7.92903 221
7.94914 239
7.96925 239
7.98937 234
8.00948 244
8.0296 220
8.04971 216
8.06982 231
8.08994 197
8.11005 219
8.13016 205
8.15028 234
8.17039 218
8.1905 267
8.21062 223
8.23073 215
8.25085 218
8.27096 245
8.29107 241
8.31119 233
8.3313 222
8.35141 248
8.37153 223
8.39164 209
8.41176 240
8.43187 237
8.45198 248
8.4721 224
8.49221 245
8.51232 214
8.53244 231
8.55255 209
8.57266 238
8.59278 267
8.61289 248
8.63301 251
8.65312 220
8.67323 216
8.69335 238
8.71346 238
8.73357 212
8.75369 212
8.7738 253
8.79392 267
8.81403 256
8.83414 229
8.85426 239
8.87437 257
8.89448 248
8.9146 252
8.93471 244
8.95483 242
8.97494 255
8.99505 226
9.01517 248
9.03528 269
9.05539 204
9.07551 262
9.09562 252
9.11573 214
9.13585 234
9.15596 266
9.17608 219
9.19619 215
9.2163 244
9.23642 232
9.25653 238
9.27664 198
9.29676 247
9.31687 228
9.33699 208
9.3571 226
9.37721 271
9.39733 193
9.41744 215
9.43755 246
9.45767 261
9.47778 297
9.4979 271
9.51801 248
9.53812 222
9.55824 241
9.57835 254
9.59846 232
9.61858 221
9.63869 256
9.6588 258
9.67892 236
9.69903 239
9.71915 233
9.73926 256
9.75937 229
9.77949 262
9.7996 245
9.81971 221
9.83983 259
9.85994 254
9.88006 219
9.90017 242
9.92028 199
9.9404 261
9.96051 223
9.98062 220
10.00074 247
10.02085 237
10.04097 252
10.06108 260
10.08119 232
10.10131 208
10.12142 233
10.14153 241
10.16165 255
10.18176 259
10.20187 278
10.22199 213
10.2421 236
10.26222 255
10.28233 216
10.30244 252
10.32256 228
10.34267 224
10.36278 261
10.3829 228
10.40301 262
10.42313 252
10.44324 222
10.46335 219
10.48347 230
10.50358 256
10.52369 209
10.54381 255
10.56392 263
10.58403 234
10.60415 256
10.62426 253
10.64438 253
10.66449 253
10.6846 239
10.70472 242
10.72483 267
10.74494 270
10.76506 235
10.78517 236
10.80529 267
10.8254 216
10.84551 231
10.86563 216
10.88574 259
10.90585 250
10.92597 227
10.94608 242
10.9662 241
10.98631 268
11.00642 226
11.02654 260
11.04665 256
11.06676 258
11.08688 262
11.10699 251
11.1271 267
11.14722 243
11.16733 241
11.18745 250
11.20756 280
11.22767 257
11.24779 228
11.2679 250
11.28801 226
11.30813 243
11.32824 242
11.34836 265
11.36847 243
11.38858 258
11.4087 237
11.42881 262
11.44892 231
11.46904 209
11.48915 263
11.50927 225
11.52938 226
11.54949 224
11.56961 237
11.58972 246
11.60983 262
11.62995 234
11.65006 232
11.67017 298
11.69029 275
11.7104 285
11.73052 287
11.75063 264
11.77074 283
11.79086 280
11.81097 301
11.83108 259
11.8512 273
11.87131 278
11.89143 329
11.91154 285
11.93165 293
11.95177 326
11.97188 327
11.99199 332
12.01211 356
12.03222 368
12.05234 372
12.07245 342
12.09256 358
12.11268 404
12.13279 414
12.1529 454
12.17302 486
12.19313 555
12.21324 513
12.23336 611
12.25347 675
12.27359 687
12.2937 804
12.31381 835
12.33393 885
12.35404 907
12.37415 926
12.39427 840
12.41438 776
12.4345 681
12.45461 597
12.47472 563
12.49484 469
12.51495 448
12.53506 410
12.55518 372
12.57529 356
12.5954 332
12.61552 335
12.63563 317
12.65575 301
12.67586 288
12.69597 279
12.71609 267
12.7362 280
12.75631 257
12.77643 273
12.79654 242
12.81666 227
12.83677 244
12.85688 256
12.877 235
12.89711 250
12.91722 230
12.93734 238
12.95745 246
12.97757 243
12.99768 266
13.01779 224
13.03791 236
13.05802 240
13.07813 207
13.09825 222
13.11836 243
13.13847 221
13.15859 212
13.1787 178
13.19882 219
13.21893 227
13.23904 223
13.25916 233
13.27927 247
13.29938 222
13.3195 261
13.33961 211
13.35973 223
13.37984 211
13.39995 235
13.42007 228
13.44018 191
13.46029 221
13.48041 220
13.50052 195
13.52064 223
13.54075 212
13.56086 216
13.58098 208
13.60109 206
13.6212 233
13.64132 245
13.66143 210
13.68154 210
13.70166 210
13.72177 225
13.74189 234
13.762 216
13.78211 239
13.80223 222
13.82234 204
13.84245 209
13.86257 211
13.88268 186
13.9028 227
13.92291 200
13.94302 230
13.96314 201
13.98325 204
14.00336 190
14.02348 186
14.04359 179
14.06371 206
14.08382 187
14.10393 185
14.12405 184
14.14416 183
14.16427 178
14.18439 197
14.2045 228
14.22461 197
14.24473 183
14.26484 208
14.28496 191
14.30507 202
14.32518 186
14.3453 196
14.36541 182
14.38552 210
14.40564 201
14.42575 215
14.44587 206
14.46598 214
14.48609 220
14.50621 194
14.52632 192
14.54643 192
14.56655 213
14.58666 223
14.60677 187
14.62689 207
14.647 205
14.66712 245
14.68723 188
14.70734 187
14.72746 231
14.74757 197
14.76768 198
14.7878 179
14.80791 222
14.82803 199
14.84814 216
14.86825 201
14.88837 190
14.90848 238
14.92859 179
14.94871 188
14.96882 196
14.98894 181
15.00905 207
15.02916 188
15.04928 200
15.06939 192
15.0895 187
15.10962 201
15.12973 196
15.14984 199
15.16996 201
15.19007 206
15.21019 213
15.2303 197
15.25041 234
15.27053 185
15.29064 183
15.31075 208
15.33087 175
15.35098 190
15.3711 198
15.39121 176
15.41132 211
15.43144 213
15.45155 185
15.47166 203
15.49178 207
15.51189 197
15.53201 191
15.55212 180
15.57223 172
15.59235 209
15.61246 202
15.63257 177
15.65269 189
15.6728 207
15.69291 200
15.71303 169
15.73314 167
15.75326 180
15.77337 192
15.79348 212
15.8136 175
15.83371 216
15.85382 216
15.87394 207
15.89405 199
15.91417 172
15.93428 186
15.95439 196
15.97451 189
15.99462 190
16.01473 201
16.03485 187
16.05496 180
16.07508 214
16.09519 180
16.1153 190
16.13542 203
16.15553 190
16.17564 205
16.19576 202
16.21587 164
16.23598 180
16.2561 182
16.27621 172
16.29633 187
16.31644 204
16.33655 221
16.35667 197
16.37678 179
16.39689 178
16.41701 165
16.43712 182
16.45724 201
16.47735 185
16.49746 191
16.51758 215
16.53769 187
16.5578 157
16.57792 189
16.59803 199
16.61814 172
16.63826 180
16.65837 183
16.67849 184
16.6986 177
16.71871 208
16.73883 198
16.75894 151
16.77905 214
16.79917 198
16.81928 161
16.8394 163
16.85951 180
16.87962 190
16.89974 202
16.91985 191
16.93996 179
16.96008 190
16.98019 179
17.00031 192
17.02042 198
17.04053 201
17.06065 195
17.08076 191
17.10087 205
17.12099 186
17.1411 189
17.16121 189
17.18133 191
17.20144 182
17.22156 193
17.24167 175
17.26178 192
17.2819 176
17.30201 193
17.32212 183
17.34224 192
17.36235 176
17.38247 177
17.40258 193
17.42269 192
17.44281 182
17.46292 215
17.48303 205
17.50315 194
17.52326 193
17.54338 199
17.56349 184
17.5836 202
17.60372 192
17.62383 179
17.64394 182
17.66406 170
17.68417 185
17.70428 203
17.7244 156
17.74451 185
17.76463 200
17.78474 181
17.80485 205
17.82497 195
17.84508 213
17.86519 175
17.88531 190
17.90542 172
17.92554 176
17.94565 187
17.96576 169
17.98588 171
18.00599 220
18.0261 194
18.04622 186
18.06633 214
18.08645 185
18.10656 195
18.12667 177
18.14679 202
18.1669 198
18.18701 174
18.20713 179
18.22724 209
18.24735 177
18.26747 178
18.28758 202
18.3077 198
18.32781 185
18.34792 192
18.36804 197
18.38815 171
18.40826 187
18.42838 195
18.44849 167
18.46861 196
18.48872 158
18.50883 196
18.52895 192
18.54906 172
18.56917 189
18.58929 168
18.6094 201
18.62951 156
18.64963 169
18.66974 183
18.68986 184
18.70997 193
18.73008 224
18.7502 197
18.77031 192
18.79042 195
18.81054 195
18.83065 183
18.85077 174
18.87088 197
18.89099 187
18.91111 187
18.93122 195
18.95133 173
18.97145 192
18.99156 165
19.01168 194
19.03179 160
19.0519 195
19.07202 182
19.09213 183
19.11224 166
19.13236 179
19.15247 183
19.17258 193
19.1927 193
19.21281 185
19.23293 192
19.25304 195
19.27315 187
19.29327 211
19.31338 188
19.33349 179
19.35361 181
19.37372 198
19.39384 189
19.41395 198
19.43406 201
19.45418 200
19.47429 218
19.4944 217
19.51452 191
19.53463 212
19.55475 194
19.57486 247
19.59497 225
19.61509 239
19.6352 227
19.65531 241
19.67543 243
19.69554 284
19.71565 327
19.73577 346
19.75588 332
19.776 362
19.79611 415
19.81622 427
19.83634 473
19.85645 480
19.87656 474
19.89668 499
19.91679 481
19.93691 550
19.95702 483
19.97713 459
19.99725 401
20.01736 481
20.03747 466
20.05759 417
20.0777 404
20.09782 419
20.11793 441
20.13804 445
20.15816 454
20.17827 444
20.19838 464
20.2185 466
20.23861 474
20.25872 453
20.27884 497
20.29895 513
20.31907 480
20.33918 524
20.35929 512
20.37941 542
20.39952 503
20.41963 482
20.43975 517
20.45986 536
20.47998 540
20.50009 535
20.5202 556
20.54032 537
20.56043 567
20.58054 617
20.60066 612
20.62077 649
20.64088 723
20.661 814
20.68111 1017
20.70123 1349
20.72134 1838
20.74145 2414
20.76157 3134
20.78168 4265
20.80179 5231
20.82191 6330
20.84202 6540
20.86214 6432
20.88225 5629
20.90236 4304
20.92248 3032
20.94259 2059
20.9627 1323
20.98282 970
21.00293 739
21.02305 647
21.04316 605
21.06327 578
21.08339 547
21.1035 571
21.12361 503
21.14373 479
21.16384 511
21.18395 508
21.20407 465
21.22418 460
21.2443 504
21.26441 475
21.28452 494
21.30464 465
21.32475 442
21.34486 449
21.36498 437
21.38509 423
21.40521 456
21.42532 456
21.44543 430
21.46555 398
21.48566 421
21.50577 372
21.52589 353
21.546 388
21.56612 362
21.58623 364
21.60634 376
21.62646 356
21.64657 354
21.66668 358
21.6868 356
21.70691 339
21.72702 332
21.74714 328
21.76725 313
21.78737 319
21.80748 339
21.82759 326
21.84771 315
21.86782 349
21.88793 345
21.90805 341
21.92816 333
21.94828 332
21.96839 301
21.9885 274
22.00862 349
22.02873 312
22.04884 299
22.06896 298
22.08907 314
22.10919 350
22.1293 290
22.14941 307
22.16953 320
22.18964 273
22.20975 305
22.22987 291
22.24998 297
22.27009 311
22.29021 307
22.31032 287
22.33044 258
22.35055 290
22.37066 245
22.39078 266
22.41089 308
22.431 296
22.45112 302
22.47123 294
22.49135 294
22.51146 264
22.53157 290
22.55169 290
22.5718 292
22.59191 273
22.61203 274
22.63214 279
22.65225 249
22.67237 307
22.69248 280
22.7126 267
22.73271 242
22.75282 290
22.77294 328
22.79305 264
22.81316 259
22.83328 327
22.85339 268
22.87351 290
22.89362 309
22.91373 296
22.93385 286
22.95396 303
22.97407 272
22.99419 312
23.0143 301
23.03442 316
23.05453 300
23.07464 279
23.09476 274
23.11487 296
23.13498 259
23.1551 264
23.17521 279
23.19532 292
23.21544 280
23.23555 277
23.25567 265
23.27578 260
23.29589 239
23.31601 276
23.33612 296
23.35623 266
23.37635 226
23.39646 259
23.41658 258
23.43669 257
23.4568 255
23.47692 244
23.49703 280
23.51714 257
23.53726 237
23.55737 268
23.57749 259
23.5976 261
23.61771 236
23.63783 261
23.65794 250
23.67805 255
23.69817 255
23.71828 297
23.73839 278
23.75851 291
23.77862 260
23.79874 266
23.81885 279
23.83896 295
23.85908 305
23.87919 312
23.8993 274
23.91942 310
23.93953 307
23.95965 308
23.97976 307
23.99987 348
24.01999 322
24.0401 326
24.06021 299
24.08033 292
24.10044 277
24.12056 281
24.14067 271
24.16078 260
24.1809 254
24.20101 255
24.22112 281
24.24124 263
24.26135 233
24.28146 299
24.30158 257
24.32169 292
24.34181 301
24.36192 237
24.38203 276
24.40215 271
24.42226 284
24.44237 297
24.46249 311
24.4826 279
24.50272 298
24.52283 288
24.54294 296
24.56306 344
24.58317 327
24.60328 336
24.6234 377
24.64351 391
24.66362 368
24.68374 444
24.70385 431
24.72397 467
24.74408 518
24.76419 541
24.78431 599
24.80442 667
24.82453 693
24.84465 696
24.86476 741
24.88488 764
24.90499 636
24.9251 624
24.94522 557
24.96533 536
24.98544 481
25.00556 488
25.02567 417
25.04579 383
25.0659 339
25.08601 393
25.10613 339
25.12624 392
25.14635 375
25.16647 388
25.18658 351
25.20669 368
25.22681 387
25.24692 358
25.26704 385
25.28715 359
25.30726 341
25.32738 331
25.34749 350
25.3676 317
25.38772 309
25.40783 331
25.42795 300
25.44806 348
25.46817 347
25.48829 284
25.5084 314
25.52851 298
25.54863 288
25.56874 306
25.58886 334
25.60897 303
25.62908 281
25.6492 382
25.66931 379
25.68942 371
25.70954 407
25.72965 421
25.74976 449
25.76988 411
25.78999 451
25.81011 430
25.83022 419
25.85033 444
25.87045 460
25.89056 479
25.91067 464
25.93079 434
25.9509 484
25.97102 502
25.99113 493
26.01124 498
26.03136 457
26.05147 534
26.07158 535
26.0917 531
26.11181 582
26.13193 645
26.15204 647
26.17215 712
26.19227 726
26.21238 800
26.23249 787
26.25261 790
26.27272 908
26.29283 1004
26.31295 1103
26.33306 1194
26.35318 1386
26.37329 1633
26.3934 1976
26.41352 2398
26.43363 3173
26.45374 4184
26.47386 5668
26.49397 7817
26.51409 11076
26.5342 15074
26.55431 19435
26.57443 24222
26.59454 27939
26.61465 29885
26.63477 29125
26.65488 25060
26.67499 20082
26.69511 14948
26.71522 10672
26.73534 7093
26.75545 4009
26.77556 2583
26.79568 1887
26.81579 1491
26.8359 1255
26.85602 1173
26.87613 1115
26.89625 982
26.91636 944
26.93647 800
26.95659 784
26.9767 712
26.99681 641
27.01693 588
27.03704 554
27.05716 487
27.07727 515
27.09738 424
27.1175 448
27.13761 436
27.15772 444
27.17784 449
27.19795 440
27.21806 412
27.23818 378
27.25829 371
27.27841 394
27.29852 377
27.31863 379
27.33875 374
27.35886 387
27.37897 391
27.39909 383
27.4192 371
27.43932 376
27.45943 356
27.47954 335
27.49966 338
27.51977 360
27.53988 371
27.56 345
27.58011 337
27.60023 332
27.62034 330
27.64045 340
27.66057 337
27.68068 390
27.70079 321
27.72091 321
27.74102 323
27.76113 299
27.78125 307
27.80136 300
27.82148 315
27.84159 323
27.8617 292
27.88182 302
27.90193 304
27.92204 326
27.94216 304
27.96227 308
27.98239 298
28.0025 312
28.02261 269
28.04273 298
28.06284 275
28.08295 299
28.10307 259
28.12318 303
28.1433 283
28.16341 245
28.18352 278
28.20364 293
28.22375 285
28.24386 261
28.26398 265
28.28409 260
28.3042 261
28.32432 298
28.34443 269
28.36455 255
28.38466 273
28.40477 251
28.42489 264
28.445 285
28.46511 262
28.48523 260
28.50534 236
28.52546 249
28.54557 268
28.56568 285
28.5858 233
28.60591 249
28.62602 247
28.64614 273
28.66625 257
28.68636 245
28.70648 236
28.72659 258
28.74671 264
28.76682 242
28.78693 273
28.80705 262
28.82716 235
28.84727 261
28.86739 254
28.8875 228
28.90762 223
28.92773 250
28.94784 253
28.96796 238
28.98807 258
29.00818 248
29.0283 230
29.04841 249
29.06853 254
29.08864 243
29.10875 243
29.12887 237
29.14898 244
29.16909 226
29.18921 245
29.20932 233
29.22943 223
29.24955 212
29.26966 257
29.28978 248
29.30989 230
29.33 242
29.35012 231
29.37023 207
29.39034 218
29.41046 257
29.43057 224
29.45069 213
29.4708 242
29.49091 233
29.51103 228
29.53114 226
29.55125 235
29.57137 264
29.59148 222
29.6116 258
29.63171 247
29.65182 242
29.67194 237
29.69205 209
29.71216 236
29.73228 245
29.75239 224
29.7725 206
29.79262 211
29.81273 249
29.83285 228
29.85296 226
29.87307 250
29.89319 235
29.9133 258
29.93341 226
29.95353 270
29.97364 236
29.99376 242
30.01387 228
30.03398 245
30.0541 213
30.07421 272
30.09432 212
30.11444 233
30.13455 233
30.15467 235
30.17478 222
30.19489 224
30.21501 220
30.23512 253
30.25523 267
30.27535 234
30.29546 253
30.31557 248
30.33569 217
30.3558 240
30.37592 239
30.39603 214
30.41614 243
30.43626 244
30.45637 240
30.47648 233
30.4966 202
30.51671 237
30.53683 220
30.55694 205
30.57705 212
30.59717 196
30.61728 207
30.63739 223
30.65751 233
30.67762 207
30.69773 173
30.71785 195
30.73796 226
30.75808 200
30.77819 214
30.7983 198
30.81842 192
30.83853 205
30.85864 210
30.87876 218
30.89887 208
30.91899 199
30.9391 204
30.95921 232
30.97933 209
30.99944 200
31.01955 230
31.03967 203
31.05978 223
31.0799 221
31.10001 220
31.12012 221
31.14024 214
31.16035 223
31.18046 210
31.20058 187
31.22069 213
31.2408 231
31.26092 200
31.28103 222
31.30115 234
31.32126 201
31.34137 222
31.36149 194
31.3816 223
31.40171 226
31.42183 215
31.44194 165
31.46206 205
31.48217 229
31.50228 216
31.5224 219
31.54251 175
31.56262 187
31.58274 199
31.60285 196
31.62297 214
31.64308 201
31.66319 226
31.68331 234
31.70342 184
31.72353 190
31.74365 192
31.76376 201
31.78387 195
31.80399 213
31.8241 208
31.84422 210
31.86433 217
31.88444 207
31.90456 204
31.92467 197
31.94478 203
31.9649 187
31.98501 189
32.00513 198
32.02524 219
32.04535 183
32.06547 224
32.08558 181
32.10569 196
32.12581 222
32.14592 184
32.16604 201
32.18615 207
32.20626 194
32.22638 190
32.24649 227
32.2666 215
32.28672 212
32.30683 195
32.32694 183
32.34706 185
32.36717 227
32.38729 200
32.4074 198
32.42751 217
32.44763 203
32.46774 206
32.48785 204
32.50797 193
32.52808 191
32.5482 182
32.56831 226
32.58842 220
32.60854 200
32.62865 215
32.64876 216
32.66888 227
32.68899 202
32.7091 203
32.72922 200
32.74933 233
32.76945 223
32.78956 227
32.80967 206
32.82979 226
32.8499 237
32.87001 202
32.89013 214
32.91024 196
32.93036 200
32.95047 204
32.97058 225
32.9907 238
33.01081 228
33.03092 249
33.05104 258
33.07115 240
33.09127 233
33.11138 247
33.13149 231
33.15161 226
33.17172 232
33.19183 237
33.21195 210
33.23206 248
33.25217 236
33.27229 237
33.2924 238
33.31252 190
33.33263 230
33.35274 219
33.37286 204
33.39297 227
33.41308 246
33.4332 200
33.45331 209
33.47343 202
33.49354 201
33.51365 199
33.53377 230
33.55388 212
33.57399 222
33.59411 228
33.61422 199
33.63434 171
33.65445 195
33.67456 203
33.69468 222
33.71479 219
33.7349 215
33.75502 205
33.77513 202
33.79524 210
33.81536 215
33.83547 215
33.85559 190
33.8757 211
33.89581 203
33.91593 183
33.93604 187
33.95615 182
33.97627 203
33.99638 188
34.0165 183
34.03661 191
34.05672 186
34.07684 176
34.09695 182
34.11706 161
34.13718 197
34.15729 176
34.17741 191
34.19752 184
34.21763 202
34.23775 204
34.25786 175
34.27797 200
34.29809 175
34.3182 196
34.33831 183
34.35843 197
34.37854 205
34.39866 207
34.41877 198
34.43888 211
34.459 185
34.47911 206
34.49922 193
34.51934 203
34.53945 202
34.55957 203
34.57968 194
34.59979 207
34.61991 233
34.64002 244
34.66013 249
34.68025 206
34.70036 245
34.72047 254
34.74059 253
34.7607 261
34.78082 280
34.80093 300
34.82104 317
34.84116 350
34.86127 337
34.88138 344
34.9015 348
34.92161 378
34.94173 363
34.96184 375
34.98195 345
35.00207 373
35.02218 342
35.04229 372
35.06241 315
35.08252 315
35.10264 324
35.12275 322
35.14286 310
35.16298 289
35.18309 274
35.2032 303
35.22332 276
35.24343 292
35.26354 320
35.28366 315
35.30377 293
35.32389 305
35.344 277
35.36411 301
35.38423 289
35.40434 346
35.42445 351
35.44457 304
35.46468 322
35.4848 345
35.50491 323
35.52502 339
35.54514 309
35.56525 357
35.58536 330
35.60548 375
35.62559 341
35.64571 323
35.66582 329
35.68593 339
35.70605 326
35.72616 345
35.74627 366
35.76639 357
35.7865 338
35.80661 410
35.82673 393
35.84684 403
35.86696 379
35.88707 358
35.90718 367
35.9273 400
35.94741 383
35.96752 398
35.98764 411
36.00775 342
36.02787 374
36.04798 344
36.06809 299
36.08821 296
36.10832 332
36.12843 327
36.14855 347
36.16866 338
36.18878 275
36.20889 319
36.229 310
36.24912 364
36.26923 368
36.28934 417
36.30946 474
36.32957 519
36.34968 540
36.3698 795
36.38991 869
36.41003 1150
36.43014 1357
36.45025 1618
36.47037 1863
36.49048 2070
36.51059 2065
36.53071 1999
36.55082 1799
36.57094 1600
36.59105 1326
36.61116 1115
36.63128 923
36.65139 738
36.6715 549
36.69162 452
36.71173 334
36.73184 344
36.75196 296
36.77207 286
36.79219 301
36.8123 263
36.83241 266
36.85253 294
36.87264 302
36.89275 245
36.91287 257
36.93298 265
36.9531 277
36.97321 263
36.99332 256
37.01344 224
37.03355 236
37.05366 204
37.07378 276
37.09389 261
37.11401 269
37.13412 229
37.15423 198
37.17435 227
37.19446 229
37.21457 210
37.23469 241
37.2548 212
37.27491 231
37.29503 234
37.31514 233
37.33526 208
37.35537 227
37.37548 229
37.3956 214
37.41571 224
37.43582 209
37.45594 205
37.47605 248
37.49617 242
37.51628 240
37.53639 205
37.55651 249
37.57662 243
37.59673 257
37.61685 282
37.63696 240
37.65708 249
37.67719 282
37.6973 269
37.71742 299
37.73753 270
37.75764 271
37.77776 264
37.79787 254
37.81798 269
37.8381 239
37.85821 254
37.87833 265
37.89844 247
37.91855 255
37.93867 233
37.95878 252
37.97889 268
37.99901 265
38.01912 246
38.03924 253
38.05935 262
38.07946 260
38.09958 281
38.11969 277
38.1398 296
38.15992 302
38.18003 290
38.20015 321
38.22026 337
38.24037 372
38.26049 386
38.2806 396
38.30071 379
38.32083 390
38.34094 412
38.36105 421
38.38117 403
38.40128 427
38.4214 408
38.44151 419
38.46162 417
38.48174 398
38.50185 388
38.52196 345
38.54208 331
38.56219 334
38.58231 319
38.60242 301
38.62253 330
38.64265 315
38.66276 306
38.68287 308
38.70299 281
38.7231 284
38.74321 270
38.76333 321
38.78344 324
38.80356 276
38.82367 291
38.84378 293
38.8639 267
38.88401 269
38.90412 283
38.92424 309
38.94435 268
38.96447 313
38.98458 321
39.00469 303
39.02481 333
39.04492 366
39.06503 321
39.08515 335
39.10526 347
39.12538 365
39.14549 355
39.1656 435
39.18572 452
39.20583 454
39.22594 483
39.24606 537
39.26617 599
39.28628 697
39.3064 802
39.32651 1040
39.34663 1187
39.36674 1484
39.38685 1679
39.40697 1821
39.42708 2083
39.44719 1891
39.46731 1866
39.48742 1557
39.50754 1296
39.52765 1155
39.54776 1025
39.56788 815
39.58799 652
39.6081 511
39.62822 388
39.64833 305
39.66845 264
39.68856 267
39.70867 253
39.72879 256
39.7489 253
39.76901 234
39.78913 254
39.80924 225
39.82935 242
39.84947 227
39.86958 280
39.8897 281
39.90981 257
39.92992 255
39.95004 265
39.97015 256
39.99026 271
40.01038 292
40.03049 294
40.05061 285
40.07072 331
40.09083 387
40.11095 444
40.13106 507
40.15117 616
40.17129 678
40.1914 850
40.21152 891
40.23163 1045
40.25174 1071
40.27186 1044
40.29197 936
40.31208 812
40.3322 714
40.35231 648
40.37242 581
40.39254 512
40.41265 433
40.43277 342
40.45288 277
40.47299 295
40.49311 232
40.51322 225
40.53333 224
40.55345 224
40.57356 237
40.59368 244
40.61379 227
40.6339 211
40.65402 220
40.67413 211
40.69424 219
40.71436 230
40.73447 234
40.75458 206
40.7747 236
40.79481 222
40.81493 216
40.83504 233
40.85515 236
40.87527 251
40.89538 219
40.91549 240
40.93561 238
40.95572 259
40.97584 227
40.99595 270
41.01606 242
41.03618 284
41.05629 229
41.0764 254
41.09652 216
41.11663 254
41.13675 245
41.15686 224
41.17697 247
41.19709 243
41.2172 226
41.23731 221
41.25743 226
41.27754 217
41.29765 232
41.31777 203
41.33788 237
41.358 231
41.37811 219
41.39822 227
41.41834 223
41.43845 217
41.45856 225
41.47868 230
41.49879 191
41.51891 218
41.53902 217
41.55913 213
41.57925 213
41.59936 213
41.61947 200
41.63959 203
41.6597 216
41.67982 219
41.69993 189
41.72004 197
41.74016 216
41.76027 227
41.78038 189
41.8005 209
41.82061 199
41.84072 218
41.86084 183
41.88095 213
41.90107 200
41.92118 179
41.94129 194
41.96141 198
41.98152 218
42.00163 227
42.02175 250
42.04186 213
42.06198 239
42.08209 238
42.1022 259
42.12232 253
42.14243 255
42.16254 290
42.18266 319
42.20277 337
42.22289 351
42.243 446
42.26311 490
42.28323 562
42.30334 675
42.32345 847
42.34357 1029
42.36368 1183
42.38379 1383
42.40391 1357
42.42402 1365
42.44414 1341
42.46425 1175
42.48436 992
42.50448 854
42.52459 733
42.5447 618
42.56482 525
42.58493 420
42.60505 366
42.62516 318
42.64527 244
42.66539 240
42.6855 212
42.70561 238
42.72573 236
42.74584 242
42.76595 202
42.78607 183
42.80618 203
42.8263 192
42.84641 191
42.86652 210
42.88664 179
42.90675 191
42.92686 192
42.94698 206
42.96709 194
42.98721 182
43.00732 173
43.02743 166
43.04755 205
43.06766 170
43.08777 195
43.10789 182
43.128 174
43.14812 167
43.16823 178
43.18834 210
43.20846 189
43.22857 179
43.24868 173
43.2688 182
43.28891 196
43.30902 201
43.32914 162
43.34925 160
43.36937 185
43.38948 190
43.40959 188
43.42971 183
43.44982 186
43.46993 180
43.49005 186
43.51016 189
43.53028 215
43.55039 189
43.5705 174
43.59062 190
43.61073 181
43.63084 207
43.65096 199
43.67107 182
43.69119 180
43.7113 193
43.73141 194
43.75153 207
43.77164 170
43.79175 194
43.81187 198
43.83198 195
43.85209 189
43.87221 172
43.89232 195
43.91244 169
43.93255 180
43.95266 157
43.97278 194
43.99289 163
44.013 202
44.03312 184
44.05323 214
44.07335 178
44.09346 189
44.11357 175
44.13369 177
44.1538 193
44.17391 190
44.19403 166
44.21414 173
44.23426 186
44.25437 167
44.27448 173
44.2946 200
44.31471 180
44.33482 183
44.35494 169
44.37505 194
44.39516 203
44.41528 197
44.43539 194
44.45551 177
44.47562 202
44.49573 165
44.51585 169
44.53596 170
44.55607 180
44.57619 174
44.5963 174
44.61642 183
44.63653 165
44.65664 165
44.67676 180
44.69687 212
44.71698 170
44.7371 164
44.75721 178
44.77732 180
44.79744 185
44.81755 179
44.83767 175
44.85778 181
44.87789 208
44.89801 198
44.91812 182
44.93823 183
44.95835 180
44.97846 219
44.99858 201
45.01869 192
45.0388 190
45.05892 207
45.07903 211
45.09914 210
45.11926 180
45.13937 201
45.15949 193
45.1796 211
45.19971 181
45.21983 210
45.23994 220
45.26005 211
45.28017 209
45.30028 227
45.32039 253
45.34051 276
45.36062 270
45.38074 250
45.40085 230
45.42096 272
45.44108 260
45.46119 265
45.4813 284
45.50142 300
45.52153 310
45.54165 354
45.56176 359
45.58187 404
45.60199 412
45.6221 493
45.64221 564
45.66233 648
45.68244 795
45.70256 857
45.72267 964
45.74278 977
45.7629 933
45.78301 927
45.80312 850
45.82324 754
45.84335 640
45.86346 580
45.88358 539
45.90369 448
45.92381 427
45.94392 320
45.96403 269
45.98415 244
46.00426 234
46.02437 228
46.04449 211
46.0646 197
46.08472 202
46.10483 204
46.12494 207
46.14506 201
46.16517 188
46.18528 198
46.2054 175
46.22551 175
46.24563 195
46.26574 199
46.28585 179
46.30597 184
46.32608 204
46.34619 195
46.36631 174
46.38642 199
46.40653 203
46.42665 197
46.44676 183
46.46688 178
46.48699 204
46.5071 185
46.52722 198
46.54733 164
46.56744 179
46.58756 181
46.60767 170
46.62779 203
46.6479 217
46.66801 193
46.68813 178
46.70824 200
46.72835 187
46.74847 202
46.76858 188
46.78869 157
46.80881 183
46.82892 197
46.84904 178
46.86915 182
46.88926 202
46.90938 197
46.92949 187
46.9496 167
46.96972 177
46.98983 196
47.00995 183
47.03006 185
47.05017 173
47.07029 164
47.0904 166
47.11051 192
47.13063 169
47.15074 169
47.17086 179
47.19097 168
47.21108 174
47.2312 183
47.25131 177
47.27142 192
47.29154 184
47.31165 196
47.33176 183
47.35188 201
47.37199 175
47.39211 203
47.41222 186
47.43233 189
47.45245 183
47.47256 177
47.49267 184
47.51279 194
47.5329 199
47.55302 206
47.57313 184
47.59324 207
47.61336 185
47.63347 158
47.65358 174
47.6737 169
47.69381 167
47.71393 185
47.73404 157
47.75415 183
47.77427 181
47.79438 199
47.81449 168
47.83461 199
47.85472 195
47.87483 169
47.89495 191
47.91506 209
47.93518 178
47.95529 202
47.9754 170
47.99552 180
48.01563 217
48.03574 201
48.05586 194
48.07597 193
48.09609 186
48.1162 196
48.13631 183
48.15643 164
48.17654 165
48.19665 164
48.21677 171
48.23688 155
48.257 173
48.27711 168
48.29722 181
48.31734 181
48.33745 174
48.35756 177
48.37768 203
48.39779 193
48.4179 170
48.43802 164
48.45813 188
48.47825 191
48.49836 212
48.51847 174
48.53859 169
48.5587 186
48.57881 157
48.59893 193
48.61904 161
48.63916 156
48.65927 205
48.67938 177
48.6995 169
48.71961 191
48.73972 192
48.75984 203
48.77995 183
48.80006 181
48.82018 193
48.84029 188
48.86041 190
48.88052 170
48.90063 185
48.92075 178
48.94086 188
48.96097 187
48.98109 186
49.0012 186
49.02132 184
49.04143 189
49.06154 194
49.08166 182
49.10177 191
49.12188 188
49.142 198
49.16211 194
49.18223 186
49.20234 219
49.22245 193
49.24257 191
49.26268 180
49.28279 205
49.30291 212
49.32302 187
49.34313 214
49.36325 201
49.38336 245
49.40348 220
49.42359 214
49.4437 211
49.46382 212
49.48393 225
49.50404 215
49.52416 217
49.54427 218
49.56439 245
49.5845 237
49.60461 253
49.62473 247
49.64484 239
49.66495 256
49.68507 248
49.70518 260
49.7253 290
49.74541 322
49.76552 296
49.78564 310
49.80575 358
49.82586 384
49.84598 460
49.86609 515
49.8862 618
49.90632 752
49.92643 817
49.94655 986
49.96666 1230
49.98677 1478
50.00689 1853
50.027 2225
50.04711 2553
50.06723 2898
50.08734 3061
50.10746 2950
50.12757 2737
50.14768 2418
50.1678 2006
50.18791 1859
50.20802 1661
50.22814 1589
50.24825 1378
50.26837 1126
50.28848 896
50.30859 600
50.32871 441
50.34882 341
50.36893 328
50.38905 288
50.40916 267
50.42927 284
50.44939 279
50.4695 274
50.48962 258
50.50973 274
50.52984 255
50.54996 293
50.57007 255
50.59018 290
50.6103 269
50.63041 245
50.65053 241
50.67064 226
50.69075 222
50.71087 246
50.73098 224
50.75109 220
50.77121 202
50.79132 207
50.81143 186
50.83155 185
50.85166 212
50.87178 208
50.89189 201
50.912 190
50.93212 209
50.95223 193
50.97234 195
50.99246 194
51.01257 209
51.03269 206
51.0528 182
51.07291 210
51.09303 174
51.11314 177
51.13325 164
51.15337 169
51.17348 192
51.1936 185
51.21371 191
51.23382 182
51.25394 171
51.27405 195
51.29416 166
51.31428 154
51.33439 160
51.3545 173
51.37462 170
51.39473 181
51.41485 162
51.43496 158
51.45507 174
51.47519 158
51.4953 160
51.51541 161
51.53553 156
51.55564 155
51.57576 143
51.59587 145
51.61598 154
51.6361 194
51.65621 157
51.67632 175
51.69644 141
51.71655 155
51.73667 175
51.75678 168
51.77689 158
51.79701 171
51.81712 153
51.83723 167
51.85735 158
51.87746 146
51.89757 185
51.91769 162
51.9378 160
51.95792 149
51.97803 146
51.99814 168
52.01826 178
52.03837 171
52.05848 151
52.0786 174
52.09871 182
52.11883 159
52.13894 174
52.15905 165
52.17917 166
52.19928 166
52.21939 167
52.23951 143
52.25962 159
52.27974 173
52.29985 163
52.31996 161
52.34008 166
52.36019 174
52.3803 162
52.40042 214
52.42053 165
52.44064 150
52.46076 175
52.48087 127
52.50099 157
52.5211 155
52.54121 140
52.56133 152
52.58144 168
52.60155 171
52.62167 153
52.64178 164
52.6619 135
52.68201 154
52.70212 172
52.72224 163
52.74235 140
52.76246 141
52.78258 178
52.80269 182
52.8228 173
52.84292 173
52.86303 171
52.88315 157
52.90326 142
52.92337 178
52.94349 173
52.9636 151
52.98371 184
53.00383 179
53.02394 156
53.04406 170
53.06417 185
53.08428 182
53.1044 174
53.12451 153
53.14462 174
53.16474 173
53.18485 171
53.20497 187
53.22508 186
53.24519 193
53.26531 192
53.28542 196
53.30553 218
53.32565 209
53.34576 180
53.36587 202
53.38599 204
53.4061 190
53.42622 200
53.44633 200
53.46644 193
53.48656 224
53.50667 205
53.52678 205
53.5469 197
53.56701 202
53.58713 218
53.60724 180
53.62735 203
53.64747 172
53.66758 208
53.68769 183
53.70781 200
53.72792 180
53.74804 205
53.76815 209
53.78826 195
53.80838 190
53.82849 191
53.8486 190
53.86872 205
53.88883 213
53.90894 210
53.92906 206
53.94917 222
53.96929 198
53.9894 224
54.00951 219
54.02963 216
54.04974 215
54.06985 234
54.08997 226
54.11008 223
54.1302 241
54.15031 242
54.17042 245
54.19054 244
54.21065 241
54.23076 240
54.25088 250
54.27099 272
54.29111 230
54.31122 263
54.33133 257
54.35145 242
54.37156 253
54.39167 265
54.41179 268
54.4319 263
54.45201 228
54.47213 278
54.49224 290
54.51236 271
54.53247 296
54.55258 287
54.5727 299
54.59281 333
54.61292 319
54.63304 380
54.65315 422
54.67327 448
54.69338 565
54.71349 595
54.73361 691
54.75372 840
54.77383 930
54.79395 912
54.81406 1028
54.83417 1041
54.85429 970
54.8744 876
54.89452 808
54.91463 682
54.93474 632
54.95486 722
54.97497 666
54.99508 652
55.0152 574
55.03531 479
55.05543 402
55.07554 375
55.09565 401
55.11577 378
55.13588 381
55.15599 452
55.17611 438
55.19622 453
55.21634 516
55.23645 541
55.25656 573
55.27668 606
55.29679 604
55.3169 521
55.33702 489
55.35713 411
55.37724 428
55.39736 423
55.41747 422
55.43759 387
55.4577 365
55.47781 343
55.49793 319
55.51804 255
55.53815 275
55.55827 233
55.57838 257
55.5985 230
55.61861 241
55.63872 214
55.65884 224
55.67895 195
55.69906 219
55.71918 243
55.73929 215
55.75941 227
55.77952 200
55.79963 223
55.81975 195
55.83986 209
55.85997 193
55.88009 204
55.9002 202
55.92031 215
55.94043 185
55.96054 201
55.98066 201
56.00077 208
56.02088 189
56.041 198
56.06111 197
56.08122 192
56.10134 194
56.12145 192
56.14157 187
56.16168 179
56.18179 192
56.20191 184
56.22202 197
56.24213 212
56.26225 186
56.28236 197
56.30248 193
56.32259 193
56.3427 203
56.36282 183
56.38293 198
56.40304 214
56.42316 193
56.44327 212
56.46338 209
56.4835 212
56.50361 193
56.52373 222
56.54384 205
56.56395 184
56.58407 188
56.60418 228
56.62429 185
56.64441 203
56.66452 195
56.68464 192
56.70475 225
56.72486 192
56.74498 193
56.76509 208
56.7852 177
56.80532 209
56.82543 192
56.84554 202
56.86566 172
56.88577 184
56.90589 192
56.926 190
56.94611 174
56.96623 204
56.98634 193
57.00645 198
57.02657 200
57.04668 189
57.0668 203
57.08691 226
57.10702 225
57.12714 224
57.14725 217
57.16736 232
57.18748 207
57.20759 223
57.22771 184
57.24782 171
57.26793 180
57.28805 207
57.30816 192
57.32827 198
57.34839 217
57.3685 185
57.38861 180
57.40873 197
57.42884 189
57.44896 194
57.46907 167
57.48918 172
57.5093 188
57.52941 192
57.54952 169
57.56964 168
57.58975 182
57.60987 156
57.62998 171
57.65009 179
57.67021 190
57.69032 176
57.71043 184
57.73055 188
57.75066 172
57.77078 206
57.79089 187
57.811 182
57.83112 171
57.85123 153
57.87134 183
57.89146 182
57.91157 171
57.93168 183
57.9518 166
57.97191 172
57.99203 165
58.01214 192
58.03225 189
58.05237 197
58.07248 166
58.09259 149
58.11271 176
58.13282 182
58.15294 155
58.17305 192
58.19316 168
58.21328 161
58.23339 171
58.2535 186
58.27362 185
58.29373 181
58.31385 158
58.33396 178
58.35407 199
58.37419 184
58.3943 159
58.41441 188
58.43453 159
58.45464 177
58.47475 154
58.49487 153
58.51498 188
58.5351 171
58.55521 169
58.57532 180
58.59544 194
58.61555 179
58.63566 161
58.65578 164
58.67589 138
58.69601 171
58.71612 176
58.73623 177
58.75635 155
58.77646 162
58.79657 164
58.81669 162
58.8368 176
58.85691 180
58.87703 173
58.89714 189
58.91726 185
58.93737 179
58.95748 187
58.9776 172
58.99771 164
59.01782 172
59.03794 190
59.05805 175
59.07817 219
59.09828 192
59.11839 193
59.13851 168
59.15862 169
59.17873 186
59.19885 194
59.21896 173
59.23908 202
59.25919 211
59.2793 201
59.29942 200
59.31953 196
59.33964 201
59.35976 200
59.37987 202
59.39998 208
59.4201 214
59.44021 231
59.46033 226
59.48044 259
59.50055 236
59.52067 247
59.54078 299
59.56089 286
59.58101 312
59.60112 315
59.62124 352
59.64135 383
59.66146 409
59.68158 461
59.70169 476
59.7218 612
59.74192 679
59.76203 779
59.78215 901
59.80226 1119
59.82237 1308
59.84249 1504
59.8626 1712
59.88271 1906
59.90283 1987
59.92294 1887
59.94305 1654
59.96317 1361
59.98328 1241
60.0034 1115
60.02351 1136
60.04362 1112
60.06374 1037
60.08385 990
60.10396 858
60.12408 667
60.14419 549
60.16431 385
60.18442 336
60.20453 289
60.22465 256
60.24476 247
60.26487 243
60.28499 224
60.3051 216
60.32522 216
60.34533 213
60.36544 215
60.38556 214
60.40567 216
60.42578 190
60.4459 201
60.46601 188
60.48612 194
60.50624 197
60.52635 177
60.54647 168
60.56658 162
60.58669 180
60.60681 175
60.62692 171
60.64703 170
60.66715 167
60.68726 184
60.70738 174
60.72749 176
60.7476 149
60.76772 191
60.78783 155
60.80794 171
60.82806 163
60.84817 164
60.86828 177
60.8884 175
60.90851 153
60.92863 152
60.94874 172
60.96885 174
60.98897 185
61.00908 179
61.02919 160
61.04931 173
61.06942 158
61.08954 164
61.10965 149
61.12976 160
61.14988 153
61.16999 146
61.1901 161
61.21022 166
61.23033 177
61.25045 171
61.27056 154
61.29067 158
61.31079 173
61.3309 186
61.35101 184
61.37113 155
61.39124 164
61.41135 169
61.43147 196
61.45158 177
61.4717 170
61.49181 178
61.51192 179
61.53204 174
61.55215 198
61.57226 171
61.59238 185
61.61249 193
61.63261 158
61.65272 170
61.67283 186
61.69295 175
61.71306 175
61.73317 178
61.75329 195
61.7734 194
61.79352 189
61.81363 190
61.83374 189
61.85386 183
61.87397 214
61.89408 212
61.9142 203
61.93431 219
61.95442 209
61.97454 243
61.99465 216
62.01477 222
62.03488 218
62.05499 269
62.07511 272
62.09522 256
62.11533 246
62.13545 269
62.15556 269
62.17568 294
62.19579 281
62.2159 312
62.23602 318
62.25613 317
62.27624 271
62.29636 284
62.31647 277
62.33659 298
62.3567 288
62.37681 264
62.39693 239
62.41704 254
62.43715 274
62.45727 256
62.47738 244
62.49749 210
62.51761 223
62.53772 220
62.55784 215
62.57795 209
62.59806 207
62.61818 192
62.63829 204
62.6584 182
62.67852 195
62.69863 193
62.71875 199
62.73886 170
62.75897 199
62.77909 163
62.7992 174
62.81931 205
62.83943 205
62.85954 176
62.87965 188
62.89977 175
62.91988 179
62.94 153
62.96011 192
62.98022 188
63.00034 167
63.02045 179
63.04056 175
63.06068 170
63.08079 174
63.10091 169
63.12102 177
63.14113 168
63.16125 177
63.18136 180
63.20147 160
63.22159 160
63.2417 188
63.26182 182
63.28193 154
63.30204 166
63.32216 192
63.34227 195
63.36238 163
63.3825 175
63.40261 170
63.42272 180
63.44284 182
63.46295 186
63.48307 178
63.50318 171
63.52329 200
63.54341 180
63.56352 177
63.58363 217
63.60375 187
63.62386 183
63.64398 185
63.66409 205
63.6842 216
63.70432 233
63.72443 223
63.74454 244
63.76466 201
63.78477 235
63.80489 245
63.825 304
63.84511 334
63.86523 339
63.88534 363
63.90545 400
63.92557 462
63.94568 503
63.96579 492
63.98591 479
64.00602 493
64.02614 437
64.04625 434
64.06636 346
64.08648 321
64.10659 328
64.1267 323
64.14682 339
64.16693 349
64.18705 287
64.20716 279
64.22727 265
64.24739 226
64.2675 203
64.28761 183
64.30773 182
64.32784 187
64.34796 168
64.36807 197
64.38818 189
64.4083 171
64.42841 177
64.44852 163
64.46864 160
64.48875 162
64.50886 163
64.52898 170
64.54909 163
64.56921 181
64.58932 174
64.60943 148
64.62955 174
64.64966 159
64.66977 167
64.68989 196
64.71 173
64.73012 149
64.75023 159
64.77034 143
64.79046 150
64.81057 141
64.83068 171
64.8508 168
64.87091 153
64.89102 160
64.91114 153
64.93125 158
64.95137 157
64.97148 177
64.99159 177
65.01171 147
65.03182 140
65.05193 157
65.07205 175
65.09216 133
65.11228 160
65.13239 174
65.1525 167
65.17262 160
65.19273 181
65.21284 166
65.23296 164
65.25307 173
65.27319 170
65.2933 155
65.31341 154
65.33353 191
65.35364 174
65.37375 156
65.39387 152
65.41398 188
65.43409 167
65.45421 151
65.47432 188
65.49444 187
65.51455 162
65.53466 145
65.55478 166
65.57489 199
65.595 200
65.61512 186
65.63523 213
65.65535 225
65.67546 211
65.69557 225
65.71569 244
65.7358 256
65.75591 235
65.77603 215
65.79614 189
65.81626 187
65.83637 193
65.85648 206
65.8766 189
65.89671 207
65.91682 189
65.93694 198
65.95705 177
65.97716 175
65.99728 177
66.01739 164
66.03751 172
66.05762 174
66.07773 178
66.09785 161
66.11796 161
66.13807 179
66.15819 167
66.1783 191
66.19842 166
66.21853 181
66.23864 162
66.25876 153
66.27887 158
66.29898 166
66.3191 157
66.33921 187
66.35933 159
66.37944 158
66.39955 176
66.41967 146
66.43978 165
66.45989 165
66.48001 173
66.50012 164
66.52023 148
66.54035 164
66.56046 183
66.58058 167
66.60069 182
66.6208 187
66.64092 163
66.66103 189
66.68114 149
66.70126 167
66.72137 156
66.74149 172
66.7616 212
66.78171 153
66.80183 158
66.82194 153
66.84205 182
66.86217 159
66.88228 168
66.90239 186
66.92251 170
66.94262 173
66.96274 178
66.98285 142
67.00296 185
67.02308 183
67.04319 203
67.0633 193
67.08342 187
67.10353 177
67.12365 174
67.14376 211
67.16387 200
67.18399 212
67.2041 217
67.22421 195
67.24433 223
67.26444 205
67.28456 212
67.30467 238
67.32478 228
67.3449 250
67.36501 258
67.38512 267
67.40524 255
67.42535 317
67.44546 317
67.46558 371
67.48569 381
67.50581 402
67.52592 490
67.54603 574
67.56615 655
67.58626 748
67.60637 892
67.62649 1014
67.6466 1084
67.66672 1137
67.68683 1212
67.70694 1172
67.72706 1066
67.74717 973
67.76728 829
67.7874 796
67.80751 784
67.82763 790
67.84774 784
67.86785 901
67.88797 865
67.90808 863
67.92819 882
67.94831 936
67.96842 1004
67.98853 1011
68.00865 1120
68.02876 1201
68.04888 1371
68.06899 1495
68.0891 1602
68.10922 1576
68.12933 1532
68.14944 1464
68.16956 1356
68.18967 1334
68.20979 1372
68.2299 1412
68.25001 1422
68.27013 1446
68.29024 1372
68.31035 1184
68.33047 944
68.35058 853
68.3707 774
68.39081 676
68.41092 595
68.43104 581
68.45115 550
68.47126 524
68.49138 438
68.51149 440
68.5316 368
68.55172 286
68.57183 256
68.59195 243
68.61206 227
68.63217 213
68.65229 208
68.6724 222
68.69251 189
68.71263 188
68.73274 180
68.75286 179
68.77297 189
68.79308 179
68.8132 186
68.83331 168
68.85342 201
68.87354 164
68.89365 173
68.91376 186
68.93388 196
68.95399 165
68.97411 185
68.99422 193
69.01433 171
69.03445 178
69.05456 156
69.07467 173
69.09479 174
69.1149 171
69.13502 154
69.15513 186
69.17524 189
69.19536 154
69.21547 191
69.23558 159
69.2557 154
69.27581 166
69.29593 164
69.31604 161
69.33615 179
69.35627 156
69.37638 170
69.39649 135
69.41661 163
69.43672 166
69.45683 162
69.47695 169
69.49706 155
69.51718 174
69.53729 126
69.5574 157
69.57752 173
69.59763 148
69.61774 164
69.63786 170
69.65797 172
69.67809 172
69.6982 152
69.71831 152
69.73843 152
69.75854 165
69.77865 139
69.79877 173
69.81888 149
69.839 168
69.85911 162
69.87922 162
69.89934 170
69.91945 166
69.93956 156
69.95968 151
69.97979 155
69.9999 147
70.02002 162
70.04013 139
70.06025 157
70.08036 187
70.10047 167
70.12059 156
70.1407 148
70.16081 153
70.18093 152
70.20104 165
70.22116 146
70.24127 178
70.26138 163
70.2815 140
70.30161 159
70.32172 148
70.34184 163
70.36195 173
70.38207 156
70.40218 157
70.42229 148
70.44241 139
70.46252 147
70.48263 163
70.50275 149
70.52286 161
70.54297 159
70.56309 154
70.5832 150
70.60332 167
70.62343 158
70.64354 135
70.66366 153
70.68377 154
70.70388 166
70.724 158
70.74411 138
70.76423 160
70.78434 141
70.80445 138
70.82457 160
70.84468 171
70.86479 158
70.88491 146
70.90502 141
70.92513 162
70.94525 146
70.96536 117
70.98548 156
71.00559 135
71.0257 149
71.04582 163
71.06593 157
71.08604 157
71.10616 148
71.12627 128
71.14639 161
71.1665 153
71.18661 173
71.20673 179
71.22684 158
71.24695 140
71.26707 152
71.28718 154
71.3073 168
71.32741 143
71.34752 168
71.36764 151
71.38775 149
71.40786 136
71.42798 166
71.44809 140
71.4682 141
71.48832 144
71.50843 151
71.52855 163
71.54866 144
71.56877 147
71.58889 154
71.609 159
71.62911 138
71.64923 147
71.66934 168
71.68946 150
71.70957 156
71.72968 145
71.7498 157
71.76991 175
71.79002 158
71.81014 175
71.83025 165
71.85037 165
71.87048 176
71.89059 143
71.91071 136
71.93082 174
71.95093 163
71.97105 174
71.99116 182
72.01127 186
72.03139 164
72.0515 175
72.07162 167
72.09173 174
72.11184 161
72.13196 170
72.15207 176
72.17218 169
72.1923 185
72.21241 154
72.23253 164
72.25264 170
72.27275 154
72.29287 186
72.31298 151
72.33309 150
72.35321 172
72.37332 165
72.39344 143
72.41355 156
72.43366 150
72.45378 157
72.47389 159
72.494 153
72.51412 167
72.53423 158
72.55434 144
72.57446 137
72.59457 165
72.61469 127
72.6348 161
72.65491 162
72.67503 183
72.69514 147
72.71525 147
72.73537 152
72.75548 148
72.7756 143
72.79571 160
72.81582 138
72.83594 146
72.85605 173
72.87616 165
72.89628 152
72.91639 158
72.9365 165
72.95662 172
72.97673 166
72.99685 170
73.01696 164
73.03707 155
73.05719 179
73.0773 192
73.09741 187
73.11753 184
73.13764 194
73.15776 206
73.17787 189
73.19798 212
73.2181 249
73.23821 271
73.25832 274
73.27844 317
73.29855 355
73.31867 388
73.33878 415
73.35889 458
73.37901 470
73.39912 491
73.41923 520
73.43935 504
73.45946 416
73.47957 392
73.49969 355
73.5198 320
73.53992 320
73.56003 311
73.58014 348
73.60026 304
73.62037 321
73.64048 342
73.6606 306
73.68071 275
73.70083 255
73.72094 225
73.74105 195
73.76117 196
73.78128 205
73.80139 169
73.82151 151
73.84162 176
73.86174 160
73.88185 161
73.90196 163
73.92208 187
73.94219 162
73.9623 149
73.98242 169
74.00253 143
74.02264 180
74.04276 159
74.06287 134
74.08299 140
74.1031 157
74.12321 154
74.14333 156
74.16344 152
74.18355 171
74.20367 152
74.22378 170
74.2439 143
74.26401 150
74.28412 158
74.30424 154
74.32435 163
74.34446 151
74.36458 134
74.38469 146
74.40481 174
74.42492 160
74.44503 139
74.46515 147
74.48526 154
74.50537 165
74.52549 143
74.5456 126
74.56571 138
74.58583 147
74.60594 146
74.62606 159
74.64617 152
74.66628 162
74.6864 174
74.70651 140
74.72662 136
74.74674 136
74.76685 132
74.78697 152
74.80708 161
74.82719 157
74.84731 140
74.86742 157
74.88753 160
74.90765 164
74.92776 159
74.94787 171
74.96799 148
74.9881 154
75.00822 162
