3.00117 21086
3.02128 19953
3.0414 19681
3.06151 19336
3.08162 18535
3.10174 18059
3.12185 17392
3.14197 17105
3.16208 16610
3.18219 16338
3.20231 15687
3.22242 15019
3.24253 14690
3.26265 14413
3.28276 14117
3.30288 13808
3.32299 12999
3.3431 12567
3.36322 12296
3.38333 11810
3.40344 11722
3.42356 10906
3.44367 10805
3.46379 10436
3.4839 9940
3.50401 9596
3.52413 9528
3.54424 9111
3.56435 8719
3.58447 8459
3.60458 8113
3.62469 7537
3.64481 7629
3.66492 7082
3.68504 7068
3.70515 6800
3.72526 6272
3.74538 6071
3.76549 6035
3.7856 5676
3.80572 5578
3.82583 5027
3.84595 5078
3.86606 4707
3.88617 4696
3.90629 4603
3.9264 4131
3.94651 4076
3.96663 4074
3.98674 3782
4.00686 3739
4.02697 3302
4.04708 3205
4.0672 3129
4.08731 3039
4.10742 3101
4.12754 2724
4.14765 2689
4.16776 2636
4.18788 2558
4.20799 2517
4.22811 2240
4.24822 2271
4.26833 2170
4.28845 2109
4.30856 2144
4.32867 1817
4.34879 1985
4.3689 1892
4.38902 1756
4.40913 1828
4.42924 1701
4.44936 1720
4.46947 1658
4.48958 1628
4.5097 1705
4.52981 1462
4.54992 1464
4.57004 1550
4.59015 1441
4.61027 1478
4.63038 1379
4.65049 1326
4.67061 1385
4.69072 1300
4.71083 1355
4.73095 1266
4.75106 1238
4.77118 1194
4.79129 1193
4.8114 1155
4.83152 1097
4.85163 1020
4.87174 1055
4.89186 1035
4.91197 1004
4.93209 1040
4.9522 1025
4.97231 966
4.99243 964
5.01254 953
5.03265 927
5.05277 888
5.07288 988
5.09299 955
5.11311 858
5.13322 870
5.15334 901
5.17345 793
5.19356 901
5.21368 804
5.23379 793
5.2539 776
5.27402 790
5.29413 786
5.31425 706
5.33436 727
5.35447 697
5.37459 715
5.3947 737
5.41481 675
5.43493 676
5.45504 692
5.47516 683
5.49527 637
5.51538 630
5.5355 666
5.55561 646
5.57572 618
5.59584 621
5.61595 666
5.63606 623
5.65618 599
5.67629 557
5.69641 644
5.71652 581
5.73663 577
5.75675 542
5.77686 554
5.79697 584
5.81709 558
5.8372 578
5.85732 512
5.87743 558
5.89754 517
5.91766 539
5.93777 527
5.95788 483
5.978 498
5.99811 521
6.01823 536
6.03834 487
6.05845 477
6.07857 482
6.09868 563
6.11879 561
6.13891 503
6.15902 489
6.17913 547
6.19925 504
6.21936 469
6.23948 503
6.25959 511
6.2797 470
6.29982 508
6.31993 474
6.34004 471
6.36016 470
6.38027 458
6.40039 419
6.4205 490
6.44061 433
6.46073 472
6.48084 426
6.50095 410
6.52107 433
6.54118 420
6.56129 420
6.58141 454
6.60152 449
6.62164 454
6.64175 474
6.66186 442
6.68198 413
6.70209 411
6.7222 455
6.74232 445
6.76243 409
6.78255 430
6.80266 377
6.82277 393
6.84289 420
6.863 397
6.88311 431
6.90323 381
6.92334 396
6.94346 414
6.96357 429
6.98368 440
7.0038 409
7.02391 442
7.04402 403
7.06414 428
7.08425 433
7.10436 460
7.12448 431
7.14459 446
7.16471 387
7.18482 417
7.20493 413
7.22505 457
7.24516 430
7.26527 361
7.28539 446
7.3055 440
7.32562 436
7.34573 426
7.36584 411
7.38596 373
7.40607 408
7.42618 373
7.4463 423
7.46641 451
7.48653 444
7.50664 442
7.52675 431
7.54687 413
7.56698 375
7.58709 374
7.60721 462
7.62732 419
7.64743 392
7.66755 415
7.68766 393
7.70778 437
7.72789 424
7.748 437
7.76812 401
7.78823 434
7.80834 413
7.82846 417
7.84857 376
7.86869 369
7.8888 382
7.90891 412
7.92903 443
7.94914 427
7.96925 430
7.98937 387
8.00948 396
8.0296 404
8.04971 429
8.06982 432
8.08994 457
8.11005 415
8.13016 436
8.15028 401
8.17039 464
8.1905 426
8.21062 462
8.23073 427
8.25085 446
8.27096 398
8.29107 426
8.31119 449
8.3313 435
8.35141 422
8.37153 408
8.39164 435
8.41176 441
8.43187 481
8.45198 460
8.4721 456
8.49221 456
8.51232 465
8.53244 465
8.55255 441
8.57266 450
8.59278 449
8.61289 448
8.63301 464
8.65312 473
8.67323 526
8.69335 521
8.71346 496
8.73357 499
8.75369 523
8.7738 629
8.79392 563
8.81403 641
8.83414 686
8.85426 645
8.87437 706
8.89448 621
8.9146 608
8.93471 568
8.95483 485
8.97494 461
8.99505 434
9.01517 476
9.03528 454
9.05539 442
9.07551 450
9.09562 447
9.11573 432
9.13585 431
9.15596 413
9.17608 465
9.19619 398
9.2163 438
9.23642 408
9.25653 470
9.27664 412
9.29676 431
9.31687 418
9.33699 445
9.3571 448
9.37721 414
9.39733 419
9.41744 411
9.43755 428
9.45767 437
9.47778 410
9.4979 432
9.51801 411
9.53812 435
9.55824 426
9.57835 414
9.59846 426
9.61858 424
9.63869 382
9.6588 396
9.67892 415
9.69903 386
9.71915 389
9.73926 427
9.75937 413
9.77949 381
9.7996 402
9.81971 407
9.83983 421
9.85994 398
9.88006 434
9.90017 417
9.92028 389
9.9404 403
9.96051 387
9.98062 448
10.00074 445
10.02085 365
10.04097 406
10.06108 411
10.08119 384
10.10131 404
10.12142 426
10.14153 370
10.16165 417
10.18176 399
10.20187 430
10.22199 435
10.2421 388
10.26222 426
10.28233 427
10.30244 411
10.32256 390
10.34267 407
10.36278 406
10.3829 437
10.40301 387
10.42313 447
10.44324 407
10.46335 399
10.48347 425
10.50358 435
10.52369 435
10.54381 435
10.56392 347
10.58403 409
10.60415 374
10.62426 417
10.64438 413
10.66449 417
10.6846 356
10.70472 417
10.72483 415
10.74494 419
10.76506 435
10.78517 427
10.80529 398
10.8254 433
10.84551 380
10.86563 372
10.88574 419
10.90585 410
10.92597 440
10.94608 409
10.9662 384
10.98631 402
11.00642 395
11.02654 436
11.04665 419
11.06676 419
11.08688 407
11.10699 401
11.1271 411
11.14722 414
11.16733 355
11.18745 423
11.20756 450
11.22767 409
11.24779 434
11.2679 373
11.28801 417
11.30813 413
11.32824 410
11.34836 438
11.36847 395
11.38858 416
11.4087 419
11.42881 391
11.44892 490
11.46904 414
11.48915 445
11.50927 440
11.52938 386
11.54949 423
11.56961 438
11.58972 404
11.60983 408
11.62995 410
11.65006 421
11.67017 415
11.69029 415
11.7104 444
11.73052 408
11.75063 435
11.77074 448
11.79086 448
11.81097 432
11.83108 436
11.8512 485
11.87131 451
11.89143 483
11.91154 441
11.93165 431
11.95177 509
11.97188 455
11.99199 437
12.01211 488
12.03222 464
12.05234 488
12.07245 466
12.09256 482
12.11268 426
12.13279 491
12.1529 450
12.17302 470
12.19313 457
12.21324 519
12.23336 460
12.25347 507
12.27359 516
12.2937 497
12.31381 513
12.33393 516
12.35404 547
12.37415 458
12.39427 477
12.41438 467
12.4345 498
12.45461 478
12.47472 423
12.49484 485
12.51495 464
12.53506 462
12.55518 437
12.57529 441
12.5954 452
12.61552 417
12.63563 391
12.65575 379
12.67586 407
12.69597 401
12.71609 427
12.7362 367
12.75631 401
12.77643 401
12.79654 425
12.81666 406
12.83677 375
12.85688 394
12.877 365
12.89711 372
12.91722 413
12.93734 390
12.95745 357
12.97757 353
12.99768 369
13.01779 399
13.03791 419
13.05802 342
13.07813 375
13.09825 376
13.11836 393
13.13847 376
13.15859 370
13.1787 349
13.19882 379
13.21893 349
13.23904 361
13.25916 348
13.27927 368
13.29938 398
13.3195 350
13.33961 370
13.35973 394
13.37984 405
13.39995 422
13.42007 370
13.44018 391
13.46029 376
13.48041 372
13.50052 349
13.52064 378
13.54075 384
13.56086 368
13.58098 371
13.60109 365
13.6212 371
13.64132 359
13.66143 374
13.68154 356
13.70166 377
13.72177 363
13.74189 388
13.762 349
13.78211 392
13.80223 373
13.82234 395
13.84245 405
13.86257 399
13.88268 408
13.9028 404
13.92291 384
13.94302 399
13.96314 389
13.98325 384
14.00336 350
14.02348 371
14.04359 352
14.06371 372
14.08382 322
14.10393 376
14.12405 361
14.14416 366
14.16427 373
14.18439 329
14.2045 361
14.22461 362
14.24473 358
14.26484 353
14.28496 383
14.30507 390
14.32518 381
14.3453 355
14.36541 344
14.38552 356
14.40564 376
14.42575 370
14.44587 382
14.46598 347
14.48609 325
14.50621 353
14.52632 382
14.54643 367
14.56655 366
14.58666 329
14.60677 343
14.62689 322
14.647 337
14.66712 361
14.68723 375
14.70734 355
14.72746 342
14.74757 366
14.76768 332
14.7878 357
14.80791 337
14.82803 340
14.84814 341
14.86825 360
14.88837 354
14.90848 350
14.92859 368
14.94871 382
14.96882 358
14.98894 390
15.00905 352
15.02916 339
15.04928 364
15.06939 365
15.0895 355
15.10962 340
15.12973 328
15.14984 380
15.16996 360
15.19007 358
15.21019 319
15.2303 340
15.25041 350
15.27053 352
15.29064 342
15.31075 383
15.33087 361
15.35098 322
15.3711 327
15.39121 356
15.41132 365
15.43144 350
15.45155 344
15.47166 357
15.49178 370
15.51189 346
15.53201 368
15.55212 377
15.57223 380
15.59235 330
15.61246 345
15.63257 344
15.65269 330
15.6728 361
15.69291 349
15.71303 354
15.73314 333
15.75326 347
15.77337 348
15.79348 355
15.8136 401
15.83371 375
15.85382 410
15.87394 364
15.89405 342
15.91417 336
15.93428 356
15.95439 327
15.97451 326
15.99462 343
16.01473 357
16.03485 348
16.05496 368
16.07508 313
16.09519 361
16.1153 322
16.13542 336
16.15553 354
16.17564 338
16.19576 337
16.21587 375
16.23598 318
16.2561 346
16.27621 368
16.29633 339
16.31644 339
16.33655 308
16.35667 311
16.37678 369
16.39689 374
16.41701 337
16.43712 358
16.45724 309
16.47735 334
16.49746 327
16.51758 336
16.53769 359
16.5578 318
16.57792 335
16.59803 350
16.61814 355
16.63826 367
16.65837 344
16.67849 335
16.6986 367
16.71871 357
16.73883 384
16.75894 362
16.77905 332
16.79917 338
16.81928 338
16.8394 340
16.85951 340
16.87962 356
16.89974 334
16.91985 349
16.93996 339
16.96008 352
16.98019 375
17.00031 353
17.02042 330
17.04053 312
17.06065 329
17.08076 327
17.10087 342
17.12099 331
17.1411 332
17.16121 370
17.18133 353
17.20144 343
17.22156 331
17.24167 368
17.26178 355
17.2819 390
17.30201 357
17.32212 331
17.34224 352
17.36235 379
17.38247 351
17.40258 337
17.42269 373
17.44281 309
17.46292 345
17.48303 333
17.50315 384
17.52326 350
17.54338 369
17.56349 370
17.5836 359
17.60372 364
17.62383 375
17.64394 393
17.66406 439
17.68417 411
17.70428 427
17.7244 419
17.74451 426
17.76463 474
17.78474 479
17.80485 436
17.82497 471
17.84508 425
17.86519 395
17.88531 356
17.90542 407
17.92554 356
17.94565 373
17.96576 330
17.98588 322
18.00599 362
18.0261 369
18.04622 371
18.06633 352
18.08645 352
18.10656 356
18.12667 368
18.14679 329
18.1669 340
18.18701 364
18.20713 360
18.22724 354
18.24735 343
18.26747 389
18.28758 350
18.3077 382
18.32781 323
18.34792 360
18.36804 347
18.38815 387
18.40826 345
18.42838 347
18.44849 376
18.46861 345
18.48872 351
18.50883 324
18.52895 331
18.54906 385
18.56917 364
18.58929 396
18.6094 348
18.62951 359
18.64963 327
18.66974 378
18.68986 340
18.70997 356
18.73008 357
18.7502 403
18.77031 376
18.79042 362
18.81054 359
18.83065 405
18.85077 391
18.87088 391
18.89099 385
18.91111 367
18.93122 334
18.95133 344
18.97145 398
18.99156 369
19.01168 359
19.03179 352
19.0519 374
19.07202 356
19.09213 372
19.11224 388
19.13236 362
19.15247 394
19.17258 335
19.1927 367
19.21281 391
19.23293 452
19.25304 372
19.27315 442
19.29327 374
19.31338 422
19.33349 430
19.35361 397
19.37372 419
19.39384 364
19.41395 423
19.43406 421
19.45418 444
19.47429 400
19.4944 441
19.51452 436
19.53463 461
19.55475 429
19.57486 461
19.59497 472
19.61509 476
19.6352 485
19.65531 530
19.67543 478
19.69554 563
19.71565 569
19.73577 612
19.75588 644
19.776 705
19.79611 711
19.81622 707
19.83634 777
19.85645 779
19.87656 811
19.89668 819
19.91679 761
19.93691 718
19.95702 739
19.97713 671
19.99725 696
20.01736 644
20.03747 583
20.05759 631
20.0777 604
20.09782 595
20.11793 620
20.13804 625
20.15816 602
20.17827 629
20.19838 595
20.2185 625
20.23861 602
20.25872 559
20.27884 595
20.29895 574
20.31907 578
20.33918 622
20.35929 630
20.37941 579
20.39952 590
20.41963 593
20.43975 598
20.45986 596
20.47998 648
20.50009 589
20.5202 603
20.54032 697
20.56043 641
20.58054 680
20.60066 656
20.62077 704
20.64088 749
20.661 747
20.68111 852
20.70123 994
20.72134 1180
20.74145 1462
20.76157 1898
20.78168 2345
20.80179 2961
20.82191 3406
20.84202 3743
20.86214 3414
20.88225 3002
20.90236 2235
20.92248 1651
20.94259 1256
20.9627 880
20.98282 824
21.00293 731
21.02305 678
21.04316 721
21.06327 663
21.08339 652
21.1035 616
21.12361 640
21.14373 638
21.16384 611
21.18395 614
21.20407 611
21.22418 599
21.2443 641
21.26441 610
21.28452 602
21.30464 598
21.32475 597
21.34486 585
21.36498 585
21.38509 623
21.40521 592
21.42532 575
21.44543 582
21.46555 550
21.48566 524
21.50577 556
21.52589 564
21.546 549
21.56612 511
21.58623 580
21.60634 530
21.62646 513
21.64657 536
21.66668 496
21.6868 528
21.70691 521
21.72702 513
21.74714 467
21.76725 486
21.78737 455
21.80748 487
21.82759 530
21.84771 522
21.86782 489
21.88793 486
21.90805 510
21.92816 568
21.94828 535
21.96839 567
21.9885 599
22.00862 587
22.02873 604
22.04884 618
22.06896 568
22.08907 532
22.10919 551
22.1293 502
22.14941 459
22.16953 476
22.18964 502
22.20975 502
22.22987 503
22.24998 467
22.27009 462
22.29021 518
22.31032 496
22.33044 484
22.35055 499
22.37066 481
22.39078 502
22.41089 461
22.431 467
22.45112 438
22.47123 478
22.49135 445
22.51146 468
22.53157 451
22.55169 413
22.5718 432
22.59191 425
22.61203 455
22.63214 476
22.65225 424
22.67237 437
22.69248 483
22.7126 511
22.73271 468
22.75282 502
22.77294 504
22.79305 469
22.81316 495
22.83328 488
22.85339 527
22.87351 512
22.89362 522
22.91373 540
22.93385 570
22.95396 500
22.97407 469
22.99419 497
23.0143 506
23.03442 455
23.05453 451
23.07464 453
23.09476 471
23.11487 466
23.13498 467
23.1551 403
23.17521 461
23.19532 434
23.21544 409
23.23555 424
23.25567 438
23.27578 460
23.29589 476
23.31601 425
23.33612 443
23.35623 416
23.37635 462
23.39646 446
23.41658 451
23.43669 443
23.4568 482
23.47692 444
23.49703 511
23.51714 559
23.53726 524
23.55737 482
23.57749 495
23.5976 494
23.61771 531
23.63783 513
23.65794 486
23.67805 514
23.69817 475
23.71828 511
23.73839 564
23.75851 525
23.77862 504
23.79874 568
23.81885 551
23.83896 602
23.85908 564
23.87919 589
23.8993 505
23.91942 565
23.93953 525
23.95965 509
23.97976 535
23.99987 526
24.01999 500
24.0401 501
24.06021 525
24.08033 522
24.10044 525
24.12056 538
24.14067 551
24.16078 536
24.1809 516
24.20101 517
24.22112 496
24.24124 513
24.26135 570
24.28146 554
24.30158 576
24.32169 550
24.34181 503
24.36192 489
24.38203 522
24.40215 479
24.42226 457
24.44237 457
24.46249 475
24.4826 494
24.50272 482
24.52283 511
24.54294 502
24.56306 452
24.58317 489
24.60328 527
24.6234 491
24.64351 504
24.66362 475
24.68374 487
24.70385 482
24.72397 515
24.74408 511
24.76419 533
24.78431 522
24.80442 522
24.82453 496
24.84465 505
24.86476 499
24.88488 509
24.90499 471
24.9251 534
24.94522 558
24.96533 535
24.98544 510
25.00556 529
25.02567 505
25.04579 513
25.0659 542
25.08601 522
25.10613 545
25.12624 538
25.14635 509
25.16647 537
25.18658 560
25.20669 519
25.22681 572
25.24692 515
25.26704 554
25.28715 547
25.30726 531
25.32738 547
25.34749 583
25.3676 551
25.38772 594
25.40783 576
25.42795 654
25.44806 644
25.46817 634
25.48829 635
25.5084 626
25.52851 642
25.54863 646
25.56874 606
25.58886 630
25.60897 583
25.62908 530
25.6492 603
25.66931 509
25.68942 541
25.70954 589
25.72965 547
25.74976 557
25.76988 547
25.78999 528
25.81011 569
25.83022 521
25.85033 556
25.87045 542
25.89056 526
25.91067 571
25.93079 533
25.9509 562
25.97102 567
25.99113 591
26.01124 572
26.03136 632
26.05147 549
26.07158 643
26.0917 625
26.11181 635
26.13193 656
26.15204 688
26.17215 672
26.19227 710
26.21238 761
26.23249 824
26.25261 801
26.27272 866
26.29283 901
26.31295 950
26.33306 970
26.35318 1085
26.37329 1153
26.3934 1264
26.41352 1526
26.43363 1873
26.45374 2361
26.47386 2957
26.49397 3921
26.51409 5536
26.5342 7315
26.55431 9883
26.57443 12381
26.59454 13986
26.61465 15069
26.63477 13911
26.65488 11785
26.67499 9263
26.69511 7064
26.71522 5107
26.73534 3417
26.75545 2170
26.77556 1558
26.79568 1367
26.81579 1189
26.8359 1068
26.85602 1008
26.87613 905
26.89625 914
26.91636 767
26.93647 721
26.95659 675
26.9767 659
26.99681 644
27.01693 646
27.03704 619
27.05716 598
27.07727 576
27.09738 559
27.1175 537
27.13761 583
27.15772 565
27.17784 563
27.19795 519
27.21806 512
27.23818 467
27.25829 521
27.27841 521
27.29852 600
27.31863 546
27.33875 542
27.35886 602
27.37897 593
27.39909 616
27.4192 706
27.43932 619
27.45943 602
27.47954 554
27.49966 552
27.51977 534
27.53988 563
27.56 523
27.58011 530
27.60023 508
27.62034 558
27.64045 560
27.66057 625
27.68068 566
27.70079 618
27.72091 657
27.74102 664
27.76113 623
27.78125 708
27.80136 709
27.82148 700
27.84159 790
27.8617 757
27.88182 750
27.90193 787
27.92204 800
27.94216 830
27.96227 756
27.98239 675
28.0025 573
28.02261 628
28.04273 575
28.06284 539
28.08295 543
28.10307 522
28.12318 501
28.1433 488
28.16341 504
28.18352 532
28.20364 460
28.22375 468
28.24386 491
28.26398 503
28.28409 462
28.3042 505
28.32432 490
28.34443 454
28.36455 476
28.38466 461
28.40477 448
28.42489 453
28.445 452
28.46511 475
28.48523 405
28.50534 507
28.52546 463
28.54557 444
28.56568 474
28.5858 457
28.60591 452
28.62602 447
28.64614 427
28.66625 433
28.68636 411
28.70648 433
28.72659 448
28.74671 394
28.76682 427
28.78693 449
28.80705 428
28.82716 451
28.84727 405
28.86739 415
28.8875 406
28.90762 392
28.92773 450
28.94784 426
28.96796 423
28.98807 415
29.00818 390
29.0283 415
29.04841 428
29.06853 466
29.08864 421
29.10875 416
29.12887 423
29.14898 427
29.16909 378
29.18921 386
29.20932 407
29.22943 430
29.24955 404
29.26966 383
29.28978 359
29.30989 409
29.33 370
29.35012 409
29.37023 420
29.39034 421
29.41046 450
29.43057 420
29.45069 411
29.4708 459
29.49091 423
29.51103 440
29.53114 455
29.55125 459
29.57137 429
29.59148 463
29.6116 427
29.63171 433
29.65182 427
29.67194 477
29.69205 467
29.71216 494
29.73228 457
29.75239 474
29.7725 449
29.79262 491
29.81273 559
29.83285 541
29.85296 543
29.87307 519
29.89319 488
29.9133 522
29.93341 499
29.95353 512
29.97364 477
29.99376 455
30.01387 467
30.03398 469
30.0541 502
30.07421 500
30.09432 514
30.11444 479
30.13455 460
30.15467 494
30.17478 422
30.19489 467
30.21501 480
30.23512 473
30.25523 466
30.27535 431
30.29546 413
30.31557 490
30.33569 469
30.3558 427
30.37592 484
30.39603 479
30.41614 446
30.43626 493
30.45637 478
30.47648 467
30.4966 444
30.51671 446
30.53683 446
30.55694 410
30.57705 402
30.59717 430
30.61728 392
30.63739 407
30.65751 420
30.67762 423
30.69773 402
30.71785 424
30.73796 401
30.75808 410
30.77819 398
30.7983 398
30.81842 426
30.83853 434
30.85864 413
30.87876 417
30.89887 389
30.91899 426
30.9391 418
30.95921 390
30.97933 381
30.99944 428
31.01955 396
31.03967 385
31.05978 441
31.0799 437
31.10001 452
31.12012 439
31.14024 462
31.16035 438
31.18046 465
31.20058 488
31.22069 478
31.2408 475
31.26092 478
31.28103 474
31.30115 438
31.32126 463
31.34137 431
31.36149 421
31.3816 468
31.40171 425
31.42183 431
31.44194 419
31.46206 398
31.48217 407
31.50228 393
31.5224 428
31.54251 377
31.56262 353
31.58274 403
31.60285 446
31.62297 368
31.64308 380
31.66319 405
31.68331 391
31.70342 395
31.72353 405
31.74365 400
31.76376 359
31.78387 395
31.80399 400
31.8241 391
31.84422 419
31.86433 424
31.88444 410
31.90456 458
31.92467 418
31.94478 429
31.9649 453
31.98501 430
32.00513 452
32.02524 450
32.04535 398
32.06547 445
32.08558 464
32.10569 464
32.12581 452
32.14592 420
32.16604 436
32.18615 410
32.20626 429
32.22638 382
32.24649 434
32.2666 442
32.28672 416
32.30683 417
32.32694 396
32.34706 407
32.36717 436
32.38729 415
32.4074 422
32.42751 382
32.44763 383
32.46774 418
32.48785 378
32.50797 431
32.52808 456
32.5482 471
32.56831 420
32.58842 441
32.60854 426
32.62865 438
32.64876 441
32.66888 415
32.68899 423
32.7091 433
32.72922 382
32.74933 418
32.76945 442
32.78956 453
32.80967 442
32.82979 441
32.8499 434
32.87001 500
32.89013 476
32.91024 502
32.93036 468
32.95047 492
32.97058 486
32.9907 496
33.01081 519
33.03092 507
33.05104 491
33.07115 492
33.09127 485
33.11138 454
33.13149 510
33.15161 528
33.17172 514
33.19183 503
33.21195 476
33.23206 534
33.25217 461
33.27229 472
33.2924 505
33.31252 487
33.33263 452
33.35274 498
33.37286 493
33.39297 492
33.41308 482
33.4332 455
33.45331 453
33.47343 437
33.49354 432
33.51365 445
33.53377 422
33.55388 437
33.57399 405
33.59411 439
33.61422 419
33.63434 434
33.65445 382
33.67456 398
33.69468 409
33.71479 404
33.7349 463
33.75502 423
33.77513 409
33.79524 435
33.81536 441
33.83547 429
33.85559 428
33.8757 447
33.89581 439
33.91593 420
33.93604 452
33.95615 431
33.97627 419
33.99638 406
34.0165 436
34.03661 418
34.05672 413
34.07684 429
34.09695 418
34.11706 450
34.13718 461
34.15729 457
34.17741 474
34.19752 453
34.21763 485
34.23775 510
34.25786 476
34.27797 463
34.29809 504
34.3182 482
34.33831 505
34.35843 507
34.37854 508
34.39866 478
34.41877 506
34.43888 453
34.459 555
34.47911 479
34.49922 513
34.51934 524
34.53945 548
34.55957 534
34.57968 548
34.59979 545
34.61991 594
34.64002 580
34.66013 542
34.68025 583
34.70036 591
34.72047 572
34.74059 643
34.7607 612
34.78082 619
34.80093 627
34.82104 596
34.84116 657
34.86127 706
34.88138 719
34.9015 719
34.92161 766
34.94173 760
34.96184 762
34.98195 739
35.00207 735
35.02218 694
35.04229 751
35.06241 673
35.08252 662
35.10264 633
35.12275 639
35.14286 604
35.16298 626
35.18309 600
35.2032 545
35.22332 596
35.24343 474
35.26354 585
35.28366 568
35.30377 581
35.32389 606
35.344 541
35.36411 623
35.38423 597
35.40434 590
35.42445 577
35.44457 609
35.46468 618
35.4848 574
35.50491 601
35.52502 570
35.54514 598
35.56525 577
35.58536 572
35.60548 610
35.62559 628
35.64571 603
35.66582 633
35.68593 649
35.70605 627
35.72616 636
35.74627 596
35.76639 634
35.7865 668
35.80661 588
35.82673 597
35.84684 612
35.86696 614
35.88707 601
35.90718 614
35.9273 573
35.94741 609
35.96752 630
35.98764 604
36.00775 637
36.02787 554
36.04798 609
36.06809 606
36.08821 540
36.10832 543
36.12843 575
36.14855 560
36.16866 539
36.18878 515
36.20889 555
36.229 516
36.24912 513
36.26923 550
36.28934 577
36.30946 536
36.32957 623
36.34968 638
36.3698 712
36.38991 784
36.41003 921
36.43014 1045
36.45025 1211
36.47037 1277
36.49048 1472
36.51059 1483
36.53071 1421
36.55082 1285
36.57094 1078
36.59105 1027
36.61116 926
36.63128 856
36.65139 757
36.6715 677
36.69162 575
36.71173 641
36.73184 580
36.75196 586
36.77207 551
36.79219 554
36.8123 566
36.83241 563
36.85253 495
36.87264 551
36.89275 517
36.91287 491
36.93298 513
36.9531 506
36.97321 484
36.99332 523
37.01344 501
37.03355 497
37.05366 486
37.07378 481
37.09389 422
37.11401 464
37.13412 474
37.15423 476
37.17435 472
37.19446 461
37.21457 420
37.23469 460
37.2548 437
37.27491 421
37.29503 493
37.31514 457
37.33526 449
37.35537 465
37.37548 475
37.3956 456
37.41571 477
37.43582 482
37.45594 509
37.47605 497
37.49617 487
37.51628 465
37.53639 460
37.55651 481
37.57662 471
37.59673 443
37.61685 437
37.63696 521
37.65708 471
37.67719 494
37.6973 503
37.71742 478
37.73753 521
37.75764 499
37.77776 457
37.79787 449
37.81798 482
37.8381 465
37.85821 480
37.87833 495
37.89844 476
37.91855 490
37.93867 429
37.95878 437
37.97889 431
37.99901 439
38.01912 466
38.03924 450
38.05935 431
38.07946 490
38.09958 470
38.11969 454
38.1398 484
38.15992 466
38.18003 447
38.20015 424
38.22026 517
38.24037 472
38.26049 486
38.2806 460
38.30071 444
38.32083 461
38.34094 437
38.36105 459
38.38117 510
38.40128 525
38.4214 448
38.44151 466
38.46162 456
38.48174 417
38.50185 462
38.52196 464
38.54208 466
38.56219 453
38.58231 487
38.60242 432
38.62253 441
38.64265 437
38.66276 479
38.68287 466
38.70299 440
38.7231 425
38.74321 430
38.76333 463
38.78344 447
38.80356 417
38.82367 465
38.84378 456
38.8639 425
38.88401 426
38.90412 459
38.92424 446
38.94435 403
38.96447 460
38.98458 385
39.00469 448
39.02481 433
39.04492 464
39.06503 461
39.08515 458
39.10526 457
39.12538 445
39.14549 458
39.1656 431
39.18572 484
39.20583 504
39.22594 502
39.24606 562
39.26617 577
39.28628 592
39.3064 693
39.32651 777
39.34663 830
39.36674 1017
39.38685 1112
39.40697 1197
39.42708 1276
39.44719 1237
39.46731 1134
39.48742 978
39.50754 887
39.52765 825
39.54776 752
39.56788 665
39.58799 589
39.6081 478
39.62822 460
39.64833 492
39.66845 439
39.68856 504
39.70867 462
39.72879 428
39.7489 411
39.76901 458
39.78913 436
39.80924 439
39.82935 413
39.84947 434
39.86958 462
39.8897 454
39.90981 449
39.92992 476
39.95004 445
39.97015 432
39.99026 460
40.01038 477
40.03049 445
40.05061 476
40.07072 493
40.09083 492
40.11095 510
40.13106 573
40.15117 643
40.17129 642
40.1914 758
40.21152 760
40.23163 750
40.25174 839
40.27186 770
40.29197 749
40.31208 715
40.3322 674
40.35231 657
40.37242 573
40.39254 590
40.41265 511
40.43277 477
40.45288 476
40.47299 423
40.49311 425
40.51322 411
40.53333 457
40.55345 401
40.57356 413
40.59368 408
40.61379 433
40.6339 410
40.65402 437
40.67413 426
40.69424 435
40.71436 447
40.73447 423
40.75458 427
40.7747 433
40.79481 477
40.81493 447
40.83504 444
40.85515 438
40.87527 472
40.89538 428
40.91549 439
40.93561 492
40.95572 478
40.97584 432
40.99595 501
41.01606 472
41.03618 448
41.05629 470
41.0764 468
41.09652 456
41.11663 409
41.13675 447
41.15686 452
41.17697 441
41.19709 466
41.2172 442
41.23731 461
41.25743 493
41.27754 466
41.29765 441
41.31777 463
41.33788 449
41.358 437
41.37811 436
41.39822 418
41.41834 461
41.43845 381
41.45856 404
41.47868 421
41.49879 450
41.51891 416
41.53902 446
41.55913 400
41.57925 395
41.59936 418
41.61947 400
41.63959 411
41.6597 407
41.67982 426
41.69993 390
41.72004 398
41.74016 408
41.76027 416
41.78038 391
41.8005 381
41.82061 403
41.84072 402
41.86084 412
41.88095 411
41.90107 382
41.92118 424
41.94129 399
41.96141 397
41.98152 422
42.00163 388
42.02175 422
42.04186 420
42.06198 450
42.08209 433
42.1022 419
42.12232 437
42.14243 416
42.16254 418
42.18266 443
42.20277 474
42.22289 483
42.243 516
42.26311 536
42.28323 613
42.30334 632
42.32345 769
42.34357 861
42.36368 967
42.38379 966
42.40391 1054
42.42402 996
42.44414 969
42.46425 815
42.48436 780
42.50448 788
42.52459 725
42.5447 662
42.56482 552
42.58493 501
42.60505 481
42.62516 422
42.64527 399
42.66539 408
42.6855 381
42.70561 366
42.72573 385
42.74584 388
42.76595 366
42.78607 369
42.80618 379
42.8263 386
42.84641 381
42.86652 368
42.88664 359
42.90675 387
42.92686 353
42.94698 357
42.96709 349
42.98721 376
43.00732 353
43.02743 388
43.04755 372
43.06766 375
43.08777 380
43.10789 360
43.128 325
43.14812 342
43.16823 328
43.18834 382
43.20846 344
43.22857 372
43.24868 361
43.2688 376
43.28891 356
43.30902 357
43.32914 348
43.34925 345
43.36937 340
43.38948 335
43.40959 346
43.42971 377
43.44982 352
43.46993 357
43.49005 360
43.51016 402
43.53028 371
43.55039 338
43.5705 359
43.59062 392
43.61073 366
43.63084 366
43.65096 388
43.67107 320
43.69119 363
43.7113 344
43.73141 344
43.75153 368
43.77164 367
43.79175 385
43.81187 377
43.83198 317
43.85209 370
43.87221 384
43.89232 372
43.91244 398
43.93255 359
43.95266 371
43.97278 343
43.99289 374
44.013 351
44.03312 366
44.05323 347
44.07335 334
44.09346 378
44.11357 351
44.13369 386
44.1538 333
44.17391 371
44.19403 367
44.21414 356
44.23426 351
44.25437 379
44.27448 367
44.2946 333
44.31471 370
44.33482 367
44.35494 376
44.37505 358
44.39516 372
44.41528 350
44.43539 349
44.45551 318
44.47562 353
44.49573 388
44.51585 389
44.53596 357
44.55607 347
44.57619 335
44.5963 382
44.61642 359
44.63653 371
44.65664 370
44.67676 391
44.69687 381
44.71698 358
44.7371 363
44.75721 361
44.77732 354
44.79744 382
44.81755 385
44.83767 396
44.85778 350
44.87789 356
44.89801 388
44.91812 375
44.93823 358
44.95835 348
44.97846 387
44.99858 381
45.01869 413
45.0388 389
45.05892 392
45.07903 359
45.09914 351
45.11926 367
45.13937 429
45.15949 387
45.1796 427
45.19971 383
45.21983 413
45.23994 407
45.26005 456
45.28017 410
45.30028 423
45.32039 438
45.34051 468
45.36062 447
45.38074 442
45.40085 441
45.42096 474
45.44108 446
45.46119 476
45.4813 427
45.50142 435
45.52153 423
45.54165 448
45.56176 417
45.58187 437
45.60199 475
45.6221 547
45.64221 541
45.66233 589
45.68244 677
45.70256 723
45.72267 731
45.74278 801
45.7629 711
45.78301 720
45.80312 697
45.82324 597
45.84335 587
45.86346 593
45.88358 558
45.90369 531
45.92381 477
45.94392 464
45.96403 430
45.98415 470
46.00426 383
46.02437 401
46.04449 443
46.0646 397
46.08472 369
46.10483 395
46.12494 373
46.14506 379
46.16517 398
46.18528 382
46.2054 384
46.22551 356
46.24563 400
46.26574 337
46.28585 373
46.30597 379
46.32608 382
46.34619 371
46.36631 363
46.38642 399
46.40653 364
46.42665 355
46.44676 357
46.46688 366
46.48699 365
46.5071 373
46.52722 362
46.54733 364
46.56744 369
46.58756 392
46.60767 341
46.62779 373
46.6479 382
46.66801 359
46.68813 334
46.70824 351
46.72835 385
46.74847 372
46.76858 351
46.78869 346
46.80881 362
46.82892 373
46.84904 360
46.86915 359
46.88926 381
46.90938 366
46.92949 330
46.9496 348
46.96972 337
46.98983 365
47.00995 321
47.03006 372
47.05017 327
47.07029 366
47.0904 375
47.11051 345
47.13063 355
47.15074 372
47.17086 335
47.19097 405
47.21108 359
47.2312 372
47.25131 362
47.27142 394
47.29154 344
47.31165 361
47.33176 354
47.35188 346
47.37199 362
47.39211 359
47.41222 389
47.43233 374
47.45245 359
47.47256 349
47.49267 341
47.51279 366
47.5329 339
47.55302 358
47.57313 340
47.59324 346
47.61336 390
47.63347 364
47.65358 361
47.6737 366
47.69381 370
47.71393 335
47.73404 373
47.75415 337
47.77427 351
47.79438 350
47.81449 352
47.83461 372
47.85472 341
47.87483 359
47.89495 339
47.91506 370
47.93518 343
47.95529 350
47.9754 385
47.99552 362
48.01563 371
48.03574 375
48.05586 373
48.07597 363
48.09609 371
48.1162 371
48.13631 339
48.15643 361
48.17654 360
48.19665 352
48.21677 387
48.23688 342
48.257 366
48.27711 378
48.29722 360
48.31734 360
48.33745 348
48.35756 377
48.37768 348
48.39779 345
48.4179 373
48.43802 350
48.45813 369
48.47825 353
48.49836 335
48.51847 355
48.53859 359
48.5587 350
48.57881 349
48.59893 370
48.61904 366
48.63916 369
48.65927 386
48.67938 338
48.6995 381
48.71961 345
48.73972 388
48.75984 346
48.77995 362
48.80006 352
48.82018 321
48.84029 363
48.86041 353
48.88052 349
48.90063 359
48.92075 353
48.94086 376
48.96097 340
48.98109 370
49.0012 351
49.02132 354
49.04143 358
49.06154 381
49.08166 403
49.10177 363
49.12188 399
49.142 403
49.16211 374
49.18223 381
49.20234 380
49.22245 389
49.24257 392
49.26268 417
49.28279 341
49.30291 372
49.32302 388
49.34313 408
49.36325 390
49.38336 356
49.40348 397
49.42359 409
49.4437 386
49.46382 365
49.48393 400
49.50404 400
49.52416 406
49.54427 406
49.56439 392
49.5845 378
49.60461 399
49.62473 387
49.64484 400
49.66495 403
49.68507 411
49.70518 421
49.7253 402
49.74541 464
49.76552 457
49.78564 423
49.80575 477
49.82586 442
49.84598 491
49.86609 545
49.8862 560
49.90632 571
49.92643 650
49.94655 736
49.96666 793
49.98677 956
50.00689 1121
50.027 1295
50.04711 1532
50.06723 1680
50.08734 1675
50.10746 1647
50.12757 1491
50.14768 1344
50.1678 1145
50.18791 1092
50.20802 1091
50.22814 1018
50.24825 970
50.26837 765
50.28848 719
50.30859 517
50.32871 481
50.34882 440
50.36893 401
50.38905 407
50.40916 401
50.42927 440
50.44939 389
50.4695 397
50.48962 392
50.50973 412
50.52984 379
50.54996 358
50.57007 415
50.59018 410
50.6103 411
50.63041 411
50.65053 363
50.67064 354
50.69075 342
50.71087 409
50.73098 376
50.75109 352
50.77121 378
50.79132 353
50.81143 335
50.83155 354
50.85166 373
50.87178 348
50.89189 356
50.912 343
50.93212 359
50.95223 346
50.97234 360
50.99246 386
51.01257 338
51.03269 329
51.0528 356
51.07291 353
51.09303 375
51.11314 361
51.13325 371
51.15337 326
51.17348 342
51.1936 353
51.21371 353
51.23382 328
51.25394 360
51.27405 361
51.29416 335
51.31428 330
51.33439 363
51.3545 367
51.37462 312
51.39473 338
51.41485 316
51.43496 308
51.45507 317
51.47519 295
51.4953 324
51.51541 317
51.53553 320
51.55564 295
51.57576 337
51.59587 345
51.61598 349
51.6361 318
51.65621 318
51.67632 324
51.69644 327
51.71655 349
51.73667 338
51.75678 326
51.77689 339
51.79701 314
51.81712 316
51.83723 347
51.85735 342
51.87746 320
51.89757 344
51.91769 326
51.9378 351
51.95792 348
51.97803 336
51.99814 338
52.01826 341
52.03837 318
52.05848 358
52.0786 357
52.09871 328
52.11883 372
52.13894 351
52.15905 330
52.17917 339
52.19928 316
52.21939 344
52.23951 335
52.25962 345
52.27974 343
52.29985 367
52.31996 360
52.34008 317
52.36019 299
52.3803 347
52.40042 327
52.42053 337
52.44064 348
52.46076 320
52.48087 329
52.50099 360
52.5211 362
52.54121 360
52.56133 350
52.58144 341
52.60155 372
52.62167 318
52.64178 335
52.6619 348
52.68201 366
52.70212 357
52.72224 360
52.74235 349
52.76246 370
52.78258 376
52.80269 376
52.8228 347
52.84292 399
52.86303 362
52.88315 391
52.90326 384
52.92337 385
52.94349 357
52.9636 357
52.98371 359
53.00383 353
53.02394 366
53.04406 361
53.06417 372
53.08428 404
53.1044 361
53.12451 373
53.14462 402
53.16474 408
53.18485 377
53.20497 377
53.22508 400
53.24519 371
53.26531 397
53.28542 388
53.30553 410
53.32565 396
53.34576 404
53.36587 369
53.38599 394
53.4061 394
53.42622 395
53.44633 393
53.46644 404
53.48656 430
53.50667 386
53.52678 389
53.5469 363
53.56701 402
53.58713 410
53.60724 414
53.62735 406
53.64747 360
53.66758 436
53.68769 369
53.70781 388
53.72792 410
53.74804 384
53.76815 405
53.78826 409
53.80838 388
53.82849 420
53.8486 422
53.86872 407
53.88883 398
53.90894 431
53.92906 466
53.94917 413
53.96929 452
53.9894 416
54.00951 472
54.02963 438
54.04974 436
54.06985 477
54.08997 432
54.11008 459
54.1302 464
54.15031 455
54.17042 455
54.19054 475
54.21065 464
54.23076 490
54.25088 483
54.27099 442
54.29111 481
54.31122 429
54.33133 451
54.35145 436
54.37156 455
54.39167 442
54.41179 436
54.4319 439
54.45201 431
54.47213 457
54.49224 426
54.51236 458
54.53247 401
54.55258 447
54.5727 442
54.59281 440
54.61292 496
54.63304 465
54.65315 471
54.67327 484
54.69338 547
54.71349 595
54.73361 613
54.75372 659
54.77383 753
54.79395 778
54.81406 737
54.83417 778
54.85429 730
54.8744 673
54.89452 605
54.91463 659
54.93474 589
54.95486 592
54.97497 603
54.99508 628
55.0152 501
55.03531 538
55.05543 468
55.07554 443
55.09565 484
55.11577 465
55.13588 453
55.15599 508
55.17611 506
55.19622 529
55.21634 531
55.23645 546
55.25656 604
55.27668 560
55.29679 581
55.3169 483
55.33702 513
55.35713 504
55.37724 446
55.39736 467
55.41747 466
55.43759 431
55.4577 462
55.47781 440
55.49793 423
55.51804 412
55.53815 382
55.55827 393
55.57838 396
55.5985 408
55.61861 395
55.63872 380
55.65884 373
55.67895 400
55.69906 390
55.71918 416
55.73929 417
55.75941 416
55.77952 400
55.79963 410
55.81975 402
55.83986 392
55.85997 404
55.88009 419
55.9002 405
55.92031 399
55.94043 393
55.96054 396
55.98066 384
56.00077 357
56.02088 357
56.041 345
56.06111 392
56.08122 365
56.10134 388
56.12145 338
56.14157 350
56.16168 325
56.18179 361
56.20191 373
56.22202 378
56.24213 369
56.26225 363
56.28236 348
56.30248 370
56.32259 360
56.3427 371
56.36282 345
56.38293 394
56.40304 367
56.42316 379
56.44327 333
56.46338 349
56.4835 403
56.50361 402
56.52373 360
56.54384 412
56.56395 369
56.58407 370
56.60418 357
56.62429 362
56.64441 373
56.66452 357
56.68464 366
56.70475 349
56.72486 377
56.74498 348
56.76509 372
56.7852 364
56.80532 342
56.82543 362
56.84554 351
56.86566 358
56.88577 371
56.90589 339
56.926 375
56.94611 373
56.96623 391
56.98634 365
57.00645 358
57.02657 383
57.04668 411
57.0668 381
57.08691 358
57.10702 341
57.12714 411
57.14725 366
57.16736 346
57.18748 384
57.20759 372
57.22771 354
57.24782 387
57.26793 356
57.28805 419
57.30816 388
57.32827 356
57.34839 374
57.3685 393
57.38861 387
57.40873 359
57.42884 393
57.44896 353
57.46907 350
57.48918 350
57.5093 360
57.52941 355
57.54952 369
57.56964 340
57.58975 370
57.60987 329
57.62998 380
57.65009 391
57.67021 327
57.69032 383
57.71043 376
57.73055 383
57.75066 358
57.77078 344
57.79089 336
57.811 329
57.83112 369
57.85123 346
57.87134 337
57.89146 362
57.91157 392
57.93168 353
57.9518 329
57.97191 359
57.99203 326
58.01214 351
58.03225 307
58.05237 330
58.07248 354
58.09259 358
58.11271 335
58.13282 345
58.15294 294
58.17305 349
58.19316 333
58.21328 374
58.23339 317
58.2535 324
58.27362 323
58.29373 378
58.31385 340
58.33396 349
58.35407 351
58.37419 367
58.3943 323
58.41441 346
58.43453 362
58.45464 335
58.47475 349
58.49487 323
58.51498 332
58.5351 390
58.55521 351
58.57532 335
58.59544 343
58.61555 357
58.63566 346
58.65578 339
58.67589 354
58.69601 332
58.71612 310
58.73623 341
58.75635 373
58.77646 328
58.79657 317
58.81669 321
58.8368 366
58.85691 344
58.87703 345
58.89714 322
58.91726 342
58.93737 318
58.95748 371
58.9776 348
58.99771 354
59.01782 335
59.03794 344
59.05805 372
59.07817 349
59.09828 364
59.11839 384
59.13851 369
59.15862 362
59.17873 362
59.19885 342
59.21896 362
59.23908 345
59.25919 350
59.2793 374
59.29942 387
59.31953 344
59.33964 359
59.35976 370
59.37987 361
59.39998 354
59.4201 379
59.44021 364
59.46033 352
59.48044 365
59.50055 373
59.52067 374
59.54078 378
59.56089 376
59.58101 390
59.60112 397
59.62124 426
59.64135 426
59.66146 455
59.68158 457
59.70169 514
59.7218 499
59.74192 521
59.76203 596
59.78215 644
59.80226 743
59.82237 858
59.84249 991
59.8626 1103
59.88271 1184
59.90283 1176
59.92294 1087
59.94305 979
59.96317 864
59.98328 826
60.0034 761
60.02351 773
60.04362 797
60.06374 705
60.08385 740
60.10396 648
60.12408 542
60.14419 533
60.16431 462
60.18442 449
60.20453 402
60.22465 431
60.24476 419
60.26487 411
60.28499 438
60.3051 377
60.32522 373
60.34533 389
60.36544 364
60.38556 366
60.40567 348
60.42578 352
60.4459 355
60.46601 403
60.48612 361
60.50624 344
60.52635 388
60.54647 366
60.56658 364
60.58669 370
60.60681 357
60.62692 344
60.64703 347
60.66715 350
60.68726 356
60.70738 348
60.72749 358
60.7476 395
60.76772 363
60.78783 337
60.80794 326
60.82806 364
60.84817 373
60.86828 341
60.8884 363
60.90851 372
60.92863 360
60.94874 354
60.96885 315
60.98897 361
61.00908 331
61.02919 318
61.04931 377
61.06942 352
61.08954 367
61.10965 345
61.12976 367
61.14988 364
61.16999 345
61.1901 342
61.21022 375
61.23033 325
61.25045 361
61.27056 351
61.29067 347
61.31079 391
61.3309 340
61.35101 376
61.37113 370
61.39124 344
61.41135 404
61.43147 382
61.45158 395
61.4717 387
61.49181 379
61.51192 397
61.53204 408
61.55215 426
61.57226 392
61.59238 382
61.61249 399
61.63261 403
61.65272 411
61.67283 402
61.69295 402
61.71306 407
61.73317 416
61.75329 455
61.7734 421
61.79352 445
61.81363 419
61.83374 422
61.85386 420
61.87397 428
61.89408 435
61.9142 437
61.93431 403
61.95442 442
61.97454 417
61.99465 430
62.01477 425
62.03488 431
62.05499 388
62.07511 444
62.09522 423
62.11533 442
62.13545 386
62.15556 408
62.17568 409
62.19579 432
62.2159 406
62.23602 390
62.25613 374
62.27624 413
62.29636 423
62.31647 426
62.33659 391
62.3567 400
62.37681 404
62.39693 412
62.41704 404
62.43715 396
62.45727 384
62.47738 402
62.49749 398
62.51761 398
62.53772 372
62.55784 389
62.57795 350
62.59806 382
62.61818 412
62.63829 378
62.6584 366
62.67852 365
62.69863 361
62.71875 371
62.73886 413
62.75897 381
62.77909 359
62.7992 360
62.81931 365
62.83943 377
62.85954 356
62.87965 364
62.89977 376
62.91988 391
62.94 337
62.96011 373
62.98022 358
63.00034 379
63.02045 380
63.04056 364
63.06068 359
63.08079 377
63.10091 355
63.12102 352
63.14113 367
63.16125 370
63.18136 348
63.20147 363
63.22159 372
63.2417 349
63.26182 392
63.28193 346
63.30204 330
63.32216 357
63.34227 350
63.36238 380
63.3825 346
63.40261 365
63.42272 374
63.44284 348
63.46295 380
63.48307 373
63.50318 361
63.52329 376
63.54341 346
63.56352 382
63.58363 339
63.60375 360
63.62386 392
63.64398 354
63.66409 319
63.6842 342
63.70432 386
63.72443 368
63.74454 397
63.76466 357
63.78477 378
63.80489 394
63.825 388
63.84511 405
63.86523 426
63.88534 460
63.90545 464
63.92557 479
63.94568 528
63.96579 521
63.98591 542
64.00602 506
64.02614 494
64.04625 476
64.06636 432
64.08648 398
64.10659 468
64.1267 451
64.14682 437
64.16693 410
64.18705 442
64.20716 400
64.22727 367
64.24739 405
64.2675 375
64.28761 396
64.30773 331
64.32784 333
64.34796 357
64.36807 352
64.38818 339
64.4083 348
64.42841 319
64.44852 317
64.46864 332
64.48875 344
64.50886 351
64.52898 333
64.54909 346
64.56921 368
64.58932 303
64.60943 328
64.62955 316
64.64966 317
64.66977 309
64.68989 333
64.71 323
64.73012 321
64.75023 320
64.77034 342
64.79046 326
64.81057 315
64.83068 325
64.8508 334
64.87091 329
64.89102 328
64.91114 333
64.93125 310
64.95137 312
64.97148 348
64.99159 304
65.01171 315
65.03182 348
65.05193 321
65.07205 320
65.09216 325
65.11228 305
65.13239 332
65.1525 321
65.17262 326
65.19273 307
65.21284 310
65.23296 345
65.25307 331
65.27319 327
65.2933 317
65.31341 307
65.33353 331
65.35364 305
65.37375 304
65.39387 302
65.41398 320
65.43409 300
65.45421 302
65.47432 296
65.49444 307
65.51455 310
65.53466 302
65.55478 323
65.57489 329
65.595 322
65.61512 347
65.63523 347
65.65535 312
65.67546 344
65.69557 341
65.71569 309
65.7358 324
65.75591 343
65.77603 337
65.79614 322
65.81626 328
65.83637 347
65.85648 348
65.8766 327
65.89671 360
65.91682 321
65.93694 306
65.95705 317
65.97716 332
65.99728 317
66.01739 363
66.03751 347
66.05762 330
66.07773 322
66.09785 290
66.11796 327
66.13807 302
66.15819 311
66.1783 336
66.19842 283
66.21853 286
66.23864 312
66.25876 363
66.27887 301
66.29898 323
66.3191 291
66.33921 312
66.35933 324
66.37944 290
66.39955 340
66.41967 292
66.43978 329
66.45989 323
66.48001 300
66.50012 309
66.52023 297
66.54035 296
66.56046 300
66.58058 288
66.60069 300
66.6208 328
66.64092 324
66.66103 321
66.68114 289
66.70126 287
66.72137 281
66.74149 280
66.7616 338
66.78171 349
66.80183 327
66.82194 327
66.84205 341
66.86217 310
66.88228 320
66.90239 316
66.92251 338
66.94262 296
66.96274 304
66.98285 306
67.00296 317
67.02308 328
67.04319 324
67.0633 331
67.08342 315
67.10353 341
67.12365 328
67.14376 313
67.16387 314
67.18399 319
67.2041 295
67.22421 338
67.24433 361
67.26444 325
67.28456 334
67.30467 337
67.32478 311
67.3449 343
67.36501 336
67.38512 349
67.40524 390
67.42535 347
67.44546 357
67.46558 383
67.48569 447
67.50581 404
67.52592 436
67.54603 488
67.56615 497
67.58626 511
67.60637 579
67.62649 663
67.6466 702
67.66672 718
67.68683 745
67.70694 681
67.72706 679
67.74717 588
67.76728 551
67.7874 572
67.80751 589
67.82763 587
67.84774 600
67.86785 678
67.88797 697
67.90808 593
67.92819 604
67.94831 632
67.96842 635
67.98853 667
68.00865 720
68.02876 771
68.04888 889
68.06899 884
68.0891 919
68.10922 913
68.12933 898
68.14944 815
68.16956 782
68.18967 777
68.20979 881
68.2299 842
68.25001 951
68.27013 857
68.29024 872
68.31035 807
68.33047 634
68.35058 575
68.3707 520
68.39081 507
68.41092 506
68.43104 500
68.45115 520
68.47126 493
68.49138 462
68.51149 422
68.5316 426
68.55172 384
68.57183 354
68.59195 378
68.61206 346
68.63217 323
68.65229 305
68.6724 329
68.69251 352
68.71263 342
68.73274 362
68.75286 331
68.77297 343
68.79308 309
68.8132 289
68.83331 346
68.85342 325
68.87354 329
68.89365 339
68.91376 302
68.93388 321
68.95399 299
68.97411 312
68.99422 307
69.01433 334
69.03445 341
69.05456 327
69.07467 312
69.09479 283
69.1149 311
69.13502 320
69.15513 318
69.17524 339
69.19536 334
69.21547 335
69.23558 297
69.2557 333
69.27581 351
69.29593 324
69.31604 347
69.33615 322
69.35627 335
69.37638 304
69.39649 338
69.41661 310
69.43672 303
69.45683 343
69.47695 315
69.49706 335
69.51718 342
69.53729 330
69.5574 324
69.57752 360
69.59763 325
69.61774 302
69.63786 344
69.65797 289
69.67809 320
69.6982 316
69.71831 291
69.73843 304
69.75854 320
69.77865 298
69.79877 336
69.81888 290
69.839 297
69.85911 286
69.87922 311
69.89934 317
69.91945 277
69.93956 311
69.95968 328
69.97979 312
69.9999 294
70.02002 313
70.04013 306
70.06025 264
70.08036 278
70.10047 292
70.12059 270
70.1407 307
70.16081 312
70.18093 287
70.20104 305
70.22116 303
70.24127 320
70.26138 329
70.2815 301
70.30161 326
70.32172 304
70.34184 311
70.36195 310
70.38207 288
70.40218 324
70.42229 289
70.44241 281
70.46252 280
70.48263 319
70.50275 299
70.52286 283
70.54297 314
70.56309 279
70.5832 294
70.60332 320
70.62343 295
70.64354 298
70.66366 293
70.68377 310
70.70388 298
70.724 303
70.74411 282
70.76423 311
70.78434 309
70.80445 308
70.82457 314
70.84468 268
70.86479 300
70.88491 310
70.90502 271
70.92513 299
70.94525 288
70.96536 292
70.98548 269
71.00559 325
71.0257 293
71.04582 306
71.06593 304
71.08604 292
71.10616 294
71.12627 303
71.14639 323
71.1665 318
71.18661 311
71.20673 317
71.22684 292
71.24695 300
71.26707 332
71.28718 299
71.3073 311
71.32741 289
71.34752 301
71.36764 313
71.38775 318
71.40786 300
71.42798 306
71.44809 296
71.4682 307
71.48832 302
71.50843 315
71.52855 290
71.54866 286
71.56877 304
71.58889 348
71.609 317
71.62911 320
71.64923 314
71.66934 305
71.68946 303
71.70957 264
71.72968 272
71.7498 260
71.76991 292
71.79002 339
71.81014 270
71.83025 294
71.85037 287
71.87048 287
71.89059 273
71.91071 294
71.93082 284
71.95093 318
71.97105 317
71.99116 309
72.01127 305
72.03139 311
72.0515 288
72.07162 278
72.09173 305
72.11184 284
72.13196 283
72.15207 301
72.17218 299
72.1923 296
72.21241 296
72.23253 304
72.25264 301
72.27275 295
72.29287 318
72.31298 255
72.33309 302
72.35321 287
72.37332 291
72.39344 302
72.41355 315
72.43366 286
72.45378 269
72.47389 324
72.494 296
72.51412 301
72.53423 301
72.55434 304
72.57446 310
72.59457 323
72.61469 267
72.6348 311
72.65491 270
72.67503 291
72.69514 276
72.71525 278
72.73537 295
72.75548 311
72.7756 298
72.79571 293
72.81582 299
72.83594 288
72.85605 327
72.87616 309
72.89628 301
72.91639 297
72.9365 325
72.95662 342
72.97673 336
72.99685 310
73.01696 333
73.03707 310
73.05719 318
73.0773 320
73.09741 329
73.11753 328
73.13764 326
73.15776 308
73.17787 365
73.19798 312
73.2181 346
73.23821 351
73.25832 340
73.27844 367
73.29855 355
73.31867 403
73.33878 406
73.35889 434
73.37901 449
73.39912 438
73.41923 418
73.43935 436
73.45946 412
73.47957 400
73.49969 368
73.5198 394
73.53992 356
73.56003 377
73.58014 390
73.60026 374
73.62037 373
73.64048 343
73.6606 341
73.68071 340
73.70083 346
73.72094 332
73.74105 316
73.76117 310
73.78128 305
73.80139 290
73.82151 278
73.84162 292
73.86174 300
73.88185 276
73.90196 301
73.92208 282
73.94219 298
73.9623 305
73.98242 317
74.00253 270
74.02264 301
74.04276 327
74.06287 285
74.08299 278
74.1031 281
74.12321 284
74.14333 292
74.16344 283
74.18355 279
74.20367 296
74.22378 317
74.2439 289
74.26401 283
74.28412 342
74.30424 288
74.32435 290
74.34446 279
74.36458 294
74.38469 314
74.40481 259
74.42492 303
74.44503 265
74.46515 309
74.48526 288
74.50537 295
74.52549 276
74.5456 301
74.56571 263
74.58583 292
74.60594 262
74.62606 286
74.64617 316
74.66628 303
74.6864 261
74.70651 296
74.72662 310
74.74674 324
74.76685 286
74.78697 269
74.80708 287
74.82719 299
74.84731 288
74.86742 289
74.88753 305
74.90765 278
74.92776 277
74.94787 285
74.96799 288
74.9881 304
75.00822 290
