3.00117 20409
3.02128 20284
3.0414 19317
3.06151 18999
3.08162 18479
3.10174 17857
3.12185 17906
3.14197 16830
3.16208 16498
3.18219 16231
3.20231 15245
3.22242 15213
3.24253 14529
3.26265 14044
3.28276 13677
3.30288 13212
3.32299 12868
3.3431 12305
3.36322 12002
3.38333 11634
3.40344 11071
3.42356 11177
3.44367 10544
3.46379 10062
3.4839 9806
3.50401 9462
3.52413 9289
3.54424 8873
3.56435 8436
3.58447 8243
3.60458 7803
3.62469 7723
3.64481 7427
3.66492 6999
3.68504 6777
3.70515 6222
3.72526 6467
3.74538 5929
3.76549 5790
3.7856 5637
3.80572 5145
3.82583 5049
3.84595 4872
3.86606 4565
3.88617 4507
3.90629 4175
3.9264 4193
3.94651 3917
3.96663 3892
3.98674 3671
4.00686 3283
4.02697 3366
4.04708 3224
4.0672 2951
4.08731 2926
4.10742 2714
4.12754 2716
4.14765 2582
4.16776 2376
4.18788 2308
4.20799 2173
4.22811 2141
4.24822 2147
4.26833 1986
4.28845 1938
4.30856 1799
4.32867 1986
4.34879 1795
4.3689 1690
4.38902 1721
4.40913 1573
4.42924 1630
4.44936 1616
4.46947 1478
4.48958 1493
4.5097 1362
4.52981 1393
4.54992 1377
4.57004 1269
4.59015 1247
4.61027 1224
4.63038 1307
4.65049 1346
4.67061 1192
4.69072 1197
4.71083 1164
4.73095 1104
4.75106 1149
4.77118 968
4.79129 1028
4.8114 1012
4.83152 1020
4.85163 1055
4.87174 896
4.89186 947
4.91197 901
4.93209 929
4.9522 860
4.97231 827
4.99243 864
5.01254 848
5.03265 815
5.05277 782
5.07288 693
5.09299 755
5.11311 729
5.13322 708
5.15334 771
5.17345 627
5.19356 672
5.21368 695
5.23379 670
5.2539 641
5.27402 654
5.29413 644
5.31425 650
5.33436 616
5.35447 601
5.37459 536
5.3947 561
5.41481 517
5.43493 522
5.45504 515
5.47516 532
5.49527 532
5.51538 502
5.5355 473
5.55561 456
5.57572 456
5.59584 506
5.61595 479
5.63606 440
5.65618 475
5.67629 422
5.69641 428
5.71652 467
5.73663 421
5.75675 407
5.77686 427
5.79697 385
5.81709 383
5.8372 393
5.85732 432
5.87743 365
5.89754 363
5.91766 381
5.93777 420
5.95788 398
5.978 394
5.99811 353
6.01823 359
6.03834 362
6.05845 388
6.07857 318
6.09868 345
6.11879 374
6.13891 373
6.15902 337
6.17913 333
6.19925 329
6.21936 339
6.23948 289
6.25959 346
6.2797 346
6.29982 349
6.31993 324
6.34004 313
6.36016 298
6.38027 317
6.40039 342
6.4205 336
6.44061 354
6.46073 312
6.48084 313
6.50095 307
6.52107 334
6.54118 310
6.56129 296
6.58141 292
6.60152 330
6.62164 325
6.64175 306
6.66186 309
6.68198 276
6.70209 291
6.7222 271
6.74232 321
6.76243 271
6.78255 271
6.80266 270
6.82277 295
6.84289 286
6.863 275
6.88311 285
6.90323 268
6.92334 251
6.94346 256
6.96357 290
6.98368 289
7.0038 277
7.02391 276
7.04402 266
7.06414 325
7.08425 295
7.10436 295
7.12448 295
7.14459 289
7.16471 305
7.18482 275
7.20493 277
7.22505 289
7.24516 314
7.26527 284
7.28539 246
7.3055 284
7.32562 255
7.34573 273
7.36584 270
7.38596 266
7.40607 273
7.42618 278
7.4463 286
7.46641 249
7.48653 266
7.50664 287
7.52675 253
7.54687 286
7.56698 287
7.58709 299
7.60721 286
7.62732 282
7.64743 276
7.66755 277
7.68766 238
7.70778 247
7.72789 282
7.748 275
7.76812 272
7.78823 303
7.80834 268
7.82846 272
7.84857 279
7.86869 265
7.8888 266
7.90891 292
7.92903 263
7.94914 292
7.96925 277
7.98937 307
8.00948 270
8.0296 254
8.04971 291
8.06982 259
8.08994 271
8.11005 280
8.13016 275
8.15028 247
8.17039 305
8.1905 277
8.21062 270
8.23073 285
8.25085 254
8.27096 281
8.29107 258
8.31119 285
8.3313 264
8.35141 255
8.37153 261
8.39164 251
8.41176 283
8.43187 278
8.45198 262
8.4721 276
8.49221 251
8.51232 310
8.53244 246
8.55255 262
8.57266 259
8.59278 269
8.61289 239
8.63301 305
8.65312 293
8.67323 273
8.69335 278
8.71346 313
8.73357 266
8.75369 273
8.7738 283
8.79392 289
8.81403 288
8.83414 286
8.85426 264
8.87437 287
8.89448 289
8.9146 270
8.93471 283
8.95483 264
8.97494 291
8.99505 281
9.01517 284
9.03528 282
9.05539 298
9.07551 298
9.09562 280
9.11573 286
9.13585 287
9.15596 272
9.17608 289
9.19619 262
9.2163 274
9.23642 256
9.25653 304
9.27664 261
9.29676 280
9.31687 279
9.33699 274
9.3571 242
9.37721 282
9.39733 274
9.41744 297
9.43755 243
9.45767 262
9.47778 278
9.4979 286
9.51801 310
9.53812 271
9.55824 287
9.57835 288
9.59846 277
9.61858 273
9.63869 276
9.6588 272
9.67892 242
9.69903 255
9.71915 276
9.73926 281
9.75937 282
9.77949 281
9.7996 297
9.81971 276
9.83983 277
9.85994 270
9.88006 270
9.90017 306
9.92028 265
9.9404 311
9.96051 275
9.98062 273
10.00074 281
10.02085 264
10.04097 247
10.06108 245
10.08119 279
10.10131 333
10.12142 260
10.14153 271
10.16165 289
10.18176 273
10.20187 294
10.22199 280
10.2421 264
10.26222 271
10.28233 266
10.30244 278
10.32256 311
10.34267 284
10.36278 257
10.3829 283
10.40301 255
10.42313 288
10.44324 271
10.46335 261
10.48347 323
10.50358 284
10.52369 259
10.54381 278
10.56392 277
10.58403 271
10.60415 293
10.62426 287
10.64438 270
10.66449 254
10.6846 287
10.70472 256
10.72483 258
10.74494 278
10.76506 287
10.78517 248
10.80529 286
10.8254 287
10.84551 287
10.86563 254
10.88574 282
10.90585 285
10.92597 266
10.94608 266
10.9662 283
10.98631 266
11.00642 258
11.02654 303
11.04665 302
11.06676 285
11.08688 270
11.10699 292
11.1271 290
11.14722 257
11.16733 274
11.18745 273
11.20756 279
11.22767 290
11.24779 258
11.2679 249
11.28801 285
11.30813 280
11.32824 267
11.34836 283
11.36847 250
11.38858 300
11.4087 286
11.42881 276
11.44892 300
11.46904 318
11.48915 306
11.50927 278
11.52938 272
11.54949 288
11.56961 285
11.58972 292
11.60983 291
11.62995 298
11.65006 309
11.67017 311
11.69029 279
11.7104 287
11.73052 264
11.75063 306
11.77074 308
11.79086 333
11.81097 283
11.83108 330
11.8512 333
11.87131 294
11.89143 329
11.91154 320
11.93165 344
11.95177 309
11.97188 373
11.99199 351
12.01211 355
12.03222 355
12.05234 357
12.07245 380
12.09256 353
12.11268 386
12.13279 435
12.1529 398
12.17302 391
12.19313 394
12.21324 429
12.23336 402
12.25347 400
12.27359 433
12.2937 421
12.31381 413
12.33393 384
12.35404 415
12.37415 398
12.39427 383
12.41438 357
12.4345 324
12.45461 346
12.47472 354
12.49484 375
12.51495 327
12.53506 314
12.55518 309
12.57529 340
12.5954 331
12.61552 327
12.63563 286
12.65575 301
12.67586 291
12.69597 274
12.71609 295
12.7362 289
12.75631 272
12.77643 266
12.79654 284
12.81666 276
12.83677 254
12.85688 294
12.877 300
12.89711 284
12.91722 284
12.93734 263
12.95745 261
12.97757 268
12.99768 275
13.01779 250
13.03791 262
13.05802 270
13.07813 267
13.09825 299
13.11836 267
13.13847 271
13.15859 274
13.1787 314
13.19882 249
13.21893 253
13.23904 250
13.25916 279
13.27927 263
13.29938 251
13.3195 242
13.33961 227
13.35973 254
13.37984 248
13.39995 238
13.42007 256
13.44018 251
13.46029 250
13.48041 250
13.50052 289
13.52064 280
13.54075 264
13.56086 305
13.58098 296
13.60109 278
13.6212 387
13.64132 308
13.66143 334
13.68154 324
13.70166 287
13.72177 267
13.74189 245
13.762 259
13.78211 256
13.80223 259
13.82234 225
13.84245 273
13.86257 257
13.88268 283
13.9028 259
13.92291 246
13.94302 240
13.96314 239
13.98325 255
14.00336 231
14.02348 241
14.04359 253
14.06371 265
14.08382 253
14.10393 228
14.12405 230
14.14416 220
14.16427 223
14.18439 198
14.2045 220
14.22461 211
14.24473 226
14.26484 222
14.28496 238
14.30507 253
14.32518 233
14.3453 226
14.36541 222
14.38552 237
14.40564 231
14.42575 272
14.44587 228
14.46598 249
14.48609 232
14.50621 227
14.52632 216
14.54643 228
14.56655 241
14.58666 217
14.60677 221
14.62689 238
14.647 218
14.66712 234
14.68723 266
14.70734 202
14.72746 233
14.74757 224
14.76768 224
14.7878 232
14.80791 268
14.82803 258
14.84814 274
14.86825 254
14.88837 261
14.90848 232
14.92859 251
14.94871 298
14.96882 257
14.98894 238
15.00905 263
15.02916 217
15.04928 241
15.06939 215
15.0895 254
15.10962 248
15.12973 274
15.14984 224
15.16996 234
15.19007 219
15.21019 257
15.2303 258
15.25041 247
15.27053 244
15.29064 216
15.31075 241
15.33087 223
15.35098 242
15.3711 223
15.39121 250
15.41132 263
15.43144 248
15.45155 217
15.47166 248
15.49178 209
15.51189 227
15.53201 214
15.55212 222
15.57223 230
15.59235 217
15.61246 242
15.63257 209
15.65269 210
15.6728 206
15.69291 232
15.71303 212
15.73314 233
15.75326 224
15.77337 202
15.79348 228
15.8136 220
15.83371 244
15.85382 227
15.87394 203
15.89405 232
15.91417 201
15.93428 207
15.95439 213
15.97451 235
15.99462 265
16.01473 236
16.03485 207
16.05496 210
16.07508 262
16.09519 207
16.1153 248
16.13542 225
16.15553 242
16.17564 228
16.19576 242
16.21587 197
16.23598 209
16.2561 237
16.27621 197
16.29633 241
16.31644 234
16.33655 225
16.35667 253
16.37678 215
16.39689 235
16.41701 212
16.43712 239
16.45724 253
16.47735 208
16.49746 217
16.51758 205
16.53769 222
16.5578 232
16.57792 244
16.59803 240
16.61814 197
16.63826 210
16.65837 201
16.67849 247
16.6986 223
16.71871 218
16.73883 220
16.75894 211
16.77905 229
16.79917 191
16.81928 219
16.8394 234
16.85951 219
16.87962 230
16.89974 230
16.91985 192
16.93996 222
16.96008 256
16.98019 199
17.00031 216
17.02042 236
17.04053 218
17.06065 227
17.08076 219
17.10087 221
17.12099 243
17.1411 232
17.16121 221
17.18133 235
17.20144 228
17.22156 202
17.24167 238
17.26178 225
17.2819 199
17.30201 219
17.32212 242
17.34224 205
17.36235 234
17.38247 193
17.40258 223
17.42269 208
17.44281 221
17.46292 227
17.48303 223
17.50315 218
17.52326 226
17.54338 240
17.56349 204
17.5836 211
17.60372 203
17.62383 264
17.64394 254
17.66406 242
17.68417 227
17.70428 241
17.7244 259
17.74451 261
17.76463 221
17.78474 240
17.80485 221
17.82497 227
17.84508 212
17.86519 232
17.88531 255
17.90542 220
17.92554 206
17.94565 184
17.96576 222
17.98588 237
18.00599 233
18.0261 239
18.04622 203
18.06633 203
18.08645 259
18.10656 196
18.12667 231
18.14679 214
18.1669 234
18.18701 247
18.20713 224
18.22724 222
18.24735 228
18.26747 233
18.28758 220
18.3077 249
18.32781 243
18.34792 218
18.36804 227
18.38815 218
18.40826 233
18.42838 239
18.44849 217
18.46861 220
18.48872 225
18.50883 210
18.52895 221
18.54906 219
18.56917 245
18.58929 238
18.6094 239
18.62951 227
18.64963 244
18.66974 225
18.68986 245
18.70997 246
18.73008 224
18.7502 264
18.77031 269
18.79042 271
18.81054 238
18.83065 250
18.85077 267
18.87088 257
18.89099 256
18.91111 251
18.93122 232
18.95133 218
18.97145 251
18.99156 267
19.01168 234
19.03179 245
19.0519 220
19.07202 236
19.09213 231
19.11224 276
19.13236 261
19.15247 239
19.17258 273
19.1927 269
19.21281 273
19.23293 277
19.25304 296
19.27315 296
19.29327 276
19.31338 241
19.33349 278
19.35361 272
19.37372 268
19.39384 286
19.41395 275
19.43406 284
19.45418 245
19.47429 278
19.4944 269
19.51452 288
19.53463 303
19.55475 278
19.57486 335
19.59497 316
19.61509 287
19.6352 297
19.65531 301
19.67543 313
19.69554 341
19.71565 351
19.73577 342
19.75588 380
19.776 384
19.79611 425
19.81622 454
19.83634 474
19.85645 447
19.87656 475
19.89668 460
19.91679 447
19.93691 470
19.95702 467
19.97713 435
19.99725 443
20.01736 423
20.03747 446
20.05759 446
20.0777 415
20.09782 430
20.11793 463
20.13804 421
20.15816 446
20.17827 459
20.19838 425
20.2185 469
20.23861 445
20.25872 468
20.27884 452
20.29895 450
20.31907 489
20.33918 440
20.35929 460
20.37941 438
20.39952 464
20.41963 446
20.43975 480
20.45986 512
20.47998 457
20.50009 499
20.5202 470
20.54032 491
20.56043 530
20.58054 531
20.60066 557
20.62077 600
20.64088 665
20.661 730
20.68111 861
20.70123 1113
20.72134 1408
20.74145 1963
20.76157 2723
20.78168 3827
20.80179 4910
20.82191 6393
20.84202 6842
20.86214 6595
20.88225 5462
20.90236 3981
20.92248 2665
20.94259 1829
20.9627 1320
20.98282 1171
21.00293 1028
21.02305 894
21.04316 858
21.06327 720
21.08339 675
21.1035 555
21.12361 558
21.14373 498
21.16384 499
21.18395 453
21.20407 466
21.22418 428
21.2443 439
21.26441 407
21.28452 394
21.30464 388
21.32475 422
21.34486 430
21.36498 373
21.38509 416
21.40521 386
21.42532 417
21.44543 410
21.46555 364
21.48566 403
21.50577 389
21.52589 361
21.546 373
21.56612 348
21.58623 334
21.60634 389
21.62646 356
21.64657 398
21.66668 362
21.6868 341
21.70691 387
21.72702 344
21.74714 336
21.76725 346
21.78737 350
21.80748 345
21.82759 389
21.84771 356
21.86782 333
21.88793 319
21.90805 390
21.92816 385
21.94828 373
21.96839 412
21.9885 419
22.00862 416
22.02873 463
22.04884 472
22.06896 383
22.08907 401
22.10919 396
22.1293 365
22.14941 358
22.16953 380
22.18964 396
22.20975 388
22.22987 402
22.24998 424
22.27009 440
22.29021 478
22.31032 427
22.33044 406
22.35055 369
22.37066 369
22.39078 350
22.41089 333
22.431 310
22.45112 365
22.47123 359
22.49135 340
22.51146 350
22.53157 353
22.55169 332
22.5718 384
22.59191 351
22.61203 381
22.63214 371
22.65225 359
22.67237 352
22.69248 356
22.7126 352
22.73271 367
22.75282 306
22.77294 319
22.79305 350
22.81316 307
22.83328 354
22.85339 346
22.87351 329
22.89362 342
22.91373 318
22.93385 389
22.95396 363
22.97407 373
22.99419 350
23.0143 357
23.03442 390
23.05453 399
23.07464 447
23.09476 475
23.11487 476
23.13498 518
23.1551 555
23.17521 543
23.19532 574
23.21544 524
23.23555 461
23.25567 436
23.27578 384
23.29589 357
23.31601 336
23.33612 378
23.35623 333
23.37635 349
23.39646 373
23.41658 350
23.43669 373
23.4568 360
23.47692 383
23.49703 398
23.51714 396
23.53726 394
23.55737 405
23.57749 415
23.5976 407
23.61771 385
23.63783 380
23.65794 357
23.67805 364
23.69817 334
23.71828 364
23.73839 357
23.75851 361
23.77862 389
23.79874 407
23.81885 393
23.83896 414
23.85908 417
23.87919 455
23.8993 463
23.91942 497
23.93953 567
23.95965 557
23.97976 623
23.99987 538
24.01999 529
24.0401 516
24.06021 576
24.08033 636
24.10044 677
24.12056 526
24.14067 518
24.16078 497
24.1809 434
24.20101 393
24.22112 368
24.24124 420
24.26135 394
24.28146 439
24.30158 466
24.32169 424
24.34181 431
24.36192 415
24.38203 382
24.40215 374
24.42226 355
24.44237 361
24.46249 364
24.4826 392
24.50272 382
24.52283 353
24.54294 383
24.56306 365
24.58317 404
24.60328 369
24.6234 420
24.64351 435
24.66362 440
24.68374 399
24.70385 423
24.72397 384
24.74408 425
24.76419 416
24.78431 399
24.80442 419
24.82453 463
24.84465 398
24.86476 417
24.88488 442
24.90499 462
24.9251 432
24.94522 400
24.96533 455
24.98544 420
25.00556 424
25.02567 422
25.04579 399
25.0659 383
25.08601 373
25.10613 377
25.12624 375
25.14635 359
25.16647 354
25.18658 368
25.20669 366
25.22681 394
25.24692 388
25.26704 334
25.28715 343
25.30726 379
25.32738 384
25.34749 356
25.3676 406
25.38772 372
25.40783 402
25.42795 460
25.44806 491
25.46817 540
25.48829 579
25.5084 617
25.52851 649
25.54863 639
25.56874 581
25.58886 611
25.60897 618
25.62908 569
25.6492 621
25.66931 556
25.68942 585
25.70954 546
25.72965 513
25.74976 479
25.76988 423
25.78999 426
25.81011 444
25.83022 503
25.85033 486
25.87045 441
25.89056 469
25.91067 460
25.93079 509
25.9509 456
25.97102 459
25.99113 519
26.01124 505
26.03136 505
26.05147 450
26.07158 543
26.0917 536
26.11181 583
26.13193 602
26.15204 612
26.17215 605
26.19227 734
26.21238 808
26.23249 814
26.25261 881
26.27272 922
26.29283 1009
26.31295 1149
26.33306 1213
26.35318 1353
26.37329 1584
26.3934 1800
26.41352 2023
26.43363 2534
26.45374 3146
26.47386 4157
26.49397 5889
26.51409 8112
26.5342 11414
26.55431 16092
26.57443 21536
26.59454 27187
26.61465 30275
26.63477 28866
26.65488 24215
26.67499 18486
26.69511 14045
26.71522 9819
26.73534 5494
26.75545 2950
26.77556 1870
26.79568 1449
26.81579 1247
26.8359 1156
26.85602 1104
26.87613 1055
26.89625 966
26.91636 972
26.93647 965
26.95659 970
26.9767 900
26.99681 892
27.01693 988
27.03704 912
27.05716 843
27.07727 822
27.09738 731
27.1175 720
27.13761 646
27.15772 564
27.17784 626
27.19795 586
27.21806 600
27.23818 603
27.25829 589
27.27841 709
27.29852 813
27.31863 872
27.33875 953
27.35886 1038
27.37897 1115
27.39909 1339
27.4192 1374
27.43932 1436
27.45943 1308
27.47954 1159
27.49966 973
27.51977 919
27.53988 755
27.56 629
27.58011 548
27.60023 505
27.62034 499
27.64045 453
27.66057 467
27.68068 426
27.70079 510
27.72091 508
27.74102 499
27.76113 499
27.78125 493
27.80136 479
27.82148 497
27.84159 534
27.8617 542
27.88182 532
27.90193 545
27.92204 580
27.94216 524
27.96227 556
27.98239 510
28.0025 440
28.02261 401
28.04273 404
28.06284 384
28.08295 398
28.10307 335
28.12318 360
28.1433 330
28.16341 362
28.18352 353
28.20364 349
28.22375 352
28.24386 366
28.26398 350
28.28409 386
28.3042 336
28.32432 305
28.34443 350
28.36455 340
28.38466 297
28.40477 292
28.42489 284
28.445 299
28.46511 300
28.48523 305
28.50534 300
28.52546 301
28.54557 284
28.56568 302
28.5858 306
28.60591 298
28.62602 293
28.64614 296
28.66625 300
28.68636 305
28.70648 289
28.72659 306
28.74671 281
28.76682 308
28.78693 303
28.80705 255
28.82716 284
28.84727 268
28.86739 288
28.8875 295
28.90762 294
28.92773 274
28.94784 300
28.96796 292
28.98807 313
29.00818 292
29.0283 267
29.04841 286
29.06853 283
29.08864 305
29.10875 291
29.12887 284
29.14898 278
29.16909 278
29.18921 265
29.20932 286
29.22943 287
29.24955 292
29.26966 314
29.28978 302
29.30989 319
29.33 332
29.35012 366
29.37023 412
29.39034 386
29.41046 413
29.43057 414
29.45069 400
29.4708 375
29.49091 347
29.51103 331
29.53114 334
29.55125 303
29.57137 305
29.59148 302
29.6116 291
29.63171 279
29.65182 279
29.67194 299
29.69205 253
29.71216 286
29.73228 298
29.75239 275
29.7725 289
29.79262 309
29.81273 334
29.83285 309
29.85296 272
29.87307 284
29.89319 315
29.9133 291
29.93341 296
29.95353 305
29.97364 326
29.99376 284
30.01387 338
30.03398 361
30.0541 373
30.07421 341
30.09432 411
30.11444 416
30.13455 459
30.15467 456
30.17478 457
30.19489 489
30.21501 471
30.23512 436
30.25523 397
30.27535 400
30.29546 365
30.31557 361
30.33569 331
30.3558 300
30.37592 335
30.39603 343
30.41614 321
30.43626 318
30.45637 319
30.47648 278
30.4966 290
30.51671 288
30.53683 282
30.55694 293
30.57705 312
30.59717 324
30.61728 382
30.63739 369
30.65751 363
30.67762 404
30.69773 426
30.71785 459
30.73796 422
30.75808 400
30.77819 418
30.7983 395
30.81842 430
30.83853 393
30.85864 387
30.87876 379
30.89887 378
30.91899 321
30.9391 322
30.95921 318
30.97933 292
30.99944 277
31.01955 221
31.03967 295
31.05978 252
31.0799 241
31.10001 251
31.12012 221
31.14024 246
31.16035 251
31.18046 264
31.20058 266
31.22069 274
31.2408 244
31.26092 251
31.28103 256
31.30115 251
31.32126 232
31.34137 246
31.36149 249
31.3816 248
31.40171 279
31.42183 250
31.44194 254
31.46206 227
31.48217 248
31.50228 257
31.5224 230
31.54251 248
31.56262 219
31.58274 224
31.60285 228
31.62297 240
31.64308 219
31.66319 242
31.68331 212
31.70342 241
31.72353 224
31.74365 241
31.76376 252
31.78387 260
31.80399 237
31.8241 230
31.84422 244
31.86433 224
31.88444 223
31.90456 241
31.92467 213
31.94478 266
31.9649 240
31.98501 244
32.00513 260
32.02524 263
32.04535 280
32.06547 270
32.08558 284
32.10569 255
32.12581 266
32.14592 242
32.16604 288
32.18615 284
32.20626 256
32.22638 254
32.24649 266
32.2666 271
32.28672 286
32.30683 282
32.32694 313
32.34706 290
32.36717 316
32.38729 349
32.4074 307
32.42751 306
32.44763 293
32.46774 348
32.48785 318
32.50797 263
32.52808 270
32.5482 281
32.56831 290
32.58842 280
32.60854 241
32.62865 280
32.64876 235
32.66888 211
32.68899 219
32.7091 226
32.72922 234
32.74933 231
32.76945 233
32.78956 215
32.80967 216
32.82979 252
32.8499 226
32.87001 236
32.89013 209
32.91024 212
32.93036 256
32.95047 213
32.97058 225
32.9907 210
33.01081 245
33.03092 179
33.05104 187
33.07115 215
33.09127 243
33.11138 237
33.13149 233
33.15161 242
33.17172 205
33.19183 230
33.21195 210
33.23206 233
33.25217 224
33.27229 245
33.2924 241
33.31252 240
33.33263 212
33.35274 225
33.37286 221
33.39297 198
33.41308 209
33.4332 204
33.45331 241
33.47343 235
33.49354 188
33.51365 224
33.53377 218
33.55388 200
33.57399 231
33.59411 220
33.61422 187
33.63434 262
33.65445 220
33.67456 209
33.69468 213
33.71479 202
33.7349 203
33.75502 211
33.77513 223
33.79524 214
33.81536 232
33.83547 234
33.85559 205
33.8757 237
33.89581 199
33.91593 219
33.93604 239
33.95615 242
33.97627 234
33.99638 236
34.0165 261
34.03661 257
34.05672 293
34.07684 289
34.09695 295
34.11706 334
34.13718 337
34.15729 318
34.17741 322
34.19752 346
34.21763 316
34.23775 316
34.25786 297
34.27797 284
34.29809 271
34.3182 277
34.33831 256
34.35843 223
34.37854 275
34.39866 262
34.41877 245
34.43888 292
34.459 293
34.47911 296
34.49922 281
34.51934 284
34.53945 304
34.55957 312
34.57968 279
34.59979 320
34.61991 321
34.64002 338
34.66013 340
34.68025 291
34.70036 288
34.72047 337
34.74059 340
34.7607 297
34.78082 320
34.80093 348
34.82104 354
34.84116 355
34.86127 386
34.88138 380
34.9015 371
34.92161 374
34.94173 338
34.96184 364
34.98195 341
35.00207 352
35.02218 348
35.04229 359
35.06241 332
35.08252 363
35.10264 341
35.12275 373
35.14286 353
35.16298 354
35.18309 352
35.2032 374
35.22332 335
35.24343 380
35.26354 344
35.28366 332
35.30377 367
35.32389 334
35.344 339
35.36411 368
35.38423 382
35.40434 303
35.42445 348
35.44457 354
35.46468 378
35.4848 373
35.50491 398
35.52502 356
35.54514 338
35.56525 340
35.58536 343
35.60548 365
35.62559 288
35.64571 342
35.66582 303
35.68593 291
35.70605 281
35.72616 292
35.74627 309
35.76639 324
35.7865 312
35.80661 308
35.82673 339
35.84684 340
35.86696 295
35.88707 303
35.90718 316
35.9273 285
35.94741 264
35.96752 307
35.98764 287
36.00775 291
36.02787 280
36.04798 281
36.06809 288
36.08821 291
36.10832 275
36.12843 283
36.14855 334
36.16866 322
36.18878 307
36.20889 294
36.229 325
36.24912 317
36.26923 374
36.28934 408
36.30946 424
36.32957 469
36.34968 479
36.3698 599
36.38991 667
36.41003 829
36.43014 1088
36.45025 1355
36.47037 1711
36.49048 2012
36.51059 2091
36.53071 2088
36.55082 1806
36.57094 1422
36.59105 1259
36.61116 1183
36.63128 1026
36.65139 681
36.6715 491
36.69162 462
36.71173 359
36.73184 346
36.75196 352
36.77207 337
36.79219 329
36.8123 360
36.83241 354
36.85253 353
36.87264 320
36.89275 339
36.91287 308
36.93298 346
36.9531 335
36.97321 327
36.99332 316
37.01344 338
37.03355 297
37.05366 273
37.07378 312
37.09389 280
37.11401 286
37.13412 292
37.15423 282
37.17435 242
37.19446 276
37.21457 289
37.23469 259
37.2548 291
37.27491 258
37.29503 262
37.31514 250
37.33526 262
37.35537 278
37.37548 240
37.3956 264
37.41571 278
37.43582 278
37.45594 247
37.47605 254
37.49617 274
37.51628 275
37.53639 270
37.55651 296
37.57662 265
37.59673 290
37.61685 290
37.63696 281
37.65708 281
37.67719 284
37.6973 276
37.71742 262
37.73753 254
37.75764 233
37.77776 259
37.79787 217
37.81798 259
37.8381 261
37.85821 275
37.87833 269
37.89844 256
37.91855 281
37.93867 275
37.95878 262
37.97889 265
37.99901 271
38.01912 271
38.03924 224
38.05935 279
38.07946 256
38.09958 267
38.11969 285
38.1398 299
38.15992 292
38.18003 305
38.20015 292
38.22026 288
38.24037 256
38.26049 276
38.2806 249
38.30071 308
38.32083 289
38.34094 260
38.36105 274
38.38117 307
38.40128 284
38.4214 278
38.44151 291
38.46162 344
38.48174 321
38.50185 347
38.52196 337
38.54208 306
38.56219 325
38.58231 317
38.60242 295
38.62253 283
38.64265 287
38.66276 257
38.68287 298
38.70299 286
38.7231 281
38.74321 267
38.76333 305
38.78344 270
38.80356 273
38.82367 227
38.84378 245
38.8639 267
38.88401 282
38.90412 273
38.92424 247
38.94435 264
38.96447 262
38.98458 267
39.00469 288
39.02481 279
39.04492 281
39.06503 308
39.08515 318
39.10526 287
39.12538 303
39.14549 310
39.1656 318
39.18572 339
39.20583 362
39.22594 373
39.24606 412
39.26617 449
39.28628 553
39.3064 682
39.32651 790
39.34663 924
39.36674 1251
39.38685 1499
39.40697 1712
39.42708 1934
39.44719 1871
39.46731 1599
39.48742 1316
39.50754 1109
39.52765 1033
39.54776 996
39.56788 850
39.58799 594
39.6081 459
39.62822 322
39.64833 293
39.66845 289
39.68856 261
39.70867 245
39.72879 278
39.7489 251
39.76901 235
39.78913 252
39.80924 238
39.82935 253
39.84947 234
39.86958 239
39.8897 258
39.90981 229
39.92992 249
39.95004 236
39.97015 252
39.99026 283
40.01038 302
40.03049 274
40.05061 291
40.07072 326
40.09083 352
40.11095 417
40.13106 409
40.15117 515
40.17129 613
40.1914 692
40.21152 839
40.23163 992
40.25174 1105
40.27186 1025
40.29197 922
40.31208 753
40.3322 655
40.35231 644
40.37242 602
40.39254 594
40.41265 416
40.43277 341
40.45288 260
40.47299 293
40.49311 292
40.51322 265
40.53333 256
40.55345 227
40.57356 263
40.59368 239
40.61379 231
40.6339 236
40.65402 226
40.67413 212
40.69424 220
40.71436 212
40.73447 233
40.75458 214
40.7747 225
40.79481 217
40.81493 218
40.83504 227
40.85515 261
40.87527 226
40.89538 225
40.91549 224
40.93561 226
40.95572 197
40.97584 206
40.99595 218
41.01606 239
41.03618 220
41.05629 234
41.0764 251
41.09652 232
41.11663 227
41.13675 244
41.15686 228
41.17697 236
41.19709 237
41.2172 256
41.23731 246
41.25743 258
41.27754 223
41.29765 234
41.31777 236
41.33788 231
41.358 263
41.37811 239
41.39822 229
41.41834 241
41.43845 214
41.45856 253
41.47868 247
41.49879 250
41.51891 242
41.53902 233
41.55913 268
41.57925 246
41.59936 250
41.61947 281
41.63959 315
41.6597 338
41.67982 345
41.69993 360
41.72004 350
41.74016 408
41.76027 417
41.78038 404
41.8005 353
41.82061 360
41.84072 341
41.86084 333
41.88095 307
41.90107 279
41.92118 280
41.94129 269
41.96141 236
41.98152 247
42.00163 263
42.02175 259
42.04186 250
42.06198 278
42.08209 245
42.1022 252
42.12232 260
42.14243 292
42.16254 281
42.18266 290
42.20277 300
42.22289 352
42.243 386
42.26311 445
42.28323 556
42.30334 607
42.32345 725
42.34357 876
42.36368 1072
42.38379 1301
42.40391 1438
42.42402 1416
42.44414 1305
42.46425 1058
42.48436 907
42.50448 819
42.52459 788
42.5447 747
42.56482 640
42.58493 476
42.60505 385
42.62516 304
42.64527 286
42.66539 288
42.6855 287
42.70561 294
42.72573 273
42.74584 290
42.76595 266
42.78607 282
42.80618 218
42.8263 233
42.84641 252
42.86652 240
42.88664 241
42.90675 236
42.92686 222
42.94698 232
42.96709 241
42.98721 212
43.00732 233
43.02743 222
43.04755 231
43.06766 240
43.08777 228
43.10789 240
43.128 231
43.14812 226
43.16823 235
43.18834 216
43.20846 230
43.22857 219
43.24868 204
43.2688 195
43.28891 198
43.30902 210
43.32914 219
43.34925 240
43.36937 227
43.38948 221
43.40959 223
43.42971 223
43.44982 202
43.46993 217
43.49005 247
43.51016 223
43.53028 235
43.55039 229
43.5705 243
43.59062 235
43.61073 227
43.63084 221
43.65096 215
43.67107 206
43.69119 211
43.7113 176
43.73141 196
43.75153 196
43.77164 183
43.79175 222
43.81187 182
43.83198 191
43.85209 212
43.87221 205
43.89232 203
43.91244 224
43.93255 219
43.95266 184
43.97278 217
43.99289 195
44.013 202
44.03312 214
44.05323 198
44.07335 217
44.09346 199
44.11357 225
44.13369 212
44.1538 217
44.17391 229
44.19403 218
44.21414 226
44.23426 215
44.25437 212
44.27448 218
44.2946 236
44.31471 194
44.33482 208
44.35494 225
44.37505 220
44.39516 219
44.41528 200
44.43539 208
44.45551 202
44.47562 221
44.49573 211
44.51585 194
44.53596 221
44.55607 220
44.57619 217
44.5963 227
44.61642 216
44.63653 206
44.65664 179
44.67676 219
44.69687 221
44.71698 219
44.7371 212
44.75721 186
44.77732 200
44.79744 237
44.81755 204
44.83767 197
44.85778 204
44.87789 192
44.89801 205
44.91812 197
44.93823 211
44.95835 217
44.97846 223
44.99858 220
45.01869 222
45.0388 222
45.05892 204
45.07903 208
45.09914 215
45.11926 195
45.13937 223
45.15949 217
45.1796 210
45.19971 229
45.21983 216
45.23994 230
45.26005 228
45.28017 221
45.30028 217
45.32039 230
45.34051 250
45.36062 227
45.38074 208
45.40085 229
45.42096 246
45.44108 261
45.46119 265
45.4813 305
45.50142 296
45.52153 315
45.54165 344
45.56176 392
45.58187 378
45.60199 430
45.6221 448
45.64221 499
45.66233 583
45.68244 658
45.70256 799
45.72267 935
45.74278 1013
45.7629 1094
45.78301 982
45.80312 772
45.82324 655
45.84335 574
45.86346 630
45.88358 573
45.90369 518
45.92381 424
45.94392 312
45.96403 292
45.98415 261
46.00426 231
46.02437 247
46.04449 239
46.0646 235
46.08472 250
46.10483 231
46.12494 219
46.14506 239
46.16517 235
46.18528 246
46.2054 240
46.22551 233
46.24563 236
46.26574 218
46.28585 202
46.30597 228
46.32608 237
46.34619 229
46.36631 217
46.38642 197
46.40653 202
46.42665 223
46.44676 233
46.46688 187
46.48699 209
46.5071 195
46.52722 197
46.54733 188
46.56744 196
46.58756 205
46.60767 224
46.62779 184
46.6479 200
46.66801 194
46.68813 214
46.70824 227
46.72835 201
46.74847 198
46.76858 200
46.78869 223
46.80881 198
46.82892 191
46.84904 173
46.86915 183
46.88926 252
46.90938 217
46.92949 205
46.9496 206
46.96972 227
46.98983 270
47.00995 217
47.03006 271
47.05017 285
47.07029 275
47.0904 256
47.11051 286
47.13063 267
47.15074 200
47.17086 228
47.19097 232
47.21108 250
47.2312 237
47.25131 251
47.27142 215
47.29154 213
47.31165 234
47.33176 197
47.35188 225
47.37199 254
47.39211 217
47.41222 254
47.43233 233
47.45245 218
47.47256 245
47.49267 188
47.51279 218
47.5329 197
47.55302 225
47.57313 227
47.59324 205
47.61336 217
47.63347 202
47.65358 197
47.6737 195
47.69381 176
47.71393 204
47.73404 197
47.75415 182
47.77427 197
47.79438 193
47.81449 211
47.83461 177
47.85472 200
47.87483 198
47.89495 196
47.91506 195
47.93518 210
47.95529 203
47.9754 190
47.99552 205
48.01563 178
48.03574 204
48.05586 223
48.07597 210
48.09609 195
48.1162 194
48.13631 231
48.15643 231
48.17654 168
48.19665 198
48.21677 204
48.23688 211
48.257 226
48.27711 190
48.29722 269
48.31734 203
48.33745 233
48.35756 230
48.37768 206
48.39779 213
48.4179 184
48.43802 201
48.45813 235
48.47825 203
48.49836 221
48.51847 198
48.53859 212
48.5587 224
48.57881 233
48.59893 223
48.61904 238
48.63916 222
48.65927 223
48.67938 258
48.6995 221
48.71961 255
48.73972 251
48.75984 261
48.77995 262
48.80006 256
48.82018 253
48.84029 257
48.86041 247
48.88052 253
48.90063 253
48.92075 235
48.94086 228
48.96097 240
48.98109 237
49.0012 246
49.02132 262
49.04143 260
49.06154 220
49.08166 234
49.10177 240
49.12188 241
49.142 213
49.16211 225
49.18223 227
49.20234 219
49.22245 261
49.24257 231
49.26268 226
49.28279 241
49.30291 251
49.32302 232
49.34313 228
49.36325 219
49.38336 218
49.40348 221
49.42359 216
49.4437 222
49.46382 207
49.48393 209
49.50404 210
49.52416 227
49.54427 234
49.56439 205
49.5845 224
49.60461 227
49.62473 233
49.64484 225
49.66495 259
49.68507 254
49.70518 268
49.7253 286
49.74541 314
49.76552 315
49.78564 326
49.80575 382
49.82586 395
49.84598 421
49.86609 455
49.8862 497
49.90632 553
49.92643 703
49.94655 793
49.96666 939
49.98677 1165
50.00689 1467
50.027 1842
50.04711 2132
50.06723 2649
50.08734 2915
50.10746 2967
50.12757 2823
50.14768 2287
50.1678 1735
50.18791 1602
50.20802 1616
50.22814 1549
50.24825 1532
50.26837 1241
50.28848 927
50.30859 599
50.32871 465
50.34882 414
50.36893 388
50.38905 384
50.40916 399
50.42927 410
50.44939 376
50.4695 471
50.48962 426
50.50973 439
50.52984 405
50.54996 386
50.57007 385
50.59018 396
50.6103 385
50.63041 363
50.65053 371
50.67064 302
50.69075 319
50.71087 303
50.73098 297
50.75109 297
50.77121 284
50.79132 291
50.81143 258
50.83155 266
50.85166 304
50.87178 240
50.89189 242
50.912 237
50.93212 239
50.95223 242
50.97234 263
50.99246 250
51.01257 212
51.03269 247
51.0528 236
51.07291 231
51.09303 228
51.11314 235
51.13325 232
51.15337 214
51.17348 232
51.1936 223
51.21371 180
51.23382 214
51.25394 214
51.27405 212
51.29416 182
51.31428 198
51.33439 182
51.3545 183
51.37462 226
51.39473 209
51.41485 210
51.43496 177
51.45507 201
51.47519 176
51.4953 199
51.51541 171
51.53553 196
51.55564 211
51.57576 204
51.59587 198
51.61598 230
51.6361 178
51.65621 169
51.67632 171
51.69644 157
51.71655 192
51.73667 200
51.75678 201
51.77689 182
51.79701 159
51.81712 191
51.83723 162
51.85735 169
51.87746 163
51.89757 176
51.91769 185
51.9378 196
51.95792 202
51.97803 183
51.99814 167
52.01826 180
52.03837 202
52.05848 172
52.0786 212
52.09871 169
52.11883 169
52.13894 188
52.15905 193
52.17917 175
52.19928 178
52.21939 170
52.23951 177
52.25962 183
52.27974 224
52.29985 175
52.31996 189
52.34008 182
52.36019 178
52.3803 205
52.40042 181
52.42053 189
52.44064 174
52.46076 191
52.48087 194
52.50099 205
52.5211 196
52.54121 212
52.56133 207
52.58144 172
52.60155 180
52.62167 195
52.64178 188
52.6619 190
52.68201 214
52.70212 217
52.72224 207
52.74235 194
52.76246 188
52.78258 212
52.80269 165
52.8228 222
52.84292 212
52.86303 211
52.88315 201
52.90326 214
52.92337 218
52.94349 215
52.9636 215
52.98371 206
53.00383 199
53.02394 218
53.04406 202
53.06417 217
53.08428 231
53.1044 193
53.12451 190
53.14462 224
53.16474 249
53.18485 182
53.20497 183
53.22508 187
53.24519 216
53.26531 216
53.28542 209
53.30553 200
53.32565 205
53.34576 204
53.36587 215
53.38599 197
53.4061 203
53.42622 203
53.44633 216
53.46644 223
53.48656 236
53.50667 204
53.52678 216
53.5469 208
53.56701 223
53.58713 201
53.60724 197
53.62735 214
53.64747 220
53.66758 210
53.68769 225
53.70781 214
53.72792 179
53.74804 222
53.76815 194
53.78826 219
53.80838 204
53.82849 215
53.8486 212
53.86872 221
53.88883 219
53.90894 227
53.92906 223
53.94917 213
53.96929 212
53.9894 234
54.00951 224
54.02963 220
54.04974 227
54.06985 223
54.08997 232
54.11008 209
54.1302 242
54.15031 245
54.17042 214
54.19054 221
54.21065 239
54.23076 231
54.25088 236
54.27099 233
54.29111 232
54.31122 219
54.33133 204
54.35145 228
54.37156 235
54.39167 239
54.41179 231
54.4319 259
54.45201 234
54.47213 262
54.49224 271
54.51236 242
54.53247 232
54.55258 255
54.5727 252
54.59281 281
54.61292 271
54.63304 305
54.65315 330
54.67327 413
54.69338 440
54.71349 523
54.73361 557
54.75372 676
54.77383 768
54.79395 901
54.81406 959
54.83417 1010
54.85429 972
54.8744 818
54.89452 698
54.91463 580
54.93474 610
54.95486 643
54.97497 649
54.99508 658
55.0152 550
55.03531 432
55.05543 348
55.07554 308
55.09565 259
55.11577 319
55.13588 321
55.15599 356
55.17611 354
55.19622 394
55.21634 442
55.23645 490
55.25656 495
55.27668 545
55.29679 591
55.3169 534
55.33702 473
55.35713 402
55.37724 381
55.39736 363
55.41747 373
55.43759 424
55.4577 380
55.47781 341
55.49793 304
55.51804 293
55.53815 252
55.55827 253
55.57838 235
55.5985 219
55.61861 230
55.63872 230
55.65884 236
55.67895 227
55.69906 212
55.71918 227
55.73929 206
55.75941 211
55.77952 209
55.79963 200
55.81975 202
55.83986 244
55.85997 192
55.88009 185
55.9002 195
55.92031 196
55.94043 214
55.96054 214
55.98066 193
56.00077 209
56.02088 218
56.041 230
56.06111 238
56.08122 211
56.10134 211
56.12145 226
56.14157 212
56.16168 211
56.18179 203
56.20191 200
56.22202 214
56.24213 193
56.26225 217
56.28236 214
56.30248 196
56.32259 198
56.3427 192
56.36282 191
56.38293 214
56.40304 209
56.42316 190
56.44327 196
56.46338 181
56.4835 185
56.50361 217
56.52373 193
56.54384 206
56.56395 225
56.58407 224
56.60418 202
56.62429 211
56.64441 234
56.66452 200
56.68464 199
56.70475 219
56.72486 205
56.74498 220
56.76509 228
56.7852 231
56.80532 225
56.82543 229
56.84554 225
56.86566 187
56.88577 212
56.90589 195
56.926 208
56.94611 218
56.96623 197
56.98634 185
57.00645 211
57.02657 208
57.04668 194
57.0668 219
57.08691 204
57.10702 216
57.12714 229
57.14725 242
57.16736 251
57.18748 226
57.20759 228
57.22771 260
57.24782 225
57.26793 221
57.28805 250
57.30816 233
57.32827 226
57.34839 227
57.3685 205
57.38861 218
57.40873 227
57.42884 220
57.44896 207
57.46907 200
57.48918 193
57.5093 221
57.52941 211
57.54952 204
57.56964 201
57.58975 214
57.60987 183
57.62998 181
57.65009 181
57.67021 178
57.69032 210
57.71043 180
57.73055 179
57.75066 190
57.77078 219
57.79089 181
57.811 192
57.83112 179
57.85123 168
57.87134 186
57.89146 201
57.91157 180
57.93168 194
57.9518 185
57.97191 184
57.99203 198
58.01214 202
58.03225 182
58.05237 183
58.07248 204
58.09259 198
58.11271 212
58.13282 229
58.15294 229
58.17305 168
58.19316 193
58.21328 203
58.23339 210
58.2535 204
58.27362 188
58.29373 212
58.31385 201
58.33396 196
58.35407 203
58.37419 192
58.3943 209
58.41441 177
58.43453 196
58.45464 232
58.47475 202
58.49487 194
58.51498 198
58.5351 223
58.55521 198
58.57532 204
58.59544 203
58.61555 215
58.63566 233
58.65578 237
58.67589 214
58.69601 226
58.71612 194
58.73623 200
58.75635 185
58.77646 222
58.79657 207
58.81669 206
58.8368 207
58.85691 180
58.87703 191
58.89714 205
58.91726 208
58.93737 195
58.95748 201
58.9776 189
58.99771 170
59.01782 166
59.03794 179
59.05805 200
59.07817 190
59.09828 214
59.11839 183
59.13851 152
59.15862 201
59.17873 212
59.19885 232
59.21896 217
59.23908 216
59.25919 201
59.2793 232
59.29942 203
59.31953 218
59.33964 174
59.35976 207
59.37987 230
59.39998 218
59.4201 234
59.44021 228
59.46033 225
59.48044 233
59.50055 236
59.52067 261
59.54078 249
59.56089 263
59.58101 264
59.60112 329
59.62124 302
59.64135 295
59.66146 361
59.68158 402
59.70169 461
59.7218 493
59.74192 564
59.76203 647
59.78215 772
59.80226 890
59.82237 1052
59.84249 1324
59.8626 1564
59.88271 1843
59.90283 1983
59.92294 1978
59.94305 1768
59.96317 1488
59.98328 1078
60.0034 936
60.02351 930
60.04362 1071
60.06374 1054
60.08385 1024
60.10396 970
60.12408 789
60.14419 559
60.16431 431
60.18442 323
60.20453 312
60.22465 289
60.24476 278
60.26487 249
60.28499 230
60.3051 206
60.32522 201
60.34533 218
60.36544 240
60.38556 230
60.40567 212
60.42578 201
60.4459 220
60.46601 192
60.48612 196
60.50624 190
60.52635 222
60.54647 191
60.56658 201
60.58669 198
60.60681 194
60.62692 208
60.64703 199
60.66715 216
60.68726 179
60.70738 190
60.72749 215
60.7476 206
60.76772 205
60.78783 207
60.80794 185
60.82806 214
60.84817 204
60.86828 224
60.8884 217
60.90851 195
60.92863 205
60.94874 228
60.96885 187
60.98897 196
61.00908 227
61.02919 234
61.04931 193
61.06942 210
61.08954 193
61.10965 211
61.12976 212
61.14988 229
61.16999 232
61.1901 241
61.21022 221
61.23033 222
61.25045 235
61.27056 227
61.29067 218
61.31079 216
61.3309 214
61.35101 202
61.37113 202
61.39124 206
61.41135 211
61.43147 223
61.45158 203
61.4717 207
61.49181 241
61.51192 196
61.53204 221
61.55215 241
61.57226 204
61.59238 207
61.61249 215
61.63261 198
61.65272 228
61.67283 225
61.69295 209
61.71306 217
61.73317 223
61.75329 229
61.7734 237
61.79352 221
61.81363 216
61.83374 236
61.85386 232
61.87397 216
61.89408 225
61.9142 236
61.93431 214
61.95442 253
61.97454 239
61.99465 240
62.01477 217
62.03488 250
62.05499 232
62.07511 215
62.09522 199
62.11533 234
62.13545 214
62.15556 263
62.17568 230
62.19579 237
62.2159 233
62.23602 245
62.25613 228
62.27624 247
62.29636 246
62.31647 218
62.33659 239
62.3567 212
62.37681 246
62.39693 233
62.41704 202
62.43715 209
62.45727 214
62.47738 217
62.49749 203
62.51761 208
62.53772 246
62.55784 192
62.57795 236
62.59806 224
62.61818 216
62.63829 235
62.6584 208
62.67852 208
62.69863 213
62.71875 214
62.73886 203
62.75897 225
62.77909 228
62.7992 223
62.81931 209
62.83943 217
62.85954 192
62.87965 196
62.89977 212
62.91988 214
62.94 222
62.96011 217
62.98022 208
63.00034 244
63.02045 235
63.04056 221
63.06068 218
63.08079 222
63.10091 229
63.12102 212
63.14113 211
63.16125 232
63.18136 228
63.20147 215
63.22159 221
63.2417 209
63.26182 233
63.28193 215
63.30204 228
63.32216 210
63.34227 206
63.36238 211
63.3825 206
63.40261 218
63.42272 200
63.44284 215
63.46295 193
63.48307 225
63.50318 221
63.52329 208
63.54341 229
63.56352 210
63.58363 214
63.60375 219
63.62386 219
63.64398 242
63.66409 213
63.6842 273
63.70432 270
63.72443 277
63.74454 288
63.76466 263
63.78477 291
63.80489 284
63.825 295
63.84511 325
63.86523 348
63.88534 358
63.90545 411
63.92557 456
63.94568 478
63.96579 531
63.98591 544
64.00602 492
64.02614 480
64.04625 417
64.06636 350
64.08648 336
64.10659 350
64.1267 327
64.14682 347
64.16693 331
64.18705 324
64.20716 298
64.22727 235
64.24739 228
64.2675 178
64.28761 195
64.30773 197
64.32784 188
64.34796 199
64.36807 191
64.38818 198
64.4083 194
64.42841 180
64.44852 175
64.46864 186
64.48875 174
64.50886 186
64.52898 180
64.54909 209
64.56921 194
64.58932 172
64.60943 192
64.62955 176
64.64966 200
64.66977 169
64.68989 185
64.71 182
64.73012 173
64.75023 194
64.77034 178
64.79046 195
64.81057 168
64.83068 201
64.8508 181
64.87091 198
64.89102 198
64.91114 206
64.93125 191
64.95137 207
64.97148 209
64.99159 196
65.01171 190
65.03182 196
65.05193 210
65.07205 207
65.09216 216
65.11228 212
65.13239 203
65.1525 217
65.17262 196
65.19273 211
65.21284 219
65.23296 219
65.25307 210
65.27319 205
65.2933 204
65.31341 229
65.33353 183
65.35364 209
65.37375 201
65.39387 215
65.41398 197
65.43409 217
65.45421 206
65.47432 198
65.49444 182
65.51455 212
65.53466 208
65.55478 186
65.57489 215
65.595 219
65.61512 237
65.63523 225
65.65535 221
65.67546 232
65.69557 248
65.71569 254
65.7358 247
65.75591 254
65.77603 227
65.79614 234
65.81626 217
65.83637 190
65.85648 202
65.8766 189
65.89671 223
65.91682 226
65.93694 193
65.95705 194
65.97716 207
65.99728 215
66.01739 186
66.03751 187
66.05762 183
66.07773 198
66.09785 219
66.11796 212
66.13807 206
66.15819 197
66.1783 217
66.19842 235
66.21853 207
66.23864 213
66.25876 185
66.27887 207
66.29898 192
66.3191 172
66.33921 207
66.35933 218
66.37944 199
66.39955 202
66.41967 197
66.43978 204
66.45989 183
66.48001 196
66.50012 186
66.52023 186
66.54035 179
66.56046 192
66.58058 186
66.60069 209
66.6208 184
66.64092 190
66.66103 198
66.68114 195
66.70126 168
66.72137 192
66.74149 199
66.7616 175
66.78171 202
66.80183 193
66.82194 199
66.84205 211
66.86217 184
66.88228 202
66.90239 190
66.92251 198
66.94262 187
66.96274 153
66.98285 189
67.00296 210
67.02308 206
67.04319 205
67.0633 195
67.08342 193
67.10353 171
67.12365 222
67.14376 203
67.16387 219
67.18399 219
67.2041 206
67.22421 183
67.24433 236
67.26444 218
67.28456 216
67.30467 238
67.32478 228
67.3449 275
67.36501 256
67.38512 272
67.40524 244
67.42535 270
67.44546 306
67.46558 341
67.48569 353
67.50581 399
67.52592 421
67.54603 480
67.56615 528
67.58626 625
67.60637 765
67.62649 840
67.6466 962
67.66672 1115
67.68683 1245
67.70694 1211
67.72706 1090
67.74717 961
67.76728 768
67.7874 709
67.80751 699
67.82763 671
67.84774 788
67.86785 854
67.88797 981
67.90808 871
67.92819 828
67.94831 845
67.96842 824
67.98853 906
68.00865 976
68.02876 1086
68.04888 1303
68.06899 1390
68.0891 1506
68.10922 1527
68.12933 1480
68.14944 1327
68.16956 1161
68.18967 1143
68.20979 1186
68.2299 1339
68.25001 1441
68.27013 1494
68.29024 1463
68.31035 1195
68.33047 1033
68.35058 828
68.3707 698
68.39081 571
68.41092 581
68.43104 570
68.45115 585
68.47126 570
68.49138 520
68.51149 427
68.5316 352
68.55172 276
68.57183 252
68.59195 241
68.61206 226
68.63217 229
68.65229 206
68.6724 191
68.69251 196
68.71263 243
68.73274 207
68.75286 241
68.77297 228
68.79308 206
68.8132 233
68.83331 197
68.85342 181
68.87354 187
68.89365 181
68.91376 215
68.93388 192
68.95399 191
68.97411 213
68.99422 181
69.01433 184
69.03445 187
69.05456 212
69.07467 194
69.09479 181
69.1149 193
69.13502 186
69.15513 160
69.17524 188
69.19536 179
69.21547 177
69.23558 198
69.2557 189
69.27581 187
69.29593 182
69.31604 187
69.33615 194
69.35627 186
69.37638 167
69.39649 165
69.41661 186
69.43672 180
69.45683 151
69.47695 183
69.49706 178
69.51718 191
69.53729 171
69.5574 177
69.57752 172
69.59763 187
69.61774 187
69.63786 193
69.65797 164
69.67809 153
69.6982 145
69.71831 196
69.73843 196
69.75854 200
69.77865 171
69.79877 178
69.81888 174
69.839 182
69.85911 164
69.87922 163
69.89934 167
69.91945 189
69.93956 168
69.95968 184
69.97979 169
69.9999 169
70.02002 187
70.04013 180
70.06025 173
70.08036 190
70.10047 187
70.12059 177
70.1407 203
70.16081 181
70.18093 167
70.20104 189
70.22116 187
70.24127 193
70.26138 176
70.2815 156
70.30161 170
70.32172 168
70.34184 178
70.36195 166
70.38207 181
70.40218 175
70.42229 174
70.44241 148
70.46252 185
70.48263 146
70.50275 185
70.52286 167
70.54297 180
70.56309 164
70.5832 163
70.60332 180
70.62343 188
70.64354 176
70.66366 175
70.68377 183
70.70388 177
70.724 196
70.74411 184
70.76423 210
70.78434 175
70.80445 165
70.82457 181
70.84468 166
70.86479 168
70.88491 173
70.90502 174
70.92513 145
70.94525 175
70.96536 174
70.98548 157
71.00559 161
71.0257 186
71.04582 157
71.06593 168
71.08604 179
71.10616 182
71.12627 187
71.14639 162
71.1665 179
71.18661 154
71.20673 198
71.22684 149
71.24695 179
71.26707 170
71.28718 206
71.3073 181
71.32741 182
71.34752 198
71.36764 169
71.38775 210
71.40786 172
71.42798 211
71.44809 212
71.4682 193
71.48832 181
71.50843 206
71.52855 189
71.54866 207
71.56877 188
71.58889 183
71.609 182
71.62911 180
71.64923 184
71.66934 181
71.68946 183
71.70957 190
71.72968 190
71.7498 193
71.76991 174
71.79002 180
71.81014 182
71.83025 184
71.85037 183
71.87048 188
71.89059 177
71.91071 189
71.93082 195
71.95093 178
71.97105 183
71.99116 179
72.01127 196
72.03139 191
72.0515 182
72.07162 175
72.09173 194
72.11184 195
72.13196 197
72.15207 189
72.17218 206
72.1923 188
72.21241 178
72.23253 171
72.25264 180
72.27275 186
72.29287 182
72.31298 177
72.33309 193
72.35321 203
72.37332 174
72.39344 158
72.41355 170
72.43366 177
72.45378 170
72.47389 146
72.494 188
72.51412 169
72.53423 149
72.55434 167
72.57446 166
72.59457 185
72.61469 201
72.6348 179
72.65491 178
72.67503 180
72.69514 193
72.71525 172
72.73537 185
72.75548 180
72.7756 170
72.79571 192
72.81582 189
72.83594 186
72.85605 185
72.87616 203
72.89628 181
72.91639 189
72.9365 210
72.95662 198
72.97673 190
72.99685 210
73.01696 217
73.03707 224
73.05719 212
73.0773 229
73.09741 241
73.11753 267
73.13764 236
73.15776 241
73.17787 259
73.19798 233
73.2181 255
73.23821 253
73.25832 278
73.27844 308
73.29855 333
73.31867 396
73.33878 387
73.35889 426
73.37901 502
73.39912 517
73.41923 517
73.43935 541
73.45946 461
73.47957 423
73.49969 315
73.5198 335
73.53992 311
73.56003 319
73.58014 306
73.60026 358
73.62037 348
73.64048 333
73.6606 351
73.68071 322
73.70083 279
73.72094 264
73.74105 218
73.76117 222
73.78128 193
73.80139 190
73.82151 189
73.84162 202
73.86174 169
73.88185 201
73.90196 197
73.92208 215
73.94219 162
73.9623 192
73.98242 181
74.00253 184
74.02264 183
74.04276 188
74.06287 185
74.08299 162
74.1031 168
74.12321 191
74.14333 194
74.16344 189
74.18355 164
74.20367 165
74.22378 179
74.2439 187
74.26401 175
74.28412 193
74.30424 194
74.32435 174
74.34446 185
74.36458 176
74.38469 174
74.40481 187
74.42492 181
74.44503 161
74.46515 186
74.48526 209
74.50537 186
74.52549 183
74.5456 175
74.56571 203
74.58583 184
74.60594 197
74.62606 194
74.64617 161
74.66628 190
74.6864 188
74.70651 178
74.72662 204
74.74674 180
74.76685 188
74.78697 202
74.80708 180
74.82719 178
74.84731 192
74.86742 195
74.88753 204
74.90765 189
74.92776 181
74.94787 182
74.96799 207
74.9881 202
75.00822 176
