3.00117 20488
3.02128 19788
3.0414 19504
3.06151 18860
3.08162 18286
3.10174 18130
3.12185 17162
3.14197 16819
3.16208 16129
3.18219 15594
3.20231 15583
3.22242 14655
3.24253 14686
3.26265 13850
3.28276 13462
3.30288 13226
3.32299 12641
3.3431 12600
3.36322 11932
3.38333 11720
3.40344 11310
3.42356 10799
3.44367 10665
3.46379 10012
3.4839 9673
3.50401 9757
3.52413 9105
3.54424 8995
3.56435 8519
3.58447 8316
3.60458 8003
3.62469 7537
3.64481 7618
3.66492 7134
3.68504 6845
3.70515 6654
3.72526 6211
3.74538 6215
3.76549 5946
3.7856 5478
3.80572 5581
3.82583 5296
3.84595 5191
3.86606 4693
3.88617 4562
3.90629 4564
3.9264 4306
3.94651 4116
3.96663 3831
3.98674 3755
4.00686 3778
4.02697 3410
4.04708 3309
4.0672 3118
4.08731 2929
4.10742 2890
4.12754 2821
4.14765 2713
4.16776 2510
4.18788 2320
4.20799 2499
4.22811 2375
4.24822 2278
4.26833 2039
4.28845 1926
4.30856 2056
4.32867 2025
4.34879 1927
4.3689 1847
4.38902 1738
4.40913 1744
4.42924 1708
4.44936 1642
4.46947 1593
4.48958 1527
4.5097 1549
4.52981 1490
4.54992 1444
4.57004 1376
4.59015 1368
4.61027 1345
4.63038 1354
4.65049 1341
4.67061 1233
4.69072 1282
4.71083 1216
4.73095 1314
4.75106 1067
4.77118 1146
4.79129 1048
4.8114 1114
4.83152 1124
4.85163 1058
4.87174 1038
4.89186 1009
4.91197 1047
4.93209 991
4.9522 927
4.97231 838
4.99243 896
5.01254 903
5.03265 904
5.05277 817
5.07288 857
5.09299 862
5.11311 828
5.13322 806
5.15334 711
5.17345 716
5.19356 706
5.21368 731
5.23379 764
5.2539 728
5.27402 702
5.29413 644
5.31425 733
5.33436 642
5.35447 693
5.37459 632
5.3947 642
5.41481 584
5.43493 645
5.45504 626
5.47516 597
5.49527 567
5.51538 584
5.5355 631
5.55561 599
5.57572 494
5.59584 562
5.61595 561
5.63606 541
5.65618 554
5.67629 511
5.69641 564
5.71652 528
5.73663 497
5.75675 537
5.77686 504
5.79697 461
5.81709 526
5.8372 457
5.85732 540
5.87743 504
5.89754 472
5.91766 509
5.93777 460
5.95788 477
5.978 478
5.99811 482
6.01823 519
6.03834 448
6.05845 441
6.07857 450
6.09868 499
6.11879 521
6.13891 458
6.15902 455
6.17913 473
6.19925 455
6.21936 497
6.23948 456
6.25959 459
6.2797 422
6.29982 430
6.31993 463
6.34004 465
6.36016 410
6.38027 453
6.40039 462
6.4205 501
6.44061 416
6.46073 420
6.48084 464
6.50095 417
6.52107 419
6.54118 433
6.56129 459
6.58141 415
6.60152 426
6.62164 416
6.64175 411
6.66186 406
6.68198 386
6.70209 414
6.7222 420
6.74232 454
6.76243 416
6.78255 414
6.80266 421
6.82277 377
6.84289 464
6.863 468
6.88311 448
6.90323 378
6.92334 387
6.94346 421
6.96357 415
6.98368 438
7.0038 397
7.02391 414
7.04402 378
7.06414 396
7.08425 420
7.10436 403
7.12448 387
7.14459 403
7.16471 467
7.18482 429
7.20493 430
7.22505 388
7.24516 424
7.26527 369
7.28539 459
7.3055 410
7.32562 426
7.34573 442
7.36584 409
7.38596 440
7.40607 446
7.42618 455
7.4463 402
7.46641 426
7.48653 396
7.50664 413
7.52675 431
7.54687 453
7.56698 415
7.58709 439
7.60721 426
7.62732 450
7.64743 444
7.66755 374
7.68766 424
7.70778 419
7.72789 425
7.748 472
7.76812 405
7.78823 481
7.80834 447
7.82846 474
7.84857 423
7.86869 424
7.8888 469
7.90891 470
7.92903 470
7.94914 424
7.96925 423
7.98937 452
8.00948 490
8.0296 522
8.04971 443
8.06982 500
8.08994 450
8.11005 437
8.13016 466
8.15028 442
8.17039 476
8.1905 494
8.21062 477
8.23073 499
8.25085 498
8.27096 493
8.29107 498
8.31119 476
8.3313 541
8.35141 535
8.37153 519
8.39164 517
8.41176 520
8.43187 550
8.45198 538
8.4721 562
8.49221 596
8.51232 574
8.53244 627
8.55255 560
8.57266 594
8.59278 610
8.61289 634
8.63301 629
8.65312 663
8.67323 684
8.69335 666
8.71346 701
8.73357 706
8.75369 729
8.7738 747
8.79392 722
8.81403 734
8.83414 772
8.85426 747
8.87437 748
8.89448 719
8.9146 652
8.93471 593
8.95483 544
8.97494 520
8.99505 564
9.01517 505
9.03528 472
9.05539 453
9.07551 477
9.09562 450
9.11573 405
9.13585 489
9.15596 412
9.17608 441
9.19619 423
9.2163 409
9.23642 419
9.25653 448
9.27664 381
9.29676 395
9.31687 385
9.33699 349
9.3571 386
9.37721 407
9.39733 424
9.41744 386
9.43755 368
9.45767 388
9.47778 376
9.4979 399
9.51801 416
9.53812 387
9.55824 390
9.57835 397
9.59846 383
9.61858 398
9.63869 397
9.6588 391
9.67892 381
9.69903 402
9.71915 402
9.73926 382
9.75937 403
9.77949 387
9.7996 392
9.81971 414
9.83983 353
9.85994 346
9.88006 374
9.90017 398
9.92028 390
9.9404 361
9.96051 391
9.98062 383
10.00074 402
10.02085 402
10.04097 354
10.06108 377
10.08119 375
10.10131 382
10.12142 354
10.14153 351
10.16165 386
10.18176 391
10.20187 375
10.22199 361
10.2421 399
10.26222 384
10.28233 346
10.30244 374
10.32256 401
10.34267 334
10.36278 383
10.3829 437
10.40301 374
10.42313 370
10.44324 386
10.46335 427
10.48347 411
10.50358 389
10.52369 406
10.54381 355
10.56392 372
10.58403 353
10.60415 366
10.62426 356
10.64438 378
10.66449 369
10.6846 336
10.70472 337
10.72483 332
10.74494 376
10.76506 400
10.78517 339
10.80529 401
10.8254 311
10.84551 373
10.86563 377
10.88574 387
10.90585 361
10.92597 365
10.94608 410
10.9662 409
10.98631 422
11.00642 430
11.02654 419
11.04665 419
11.06676 393
11.08688 403
11.10699 399
11.1271 325
11.14722 379
11.16733 353
11.18745 365
11.20756 362
11.22767 363
11.24779 364
11.2679 347
11.28801 386
11.30813 355
11.32824 367
11.34836 343
11.36847 372
11.38858 393
11.4087 355
11.42881 325
11.44892 372
11.46904 367
11.48915 332
11.50927 354
11.52938 332
11.54949 359
11.56961 354
11.58972 364
11.60983 373
11.62995 390
11.65006 404
11.67017 382
11.69029 372
11.7104 366
11.73052 368
11.75063 418
11.77074 395
11.79086 384
11.81097 337
11.83108 374
11.8512 335
11.87131 382
11.89143 381
11.91154 361
11.93165 362
11.95177 367
11.97188 421
11.99199 378
12.01211 409
12.03222 372
12.05234 381
12.07245 386
12.09256 378
12.11268 380
12.13279 387
12.1529 371
12.17302 390
12.19313 393
12.21324 382
12.23336 378
12.25347 391
12.27359 354
12.2937 416
12.31381 398
12.33393 388
12.35404 422
12.37415 360
12.39427 396
12.41438 388
12.4345 357
12.45461 407
12.47472 379
12.49484 345
12.51495 363
12.53506 385
12.55518 334
12.57529 375
12.5954 340
12.61552 376
12.63563 348
12.65575 341
12.67586 354
12.69597 350
12.71609 348
12.7362 285
12.75631 330
12.77643 338
12.79654 305
12.81666 298
12.83677 366
12.85688 351
12.877 297
12.89711 351
12.91722 317
12.93734 374
12.95745 359
12.97757 331
12.99768 358
13.01779 325
13.03791 352
13.05802 317
13.07813 330
13.09825 351
13.11836 359
13.13847 340
13.15859 326
13.1787 348
13.19882 313
13.21893 313
13.23904 324
13.25916 358
13.27927 339
13.29938 328
13.3195 320
13.33961 340
13.35973 372
13.37984 329
13.39995 341
13.42007 327
13.44018 361
13.46029 303
13.48041 336
13.50052 333
13.52064 332
13.54075 326
13.56086 344
13.58098 315
13.60109 366
13.6212 344
13.64132 318
13.66143 327
13.68154 344
13.70166 349
13.72177 382
13.74189 373
13.762 377
13.78211 422
13.80223 430
13.82234 448
13.84245 454
13.86257 492
13.88268 487
13.9028 487
13.92291 439
13.94302 427
13.96314 393
13.98325 386
14.00336 358
14.02348 362
14.04359 352
14.06371 354
14.08382 340
14.10393 354
14.12405 326
14.14416 335
14.16427 321
14.18439 318
14.2045 293
14.22461 298
14.24473 349
14.26484 333
14.28496 346
14.30507 310
14.32518 321
14.3453 335
14.36541 328
14.38552 303
14.40564 318
14.42575 300
14.44587 299
14.46598 288
14.48609 304
14.50621 301
14.52632 323
14.54643 321
14.56655 313
14.58666 319
14.60677 322
14.62689 329
14.647 340
14.66712 325
14.68723 321
14.70734 306
14.72746 288
14.74757 302
14.76768 330
14.7878 301
14.80791 341
14.82803 299
14.84814 371
14.86825 343
14.88837 327
14.90848 371
14.92859 346
14.94871 380
14.96882 380
14.98894 372
15.00905 360
15.02916 341
15.04928 348
15.06939 334
15.0895 352
15.10962 324
15.12973 318
15.14984 316
15.16996 311
15.19007 297
15.21019 361
15.2303 331
15.25041 302
15.27053 317
15.29064 315
15.31075 347
15.33087 300
15.35098 315
15.3711 313
15.39121 315
15.41132 312
15.43144 279
15.45155 288
15.47166 290
15.49178 326
15.51189 306
15.53201 302
15.55212 343
15.57223 323
15.59235 314
15.61246 296
15.63257 318
15.65269 335
15.6728 296
15.69291 334
15.71303 306
15.73314 341
15.75326 337
15.77337 323
15.79348 326
15.8136 354
15.83371 355
15.85382 331
15.87394 290
15.89405 314
15.91417 350
15.93428 302
15.95439 312
15.97451 324
15.99462 287
16.01473 300
16.03485 309
16.05496 293
16.07508 296
16.09519 313
16.1153 326
16.13542 310
16.15553 286
16.17564 307
16.19576 337
16.21587 316
16.23598 317
16.2561 294
16.27621 320
16.29633 318
16.31644 293
16.33655 319
16.35667 297
16.37678 328
16.39689 340
16.41701 335
16.43712 286
16.45724 285
16.47735 334
16.49746 286
16.51758 306
16.53769 317
16.5578 306
16.57792 326
16.59803 324
16.61814 324
16.63826 284
16.65837 313
16.67849 260
16.6986 311
16.71871 324
16.73883 281
16.75894 300
16.77905 320
16.79917 318
16.81928 304
16.8394 287
16.85951 330
16.87962 272
16.89974 330
16.91985 326
16.93996 270
16.96008 297
16.98019 293
17.00031 302
17.02042 306
17.04053 311
17.06065 300
17.08076 301
17.10087 304
17.12099 336
17.1411 315
17.16121 294
17.18133 310
17.20144 338
17.22156 307
17.24167 301
17.26178 321
17.2819 309
17.30201 302
17.32212 315
17.34224 327
17.36235 291
17.38247 315
17.40258 349
17.42269 315
17.44281 323
17.46292 313
17.48303 355
17.50315 347
17.52326 374
17.54338 386
17.56349 413
17.5836 447
17.60372 457
17.62383 407
17.64394 429
17.66406 426
17.68417 431
17.70428 428
17.7244 412
17.74451 475
17.76463 348
17.78474 409
17.80485 438
17.82497 361
17.84508 315
17.86519 361
17.88531 304
17.90542 323
17.92554 278
17.94565 319
17.96576 307
17.98588 314
18.00599 311
18.0261 338
18.04622 355
18.06633 350
18.08645 340
18.10656 314
18.12667 301
18.14679 288
18.1669 324
18.18701 334
18.20713 336
18.22724 295
18.24735 335
18.26747 337
18.28758 332
18.3077 335
18.32781 345
18.34792 356
18.36804 315
18.38815 312
18.40826 327
18.42838 304
18.44849 335
18.46861 319
18.48872 329
18.50883 328
18.52895 300
18.54906 337
18.56917 307
18.58929 335
18.6094 318
18.62951 322
18.64963 311
18.66974 337
18.68986 297
18.70997 347
18.73008 323
18.7502 322
18.77031 327
18.79042 290
18.81054 304
18.83065 326
18.85077 310
18.87088 309
18.89099 324
18.91111 326
18.93122 327
18.95133 317
18.97145 323
18.99156 331
19.01168 368
19.03179 320
19.0519 326
19.07202 331
19.09213 347
19.11224 369
19.13236 377
19.15247 379
19.17258 381
19.1927 415
19.21281 415
19.23293 468
19.25304 507
19.27315 450
19.29327 529
19.31338 492
19.33349 480
19.35361 465
19.37372 443
19.39384 457
19.41395 428
19.43406 424
19.45418 444
19.47429 392
19.4944 449
19.51452 442
19.53463 470
19.55475 440
19.57486 454
19.59497 521
19.61509 493
19.6352 475
19.65531 521
19.67543 533
19.69554 518
19.71565 551
19.73577 570
19.75588 636
19.776 622
19.79611 599
19.81622 662
19.83634 622
19.85645 589
19.87656 571
19.89668 581
19.91679 535
19.93691 524
19.95702 493
19.97713 518
19.99725 518
20.01736 487
20.03747 483
20.05759 497
20.0777 473
20.09782 488
20.11793 473
20.13804 498
20.15816 450
20.17827 451
20.19838 529
20.2185 430
20.23861 425
20.25872 447
20.27884 444
20.29895 446
20.31907 446
20.33918 490
20.35929 431
20.37941 515
20.39952 452
20.41963 459
20.43975 497
20.45986 501
20.47998 503
20.50009 491
20.5202 537
20.54032 507
20.56043 511
20.58054 489
20.60066 535
20.62077 560
20.64088 611
20.661 623
20.68111 688
20.70123 821
20.72134 915
20.74145 1120
20.76157 1406
20.78168 1586
20.80179 1820
20.82191 1956
20.84202 1863
20.86214 1709
20.88225 1360
20.90236 1139
20.92248 969
20.94259 644
20.9627 566
20.98282 550
21.00293 536
21.02305 441
21.04316 496
21.06327 542
21.08339 509
21.1035 451
21.12361 433
21.14373 477
21.16384 441
21.18395 438
21.20407 436
21.22418 434
21.2443 419
21.26441 450
21.28452 451
21.30464 423
21.32475 461
21.34486 447
21.36498 452
21.38509 465
21.40521 431
21.42532 460
21.44543 481
21.46555 459
21.48566 423
21.50577 480
21.52589 489
21.546 480
21.56612 466
21.58623 454
21.60634 445
21.62646 456
21.64657 428
21.66668 428
21.6868 418
21.70691 484
21.72702 433
21.74714 428
21.76725 455
21.78737 524
21.80748 496
21.82759 548
21.84771 626
21.86782 572
21.88793 715
21.90805 816
21.92816 981
21.94828 1116
21.96839 1256
21.9885 1257
22.00862 1371
22.02873 1274
22.04884 1239
22.06896 1061
22.08907 868
22.10919 790
22.1293 642
22.14941 586
22.16953 579
22.18964 521
22.20975 558
22.22987 467
22.24998 480
22.27009 496
22.29021 556
22.31032 501
22.33044 446
22.35055 449
22.37066 476
22.39078 490
22.41089 412
22.431 406
22.45112 436
22.47123 427
22.49135 416
22.51146 435
22.53157 402
22.55169 378
22.5718 393
22.59191 412
22.61203 389
22.63214 461
22.65225 383
22.67237 434
22.69248 450
22.7126 427
22.73271 441
22.75282 452
22.77294 456
22.79305 481
22.81316 494
22.83328 462
22.85339 507
22.87351 557
22.89362 547
22.91373 516
22.93385 467
22.95396 521
22.97407 578
22.99419 520
23.0143 542
23.03442 514
23.05453 504
23.07464 466
23.09476 431
23.11487 474
23.13498 440
23.1551 407
23.17521 409
23.19532 439
23.21544 413
23.23555 421
23.25567 403
23.27578 403
23.29589 427
23.31601 424
23.33612 479
23.35623 474
23.37635 522
23.39646 548
23.41658 586
23.43669 645
23.4568 676
23.47692 721
23.49703 896
23.51714 847
23.53726 852
23.55737 838
23.57749 714
23.5976 649
23.61771 641
23.63783 602
23.65794 526
23.67805 492
23.69817 529
23.71828 506
23.73839 546
23.75851 496
23.77862 519
23.79874 494
23.81885 549
23.83896 535
23.85908 482
23.87919 438
23.8993 454
23.91942 477
23.93953 512
23.95965 522
23.97976 526
23.99987 545
24.01999 579
24.0401 577
24.06021 659
24.08033 695
24.10044 746
24.12056 829
24.14067 953
24.16078 987
24.1809 993
24.20101 988
24.22112 1017
24.24124 1020
24.26135 944
24.28146 882
24.30158 775
24.32169 690
24.34181 648
24.36192 597
24.38203 553
24.40215 529
24.42226 503
24.44237 480
24.46249 492
24.4826 462
24.50272 444
24.52283 454
24.54294 454
24.56306 461
24.58317 424
24.60328 413
24.6234 441
24.64351 479
24.66362 434
24.68374 432
24.70385 451
24.72397 401
24.74408 448
24.76419 405
24.78431 479
24.80442 453
24.82453 443
24.84465 450
24.86476 420
24.88488 471
24.90499 429
24.9251 477
24.94522 466
24.96533 438
24.98544 436
25.00556 462
25.02567 465
25.04579 435
25.0659 461
25.08601 453
25.10613 492
25.12624 519
25.14635 486
25.16647 474
25.18658 526
25.20669 538
25.22681 514
25.24692 570
25.26704 548
25.28715 580
25.30726 566
25.32738 622
25.34749 679
25.3676 671
25.38772 650
25.40783 743
25.42795 811
25.44806 731
25.46817 747
25.48829 720
25.5084 761
25.52851 698
25.54863 680
25.56874 607
25.58886 583
25.60897 538
25.62908 584
25.6492 548
25.66931 539
25.68942 503
25.70954 515
25.72965 519
25.74976 508
25.76988 543
25.78999 469
25.81011 508
25.83022 449
25.85033 495
25.87045 509
25.89056 545
25.91067 520
25.93079 506
25.9509 500
25.97102 538
25.99113 537
26.01124 544
26.03136 592
26.05147 571
26.07158 575
26.0917 632
26.11181 646
26.13193 672
26.15204 709
26.17215 708
26.19227 720
26.21238 788
26.23249 778
26.25261 834
26.27272 887
26.29283 848
26.31295 952
26.33306 1068
26.35318 1097
26.37329 1277
26.3934 1348
26.41352 1500
26.43363 1725
26.45374 2063
26.47386 2696
26.49397 3314
26.51409 4207
26.5342 5114
26.55431 6154
26.57443 7095
26.59454 7596
26.61465 7411
26.63477 6779
26.65488 5513
26.67499 4235
26.69511 3324
26.71522 2323
26.73534 1677
26.75545 1137
26.77556 1026
26.79568 948
26.81579 874
26.8359 797
26.85602 693
26.87613 658
26.89625 664
26.91636 614
26.93647 582
26.95659 597
26.9767 567
26.99681 573
27.01693 522
27.03704 559
27.05716 516
27.07727 540
27.09738 462
27.1175 532
27.13761 532
27.15772 512
27.17784 454
27.19795 493
27.21806 476
27.23818 546
27.25829 508
27.27841 485
27.29852 511
27.31863 538
27.33875 497
27.35886 558
27.37897 577
27.39909 579
27.4192 517
27.43932 584
27.45943 553
27.47954 581
27.49966 582
27.51977 585
27.53988 682
27.56 689
27.58011 802
27.60023 881
27.62034 998
27.64045 1148
27.66057 1242
27.68068 1359
27.70079 1410
27.72091 1498
27.74102 1510
27.76113 1447
27.78125 1620
27.80136 1621
27.82148 1789
27.84159 1867
27.8617 2055
27.88182 2220
27.90193 2132
27.92204 2086
27.94216 1851
27.96227 1577
27.98239 1427
28.0025 1246
28.02261 1132
28.04273 998
28.06284 931
28.08295 968
28.10307 990
28.12318 924
28.1433 910
28.16341 910
28.18352 892
28.20364 859
28.22375 885
28.24386 810
28.26398 788
28.28409 747
28.3042 737
28.32432 648
28.34443 600
28.36455 570
28.38466 563
28.40477 549
28.42489 501
28.445 501
28.46511 553
28.48523 473
28.50534 460
28.52546 433
28.54557 460
28.56568 453
28.5858 421
28.60591 437
28.62602 437
28.64614 429
28.66625 394
28.68636 440
28.70648 402
28.72659 409
28.74671 386
28.76682 401
28.78693 397
28.80705 379
28.82716 425
28.84727 375
28.86739 393
28.8875 361
28.90762 387
28.92773 383
28.94784 346
28.96796 402
28.98807 386
29.00818 414
29.0283 397
29.04841 395
29.06853 370
29.08864 390
29.10875 382
29.12887 392
29.14898 424
29.16909 383
29.18921 405
29.20932 395
29.22943 372
29.24955 420
29.26966 351
29.28978 347
29.30989 335
29.33 385
29.35012 378
29.37023 432
29.39034 363
29.41046 388
29.43057 429
29.45069 382
29.4708 406
29.49091 369
29.51103 387
29.53114 407
29.55125 407
29.57137 397
29.59148 398
29.6116 418
29.63171 420
29.65182 427
29.67194 413
29.69205 435
29.71216 486
29.73228 433
29.75239 501
29.7725 503
29.79262 470
29.81273 532
29.83285 556
29.85296 533
29.87307 497
29.89319 499
29.9133 536
29.93341 552
29.95353 532
29.97364 558
29.99376 590
30.01387 551
30.03398 626
30.0541 603
30.07421 609
30.09432 591
30.11444 564
30.13455 539
30.15467 608
30.17478 559
30.19489 564
30.21501 563
30.23512 551
30.25523 567
30.27535 540
30.29546 555
30.31557 613
30.33569 640
30.3558 608
30.37592 608
30.39603 697
30.41614 720
30.43626 744
30.45637 722
30.47648 787
30.4966 678
30.51671 722
30.53683 643
30.55694 588
30.57705 587
30.59717 590
30.61728 511
30.63739 571
30.65751 586
30.67762 585
30.69773 592
30.71785 623
30.73796 694
30.75808 701
30.77819 774
30.7983 809
30.81842 732
30.83853 717
30.85864 655
30.87876 606
30.89887 592
30.91899 527
30.9391 487
30.95921 490
30.97933 451
30.99944 441
31.01955 460
31.03967 413
31.05978 477
31.0799 447
31.10001 492
31.12012 459
31.14024 503
31.16035 510
31.18046 495
31.20058 557
31.22069 539
31.2408 573
31.26092 463
31.28103 481
31.30115 481
31.32126 449
31.34137 429
31.36149 424
31.3816 422
31.40171 450
31.42183 407
31.44194 421
31.46206 379
31.48217 424
31.50228 369
31.5224 362
31.54251 407
31.56262 384
31.58274 389
31.60285 403
31.62297 389
31.64308 380
31.66319 421
31.68331 419
31.70342 460
31.72353 477
31.74365 492
31.76376 514
31.78387 501
31.80399 467
31.8241 520
31.84422 490
31.86433 493
31.88444 439
31.90456 443
31.92467 481
31.94478 453
31.9649 436
31.98501 449
32.00513 434
32.02524 454
32.04535 425
32.06547 478
32.08558 434
32.10569 415
32.12581 410
32.14592 377
32.16604 383
32.18615 354
32.20626 356
32.22638 378
32.24649 367
32.2666 388
32.28672 354
32.30683 378
32.32694 377
32.34706 368
32.36717 355
32.38729 383
32.4074 369
32.42751 337
32.44763 347
32.46774 353
32.48785 341
32.50797 339
32.52808 354
32.5482 359
32.56831 364
32.58842 323
32.60854 340
32.62865 353
32.64876 328
32.66888 337
32.68899 355
32.7091 353
32.72922 367
32.74933 363
32.76945 356
32.78956 350
32.80967 363
32.82979 368
32.8499 394
32.87001 360
32.89013 414
32.91024 397
32.93036 366
32.95047 388
32.97058 372
32.9907 346
33.01081 364
33.03092 404
33.05104 383
33.07115 362
33.09127 383
33.11138 388
33.13149 392
33.15161 391
33.17172 392
33.19183 427
33.21195 455
33.23206 516
33.25217 453
33.27229 482
33.2924 466
33.31252 489
33.33263 464
33.35274 479
33.37286 497
33.39297 454
33.41308 460
33.4332 431
33.45331 426
33.47343 401
33.49354 428
33.51365 423
33.53377 406
33.55388 406
33.57399 404
33.59411 410
33.61422 471
33.63434 437
33.65445 481
33.67456 431
33.69468 448
33.71479 434
33.7349 475
33.75502 468
33.77513 498
33.79524 492
33.81536 538
33.83547 505
33.85559 522
33.8757 531
33.89581 496
33.91593 542
33.93604 508
33.95615 515
33.97627 476
33.99638 490
34.0165 543
34.03661 592
34.05672 510
34.07684 613
34.09695 577
34.11706 603
34.13718 635
34.15729 726
34.17741 757
34.19752 761
34.21763 773
34.23775 705
34.25786 720
34.27797 729
34.29809 687
34.3182 665
34.33831 737
34.35843 722
34.37854 716
34.39866 703
34.41877 663
34.43888 669
34.459 721
34.47911 691
34.49922 675
34.51934 611
34.53945 608
34.55957 574
34.57968 564
34.59979 536
34.61991 535
34.64002 465
34.66013 527
34.68025 478
34.70036 482
34.72047 520
34.74059 544
34.7607 495
34.78082 622
34.80093 603
34.82104 630
34.84116 655
34.86127 606
34.88138 686
34.9015 680
34.92161 658
34.94173 639
34.96184 626
34.98195 701
35.00207 634
35.02218 646
35.04229 598
35.06241 557
35.08252 514
35.10264 543
35.12275 555
35.14286 546
35.16298 491
35.18309 500
35.2032 494
35.22332 518
35.24343 467
35.26354 497
35.28366 507
35.30377 494
35.32389 523
35.344 503
35.36411 524
35.38423 475
35.40434 486
35.42445 503
35.44457 511
35.46468 485
35.4848 489
35.50491 473
35.52502 481
35.54514 444
35.56525 462
35.58536 459
35.60548 441
35.62559 475
35.64571 468
35.66582 447
35.68593 461
35.70605 482
35.72616 520
35.74627 486
35.76639 480
35.7865 452
35.80661 446
35.82673 449
35.84684 458
35.86696 466
35.88707 434
35.90718 434
35.9273 423
35.94741 420
35.96752 456
35.98764 438
36.00775 455
36.02787 367
36.04798 433
36.06809 367
36.08821 430
36.10832 400
36.12843 449
36.14855 420
36.16866 423
36.18878 415
36.20889 447
36.229 432
36.24912 460
36.26923 473
36.28934 485
36.30946 497
36.32957 540
36.34968 584
36.3698 582
36.38991 613
36.41003 670
36.43014 855
36.45025 835
36.47037 865
36.49048 895
36.51059 970
36.53071 927
36.55082 872
36.57094 769
36.59105 770
36.61116 685
36.63128 704
36.65139 636
36.6715 603
36.69162 584
36.71173 570
36.73184 569
36.75196 592
36.77207 584
36.79219 523
36.8123 549
36.83241 624
36.85253 575
36.87264 551
36.89275 620
36.91287 594
36.93298 634
36.9531 539
36.97321 583
36.99332 527
37.01344 557
37.03355 544
37.05366 564
37.07378 520
37.09389 517
37.11401 462
37.13412 513
37.15423 510
37.17435 499
37.19446 538
37.21457 522
37.23469 551
37.2548 543
37.27491 565
37.29503 596
37.31514 586
37.33526 623
37.35537 598
37.37548 607
37.3956 584
37.41571 629
37.43582 576
37.45594 576
37.47605 571
37.49617 528
37.51628 560
37.53639 507
37.55651 548
37.57662 485
37.59673 524
37.61685 559
37.63696 493
37.65708 492
37.67719 498
37.6973 487
37.71742 436
37.73753 462
37.75764 408
37.77776 432
37.79787 445
37.81798 422
37.8381 407
37.85821 388
37.87833 404
37.89844 397
37.91855 396
37.93867 369
37.95878 391
37.97889 376
37.99901 382
38.01912 388
38.03924 373
38.05935 344
38.07946 380
38.09958 379
38.11969 375
38.1398 366
38.15992 381
38.18003 368
38.20015 366
38.22026 392
38.24037 378
38.26049 382
38.2806 377
38.30071 392
38.32083 362
38.34094 398
38.36105 341
38.38117 343
38.40128 368
38.4214 374
38.44151 388
38.46162 400
38.48174 391
38.50185 352
38.52196 363
38.54208 405
38.56219 394
38.58231 410
38.60242 426
38.62253 390
38.64265 418
38.66276 381
38.68287 401
38.70299 388
38.7231 417
38.74321 441
38.76333 464
38.78344 442
38.80356 456
38.82367 400
38.84378 417
38.8639 405
38.88401 390
38.90412 414
38.92424 441
38.94435 379
38.96447 384
38.98458 416
39.00469 429
39.02481 425
39.04492 414
39.06503 414
39.08515 484
39.10526 454
39.12538 470
39.14549 468
39.1656 463
39.18572 492
39.20583 456
39.22594 502
39.24606 498
39.26617 570
39.28628 547
39.3064 616
39.32651 612
39.34663 648
39.36674 674
39.38685 784
39.40697 779
39.42708 784
39.44719 769
39.46731 745
39.48742 638
39.50754 597
39.52765 548
39.54776 538
39.56788 537
39.58799 495
39.6081 411
39.62822 429
39.64833 405
39.66845 391
39.68856 397
39.70867 413
39.72879 391
39.7489 367
39.76901 369
39.78913 427
39.80924 388
39.82935 383
39.84947 410
39.86958 417
39.8897 377
39.90981 372
39.92992 414
39.95004 461
39.97015 410
39.99026 396
40.01038 435
40.03049 413
40.05061 426
40.07072 414
40.09083 423
40.11095 482
40.13106 518
40.15117 486
40.17129 498
40.1914 554
40.21152 575
40.23163 573
40.25174 533
40.27186 524
40.29197 533
40.31208 557
40.3322 448
40.35231 475
40.37242 417
40.39254 440
40.41265 397
40.43277 406
40.45288 374
40.47299 388
40.49311 376
40.51322 385
40.53333 342
40.55345 371
40.57356 367
40.59368 367
40.61379 365
40.6339 396
40.65402 349
40.67413 378
40.69424 344
40.71436 370
40.73447 395
40.75458 357
40.7747 345
40.79481 341
40.81493 418
40.83504 381
40.85515 369
40.87527 396
40.89538 373
40.91549 348
40.93561 400
40.95572 360
40.97584 379
40.99595 380
41.01606 365
41.03618 402
41.05629 386
41.0764 409
41.09652 387
41.11663 424
41.13675 392
41.15686 442
41.17697 448
41.19709 439
41.2172 416
41.23731 427
41.25743 434
41.27754 421
41.29765 450
41.31777 442
41.33788 444
41.358 436
41.37811 411
41.39822 424
41.41834 435
41.43845 429
41.45856 443
41.47868 439
41.49879 468
41.51891 427
41.53902 462
41.55913 485
41.57925 478
41.59936 501
41.61947 465
41.63959 464
41.6597 497
41.67982 470
41.69993 496
41.72004 427
41.74016 464
41.76027 438
41.78038 457
41.8005 397
41.82061 429
41.84072 443
41.86084 411
41.88095 442
41.90107 408
41.92118 396
41.94129 397
41.96141 392
41.98152 360
42.00163 394
42.02175 380
42.04186 372
42.06198 368
42.08209 356
42.1022 409
42.12232 393
42.14243 391
42.16254 418
42.18266 433
42.20277 444
42.22289 471
42.243 533
42.26311 531
42.28323 527
42.30334 593
42.32345 637
42.34357 667
42.36368 697
42.38379 790
42.40391 652
42.42402 712
42.44414 706
42.46425 626
42.48436 585
42.50448 560
42.52459 568
42.5447 535
42.56482 514
42.58493 430
42.60505 485
42.62516 462
42.64527 422
42.66539 436
42.6855 460
42.70561 437
42.72573 428
42.74584 437
42.76595 462
42.78607 432
42.80618 390
42.8263 425
42.84641 430
42.86652 397
42.88664 406
42.90675 414
42.92686 378
42.94698 381
42.96709 369
42.98721 367
43.00732 351
43.02743 317
43.04755 396
43.06766 349
43.08777 343
43.10789 324
43.128 345
43.14812 349
43.16823 360
43.18834 301
43.20846 356
43.22857 364
43.24868 385
43.2688 379
43.28891 301
43.30902 362
43.32914 360
43.34925 330
43.36937 323
43.38948 340
43.40959 380
43.42971 387
43.44982 353
43.46993 352
43.49005 386
43.51016 339
43.53028 361
43.55039 389
43.5705 335
43.59062 372
43.61073 386
43.63084 402
43.65096 377
43.67107 390
43.69119 356
43.7113 355
43.73141 346
43.75153 367
43.77164 341
43.79175 358
43.81187 332
43.83198 348
43.85209 351
43.87221 346
43.89232 334
43.91244 345
43.93255 292
43.95266 341
43.97278 322
43.99289 317
44.013 330
44.03312 330
44.05323 323
44.07335 294
44.09346 305
44.11357 350
44.13369 405
44.1538 353
44.17391 355
44.19403 343
44.21414 336
44.23426 369
44.25437 307
44.27448 344
44.2946 367
44.31471 328
44.33482 329
44.35494 307
44.37505 327
44.39516 316
44.41528 331
44.43539 369
44.45551 331
44.47562 328
44.49573 356
44.51585 320
44.53596 339
44.55607 354
44.57619 370
44.5963 366
44.61642 369
44.63653 346
44.65664 349
44.67676 351
44.69687 364
44.71698 326
44.7371 375
44.75721 331
44.77732 371
44.79744 363
44.81755 366
44.83767 366
44.85778 345
44.87789 369
44.89801 367
44.91812 367
44.93823 397
44.95835 386
44.97846 363
44.99858 383
45.01869 388
45.0388 373
45.05892 366
45.07903 393
45.09914 444
45.11926 389
45.13937 410
45.15949 417
45.1796 418
45.19971 421
45.21983 411
45.23994 401
45.26005 397
45.28017 382
45.30028 423
45.32039 435
45.34051 405
45.36062 432
45.38074 458
45.40085 435
45.42096 429
45.44108 419
45.46119 423
45.4813 445
45.50142 447
45.52153 439
45.54165 436
45.56176 452
45.58187 412
45.60199 453
45.6221 455
45.64221 480
45.66233 512
45.68244 546
45.70256 520
45.72267 560
45.74278 538
45.7629 522
45.78301 546
45.80312 498
45.82324 468
45.84335 459
45.86346 451
45.88358 461
45.90369 437
45.92381 418
45.94392 386
45.96403 389
45.98415 339
46.00426 330
46.02437 369
46.04449 317
46.0646 367
46.08472 352
46.10483 358
46.12494 321
46.14506 354
46.16517 351
46.18528 307
46.2054 360
46.22551 339
46.24563 344
46.26574 295
46.28585 327
46.30597 309
46.32608 326
46.34619 347
46.36631 331
46.38642 312
46.40653 295
46.42665 313
46.44676 292
46.46688 317
46.48699 330
46.5071 345
46.52722 333
46.54733 297
46.56744 316
46.58756 311
46.60767 322
46.62779 291
46.6479 337
46.66801 335
46.68813 290
46.70824 303
46.72835 302
46.74847 316
46.76858 354
46.78869 351
46.80881 309
46.82892 345
46.84904 327
46.86915 313
46.88926 327
46.90938 315
46.92949 317
46.9496 332
46.96972 327
46.98983 337
47.00995 319
47.03006 332
47.05017 329
47.07029 317
47.0904 364
47.11051 322
47.13063 297
47.15074 300
47.17086 365
47.19097 313
47.21108 312
47.2312 334
47.25131 300
47.27142 349
47.29154 316
47.31165 303
47.33176 322
47.35188 322
47.37199 300
47.39211 324
47.41222 295
47.43233 331
47.45245 309
47.47256 351
47.49267 322
47.51279 301
47.5329 331
47.55302 349
47.57313 316
47.59324 297
47.61336 327
47.63347 327
47.65358 297
47.6737 343
47.69381 311
47.71393 321
47.73404 351
47.75415 355
47.77427 351
47.79438 362
47.81449 371
47.83461 372
47.85472 365
47.87483 369
47.89495 402
47.91506 438
47.93518 351
47.95529 376
47.9754 358
47.99552 351
48.01563 370
48.03574 367
48.05586 386
48.07597 394
48.09609 412
48.1162 374
48.13631 366
48.15643 395
48.17654 380
48.19665 405
48.21677 374
48.23688 371
48.257 427
48.27711 371
48.29722 345
48.31734 370
48.33745 371
48.35756 353
48.37768 362
48.39779 370
48.4179 341
48.43802 362
48.45813 338
48.47825 402
48.49836 364
48.51847 407
48.53859 395
48.5587 350
48.57881 395
48.59893 371
48.61904 374
48.63916 375
48.65927 384
48.67938 322
48.6995 346
48.71961 362
48.73972 344
48.75984 373
48.77995 341
48.80006 354
48.82018 369
48.84029 334
48.86041 321
48.88052 336
48.90063 326
48.92075 360
48.94086 321
48.96097 340
48.98109 321
49.0012 363
49.02132 344
49.04143 346
49.06154 371
49.08166 335
49.10177 379
49.12188 385
49.142 397
49.16211 373
49.18223 359
49.20234 380
49.22245 362
49.24257 385
49.26268 384
49.28279 376
49.30291 360
49.32302 361
49.34313 348
49.36325 345
49.38336 332
49.40348 316
49.42359 370
49.4437 358
49.46382 352
49.48393 369
49.50404 334
49.52416 348
49.54427 346
49.56439 373
49.5845 368
49.60461 408
49.62473 351
49.64484 401
49.66495 417
49.68507 407
49.70518 396
49.7253 450
49.74541 436
49.76552 432
49.78564 438
49.80575 442
49.82586 469
49.84598 497
49.86609 554
49.8862 567
49.90632 623
49.92643 631
49.94655 655
49.96666 733
49.98677 802
50.00689 839
50.027 887
50.04711 951
50.06723 974
50.08734 1022
50.10746 937
50.12757 878
50.14768 806
50.1678 725
50.18791 681
50.20802 659
50.22814 597
50.24825 538
50.26837 531
50.28848 482
50.30859 390
50.32871 377
50.34882 387
50.36893 346
50.38905 378
50.40916 333
50.42927 339
50.44939 343
50.4695 358
50.48962 378
50.50973 390
50.52984 345
50.54996 382
50.57007 377
50.59018 384
50.6103 378
50.63041 369
50.65053 335
50.67064 339
50.69075 350
50.71087 336
50.73098 342
50.75109 308
50.77121 332
50.79132 358
50.81143 320
50.83155 313
50.85166 325
50.87178 301
50.89189 323
50.912 360
50.93212 381
50.95223 326
50.97234 380
50.99246 359
51.01257 380
51.03269 372
51.0528 405
51.07291 406
51.09303 434
51.11314 424
51.13325 404
51.15337 431
51.17348 396
51.1936 405
51.21371 385
51.23382 393
51.25394 346
51.27405 373
51.29416 367
51.31428 331
51.33439 352
51.3545 340
51.37462 330
51.39473 343
51.41485 325
51.43496 308
51.45507 340
51.47519 305
51.4953 294
51.51541 330
51.53553 287
51.55564 297
51.57576 307
51.59587 353
51.61598 336
51.6361 323
51.65621 330
51.67632 312
51.69644 319
51.71655 317
51.73667 276
51.75678 299
51.77689 273
51.79701 277
51.81712 301
51.83723 317
51.85735 299
51.87746 290
51.89757 305
51.91769 295
51.9378 314
51.95792 314
51.97803 285
51.99814 355
52.01826 315
52.03837 310
52.05848 314
52.0786 324
52.09871 336
52.11883 320
52.13894 329
52.15905 349
52.17917 361
52.19928 310
52.21939 319
52.23951 313
52.25962 356
52.27974 315
52.29985 358
52.31996 350
52.34008 333
52.36019 305
52.3803 318
52.40042 324
52.42053 329
52.44064 322
52.46076 361
52.48087 354
52.50099 368
52.5211 324
52.54121 332
52.56133 384
52.58144 359
52.60155 321
52.62167 303
52.64178 326
52.6619 325
52.68201 360
52.70212 316
52.72224 338
52.74235 313
52.76246 344
52.78258 331
52.80269 337
52.8228 332
52.84292 352
52.86303 347
52.88315 345
52.90326 351
52.92337 363
52.94349 356
52.9636 320
52.98371 326
53.00383 350
53.02394 361
53.04406 362
53.06417 350
53.08428 390
53.1044 358
53.12451 376
53.14462 385
53.16474 364
53.18485 361
53.20497 356
53.22508 382
53.24519 373
53.26531 383
53.28542 327
53.30553 391
53.32565 373
53.34576 369
53.36587 344
53.38599 339
53.4061 373
53.42622 340
53.44633 344
53.46644 339
53.48656 335
53.50667 310
53.52678 344
53.5469 332
53.56701 375
53.58713 293
53.60724 339
53.62735 370
53.64747 364
53.66758 350
53.68769 320
53.70781 347
53.72792 353
53.74804 349
53.76815 343
53.78826 342
53.80838 358
53.82849 360
53.8486 365
53.86872 376
53.88883 317
53.90894 363
53.92906 392
53.94917 357
53.96929 361
53.9894 385
54.00951 336
54.02963 335
54.04974 342
54.06985 326
54.08997 344
54.11008 370
54.1302 365
54.15031 345
54.17042 400
54.19054 362
54.21065 346
54.23076 341
54.25088 392
54.27099 366
54.29111 367
54.31122 381
54.33133 368
54.35145 393
54.37156 409
54.39167 369
54.41179 381
54.4319 401
54.45201 401
54.47213 401
54.49224 391
54.51236 438
54.53247 359
54.55258 408
54.5727 409
54.59281 422
54.61292 456
54.63304 426
54.65315 471
54.67327 458
54.69338 528
54.71349 510
54.73361 554
54.75372 518
54.77383 591
54.79395 561
54.81406 550
54.83417 571
54.85429 557
54.8744 573
54.89452 517
54.91463 521
54.93474 508
54.95486 474
54.97497 488
54.99508 448
55.0152 467
55.03531 470
55.05543 463
55.07554 447
55.09565 408
55.11577 438
55.13588 438
55.15599 436
55.17611 436
55.19622 427
55.21634 449
55.23645 446
55.25656 444
55.27668 431
55.29679 438
55.3169 421
55.33702 368
55.35713 384
55.37724 383
55.39736 392
55.41747 392
55.43759 373
55.4577 373
55.47781 381
55.49793 356
55.51804 389
55.53815 336
55.55827 349
55.57838 366
55.5985 390
55.61861 396
55.63872 352
55.65884 360
55.67895 349
55.69906 391
55.71918 393
55.73929 380
55.75941 377
55.77952 388
55.79963 391
55.81975 434
55.83986 359
55.85997 415
55.88009 402
55.9002 371
55.92031 375
55.94043 356
55.96054 390
55.98066 401
56.00077 408
56.02088 411
56.041 428
56.06111 416
56.08122 464
56.10134 412
56.12145 400
56.14157 399
56.16168 384
56.18179 393
56.20191 364
56.22202 419
56.24213 375
56.26225 371
56.28236 399
56.30248 340
56.32259 367
56.3427 331
56.36282 347
56.38293 354
56.40304 338
56.42316 339
56.44327 377
56.46338 358
56.4835 362
56.50361 374
56.52373 363
56.54384 406
56.56395 378
56.58407 354
56.60418 383
56.62429 361
56.64441 350
56.66452 333
56.68464 364
56.70475 346
56.72486 368
56.74498 337
56.76509 350
56.7852 344
56.80532 358
56.82543 311
56.84554 330
56.86566 320
56.88577 334
56.90589 314
56.926 327
56.94611 292
56.96623 299
56.98634 341
57.00645 307
57.02657 339
57.04668 313
57.0668 317
57.08691 351
57.10702 305
57.12714 329
57.14725 296
57.16736 314
57.18748 300
57.20759 320
57.22771 309
57.24782 284
57.26793 334
57.28805 311
57.30816 328
57.32827 312
57.34839 286
57.3685 320
57.38861 319
57.40873 306
57.42884 322
57.44896 314
57.46907 289
57.48918 329
57.5093 302
57.52941 331
57.54952 305
57.56964 289
57.58975 300
57.60987 336
57.62998 328
57.65009 316
57.67021 297
57.69032 325
57.71043 378
57.73055 337
57.75066 325
57.77078 322
57.79089 312
57.811 369
57.83112 343
57.85123 324
57.87134 335
57.89146 332
57.91157 338
57.93168 339
57.9518 368
57.97191 356
57.99203 312
58.01214 351
58.03225 321
58.05237 323
58.07248 371
58.09259 336
58.11271 354
58.13282 324
58.15294 334
58.17305 334
58.19316 313
58.21328 321
58.23339 346
58.2535 314
58.27362 337
58.29373 349
58.31385 345
58.33396 375
58.35407 318
58.37419 352
58.3943 355
58.41441 348
58.43453 349
58.45464 329
58.47475 350
58.49487 330
58.51498 367
58.5351 348
58.55521 352
58.57532 342
58.59544 359
58.61555 371
58.63566 359
58.65578 331
58.67589 334
58.69601 314
58.71612 345
58.73623 353
58.75635 292
58.77646 319
58.79657 327
58.81669 324
58.8368 313
58.85691 304
58.87703 312
58.89714 283
58.91726 296
58.93737 309
58.95748 324
58.9776 319
58.99771 330
59.01782 304
59.03794 324
59.05805 319
59.07817 330
59.09828 324
59.11839 308
59.13851 329
59.15862 327
59.17873 325
59.19885 328
59.21896 295
59.23908 338
59.25919 316
59.2793 321
59.29942 334
59.31953 344
59.33964 343
59.35976 292
59.37987 317
59.39998 347
59.4201 301
59.44021 383
59.46033 308
59.48044 339
59.50055 337
59.52067 338
59.54078 360
59.56089 315
59.58101 364
59.60112 361
59.62124 380
59.64135 344
59.66146 375
59.68158 406
59.70169 405
59.7218 448
59.74192 477
59.76203 485
59.78215 596
59.80226 601
59.82237 663
59.84249 654
59.8626 701
59.88271 757
59.90283 714
59.92294 688
59.94305 709
59.96317 665
59.98328 617
60.0034 542
60.02351 611
60.04362 592
60.06374 587
60.08385 549
60.10396 508
60.12408 538
60.14419 500
60.16431 488
60.18442 522
60.20453 517
60.22465 462
60.24476 488
60.26487 489
60.28499 453
60.3051 501
60.32522 491
60.34533 475
60.36544 450
60.38556 479
60.40567 476
60.42578 439
60.4459 465
60.46601 430
60.48612 399
60.50624 428
60.52635 384
60.54647 376
60.56658 404
60.58669 373
60.60681 365
60.62692 362
60.64703 396
60.66715 376
60.68726 357
60.70738 335
60.72749 323
60.7476 368
60.76772 352
60.78783 319
60.80794 319
60.82806 349
60.84817 366
60.86828 320
60.8884 353
60.90851 360
60.92863 341
60.94874 348
60.96885 344
60.98897 336
61.00908 349
61.02919 325
61.04931 366
61.06942 348
61.08954 322
61.10965 298
61.12976 333
61.14988 339
61.16999 340
61.1901 348
61.21022 354
61.23033 356
61.25045 343
61.27056 339
61.29067 362
61.31079 339
61.3309 375
61.35101 376
61.37113 375
61.39124 344
61.41135 359
61.43147 368
61.45158 379
61.4717 390
61.49181 412
61.51192 352
61.53204 402
61.55215 383
61.57226 428
61.59238 375
61.61249 383
61.63261 346
61.65272 354
61.67283 365
61.69295 390
61.71306 352
61.73317 379
61.75329 366
61.7734 344
61.79352 381
61.81363 359
61.83374 328
61.85386 351
61.87397 353
61.89408 358
61.9142 362
61.93431 331
61.95442 323
61.97454 316
61.99465 334
62.01477 346
62.03488 333
62.05499 335
62.07511 364
62.09522 361
62.11533 335
62.13545 312
62.15556 350
62.17568 344
62.19579 308
62.2159 349
62.23602 373
62.25613 338
62.27624 320
62.29636 309
62.31647 326
62.33659 318
62.3567 303
62.37681 332
62.39693 324
62.41704 318
62.43715 317
62.45727 347
62.47738 309
62.49749 300
62.51761 322
62.53772 342
62.55784 328
62.57795 315
62.59806 327
62.61818 341
62.63829 302
62.6584 306
62.67852 320
62.69863 314
62.71875 306
62.73886 328
62.75897 298
62.77909 310
62.7992 294
62.81931 318
62.83943 311
62.85954 298
62.87965 281
62.89977 297
62.91988 300
62.94 294
62.96011 314
62.98022 298
63.00034 326
63.02045 293
63.04056 292
63.06068 301
63.08079 303
63.10091 323
63.12102 287
63.14113 324
63.16125 314
63.18136 299
63.20147 253
63.22159 311
63.2417 334
63.26182 307
63.28193 289
63.30204 324
63.32216 280
63.34227 341
63.36238 328
63.3825 343
63.40261 330
63.42272 307
63.44284 322
63.46295 373
63.48307 348
63.50318 340
63.52329 330
63.54341 354
63.56352 366
63.58363 364
63.60375 320
63.62386 380
63.64398 383
63.66409 362
63.6842 392
63.70432 367
63.72443 367
63.74454 402
63.76466 327
63.78477 382
63.80489 366
63.825 401
63.84511 364
63.86523 398
63.88534 378
63.90545 399
63.92557 429
63.94568 419
63.96579 389
63.98591 399
64.00602 379
64.02614 348
64.04625 336
64.06636 346
64.08648 366
64.10659 363
64.1267 358
64.14682 335
64.16693 354
64.18705 323
64.20716 325
64.22727 303
64.24739 301
64.2675 299
64.28761 299
64.30773 319
64.32784 303
64.34796 279
64.36807 315
64.38818 281
64.4083 280
64.42841 293
64.44852 302
64.46864 302
64.48875 261
64.50886 308
64.52898 291
64.54909 300
64.56921 321
64.58932 321
64.60943 313
64.62955 339
64.64966 323
64.66977 318
64.68989 302
64.71 292
64.73012 314
64.75023 325
64.77034 324
64.79046 324
64.81057 334
64.83068 316
64.8508 309
64.87091 308
64.89102 323
64.91114 319
64.93125 343
64.95137 298
64.97148 310
64.99159 349
65.01171 307
65.03182 322
65.05193 327
65.07205 336
65.09216 313
65.11228 314
65.13239 333
65.1525 298
65.17262 343
65.19273 314
65.21284 336
65.23296 314
65.25307 327
65.27319 307
65.2933 370
65.31341 307
65.33353 332
65.35364 305
65.37375 328
65.39387 301
65.41398 312
65.43409 297
65.45421 315
65.47432 305
65.49444 278
65.51455 330
65.53466 283
65.55478 291
65.57489 325
65.595 305
65.61512 286
65.63523 317
65.65535 330
65.67546 320
65.69557 277
65.71569 307
65.7358 302
65.75591 282
65.77603 293
65.79614 282
65.81626 285
65.83637 301
65.85648 283
65.8766 312
65.89671 289
65.91682 279
65.93694 297
65.95705 292
65.97716 304
65.99728 318
66.01739 301
66.03751 277
66.05762 292
66.07773 287
66.09785 293
66.11796 283
66.13807 298
66.15819 304
66.1783 288
66.19842 276
66.21853 282
66.23864 302
66.25876 271
66.27887 307
66.29898 320
66.3191 312
66.33921 283
66.35933 330
66.37944 297
66.39955 317
66.41967 323
66.43978 311
66.45989 331
66.48001 338
66.50012 292
66.52023 314
66.54035 300
66.56046 300
66.58058 289
66.60069 327
66.6208 318
66.64092 315
66.66103 301
66.68114 315
66.70126 313
66.72137 283
66.74149 299
66.7616 312
66.78171 300
66.80183 271
66.82194 303
66.84205 279
66.86217 300
66.88228 313
66.90239 321
66.92251 283
66.94262 329
66.96274 308
66.98285 315
67.00296 327
67.02308 317
67.04319 344
67.0633 337
67.08342 339
67.10353 369
67.12365 319
67.14376 342
67.16387 299
67.18399 319
67.2041 336
67.22421 336
67.24433 306
67.26444 360
67.28456 304
67.30467 356
67.32478 336
67.3449 360
67.36501 345
67.38512 329
67.40524 323
67.42535 340
67.44546 323
67.46558 348
67.48569 353
67.50581 356
67.52592 369
67.54603 393
67.56615 416
67.58626 433
67.60637 477
67.62649 507
67.6466 536
67.66672 495
67.68683 532
67.70694 517
67.72706 499
67.74717 446
67.76728 429
67.7874 469
67.80751 458
67.82763 439
67.84774 430
67.86785 433
67.88797 433
67.90808 445
67.92819 477
67.94831 505
67.96842 491
67.98853 482
68.00865 513
68.02876 576
68.04888 605
68.06899 596
68.0891 631
68.10922 603
68.12933 565
68.14944 563
68.16956 593
68.18967 561
68.20979 597
68.2299 566
68.25001 544
68.27013 593
68.29024 527
68.31035 520
68.33047 480
68.35058 454
68.3707 410
68.39081 415
68.41092 366
68.43104 384
68.45115 372
68.47126 361
68.49138 374
68.51149 345
68.5316 344
68.55172 320
68.57183 315
68.59195 340
68.61206 301
68.63217 343
68.65229 272
68.6724 272
68.69251 326
68.71263 298
68.73274 320
68.75286 319
68.77297 302
68.79308 307
68.8132 328
68.83331 325
68.85342 330
68.87354 300
68.89365 318
68.91376 326
68.93388 264
68.95399 304
68.97411 299
68.99422 326
69.01433 273
69.03445 276
69.05456 316
69.07467 313
69.09479 325
69.1149 296
69.13502 278
69.15513 325
69.17524 337
69.19536 353
69.21547 335
69.23558 308
69.2557 324
69.27581 338
69.29593 325
69.31604 310
69.33615 343
69.35627 318
69.37638 330
69.39649 362
69.41661 332
69.43672 330
69.45683 357
69.47695 350
69.49706 358
69.51718 354
69.53729 344
69.5574 322
69.57752 351
69.59763 363
69.61774 333
69.63786 328
69.65797 306
69.67809 297
69.6982 301
69.71831 282
69.73843 297
69.75854 310
69.77865 300
69.79877 328
69.81888 324
69.839 319
69.85911 311
69.87922 332
69.89934 317
69.91945 291
69.93956 281
69.95968 305
69.97979 280
69.9999 301
70.02002 270
70.04013 295
70.06025 299
70.08036 321
70.10047 296
70.12059 282
70.1407 279
70.16081 303
70.18093 294
70.20104 258
70.22116 273
70.24127 295
70.26138 293
70.2815 246
70.30161 268
70.32172 271
70.34184 272
70.36195 277
70.38207 282
70.40218 285
70.42229 276
70.44241 258
70.46252 262
70.48263 270
70.50275 304
70.52286 276
70.54297 296
70.56309 256
70.5832 290
70.60332 291
70.62343 286
70.64354 281
70.66366 251
70.68377 276
70.70388 275
70.724 297
70.74411 288
70.76423 282
70.78434 278
70.80445 272
70.82457 290
70.84468 296
70.86479 295
70.88491 266
70.90502 277
70.92513 288
70.94525 301
70.96536 301
70.98548 304
71.00559 278
71.0257 307
71.04582 302
71.06593 272
71.08604 322
71.10616 279
71.12627 335
71.14639 291
71.1665 313
71.18661 291
71.20673 306
71.22684 309
71.24695 316
71.26707 314
71.28718 319
71.3073 309
71.32741 289
71.34752 309
71.36764 285
71.38775 333
71.40786 285
71.42798 316
71.44809 303
71.4682 331
71.48832 308
71.50843 288
71.52855 274
71.54866 281
71.56877 308
71.58889 272
71.609 307
71.62911 302
71.64923 276
71.66934 273
71.68946 261
71.70957 265
71.72968 281
71.7498 283
71.76991 282
71.79002 267
71.81014 275
71.83025 272
71.85037 285
71.87048 279
71.89059 278
71.91071 284
71.93082 264
71.95093 271
71.97105 285
71.99116 293
72.01127 288
72.03139 293
72.0515 266
72.07162 300
72.09173 270
72.11184 256
72.13196 294
72.15207 293
72.17218 253
72.1923 268
72.21241 269
72.23253 279
72.25264 289
72.27275 275
72.29287 283
72.31298 284
72.33309 320
72.35321 274
72.37332 303
72.39344 283
72.41355 305
72.43366 278
72.45378 300
72.47389 285
72.494 284
72.51412 309
72.53423 299
72.55434 307
72.57446 304
72.59457 290
72.61469 319
72.6348 290
72.65491 292
72.67503 299
72.69514 282
72.71525 301
72.73537 325
72.75548 293
72.7756 316
72.79571 283
72.81582 316
72.83594 295
72.85605 270
72.87616 301
72.89628 265
72.91639 301
72.9365 266
72.95662 308
72.97673 314
72.99685 304
73.01696 305
73.03707 311
73.05719 295
73.0773 303
73.09741 318
73.11753 305
73.13764 273
73.15776 284
73.17787 298
73.19798 270
73.2181 280
73.23821 279
73.25832 294
73.27844 308
73.29855 317
73.31867 345
73.33878 307
73.35889 314
73.37901 343
73.39912 346
73.41923 331
73.43935 344
73.45946 323
73.47957 304
73.49969 333
73.5198 314
73.53992 307
73.56003 290
73.58014 320
73.60026 330
73.62037 300
73.64048 285
73.6606 308
73.68071 298
73.70083 287
73.72094 304
73.74105 287
73.76117 295
73.78128 254
73.80139 281
73.82151 303
73.84162 293
73.86174 286
73.88185 281
73.90196 274
73.92208 267
73.94219 301
73.9623 307
73.98242 275
74.00253 256
74.02264 287
74.04276 276
74.06287 279
74.08299 282
74.1031 291
74.12321 286
74.14333 278
74.16344 335
74.18355 320
74.20367 273
74.22378 289
74.2439 303
74.26401 264
74.28412 287
74.30424 285
74.32435 306
74.34446 271
74.36458 261
74.38469 276
74.40481 269
74.42492 295
74.44503 290
74.46515 313
74.48526 304
74.50537 307
74.52549 277
74.5456 275
74.56571 283
74.58583 298
74.60594 291
74.62606 292
74.64617 285
74.66628 318
74.6864 298
74.70651 302
74.72662 305
74.74674 287
74.76685 277
74.78697 289
74.80708 308
74.82719 306
74.84731 283
74.86742 303
74.88753 272
74.90765 268
74.92776 295
74.94787 278
74.96799 284
74.9881 287
75.00822 273
