3.00117 21394
3.02128 20962
3.0414 20572
3.06151 20125
3.08162 19558
3.10174 18522
3.12185 18409
3.14197 17710
3.16208 17520
3.18219 17012
3.20231 16545
3.22242 15985
3.24253 15301
3.26265 14823
3.28276 14567
3.30288 13625
3.32299 13778
3.3431 12924
3.36322 13088
3.38333 12481
3.40344 11704
3.42356 11714
3.44367 11087
3.46379 10709
3.4839 10379
3.50401 10322
3.52413 9894
3.54424 9391
3.56435 9244
3.58447 8783
3.60458 8554
3.62469 8521
3.64481 7955
3.66492 7692
3.68504 7457
3.70515 7055
3.72526 6950
3.74538 6577
3.76549 6297
3.7856 6083
3.80572 5741
3.82583 5642
3.84595 5293
3.86606 5329
3.88617 5223
3.90629 4784
3.9264 4812
3.94651 4419
3.96663 4239
3.98674 4167
4.00686 3863
4.02697 3851
4.04708 3562
4.0672 3542
4.08731 3482
4.10742 3260
4.12754 3274
4.14765 2988
4.16776 2948
4.18788 2912
4.20799 2667
4.22811 2735
4.24822 2489
4.26833 2479
4.28845 2481
4.30856 2416
4.32867 2333
4.34879 2237
4.3689 2246
4.38902 2172
4.40913 2141
4.42924 2112
4.44936 1900
4.46947 1975
4.48958 1957
4.5097 1945
4.52981 1960
4.54992 1828
4.57004 1776
4.59015 1663
4.61027 1821
4.63038 1667
4.65049 1573
4.67061 1624
4.69072 1624
4.71083 1609
4.73095 1614
4.75106 1611
4.77118 1545
4.79129 1492
4.8114 1531
4.83152 1476
4.85163 1388
4.87174 1293
4.89186 1475
4.91197 1408
4.93209 1295
4.9522 1347
4.97231 1310
4.99243 1323
5.01254 1333
5.03265 1231
5.05277 1248
5.07288 1201
5.09299 1221
5.11311 1173
5.13322 1178
5.15334 1153
5.17345 1090
5.19356 1123
5.21368 1144
5.23379 1107
5.2539 1026
5.27402 1076
5.29413 1049
5.31425 1038
5.33436 1067
5.35447 1050
5.37459 1003
5.3947 1030
5.41481 1006
5.43493 945
5.45504 986
5.47516 1002
5.49527 949
5.51538 969
5.5355 927
5.55561 925
5.57572 928
5.59584 892
5.61595 927
5.63606 877
5.65618 876
5.67629 913
5.69641 900
5.71652 840
5.73663 879
5.75675 891
5.77686 859
5.79697 901
5.81709 832
5.8372 792
5.85732 794
5.87743 768
5.89754 826
5.91766 851
5.93777 839
5.95788 830
5.978 815
5.99811 761
6.01823 820
6.03834 805
6.05845 816
6.07857 845
6.09868 860
6.11879 799
6.13891 779
6.15902 856
6.17913 812
6.19925 844
6.21936 797
6.23948 814
6.25959 812
6.2797 786
6.29982 807
6.31993 810
6.34004 792
6.36016 787
6.38027 792
6.40039 818
6.4205 693
6.44061 725
6.46073 750
6.48084 672
6.50095 841
6.52107 768
6.54118 772
6.56129 781
6.58141 760
6.60152 757
6.62164 770
6.64175 740
6.66186 795
6.68198 773
6.70209 683
6.7222 737
6.74232 736
6.76243 741
6.78255 778
6.80266 770
6.82277 747
6.84289 779
6.863 716
6.88311 703
6.90323 712
6.92334 756
6.94346 727
6.96357 761
6.98368 722
7.0038 721
7.02391 707
7.04402 700
7.06414 758
7.08425 733
7.10436 683
7.12448 718
7.14459 715
7.16471 750
7.18482 666
7.20493 785
7.22505 715
7.24516 710
7.26527 721
7.28539 745
7.3055 725
7.32562 651
7.34573 737
7.36584 716
7.38596 706
7.40607 751
7.42618 713
7.4463 751
7.46641 709
7.48653 687
7.50664 758
7.52675 757
7.54687 761
7.56698 721
7.58709 708
7.60721 739
7.62732 675
7.64743 724
7.66755 719
7.68766 739
7.70778 696
7.72789 681
7.748 719
7.76812 761
7.78823 748
7.80834 723
7.82846 702
7.84857 725
7.86869 688
7.8888 633
7.90891 687
7.92903 675
7.94914 699
7.96925 691
7.98937 695
8.00948 709
8.0296 720
8.04971 740
8.06982 696
8.08994 709
8.11005 741
8.13016 718
8.15028 718
8.17039 648
8.1905 724
8.21062 703
8.23073 679
8.25085 690
8.27096 703
8.29107 655
8.31119 690
8.3313 713
8.35141 708
8.37153 704
8.39164 672
8.41176 706
8.43187 702
8.45198 718
8.4721 678
8.49221 697
8.51232 749
8.53244 742
8.55255 684
8.57266 721
8.59278 708
8.61289 674
8.63301 734
8.65312 744
8.67323 688
8.69335 682
8.71346 731
8.73357 670
8.75369 640
8.7738 681
8.79392 701
8.81403 727
8.83414 692
8.85426 682
8.87437 742
8.89448 676
8.9146 649
8.93471 635
8.95483 676
8.97494 698
8.99505 717
9.01517 670
9.03528 661
9.05539 735
9.07551 679
9.09562 694
9.11573 703
9.13585 703
9.15596 649
9.17608 701
9.19619 675
9.2163 682
9.23642 685
9.25653 714
9.27664 694
9.29676 681
9.31687 701
9.33699 672
9.3571 654
9.37721 698
9.39733 675
9.41744 680
9.43755 695
9.45767 739
9.47778 715
9.4979 647
9.51801 665
9.53812 682
9.55824 663
9.57835 638
9.59846 658
9.61858 688
9.63869 685
9.6588 641
9.67892 637
9.69903 653
9.71915 653
9.73926 675
9.75937 652
9.77949 653
9.7996 698
9.81971 685
9.83983 679
9.85994 690
9.88006 677
9.90017 628
9.92028 676
9.9404 678
9.96051 615
9.98062 670
10.00074 649
10.02085 653
10.04097 668
10.06108 629
10.08119 689
10.10131 679
10.12142 729
10.14153 716
10.16165 600
10.18176 612
10.20187 709
10.22199 637
10.2421 668
10.26222 650
10.28233 693
10.30244 649
10.32256 627
10.34267 641
10.36278 615
10.3829 681
10.40301 680
10.42313 726
10.44324 637
10.46335 661
10.48347 649
10.50358 689
10.52369 680
10.54381 645
10.56392 657
10.58403 664
10.60415 673
10.62426 738
10.64438 685
10.66449 633
10.6846 712
10.70472 618
10.72483 723
10.74494 701
10.76506 669
10.78517 685
10.80529 645
10.8254 679
10.84551 681
10.86563 703
10.88574 692
10.90585 673
10.92597 667
10.94608 687
10.9662 668
10.98631 669
11.00642 674
11.02654 741
11.04665 655
11.06676 679
11.08688 688
11.10699 677
11.1271 709
11.14722 640
11.16733 723
11.18745 684
11.20756 651
11.22767 701
11.24779 690
11.2679 692
11.28801 751
11.30813 714
11.32824 714
11.34836 678
11.36847 720
11.38858 799
11.4087 742
11.42881 636
11.44892 727
11.46904 722
11.48915 729
11.50927 722
11.52938 797
11.54949 746
11.56961 737
11.58972 740
11.60983 719
11.62995 784
11.65006 721
11.67017 777
11.69029 806
11.7104 826
11.73052 834
11.75063 787
11.77074 803
11.79086 815
11.81097 825
11.83108 822
11.8512 852
11.87131 840
11.89143 849
11.91154 911
11.93165 835
11.95177 833
11.97188 897
11.99199 917
12.01211 917
12.03222 961
12.05234 959
12.07245 984
12.09256 934
12.11268 990
12.13279 949
12.1529 966
12.17302 1021
12.19313 1005
12.21324 947
12.23336 1002
12.25347 1031
12.27359 951
12.2937 949
12.31381 1020
12.33393 969
12.35404 931
12.37415 916
12.39427 913
12.41438 863
12.4345 839
12.45461 874
12.47472 858
12.49484 811
12.51495 761
12.53506 793
12.55518 787
12.57529 778
12.5954 822
12.61552 791
12.63563 745
12.65575 694
12.67586 769
12.69597 680
12.71609 730
12.7362 728
12.75631 636
12.77643 733
12.79654 704
12.81666 725
12.83677 680
12.85688 692
12.877 655
12.89711 705
12.91722 617
12.93734 660
12.95745 639
12.97757 668
12.99768 655
13.01779 659
13.03791 635
13.05802 631
13.07813 672
13.09825 655
13.11836 645
13.13847 638
13.15859 636
13.1787 643
13.19882 631
13.21893 636
13.23904 620
13.25916 643
13.27927 588
13.29938 593
13.3195 696
13.33961 603
13.35973 621
13.37984 636
13.39995 613
13.42007 579
13.44018 595
13.46029 633
13.48041 585
13.50052 677
13.52064 615
13.54075 636
13.56086 625
13.58098 602
13.60109 612
13.6212 674
13.64132 645
13.66143 657
13.68154 615
13.70166 572
13.72177 607
13.74189 649
13.762 652
13.78211 543
13.80223 605
13.82234 639
13.84245 613
13.86257 685
13.88268 611
13.9028 583
13.92291 611
13.94302 613
13.96314 619
13.98325 625
14.00336 643
14.02348 591
14.04359 599
14.06371 604
14.08382 611
14.10393 595
14.12405 615
14.14416 586
14.16427 621
14.18439 615
14.2045 565
14.22461 589
14.24473 607
14.26484 599
14.28496 580
14.30507 586
14.32518 642
14.3453 596
14.36541 564
14.38552 618
14.40564 584
14.42575 626
14.44587 619
14.46598 550
14.48609 563
14.50621 583
14.52632 598
14.54643 644
14.56655 614
14.58666 567
14.60677 644
14.62689 547
14.647 611
14.66712 596
14.68723 588
14.70734 620
14.72746 612
14.74757 597
14.76768 588
14.7878 588
14.80791 606
14.82803 613
14.84814 568
14.86825 549
14.88837 597
14.90848 612
14.92859 655
14.94871 594
14.96882 577
14.98894 619
15.00905 567
15.02916 613
15.04928 565
15.06939 609
15.0895 589
15.10962 628
15.12973 648
15.14984 578
15.16996 604
15.19007 608
15.21019 560
15.2303 584
15.25041 604
15.27053 604
15.29064 584
15.31075 601
15.33087 601
15.35098 590
15.3711 578
15.39121 544
15.41132 615
15.43144 574
15.45155 615
15.47166 605
15.49178 610
15.51189 575
15.53201 614
15.55212 590
15.57223 631
15.59235 594
15.61246 618
15.63257 596
15.65269 584
15.6728 613
15.69291 565
15.71303 571
15.73314 595
15.75326 584
15.77337 586
15.79348 573
15.8136 580
15.83371 610
15.85382 589
15.87394 601
15.89405 573
15.91417 572
15.93428 581
15.95439 619
15.97451 574
15.99462 565
16.01473 656
16.03485 602
16.05496 574
16.07508 572
16.09519 618
16.1153 556
16.13542 579
16.15553 598
16.17564 584
16.19576 623
16.21587 645
16.23598 580
16.2561 596
16.27621 581
16.29633 585
16.31644 587
16.33655 571
16.35667 583
16.37678 603
16.39689 619
16.41701 600
16.43712 590
16.45724 582
16.47735 586
16.49746 578
16.51758 583
16.53769 580
16.5578 585
16.57792 549
16.59803 569
16.61814 596
16.63826 543
16.65837 610
16.67849 600
16.6986 622
16.71871 600
16.73883 618
16.75894 596
16.77905 619
16.79917 607
16.81928 619
16.8394 629
16.85951 606
16.87962 571
16.89974 576
16.91985 573
16.93996 614
16.96008 569
16.98019 600
17.00031 591
17.02042 543
17.04053 548
17.06065 586
17.08076 583
17.10087 591
17.12099 563
17.1411 571
17.16121 609
17.18133 611
17.20144 598
17.22156 568
17.24167 619
17.26178 647
17.2819 598
17.30201 582
17.32212 576
17.34224 561
17.36235 579
17.38247 600
17.40258 605
17.42269 581
17.44281 554
17.46292 611
17.48303 602
17.50315 640
17.52326 594
17.54338 609
17.56349 590
17.5836 604
17.60372 581
17.62383 615
17.64394 606
17.66406 627
17.68417 613
17.70428 676
17.7244 582
17.74451 638
17.76463 602
17.78474 616
17.80485 651
17.82497 658
17.84508 615
17.86519 602
17.88531 626
17.90542 617
17.92554 598
17.94565 619
17.96576 616
17.98588 641
18.00599 652
18.0261 593
18.04622 597
18.06633 647
18.08645 559
18.10656 603
18.12667 611
18.14679 630
18.1669 647
18.18701 665
18.20713 653
18.22724 623
18.24735 607
18.26747 634
18.28758 575
18.3077 606
18.32781 595
18.34792 614
18.36804 625
18.38815 649
18.40826 588
18.42838 589
18.44849 638
18.46861 669
18.48872 638
18.50883 630
18.52895 643
18.54906 560
18.56917 611
18.58929 620
18.6094 577
18.62951 619
18.64963 611
18.66974 598
18.68986 631
18.70997 617
18.73008 610
18.7502 591
18.77031 655
18.79042 623
18.81054 625
18.83065 641
18.85077 568
18.87088 617
18.89099 615
18.91111 629
18.93122 568
18.95133 677
18.97145 615
18.99156 606
19.01168 622
19.03179 626
19.0519 664
19.07202 600
19.09213 630
19.11224 626
19.13236 637
19.15247 590
19.17258 609
19.1927 656
19.21281 622
19.23293 650
19.25304 643
19.27315 641
19.29327 707
19.31338 671
19.33349 701
19.35361 721
19.37372 675
19.39384 666
19.41395 669
19.43406 717
19.45418 706
19.47429 746
19.4944 779
19.51452 763
19.53463 795
19.55475 760
19.57486 849
19.59497 784
19.61509 851
19.6352 963
19.65531 945
19.67543 935
19.69554 1034
19.71565 1083
19.73577 1149
19.75588 1117
19.776 1145
19.79611 1197
19.81622 1240
19.83634 1231
19.85645 1234
19.87656 1280
19.89668 1297
19.91679 1211
19.93691 1153
19.95702 1209
19.97713 1293
19.99725 1212
20.01736 1143
20.03747 1179
20.05759 1160
20.0777 1145
20.09782 1125
20.11793 1169
20.13804 1130
20.15816 1057
20.17827 1106
20.19838 1132
20.2185 1070
20.23861 1092
20.25872 1091
20.27884 1110
20.29895 1029
20.31907 1089
20.33918 1100
20.35929 1091
20.37941 1091
20.39952 1131
20.41963 1055
20.43975 1085
20.45986 1046
20.47998 1052
20.50009 1034
20.5202 1028
20.54032 1094
20.56043 1111
20.58054 1084
20.60066 1041
20.62077 1020
20.64088 1036
20.661 1110
20.68111 1073
20.70123 1215
20.72134 1183
20.74145 1273
20.76157 1322
20.78168 1437
20.80179 1412
20.82191 1394
20.84202 1369
20.86214 1247
20.88225 1205
20.90236 1171
20.92248 1142
20.94259 1061
20.9627 978
20.98282 945
21.00293 1012
21.02305 977
21.04316 1006
21.06327 1022
21.08339 941
21.1035 998
21.12361 906
21.14373 966
21.16384 963
21.18395 939
21.20407 962
21.22418 984
21.2443 879
21.26441 959
21.28452 929
21.30464 962
21.32475 931
21.34486 933
21.36498 922
21.38509 927
21.40521 963
21.42532 871
21.44543 855
21.46555 873
21.48566 915
21.50577 917
21.52589 881
21.546 893
21.56612 880
21.58623 864
21.60634 886
21.62646 921
21.64657 908
21.66668 855
21.6868 907
21.70691 833
21.72702 939
21.74714 899
21.76725 905
21.78737 836
21.80748 875
21.82759 839
21.84771 875
21.86782 872
21.88793 868
21.90805 891
21.92816 817
21.94828 822
21.96839 864
21.9885 826
22.00862 773
22.02873 804
22.04884 859
22.06896 833
22.08907 796
22.10919 791
22.1293 835
22.14941 844
22.16953 807
22.18964 836
22.20975 806
22.22987 774
22.24998 740
22.27009 821
22.29021 822
22.31032 778
22.33044 786
22.35055 800
22.37066 816
22.39078 802
22.41089 794
22.431 802
22.45112 743
22.47123 763
22.49135 802
22.51146 803
22.53157 769
22.55169 768
22.5718 772
22.59191 745
22.61203 785
22.63214 763
22.65225 813
22.67237 758
22.69248 802
22.7126 822
22.73271 810
22.75282 713
22.77294 769
22.79305 773
22.81316 794
22.83328 798
22.85339 744
22.87351 794
22.89362 823
22.91373 825
22.93385 797
22.95396 822
22.97407 800
22.99419 778
23.0143 754
23.03442 811
23.05453 785
23.07464 782
23.09476 737
23.11487 763
23.13498 738
23.1551 774
23.17521 776
23.19532 755
23.21544 783
23.23555 774
23.25567 790
23.27578 764
23.29589 751
23.31601 780
23.33612 767
23.35623 749
23.37635 801
23.39646 819
23.41658 772
23.43669 853
23.4568 792
23.47692 798
23.49703 832
23.51714 814
23.53726 814
23.55737 813
23.57749 819
23.5976 844
23.61771 803
23.63783 868
23.65794 794
23.67805 778
23.69817 800
23.71828 856
23.73839 844
23.75851 822
23.77862 802
23.79874 838
23.81885 923
23.83896 827
23.85908 867
23.87919 805
23.8993 885
23.91942 906
23.93953 869
23.95965 865
23.97976 916
23.99987 882
24.01999 951
24.0401 911
24.06021 907
24.08033 957
24.10044 903
24.12056 918
24.14067 928
24.16078 897
24.1809 887
24.20101 919
24.22112 896
24.24124 922
24.26135 940
24.28146 946
24.30158 927
24.32169 882
24.34181 909
24.36192 943
24.38203 934
24.40215 879
24.42226 888
24.44237 901
24.46249 954
24.4826 895
24.50272 964
24.52283 979
24.54294 956
24.56306 909
24.58317 985
24.60328 972
24.6234 996
24.64351 967
24.66362 1008
24.68374 971
24.70385 1062
24.72397 972
24.74408 1063
24.76419 1037
24.78431 1085
24.80442 1004
24.82453 1106
24.84465 1066
24.86476 1033
24.88488 1028
24.90499 1047
24.9251 1054
24.94522 1010
24.96533 988
24.98544 1088
25.00556 984
25.02567 1041
25.04579 1027
25.0659 1078
25.08601 1112
25.10613 992
25.12624 1062
25.14635 1085
25.16647 1045
25.18658 1056
25.20669 1079
25.22681 1020
25.24692 999
25.26704 979
25.28715 1035
25.30726 947
25.32738 898
25.34749 891
25.3676 836
25.38772 879
25.40783 930
25.42795 926
25.44806 914
25.46817 862
25.48829 857
25.5084 899
25.52851 880
25.54863 849
25.56874 760
25.58886 838
25.60897 841
25.62908 798
25.6492 813
25.66931 837
25.68942 812
25.70954 769
25.72965 847
25.74976 767
25.76988 804
25.78999 817
25.81011 830
25.83022 804
25.85033 803
25.87045 809
25.89056 772
25.91067 806
25.93079 829
25.9509 802
25.97102 823
25.99113 823
26.01124 797
26.03136 796
26.05147 830
26.07158 815
26.0917 782
26.11181 792
26.13193 804
26.15204 832
26.17215 785
26.19227 836
26.21238 842
26.23249 829
26.25261 787
26.27272 850
26.29283 797
26.31295 905
26.33306 905
26.35318 909
26.37329 1044
26.3934 1033
26.41352 1087
26.43363 1218
26.45374 1449
26.47386 1627
26.49397 1929
26.51409 2245
26.5342 2532
26.55431 2670
26.57443 2739
26.59454 2662
26.61465 2431
26.63477 2118
26.65488 1799
26.67499 1469
26.69511 1311
26.71522 1105
26.73534 914
26.75545 954
26.77556 868
26.79568 837
26.81579 826
26.8359 805
26.85602 770
26.87613 783
26.89625 808
26.91636 790
26.93647 735
26.95659 796
26.9767 807
26.99681 739
27.01693 732
27.03704 769
27.05716 716
27.07727 736
27.09738 722
27.1175 746
27.13761 765
27.15772 748
27.17784 698
27.19795 734
27.21806 766
27.23818 734
27.25829 773
27.27841 724
27.29852 769
27.31863 762
27.33875 769
27.35886 761
27.37897 778
27.39909 780
27.4192 771
27.43932 746
27.45943 765
27.47954 782
27.49966 750
27.51977 743
27.53988 746
27.56 743
27.58011 706
27.60023 729
27.62034 723
27.64045 709
27.66057 720
27.68068 755
27.70079 742
27.72091 712
27.74102 731
27.76113 765
27.78125 719
27.80136 706
27.82148 744
27.84159 738
27.8617 730
27.88182 741
27.90193 725
27.92204 731
27.94216 674
27.96227 697
27.98239 661
28.0025 726
28.02261 673
28.04273 703
28.06284 736
28.08295 665
28.10307 716
28.12318 665
28.1433 721
28.16341 704
28.18352 683
28.20364 692
28.22375 665
28.24386 699
28.26398 727
28.28409 652
28.3042 703
28.32432 681
28.34443 732
28.36455 683
28.38466 649
28.40477 672
28.42489 688
28.445 668
28.46511 671
28.48523 703
28.50534 723
28.52546 659
28.54557 689
28.56568 696
28.5858 662
28.60591 675
28.62602 713
28.64614 705
28.66625 623
28.68636 660
28.70648 685
28.72659 652
28.74671 697
28.76682 674
28.78693 642
28.80705 684
28.82716 671
28.84727 637
28.86739 698
28.8875 680
28.90762 679
28.92773 678
28.94784 643
28.96796 680
28.98807 639
29.00818 681
29.0283 640
29.04841 675
29.06853 683
29.08864 641
29.10875 631
29.12887 682
29.14898 671
29.16909 657
29.18921 647
29.20932 666
29.22943 639
29.24955 671
29.26966 672
29.28978 632
29.30989 694
29.33 679
29.35012 668
29.37023 607
29.39034 682
29.41046 667
29.43057 720
29.45069 658
29.4708 713
29.49091 690
29.51103 604
29.53114 684
29.55125 706
29.57137 658
29.59148 698
29.6116 658
29.63171 663
29.65182 670
29.67194 663
29.69205 732
29.71216 715
29.73228 699
29.75239 678
29.7725 717
29.79262 683
29.81273 676
29.83285 665
29.85296 689
29.87307 701
29.89319 621
29.9133 711
29.93341 717
29.95353 712
29.97364 661
29.99376 735
30.01387 664
30.03398 685
30.0541 727
30.07421 709
30.09432 715
30.11444 665
30.13455 695
30.15467 694
30.17478 747
30.19489 726
30.21501 682
30.23512 701
30.25523 656
30.27535 667
30.29546 696
30.31557 720
30.33569 650
30.3558 655
30.37592 693
30.39603 720
30.41614 689
30.43626 667
30.45637 694
30.47648 680
30.4966 712
30.51671 693
30.53683 659
30.55694 690
30.57705 655
30.59717 674
30.61728 659
30.63739 679
30.65751 680
30.67762 658
30.69773 658
30.71785 652
30.73796 688
30.75808 659
30.77819 703
30.7983 662
30.81842 687
30.83853 675
30.85864 685
30.87876 660
30.89887 708
30.91899 641
30.9391 649
30.95921 704
30.97933 678
30.99944 680
31.01955 673
31.03967 675
31.05978 642
31.0799 634
31.10001 692
31.12012 673
31.14024 673
31.16035 653
31.18046 685
31.20058 668
31.22069 646
31.2408 653
31.26092 630
31.28103 645
31.30115 697
31.32126 645
31.34137 679
31.36149 683
31.3816 665
31.40171 705
31.42183 704
31.44194 705
31.46206 631
31.48217 707
31.50228 702
31.5224 638
31.54251 715
31.56262 739
31.58274 655
31.60285 648
31.62297 654
31.64308 649
31.66319 642
31.68331 606
31.70342 674
31.72353 660
31.74365 630
31.76376 679
31.78387 664
31.80399 665
31.8241 654
31.84422 671
31.86433 633
31.88444 697
31.90456 634
31.92467 630
31.94478 658
31.9649 649
31.98501 639
32.00513 704
32.02524 680
32.04535 711
32.06547 690
32.08558 697
32.10569 633
32.12581 676
32.14592 688
32.16604 701
32.18615 662
32.20626 721
32.22638 703
32.24649 712
32.2666 717
32.28672 725
32.30683 723
32.32694 758
32.34706 685
32.36717 660
32.38729 708
32.4074 774
32.42751 733
32.44763 712
32.46774 729
32.48785 764
32.50797 766
32.52808 787
32.5482 755
32.56831 779
32.58842 788
32.60854 775
32.62865 758
32.64876 756
32.66888 803
32.68899 822
32.7091 821
32.72922 802
32.74933 804
32.76945 832
32.78956 863
32.80967 833
32.82979 813
32.8499 831
32.87001 821
32.89013 839
32.91024 912
32.93036 883
32.95047 930
32.97058 981
32.9907 914
33.01081 989
33.03092 961
33.05104 1024
33.07115 925
33.09127 917
33.11138 1005
33.13149 985
33.15161 880
33.17172 978
33.19183 895
33.21195 936
33.23206 854
33.25217 917
33.27229 917
33.2924 879
33.31252 832
33.33263 837
33.35274 858
33.37286 814
33.39297 800
33.41308 794
33.4332 836
33.45331 801
33.47343 816
33.49354 749
33.51365 767
33.53377 736
33.55388 788
33.57399 759
33.59411 747
33.61422 760
33.63434 762
33.65445 692
33.67456 734
33.69468 702
33.71479 750
33.7349 707
33.75502 725
33.77513 717
33.79524 700
33.81536 661
33.83547 641
33.85559 688
33.8757 623
33.89581 728
33.91593 698
33.93604 660
33.95615 678
33.97627 678
33.99638 649
34.0165 714
34.03661 689
34.05672 663
34.07684 654
34.09695 701
34.11706 665
34.13718 690
34.15729 669
34.17741 652
34.19752 691
34.21763 655
34.23775 672
34.25786 714
34.27797 691
34.29809 678
34.3182 689
34.33831 682
34.35843 720
34.37854 723
34.39866 702
34.41877 703
34.43888 716
34.459 710
34.47911 743
34.49922 766
34.51934 778
34.53945 776
34.55957 748
34.57968 775
34.59979 812
34.61991 806
34.64002 818
34.66013 875
34.68025 845
34.70036 947
34.72047 884
34.74059 837
34.7607 885
34.78082 950
34.80093 975
34.82104 944
34.84116 948
34.86127 906
34.88138 943
34.9015 965
34.92161 964
34.94173 955
34.96184 938
34.98195 952
35.00207 956
35.02218 888
35.04229 956
35.06241 922
35.08252 982
35.10264 950
35.12275 915
35.14286 937
35.16298 961
35.18309 925
35.2032 966
35.22332 891
35.24343 968
35.26354 903
35.28366 1008
35.30377 1004
35.32389 1041
35.344 1020
35.36411 1003
35.38423 1031
35.40434 987
35.42445 1055
35.44457 1070
35.46468 1135
35.4848 1172
35.50491 1176
35.52502 1196
35.54514 1167
35.56525 1242
35.58536 1209
35.60548 1295
35.62559 1234
35.64571 1276
35.66582 1302
35.68593 1211
35.70605 1264
35.72616 1267
35.74627 1170
35.76639 1206
35.7865 1169
35.80661 1120
35.82673 1173
35.84684 1150
35.86696 1018
35.88707 1078
35.90718 1056
35.9273 1054
35.94741 1033
35.96752 1014
35.98764 988
36.00775 971
36.02787 971
36.04798 901
36.06809 915
36.08821 873
36.10832 886
36.12843 874
36.14855 817
36.16866 871
36.18878 812
36.20889 898
36.229 830
36.24912 883
36.26923 824
36.28934 855
36.30946 871
36.32957 886
36.34968 819
36.3698 826
36.38991 890
36.41003 930
36.43014 905
36.45025 933
36.47037 944
36.49048 950
36.51059 972
36.53071 924
36.55082 891
36.57094 858
36.59105 902
36.61116 848
36.63128 817
36.65139 815
36.6715 797
36.69162 791
36.71173 761
36.73184 808
36.75196 773
36.77207 780
36.79219 799
36.8123 764
36.83241 807
36.85253 786
36.87264 800
36.89275 817
36.91287 778
36.93298 806
36.9531 808
36.97321 768
36.99332 747
37.01344 747
37.03355 804
37.05366 777
37.07378 713
37.09389 784
37.11401 764
37.13412 785
37.15423 746
37.17435 735
37.19446 811
37.21457 785
37.23469 767
37.2548 766
37.27491 752
37.29503 815
37.31514 765
37.33526 791
37.35537 813
37.37548 802
37.3956 777
37.41571 802
37.43582 829
37.45594 825
37.47605 766
37.49617 747
37.51628 812
37.53639 809
37.55651 834
37.57662 802
37.59673 774
37.61685 880
37.63696 746
37.65708 845
37.67719 843
37.6973 827
37.71742 795
37.73753 832
37.75764 887
37.77776 816
37.79787 767
37.81798 800
37.8381 811
37.85821 858
37.87833 758
37.89844 818
37.91855 833
37.93867 806
37.95878 776
37.97889 749
37.99901 854
38.01912 831
38.03924 808
38.05935 816
38.07946 803
38.09958 839
38.11969 783
38.1398 797
38.15992 802
38.18003 812
38.20015 845
38.22026 792
38.24037 825
38.26049 912
38.2806 895
38.30071 819
38.32083 799
38.34094 816
38.36105 846
38.38117 807
38.40128 798
38.4214 832
38.44151 844
38.46162 832
38.48174 772
38.50185 747
38.52196 811
38.54208 822
38.56219 772
38.58231 838
38.60242 799
38.62253 805
38.64265 757
38.66276 791
38.68287 795
38.70299 780
38.7231 810
38.74321 768
38.76333 823
38.78344 743
38.80356 761
38.82367 783
38.84378 806
38.8639 751
38.88401 753
38.90412 781
38.92424 706
38.94435 777
38.96447 803
38.98458 765
39.00469 743
39.02481 754
39.04492 773
39.06503 793
39.08515 743
39.10526 723
39.12538 684
39.14549 734
39.1656 781
39.18572 767
39.20583 750
39.22594 837
39.24606 709
39.26617 795
39.28628 777
39.3064 793
39.32651 835
39.34663 838
39.36674 797
39.38685 820
39.40697 790
39.42708 835
39.44719 791
39.46731 832
39.48742 763
39.50754 739
39.52765 737
39.54776 766
39.56788 715
39.58799 724
39.6081 666
39.62822 656
39.64833 688
39.66845 667
39.68856 657
39.70867 657
39.72879 693
39.7489 700
39.76901 647
39.78913 631
39.80924 710
39.82935 695
39.84947 682
39.86958 693
39.8897 680
39.90981 676
39.92992 719
39.95004 703
39.97015 693
39.99026 686
40.01038 695
40.03049 723
40.05061 703
40.07072 716
40.09083 691
40.11095 700
40.13106 694
40.15117 734
40.17129 730
40.1914 722
40.21152 774
40.23163 799
40.25174 702
40.27186 748
40.29197 730
40.31208 738
40.3322 761
40.35231 751
40.37242 729
40.39254 751
40.41265 677
40.43277 704
40.45288 783
40.47299 721
40.49311 730
40.51322 795
40.53333 697
40.55345 660
40.57356 736
40.59368 725
40.61379 747
40.6339 714
40.65402 752
40.67413 739
40.69424 741
40.71436 745
40.73447 745
40.75458 744
40.7747 806
40.79481 761
40.81493 832
40.83504 798
40.85515 783
40.87527 796
40.89538 766
40.91549 799
40.93561 815
40.95572 788
40.97584 789
40.99595 701
41.01606 735
41.03618 766
41.05629 760
41.0764 769
41.09652 784
41.11663 709
41.13675 731
41.15686 682
41.17697 686
41.19709 723
41.2172 740
41.23731 705
41.25743 748
41.27754 678
41.29765 669
41.31777 690
41.33788 689
41.358 658
41.37811 696
41.39822 678
41.41834 615
41.43845 675
41.45856 684
41.47868 677
41.49879 626
41.51891 686
41.53902 701
41.55913 643
41.57925 688
41.59936 659
41.61947 612
41.63959 682
41.6597 664
41.67982 609
41.69993 669
41.72004 596
41.74016 692
41.76027 622
41.78038 653
41.8005 707
41.82061 636
41.84072 681
41.86084 636
41.88095 646
41.90107 662
41.92118 682
41.94129 638
41.96141 625
41.98152 627
42.00163 664
42.02175 662
42.04186 615
42.06198 662
42.08209 634
42.1022 646
42.12232 704
42.14243 671
42.16254 703
42.18266 658
42.20277 668
42.22289 675
42.243 637
42.26311 660
42.28323 675
42.30334 723
42.32345 747
42.34357 724
42.36368 696
42.38379 734
42.40391 777
42.42402 709
42.44414 699
42.46425 671
42.48436 674
42.50448 670
42.52459 623
42.5447 626
42.56482 646
42.58493 655
42.60505 607
42.62516 627
42.64527 605
42.66539 638
42.6855 645
42.70561 674
42.72573 600
42.74584 646
42.76595 637
42.78607 628
42.80618 627
42.8263 645
42.84641 616
42.86652 618
42.88664 684
42.90675 657
42.92686 637
42.94698 651
42.96709 642
42.98721 632
43.00732 647
43.02743 632
43.04755 595
43.06766 605
43.08777 635
43.10789 659
43.128 672
43.14812 632
43.16823 632
43.18834 616
43.20846 619
43.22857 639
43.24868 616
43.2688 653
43.28891 707
43.30902 628
43.32914 619
43.34925 682
43.36937 635
43.38948 686
43.40959 591
43.42971 630
43.44982 619
43.46993 645
43.49005 667
43.51016 684
43.53028 666
43.55039 639
43.5705 664
43.59062 587
43.61073 661
43.63084 656
43.65096 666
43.67107 619
43.69119 619
43.7113 666
43.73141 720
43.75153 649
43.77164 619
43.79175 659
43.81187 635
43.83198 629
43.85209 631
43.87221 605
43.89232 644
43.91244 675
43.93255 649
43.95266 638
43.97278 644
43.99289 651
44.013 623
44.03312 663
44.05323 620
44.07335 687
44.09346 600
44.11357 610
44.13369 624
44.1538 612
44.17391 606
44.19403 634
44.21414 656
44.23426 632
44.25437 608
44.27448 635
44.2946 638
44.31471 665
44.33482 656
44.35494 619
44.37505 649
44.39516 656
44.41528 637
44.43539 631
44.45551 652
44.47562 603
44.49573 632
44.51585 643
44.53596 622
44.55607 602
44.57619 622
44.5963 636
44.61642 646
44.63653 626
44.65664 634
44.67676 627
44.69687 618
44.71698 612
44.7371 619
44.75721 643
44.77732 634
44.79744 634
44.81755 644
44.83767 627
44.85778 585
44.87789 701
44.89801 628
44.91812 641
44.93823 676
44.95835 605
44.97846 630
44.99858 658
45.01869 640
45.0388 652
45.05892 619
45.07903 679
45.09914 646
45.11926 656
45.13937 656
45.15949 675
45.1796 628
45.19971 614
45.21983 617
45.23994 677
45.26005 616
45.28017 655
45.30028 609
45.32039 632
45.34051 666
45.36062 630
45.38074 642
45.40085 638
45.42096 677
45.44108 669
45.46119 695
45.4813 649
45.50142 681
45.52153 691
45.54165 686
45.56176 677
45.58187 639
45.60199 655
45.6221 730
45.64221 638
45.66233 729
45.68244 651
45.70256 712
45.72267 676
45.74278 655
45.7629 697
45.78301 698
45.80312 691
45.82324 691
45.84335 663
45.86346 716
45.88358 653
45.90369 622
45.92381 630
45.94392 662
45.96403 656
45.98415 640
46.00426 598
46.02437 632
46.04449 672
46.0646 633
46.08472 616
46.10483 622
46.12494 671
46.14506 617
46.16517 611
46.18528 578
46.2054 656
46.22551 649
46.24563 607
46.26574 634
46.28585 640
46.30597 633
46.32608 611
46.34619 598
46.36631 641
46.38642 678
46.40653 683
46.42665 675
46.44676 614
46.46688 671
46.48699 670
46.5071 663
46.52722 675
46.54733 679
46.56744 652
46.58756 656
46.60767 602
46.62779 673
46.6479 660
46.66801 653
46.68813 614
46.70824 623
46.72835 620
46.74847 684
46.76858 632
46.78869 675
46.80881 660
46.82892 657
46.84904 653
46.86915 659
46.88926 658
46.90938 618
46.92949 660
46.9496 626
46.96972 666
46.98983 594
47.00995 652
47.03006 678
47.05017 645
47.07029 665
47.0904 640
47.11051 569
47.13063 646
47.15074 668
47.17086 626
47.19097 589
47.21108 604
47.2312 610
47.25131 642
47.27142 628
47.29154 626
47.31165 612
47.33176 637
47.35188 650
47.37199 645
47.39211 633
47.41222 630
47.43233 654
47.45245 625
47.47256 654
47.49267 669
47.51279 647
47.5329 639
47.55302 655
47.57313 666
47.59324 625
47.61336 608
47.63347 619
47.65358 658
47.6737 633
47.69381 674
47.71393 628
47.73404 659
47.75415 642
47.77427 635
47.79438 651
47.81449 650
47.83461 641
47.85472 653
47.87483 641
47.89495 660
47.91506 656
47.93518 706
47.95529 664
47.9754 643
47.99552 622
48.01563 663
48.03574 651
48.05586 637
48.07597 639
48.09609 660
48.1162 602
48.13631 612
48.15643 657
48.17654 621
48.19665 669
48.21677 664
48.23688 610
48.257 632
48.27711 616
48.29722 602
48.31734 623
48.33745 643
48.35756 633
48.37768 652
48.39779 621
48.4179 629
48.43802 647
48.45813 601
48.47825 639
48.49836 619
48.51847 635
48.53859 648
48.5587 638
48.57881 663
48.59893 630
48.61904 669
48.63916 670
48.65927 643
48.67938 645
48.6995 649
48.71961 622
48.73972 658
48.75984 629
48.77995 617
48.80006 648
48.82018 656
48.84029 622
48.86041 663
48.88052 626
48.90063 701
48.92075 603
48.94086 655
48.96097 651
48.98109 632
49.0012 635
49.02132 658
49.04143 705
49.06154 684
49.08166 682
49.10177 642
49.12188 675
49.142 641
49.16211 732
49.18223 677
49.20234 696
49.22245 685
49.24257 692
49.26268 711
49.28279 691
49.30291 610
49.32302 696
49.34313 707
49.36325 748
49.38336 727
49.40348 728
49.42359 684
49.4437 724
49.46382 738
49.48393 740
49.50404 725
49.52416 736
49.54427 694
49.56439 763
49.5845 730
49.60461 727
49.62473 685
49.64484 688
49.66495 679
49.68507 675
49.70518 679
49.7253 703
49.74541 643
49.76552 689
49.78564 689
49.80575 665
49.82586 690
49.84598 699
49.86609 694
49.8862 670
49.90632 661
49.92643 750
49.94655 756
49.96666 776
49.98677 795
50.00689 794
50.027 792
50.04711 766
50.06723 795
50.08734 794
50.10746 787
50.12757 751
50.14768 736
50.1678 750
50.18791 747
50.20802 664
50.22814 660
50.24825 656
50.26837 654
50.28848 635
50.30859 646
50.32871 582
50.34882 629
50.36893 608
50.38905 638
50.40916 629
50.42927 608
50.44939 610
50.4695 642
50.48962 638
50.50973 674
50.52984 625
50.54996 599
50.57007 616
50.59018 626
50.6103 634
50.63041 636
50.65053 617
50.67064 600
50.69075 586
50.71087 579
50.73098 579
50.75109 648
50.77121 598
50.79132 617
50.81143 633
50.83155 619
50.85166 579
50.87178 629
50.89189 587
50.912 582
50.93212 595
50.95223 551
50.97234 620
50.99246 653
51.01257 589
51.03269 570
51.0528 570
51.07291 609
51.09303 627
51.11314 575
51.13325 604
51.15337 589
51.17348 556
51.1936 608
51.21371 556
51.23382 593
51.25394 601
51.27405 599
51.29416 617
51.31428 585
51.33439 616
51.3545 606
51.37462 569
51.39473 573
51.41485 572
51.43496 591
51.45507 576
51.47519 581
51.4953 614
51.51541 609
51.53553 591
51.55564 604
51.57576 587
51.59587 575
51.61598 554
51.6361 579
51.65621 544
51.67632 589
51.69644 591
51.71655 553
51.73667 571
51.75678 580
51.77689 568
51.79701 578
51.81712 611
51.83723 604
51.85735 571
51.87746 610
51.89757 559
51.91769 594
51.9378 576
51.95792 587
51.97803 599
51.99814 564
52.01826 615
52.03837 619
52.05848 600
52.0786 553
52.09871 599
52.11883 577
52.13894 616
52.15905 626
52.17917 557
52.19928 575
52.21939 591
52.23951 612
52.25962 613
52.27974 626
52.29985 626
52.31996 596
52.34008 589
52.36019 583
52.3803 618
52.40042 599
52.42053 653
52.44064 631
52.46076 579
52.48087 625
52.50099 612
52.5211 572
52.54121 629
52.56133 558
52.58144 625
52.60155 604
52.62167 619
52.64178 578
52.6619 649
52.68201 577
52.70212 617
52.72224 609
52.74235 616
52.76246 558
52.78258 631
52.80269 587
52.8228 595
52.84292 639
52.86303 623
52.88315 657
52.90326 632
52.92337 615
52.94349 597
52.9636 638
52.98371 635
53.00383 623
53.02394 628
53.04406 631
53.06417 649
53.08428 655
53.1044 673
53.12451 607
53.14462 624
53.16474 665
53.18485 636
53.20497 642
53.22508 631
53.24519 645
53.26531 646
53.28542 685
53.30553 678
53.32565 638
53.34576 665
53.36587 679
53.38599 688
53.4061 687
53.42622 643
53.44633 672
53.46644 653
53.48656 678
53.50667 689
53.52678 698
53.5469 678
53.56701 693
53.58713 672
53.60724 711
53.62735 725
53.64747 734
53.66758 713
53.68769 703
53.70781 758
53.72792 748
53.74804 823
53.76815 800
53.78826 783
53.80838 792
53.82849 835
53.8486 791
53.86872 793
53.88883 797
53.90894 864
53.92906 862
53.94917 868
53.96929 846
53.9894 830
54.00951 821
54.02963 836
54.04974 859
54.06985 865
54.08997 826
54.11008 876
54.1302 856
54.15031 855
54.17042 892
54.19054 801
54.21065 793
54.23076 850
54.25088 856
54.27099 816
54.29111 819
54.31122 858
54.33133 818
54.35145 809
54.37156 791
54.39167 807
54.41179 799
54.4319 774
54.45201 778
54.47213 797
54.49224 789
54.51236 743
54.53247 753
54.55258 734
54.5727 747
54.59281 758
54.61292 780
54.63304 761
54.65315 792
54.67327 758
54.69338 759
54.71349 753
54.73361 713
54.75372 740
54.77383 733
54.79395 748
54.81406 769
54.83417 720
54.85429 748
54.8744 744
54.89452 762
54.91463 731
54.93474 721
54.95486 727
54.97497 742
54.99508 736
55.0152 687
55.03531 713
55.05543 697
55.07554 721
55.09565 708
55.11577 723
55.13588 684
55.15599 695
55.17611 690
55.19622 725
55.21634 711
55.23645 742
55.25656 663
55.27668 717
55.29679 674
55.3169 723
55.33702 698
55.35713 713
55.37724 708
55.39736 709
55.41747 688
55.43759 662
55.4577 681
55.47781 750
55.49793 720
55.51804 690
55.53815 733
55.55827 670
55.57838 728
55.5985 704
55.61861 681
55.63872 671
55.65884 670
55.67895 690
55.69906 651
55.71918 661
55.73929 720
55.75941 702
55.77952 640
55.79963 681
55.81975 724
55.83986 658
55.85997 689
55.88009 671
55.9002 638
55.92031 627
55.94043 702
55.96054 636
55.98066 657
56.00077 701
56.02088 619
56.041 682
56.06111 672
56.08122 658
56.10134 639
56.12145 675
56.14157 655
56.16168 605
56.18179 655
56.20191 657
56.22202 666
56.24213 638
56.26225 636
56.28236 649
56.30248 653
56.32259 607
56.3427 657
56.36282 668
56.38293 643
56.40304 673
56.42316 655
56.44327 632
56.46338 648
56.4835 623
56.50361 649
56.52373 627
56.54384 651
56.56395 677
56.58407 708
56.60418 684
56.62429 658
56.64441 613
56.66452 640
56.68464 644
56.70475 678
56.72486 627
56.74498 660
56.76509 655
56.7852 622
56.80532 638
56.82543 645
56.84554 658
56.86566 635
56.88577 683
56.90589 633
56.926 659
56.94611 600
56.96623 615
56.98634 642
57.00645 657
57.02657 676
57.04668 686
57.0668 664
57.08691 622
57.10702 659
57.12714 639
57.14725 681
57.16736 632
57.18748 647
57.20759 659
57.22771 645
57.24782 691
57.26793 650
57.28805 701
57.30816 691
57.32827 638
57.34839 717
57.3685 644
57.38861 641
57.40873 650
57.42884 650
57.44896 663
57.46907 662
57.48918 653
57.5093 663
57.52941 630
57.54952 639
57.56964 664
57.58975 644
57.60987 617
57.62998 656
57.65009 640
57.67021 635
57.69032 630
57.71043 634
57.73055 634
57.75066 636
57.77078 597
57.79089 628
57.811 593
57.83112 650
57.85123 633
57.87134 581
57.89146 662
57.91157 598
57.93168 659
57.9518 654
57.97191 602
57.99203 656
58.01214 638
58.03225 600
58.05237 640
58.07248 645
58.09259 627
58.11271 625
58.13282 603
58.15294 565
58.17305 598
58.19316 574
58.21328 666
58.23339 616
58.2535 615
58.27362 615
58.29373 595
58.31385 599
58.33396 626
58.35407 596
58.37419 601
58.3943 631
58.41441 575
58.43453 599
58.45464 609
58.47475 590
58.49487 560
58.51498 610
58.5351 640
58.55521 606
58.57532 636
58.59544 620
58.61555 594
58.63566 581
58.65578 591
58.67589 589
58.69601 580
58.71612 587
58.73623 610
58.75635 625
58.77646 601
58.79657 599
58.81669 624
58.8368 607
58.85691 618
58.87703 607
58.89714 615
58.91726 599
58.93737 642
58.95748 613
58.9776 595
58.99771 586
59.01782 586
59.03794 576
59.05805 582
59.07817 588
59.09828 591
59.11839 577
59.13851 592
59.15862 618
59.17873 572
59.19885 630
59.21896 627
59.23908 631
59.25919 574
59.2793 567
59.29942 607
59.31953 616
59.33964 612
59.35976 617
59.37987 582
59.39998 574
59.4201 611
59.44021 601
59.46033 586
59.48044 593
59.50055 627
59.52067 597
59.54078 594
59.56089 597
59.58101 641
59.60112 603
59.62124 634
59.64135 587
59.66146 593
59.68158 633
59.70169 632
59.7218 687
59.74192 659
59.76203 682
59.78215 687
59.80226 701
59.82237 704
59.84249 729
59.8626 738
59.88271 736
59.90283 710
59.92294 703
59.94305 674
59.96317 675
59.98328 692
60.0034 660
60.02351 650
60.04362 663
60.06374 651
60.08385 637
60.10396 672
60.12408 637
60.14419 587
60.16431 608
60.18442 585
60.20453 567
60.22465 608
60.24476 594
60.26487 620
60.28499 600
60.3051 577
60.32522 592
60.34533 589
60.36544 632
60.38556 601
60.40567 620
60.42578 588
60.4459 604
60.46601 633
60.48612 632
60.50624 559
60.52635 606
60.54647 618
60.56658 604
60.58669 603
60.60681 596
60.62692 600
60.64703 561
60.66715 637
60.68726 572
60.70738 594
60.72749 592
60.7476 606
60.76772 607
60.78783 580
60.80794 600
60.82806 548
60.84817 579
60.86828 594
60.8884 610
60.90851 648
60.92863 608
60.94874 588
60.96885 585
60.98897 620
61.00908 606
61.02919 616
61.04931 590
61.06942 644
61.08954 602
61.10965 634
61.12976 581
61.14988 630
61.16999 595
61.1901 554
61.21022 608
61.23033 565
61.25045 626
61.27056 610
61.29067 605
61.31079 616
61.3309 630
61.35101 644
61.37113 604
61.39124 632
61.41135 684
61.43147 689
61.45158 628
61.4717 618
61.49181 673
61.51192 679
61.53204 622
61.55215 675
61.57226 648
61.59238 671
61.61249 687
61.63261 705
61.65272 654
61.67283 684
61.69295 683
61.71306 692
61.73317 722
61.75329 658
61.7734 651
61.79352 748
61.81363 713
61.83374 735
61.85386 710
61.87397 745
61.89408 753
61.9142 751
61.93431 760
61.95442 811
61.97454 753
61.99465 779
62.01477 841
62.03488 808
62.05499 844
62.07511 778
62.09522 800
62.11533 888
62.13545 833
62.15556 837
62.17568 855
62.19579 816
62.2159 845
62.23602 859
62.25613 803
62.27624 796
62.29636 863
62.31647 834
62.33659 802
62.3567 830
62.37681 796
62.39693 799
62.41704 867
62.43715 807
62.45727 786
62.47738 816
62.49749 807
62.51761 784
62.53772 782
62.55784 806
62.57795 752
62.59806 705
62.61818 705
62.63829 768
62.6584 768
62.67852 753
62.69863 737
62.71875 734
62.73886 732
62.75897 706
62.77909 680
62.7992 721
62.81931 705
62.83943 703
62.85954 647
62.87965 692
62.89977 687
62.91988 695
62.94 733
62.96011 699
62.98022 714
63.00034 712
63.02045 672
63.04056 650
63.06068 659
63.08079 676
63.10091 707
63.12102 683
63.14113 665
63.16125 691
63.18136 671
63.20147 634
63.22159 648
63.2417 692
63.26182 676
63.28193 708
63.30204 653
63.32216 647
63.34227 655
63.36238 711
63.3825 705
63.40261 665
63.42272 655
63.44284 621
63.46295 657
63.48307 690
63.50318 684
63.52329 671
63.54341 655
63.56352 625
63.58363 634
63.60375 664
63.62386 651
63.64398 678
63.66409 661
63.6842 662
63.70432 680
63.72443 654
63.74454 677
63.76466 708
63.78477 669
63.80489 737
63.825 691
63.84511 712
63.86523 652
63.88534 743
63.90545 701
63.92557 690
63.94568 696
63.96579 736
63.98591 730
64.00602 761
64.02614 692
64.04625 741
64.06636 680
64.08648 709
64.10659 760
64.1267 740
64.14682 727
64.16693 676
64.18705 675
64.20716 718
64.22727 683
64.24739 684
64.2675 693
64.28761 670
64.30773 662
64.32784 647
64.34796 692
64.36807 686
64.38818 620
64.4083 667
64.42841 648
64.44852 657
64.46864 658
64.48875 670
64.50886 629
64.52898 653
64.54909 591
64.56921 630
64.58932 620
64.60943 590
64.62955 599
64.64966 571
64.66977 625
64.68989 589
64.71 622
64.73012 577
64.75023 587
64.77034 649
64.79046 624
64.81057 587
64.83068 621
64.8508 603
64.87091 609
64.89102 611
64.91114 571
64.93125 562
64.95137 592
64.97148 609
64.99159 619
65.01171 603
65.03182 561
65.05193 577
65.07205 573
65.09216 591
65.11228 567
65.13239 595
65.1525 543
65.17262 584
65.19273 569
65.21284 574
65.23296 565
65.25307 585
65.27319 588
65.2933 582
65.31341 561
65.33353 594
65.35364 558
65.37375 552
65.39387 554
65.41398 614
65.43409 579
65.45421 579
65.47432 577
65.49444 557
65.51455 564
65.53466 573
65.55478 518
65.57489 551
65.595 568
65.61512 589
65.63523 574
65.65535 607
65.67546 613
65.69557 553
65.71569 575
65.7358 559
65.75591 592
65.77603 562
65.79614 576
65.81626 570
65.83637 544
65.85648 541
65.8766 566
65.89671 602
65.91682 595
65.93694 527
65.95705 547
65.97716 569
65.99728 615
66.01739 536
66.03751 589
66.05762 523
66.07773 560
66.09785 597
66.11796 565
66.13807 581
66.15819 585
66.1783 594
66.19842 566
66.21853 601
66.23864 590
66.25876 589
66.27887 568
66.29898 545
66.3191 547
66.33921 548
66.35933 582
66.37944 542
66.39955 551
66.41967 590
66.43978 537
66.45989 555
66.48001 608
66.50012 589
66.52023 571
66.54035 609
66.56046 608
66.58058 579
66.60069 558
66.6208 583
66.64092 583
66.66103 580
66.68114 584
66.70126 543
66.72137 547
66.74149 565
66.7616 548
66.78171 548
66.80183 544
66.82194 574
66.84205 578
66.86217 590
66.88228 582
66.90239 532
66.92251 568
66.94262 570
66.96274 562
66.98285 536
67.00296 591
67.02308 536
67.04319 586
67.0633 551
67.08342 515
67.10353 538
67.12365 553
67.14376 578
67.16387 593
67.18399 555
67.2041 563
67.22421 574
67.24433 583
67.26444 571
67.28456 539
67.30467 613
67.32478 589
67.3449 568
67.36501 588
67.38512 562
67.40524 571
67.42535 600
67.44546 615
67.46558 568
67.48569 576
67.50581 566
67.52592 609
67.54603 647
67.56615 645
67.58626 630
67.60637 588
67.62649 635
67.6466 668
67.66672 637
67.68683 609
67.70694 597
67.72706 606
67.74717 611
67.76728 626
67.7874 653
67.80751 632
67.82763 659
67.84774 652
67.86785 627
67.88797 643
67.90808 651
67.92819 640
67.94831 632
67.96842 665
67.98853 648
68.00865 673
68.02876 696
68.04888 637
68.06899 683
68.0891 680
68.10922 640
68.12933 659
68.14944 626
68.16956 663
68.18967 672
68.20979 637
68.2299 639
68.25001 677
68.27013 634
68.29024 668
68.31035 622
68.33047 602
68.35058 605
68.3707 623
68.39081 587
68.41092 598
68.43104 579
68.45115 576
68.47126 575
68.49138 583
68.51149 575
68.5316 578
68.55172 550
68.57183 592
68.59195 600
68.61206 555
68.63217 561
68.65229 564
68.6724 572
68.69251 601
68.71263 569
68.73274 553
68.75286 543
68.77297 581
68.79308 535
68.8132 589
68.83331 617
68.85342 610
68.87354 563
68.89365 606
68.91376 525
68.93388 579
68.95399 577
68.97411 560
68.99422 558
69.01433 540
69.03445 597
69.05456 546
69.07467 560
69.09479 590
69.1149 573
69.13502 555
69.15513 546
69.17524 563
69.19536 570
69.21547 588
69.23558 564
69.2557 568
69.27581 553
69.29593 551
69.31604 567
69.33615 535
69.35627 578
69.37638 570
69.39649 548
69.41661 593
69.43672 552
69.45683 574
69.47695 587
69.49706 587
69.51718 536
69.53729 563
69.5574 558
69.57752 540
69.59763 572
69.61774 508
69.63786 587
69.65797 579
69.67809 553
69.6982 558
69.71831 558
69.73843 546
69.75854 556
69.77865 535
69.79877 596
69.81888 534
69.839 556
69.85911 559
69.87922 541
69.89934 579
69.91945 566
69.93956 552
69.95968 554
69.97979 576
69.9999 571
70.02002 560
70.04013 550
70.06025 567
70.08036 548
70.10047 557
70.12059 543
70.1407 617
70.16081 589
70.18093 594
70.20104 519
70.22116 515
70.24127 564
70.26138 551
70.2815 547
70.30161 529
70.32172 574
70.34184 572
70.36195 567
70.38207 570
70.40218 575
70.42229 602
70.44241 557
70.46252 549
70.48263 566
70.50275 547
70.52286 557
70.54297 564
70.56309 534
70.5832 561
70.60332 566
70.62343 550
70.64354 544
70.66366 581
70.68377 562
70.70388 590
70.724 548
70.74411 566
70.76423 553
70.78434 560
70.80445 572
70.82457 569
70.84468 571
70.86479 535
70.88491 559
70.90502 609
70.92513 542
70.94525 562
70.96536 583
70.98548 572
71.00559 558
71.0257 561
71.04582 526
71.06593 560
71.08604 585
71.10616 548
71.12627 563
71.14639 554
71.1665 600
71.18661 591
71.20673 533
71.22684 563
71.24695 571
71.26707 575
71.28718 580
71.3073 597
71.32741 577
71.34752 560
71.36764 551
71.38775 588
71.40786 581
71.42798 539
71.44809 575
71.4682 581
71.48832 543
71.50843 619
71.52855 555
71.54866 529
71.56877 576
71.58889 597
71.609 591
71.62911 616
71.64923 589
71.66934 557
71.68946 594
71.70957 578
71.72968 582
71.7498 601
71.76991 607
71.79002 558
71.81014 581
71.83025 592
71.85037 567
71.87048 589
71.89059 580
71.91071 588
71.93082 555
71.95093 621
71.97105 574
71.99116 629
72.01127 599
72.03139 574
72.0515 581
72.07162 581
72.09173 605
72.11184 554
72.13196 599
72.15207 566
72.17218 563
72.1923 545
72.21241 594
72.23253 612
72.25264 636
72.27275 598
72.29287 590
72.31298 602
72.33309 610
72.35321 596
72.37332 614
72.39344 586
72.41355 581
72.43366 613
72.45378 585
72.47389 595
72.494 577
72.51412 628
72.53423 606
72.55434 607
72.57446 641
72.59457 564
72.61469 629
72.6348 532
72.65491 577
72.67503 600
72.69514 568
72.71525 567
72.73537 551
72.75548 568
72.7756 598
72.79571 615
72.81582 606
72.83594 551
72.85605 599
72.87616 613
72.89628 548
72.91639 572
72.9365 599
72.95662 581
72.97673 603
72.99685 594
73.01696 575
73.03707 593
73.05719 615
73.0773 566
73.09741 642
73.11753 565
73.13764 607
73.15776 575
73.17787 565
73.19798 607
73.2181 573
73.23821 626
73.25832 648
73.27844 621
73.29855 635
73.31867 608
73.33878 590
73.35889 627
73.37901 592
73.39912 636
73.41923 608
73.43935 603
73.45946 633
73.47957 619
73.49969 616
73.5198 623
73.53992 641
73.56003 671
73.58014 645
73.60026 616
73.62037 552
73.64048 592
73.6606 586
73.68071 591
73.70083 606
73.72094 617
73.74105 604
73.76117 616
73.78128 574
73.80139 617
73.82151 583
73.84162 600
73.86174 652
73.88185 598
73.90196 596
73.92208 568
73.94219 608
73.9623 546
73.98242 598
74.00253 568
74.02264 610
74.04276 549
74.06287 586
74.08299 595
74.1031 605
74.12321 544
74.14333 581
74.16344 582
74.18355 619
74.20367 612
74.22378 588
74.2439 574
74.26401 577
74.28412 618
74.30424 608
74.32435 645
74.34446 598
74.36458 601
74.38469 612
74.40481 596
74.42492 640
74.44503 611
74.46515 670
74.48526 615
74.50537 576
74.52549 596
74.5456 579
74.56571 558
74.58583 642
74.60594 596
74.62606 606
74.64617 592
74.66628 592
74.6864 633
74.70651 596
74.72662 621
74.74674 593
74.76685 642
74.78697 582
74.80708 614
74.82719 603
74.84731 599
74.86742 590
74.88753 590
74.90765 584
74.92776 599
74.94787 597
74.96799 617
74.9881 606
75.00822 590
