3.00117 20857.5331710397
3.02128 20035.4071305457
3.0414 19839
3.06151 19229.7771684612
3.08162 18870.2809990115
3.10174 17893.6707013477
3.12185 17698.2960797287
3.14197 17190.4431539633
3.16208 16234.4004638886
3.18219 16343.9808270277
3.20231 15879.5952397858
3.22242 15202.7944947176
3.24253 15127.0820777883
3.26265 14157.8345948221
3.28276 14209.5205915329
3.30288 13335.9468270502
3.32299 12855.9954974222
3.3431 12913
3.36322 12240.5570675913
3.38333 11979.0078813032
3.40344 11087.2884818643
3.42356 11312.8117933233
3.44367 10869.0136294732
3.46379 10390.0726464113
3.4839 10314
3.50401 9645.75789510571
3.52413 9444.61193041233
3.54424 8986.10046819932
3.56435 8684.52360129903
3.58447 8449.47025463557
3.60458 8047.43732140132
3.62469 7696.09246838847
3.64481 7527.81355543132
3.66492 7081.84332536128
3.68504 7110.51141964316
3.70515 6584.11656882835
3.72526 6553.010535146
3.74538 6287.51206547883
3.76549 5777.13082677578
3.7856 5726
3.80572 5485.85979702384
3.82583 5448.77711280879
3.84595 5100.96705610968
3.86606 4796.28804846564
3.88617 4730.17527147836
3.90629 4506.12680640462
3.9264 4342
3.94651 4315.8965804743
3.96663 3975.64197775957
3.98674 3874.69290021451
4.00686 3597.54966399939
4.02697 3480.88049308919
4.04708 3537.22405130317
4.0672 3159
4.08731 3254.97701183674
4.10742 2952.71109186996
4.12754 2878.1545136592
4.14765 2918.30982272552
4.16776 2682.33217268141
4.18788 2614.12024272372
4.20799 2413.07784815814
4.22811 2380.02220187392
4.24822 2421.00186745566
4.26833 2354.80970842403
4.28845 2219.7634811369
4.30856 2162.13900173144
4.32867 2113.91424989373
4.34879 2208.01136086559
4.3689 2056
4.38902 1977.89281046476
4.40913 1831.84845680545
4.42924 1808.00887006342
4.44936 1824.87577209421
4.46947 1889.01709685825
4.48958 1798.09643464798
4.5097 1719
4.52981 1627.01374838354
4.54992 1712.98264311431
4.57004 1582.82005309935
4.59015 1613.79594431233
4.61027 1626.16183357014
4.63038 1491.01642637672
4.65049 1603.94639884761
4.67061 1578.9251305429
4.69072 1405.9007107642
4.71083 1381.93892436151
4.73095 1328.07320553528
4.75106 1437.81983419184
4.77118 1431.08292922167
4.79129 1326.04613184893
4.8114 1269
4.83152 1237.95606574624
4.85163 1222.10075736327
4.87174 1321.0468886914
4.89186 1255.12397933994
4.91197 1242.01636262587
4.93209 1211.012828658
4.9522 1185
4.97231 1112.97978136389
4.99243 1116.01875211699
5.01254 1133.1002982654
5.03265 1145.31492758557
5.05277 997.923118550783
5.07288 1170.00583905107
5.09299 964.064150082944
5.11311 1031.05191252315
5.13322 1044.95434733428
5.15334 1008.02024293488
5.17345 1027.88679509071
5.19356 924.157875807575
5.21368 915.972420171145
5.23379 938.993404986363
5.2539 923
5.27402 858.985775702003
5.29413 899.067523313174
5.31425 907.950550771581
5.33436 864.139675691233
5.35447 816.95802525442
5.37459 873.007921669653
5.3947 789
5.41481 822.027918205018
5.43493 861.059368603325
5.45504 885.953647696468
5.47516 808.20829097604
5.49527 729.042031681044
5.51538 753.945423994245
5.5355 789
5.55561 753.99536337249
5.57572 784.033602572722
5.59584 773.868683186745
5.61595 719.9046820117
5.63606 796.041810079829
5.65618 686.05478444467
5.67629 723.987575585901
5.69641 687.980712785615
5.71652 691.031124425836
5.73663 711.978572072327
5.75675 663.862810991413
5.77686 636.979556526253
5.79697 674.929277459855
5.81709 709.990466673386
5.8372 701
5.85732 650.987908657338
5.87743 687.078929162477
5.89754 718.003067163505
5.91766 686.122690141609
5.93777 632.018756019394
5.95788 661.960653286307
5.978 678
5.99811 654.985068187738
6.01823 643.033966647101
6.03834 674.998289848677
6.05845 649.995738328745
6.07857 662.067117441794
6.09868 594.986537992368
6.11879 680.976426688593
6.13891 657.993084937476
6.15902 669.975489181948
6.17913 610.95705081327
6.19925 628.035013401741
6.21936 632.924107423024
6.23948 673.031742507922
6.25959 588.022471223478
6.2797 612
6.29982 614.005305362996
6.31993 629.000446207229
6.34004 622.034596412528
6.36016 644.049475937563
6.38027 573.09693838943
6.40039 569.968920448371
6.4205 641
6.44061 583.952296402975
6.46073 511.966867149064
6.48084 537.087784523502
6.50095 562.011034480553
6.52107 549.981561219157
6.54118 593.949453134394
6.56129 611.016185253379
6.58141 554.981347161464
6.60152 568.053417352894
6.62164 599.915732012359
6.64175 514.890616727564
6.66186 548.870398594888
6.68198 587.000623986284
6.70209 571.996723495764
6.7222 588
6.74232 541.994637997953
6.76243 571.994922744283
6.78255 529.956987745421
6.80266 547.004496437139
6.82277 515.027722427382
6.84289 524.994837703737
6.863 539
6.88311 597.004689019674
6.90323 540.879213018624
6.92334 516.142480435391
6.94346 616.956534062496
6.96357 541.126502089929
6.98368 528.947244712205
7.0038 581
7.02391 519.975440290541
7.04402 523.031129112139
7.06414 543.992443231866
7.08425 528.002672682216
7.10436 536.031522293425
7.12448 506.001282394245
7.14459 544.976201690163
7.16471 558.984525399442
7.18482 507.965704446811
7.20493 527.109307701442
7.22505 582.916670589104
7.24516 503.0221599131
7.26527 565.958956242599
7.28539 527.013137197957
7.3055 534
7.32562 484.971940380483
7.34573 522.141799838938
7.36584 592.944688818307
7.38596 492.145321201918
7.40607 495.955666592192
7.42618 518.965097512941
7.4463 557
7.46641 549.00164146799
7.48653 558.969978890811
7.50664 506.902199577005
7.52675 480.049435354572
7.54687 480.923828066254
7.56698 541.001581435629
7.58709 495.999670178467
7.60721 530.98443691379
7.62732 443.968388775808
7.64743 498.089292022024
7.66755 506.953179391574
7.68766 489.022743107783
7.70778 503.944576588118
7.72789 567.987350460574
7.748 529
7.76812 467.000867609264
7.78823 521.082302526952
7.80834 536.976769816513
7.82846 510.081883077816
7.84857 488.9514373992
7.86869 545.990768498648
7.8888 502
7.90891 475.019545944414
7.92903 548.072532930976
7.94914 533.886232955456
7.96925 478.073167969338
7.98937 475.997935137291
8.00948 470.997161084308
8.0296 492
8.04971 511.98980338295
8.06982 472.989829470114
8.08994 493.009012674143
8.11005 476.002085091734
8.13016 501.96224616697
8.15028 485.049574588779
8.17039 453.981862300288
8.1905 539
8.21062 547.982401332662
8.23073 524.944675206748
8.25085 478.897689502364
8.27096 475.891474822952
8.29107 537.004393916859
8.31119 477.019481090284
8.3313 489
8.35141 494.013845884937
8.37153 542.047965975147
8.39164 535.938941146824
8.41176 512.992572585557
8.43187 521.043202942441
8.45198 475.001668451132
8.4721 513
8.49221 481.988658906916
8.51232 492.01684703269
8.53244 506.053894551507
8.55255 521.094977917868
8.57266 452.072133851715
8.59278 478.943640983272
8.61289 520.991778469725
8.63301 510.986731714515
8.65312 487.991224637975
8.67323 491.003015474122
8.69335 500.09154333205
8.71346 539.010750761246
8.73357 493.05443301942
8.75369 486.003919219605
8.7738 472
8.79392 490.000029508162
8.81403 481.032594662583
8.83414 529.059432770405
8.85426 526.01270832842
8.87437 527.015571538843
8.89448 513.987866975934
8.9146 535
8.93471 488.985480675342
8.95483 496.021403489153
8.97494 496.991507172996
8.99505 494.008070484402
9.01517 482.041286742875
9.03528 450.017910242741
9.05539 457.986288676681
9.07551 481.00033952811
9.09562 470.005640745405
9.11573 491.01005273091
9.13585 466.895923413581
9.15596 433.025932583975
9.17608 440.983720952617
9.19619 456.990280712696
9.2163 464
9.23642 431.004576050816
9.25653 457.984031437309
9.27664 421.015775374581
9.29676 474.941144390621
9.31687 455.036684319445
9.33699 454.995676923922
9.3571 461
9.37721 466.998112012218
9.39733 465.029000012903
9.41744 482.948535662075
9.43755 435.014259067765
9.45767 476.953867072433
9.47778 468.018677954593
9.4979 463
9.51801 452.982553864834
9.53812 413.991099869293
9.55824 439.057769890656
9.57835 453.024132107389
9.59846 452.057213156112
9.61858 427.969793006975
9.63869 491.986544290353
9.6588 466
9.67892 467.9987071295
9.69903 447.963451044569
9.71915 433.993298017478
9.73926 441.965761810903
9.75937 454.009238936522
9.77949 439.999150694194
9.7996 460
9.81971 465.00196886118
9.83983 461.959401259984
9.85994 432.01144903866
9.88006 465.968220131603
9.90017 447.037064255091
9.92028 441.988717998391
9.9404 462
9.96051 475.996547012743
9.98062 455.985402580659
10.00074 453.999367689357
10.02085 453.975400679656
10.04097 467.000460750386
10.06108 458.993593358487
10.08119 474.002250492312
10.10131 445.98643084794
10.12142 439.008660398433
10.14153 451.011190141036
10.16165 446.963232847839
10.18176 421.075684581929
10.20187 395.978792168616
10.22199 431.993103255439
10.2421 415
10.26222 430.030523423875
10.28233 446.978901224704
10.30244 419.991440588606
10.32256 442.961853408964
10.34267 436.036542128805
10.36278 415.005116189373
10.3829 434
10.40301 462.996656051658
10.42313 429.963996363889
10.44324 436.044672724686
10.46335 456.962396059968
10.48347 458.025580299981
10.50358 437.006404703198
10.52369 443.999601788388
10.54381 437.001625731214
10.56392 443.986221651309
10.58403 425.023980532894
10.60415 464.02433027175
10.62426 424.1152506153
10.64438 389.002801754826
10.66449 406.991047460512
10.6846 422
10.70472 456.009565843938
10.72483 438.973934388806
10.74494 438.012615227951
10.76506 447.962262412832
10.78517 462.015405101413
10.80529 454.978354977214
10.8254 513
10.84551 433.968571774585
10.86563 441.071241361919
10.88574 467.948640949086
10.90585 417.040326709611
10.92597 442.976315498833
10.94608 422.031979338209
10.9662 410
10.98631 440.015533961343
11.00642 463.020257426397
11.02654 479.008575101457
11.04665 467.063291982025
11.06676 436.06239044402
11.08688 429.960427494016
11.10699 475.005445544795
11.1271 423
11.14722 453.012145513412
11.16733 423.956312747514
11.18745 434.119720119743
11.20756 479.991085898976
11.22767 439.076767843343
11.24779 421.986445283875
11.2679 471
11.28801 489.010198795437
11.30813 497.941216316166
11.32824 438.973664693909
11.34836 469.983603251149
11.36847 443.011653740512
11.38858 470.974357168588
11.4087 465
11.42881 442.002088023005
11.44892 467.018408421146
11.46904 466.993461859187
11.48915 480.909535694133
11.50927 498.073631815258
11.52938 418.027422259112
11.54949 451.989430889297
11.56961 431.99236170632
11.58972 454.046092325822
11.60983 490.006047656004
11.62995 478.023152205525
11.65006 503.004582508784
11.67017 473.02268607216
11.69029 493.982138422147
11.7104 508
11.73052 480.016034595952
11.75063 527.024256636771
11.77074 503.981196240114
11.79086 508.070196202515
11.81097 444.04366782427
11.83108 468.965239944237
11.8512 487
11.87131 503.998026351322
11.89143 485.991542621723
11.91154 489.969646822494
11.93165 472.931298401403
11.95177 520.007952510107
11.97188 482.976062947112
11.99199 564.978238266119
12.01211 547.998077872587
12.03222 575.001862619781
12.05234 543.968601537283
12.07245 558.026292758841
12.09256 553.99314644469
12.11268 580.955697420772
12.13279 617.994836889836
12.1529 608
12.17302 627.036298271048
12.19313 660.02243629353
12.21324 662.01643685044
12.23336 688.92328959339
12.25347 722.969817071166
12.27359 732.993689909278
12.2937 750
12.31381 757.009518190711
12.33393 762.928866054897
12.35404 702.012445543863
12.37415 750.040666787145
12.39427 671.050249280608
12.41438 699.002342767996
12.4345 631
12.45461 590.992592365678
12.47472 571.959405053804
12.49484 522.948335406636
12.51495 514.072037288437
12.53506 471.027507109387
12.55518 491.982234646756
12.57529 491.997308261688
12.5954 502
12.61552 482.002665302354
12.63563 506.016341065024
12.65575 481.883767574308
12.67586 449.983726684226
12.69597 483.969625498814
12.71609 460.029542453533
12.7362 414
12.75631 456.009026303748
12.77643 437.98812834819
12.79654 465.08149802436
12.81666 473.10098715247
12.83677 403.035845418514
12.85688 429.982701618699
12.877 419
12.89711 440.001142730592
12.91722 427.012116023349
12.93734 445.934348673672
12.95745 390.970272364809
12.97757 468.919128267998
12.99768 456.033254714963
13.01779 437.008174272959
13.03791 413.986633802735
13.05802 398.00689706525
13.07813 423.039186620416
13.09825 439.02734043772
13.11836 440.038199203793
13.13847 420.982426811158
13.15859 443.00953303246
13.1787 397
13.19882 433.017185663858
13.21893 404.942786270364
13.23904 398.062124391716
13.25916 443.940215315285
13.27927 449.993838616174
13.29938 445.043299433798
13.3195 395
13.33961 438.00090547709
13.35973 395.985771538355
13.37984 433.043277202654
13.39995 407.109857975325
13.42007 383.988027007627
13.44018 416.958397985565
13.46029 433.014061170606
13.48041 392.999710928052
13.50052 439.048514886999
13.52064 445.92904831248
13.54075 402.964253940962
13.56086 411.023144979244
13.58098 387.984053083255
13.60109 437.985906119198
13.6212 427
13.64132 425.984852678594
13.66143 403.001633627457
13.68154 444.129661885057
13.70166 481.055633543011
13.72177 406.100978415617
13.74189 386.991840767491
13.762 405
13.78211 393.002953275522
13.80223 417.019956947403
13.82234 414.006818927712
13.84245 425.007770223152
13.86257 396.066942342167
13.88268 364.99741277168
13.9028 386
13.92291 375.005168023903
13.94302 422.062001462923
13.96314 449.930727299472
13.98325 384.091022898715
14.00336 397.949083265343
14.02348 411.981866789896
14.04359 431.998253381804
14.06371 419.995917438439
14.08382 413.975459713825
14.10393 377.971312308569
14.12405 393.096534759825
14.14416 421.014275118156
14.16427 387.042354781676
14.18439 385.992252889329
14.2045 404
14.22461 409.994190545303
14.24473 390.986084751453
14.26484 403.055996331808
14.28496 424.008723056752
14.30507 405.007209389344
14.32518 414.006389468091
14.3453 398
14.36541 433.01240036467
14.38552 419.956774326712
14.40564 378.973799560339
14.42575 389.98467586082
14.44587 383.994645939002
14.46598 400.987651537713
14.48609 404.995121834663
14.50621 414.995190222709
14.52632 389.983890275593
14.54643 395.02169677365
14.56655 410.044967446921
14.58666 423.999961392406
14.60677 414.009408766055
14.62689 406.014348661471
14.647 377
14.66712 417.018812806461
14.68723 415.041025273396
14.70734 451.95281655203
14.72746 380.073793696453
14.74757 399.975236565759
14.76768 392.990242575089
14.7878 426
14.80791 413.982550226858
14.82803 392.024351355169
14.84814 427.017998773135
14.86825 402.055557017873
14.88837 405.974137157187
14.90848 417.002048310729
14.92859 406.004488593479
14.94871 417.018984060539
14.96882 445.976474183308
14.98894 394.980634734167
15.00905 422.985277824983
15.02916 372.070236007101
15.04928 376.990652555211
15.06939 382.984743940265
15.0895 428
15.10962 413.978941229411
15.12973 403.987840807065
15.14984 399.017462757191
15.16996 422.940779808057
15.19007 438.016492267876
15.21019 408.015093369409
15.2303 404
15.25041 431.990349365713
15.27053 379.962860573987
15.29064 400.046420575416
15.31075 399.028359610797
15.33087 387.02505864722
15.35098 375.990480230479
15.3711 399
15.39121 400.002407122855
15.41132 411.002261452011
15.43144 399.972142801425
15.45155 389.030111609936
15.47166 387.94719507875
15.49178 420.001292460829
15.51189 380.022464545766
15.53201 369.014403952813
15.55212 409.016283484071
15.57223 395.979733753598
15.59235 408.087337770886
15.61246 437.008019387998
15.63257 395.086868012561
15.65269 364.989609318704
15.6728 408
15.69291 382.989591013214
15.71303 402.078081767083
15.73314 434.935569935554
15.75326 371.030656264006
15.77337 409.970919899985
15.79348 394.990358520322
15.8136 424
15.83371 370.992054148195
15.85382 411.041282173359
15.87394 403.898074007656
15.89405 357.988412988145
15.91417 405.942077440319
15.93428 405.018670779919
15.95439 375.0281867238
15.97451 337.02066407218
15.99462 425.040473649804
16.01473 403.994647871865
16.03485 430.979732890241
16.05496 393.987776646915
16.07508 433.010280777685
16.09519 372.015210797179
16.1153 394
16.13542 375.980501868268
16.15553 379.02683269656
16.17564 406.075189120577
16.19576 436.990905283639
16.21587 419.025967379005
16.23598 403.03680127774
16.2561 375
16.27621 440.006992915375
16.29633 398.973412096844
16.31644 424.019086630007
16.33655 394.087671789747
16.35667 394.933632529508
16.37678 432.028728669569
16.39689 356.022692283339
16.41701 380.02747456793
16.43712 419.013546140672
16.45724 411.972525249116
16.47735 420.111342553666
16.49746 456.066153433365
16.51758 374.049677515893
16.53769 384.99016160607
16.5578 390
16.57792 413.992021086294
16.59803 382.988215305978
16.61814 408.043516873604
16.63826 403.038822217646
16.65837 383.028113004438
16.67849 375.993122569021
16.6986 399
16.71871 404.012076419032
16.73883 432.990156098004
16.75894 394.949834574007
16.77905 399.978935489084
16.79917 397.999302109074
16.81928 401.007312543133
16.8394 392
16.85951 419.008637372498
16.87962 412.982574474447
16.89974 387.919656424962
16.91985 354.986929540507
16.93996 396.90743605143
16.96008 417.005208907052
16.98019 397.012649172409
17.00031 373.989029969723
17.02042 363.011596938033
17.04053 392.044091877849
17.06065 392.90045699475
17.08076 350.984757339758
17.10087 399.954198895817
17.12099 383.01698909348
17.1411 366
17.16121 391.020978268433
17.18133 424.001918000195
17.20144 400.965068848392
17.22156 398.017815573615
17.24167 388.973915994432
17.26178 418.998157593903
17.2819 401
17.30201 433.99896674467
17.32212 393.976002026475
17.34224 411.059201624623
17.36235 418.056883528795
17.38247 398.961730842824
17.40258 449.984097671417
17.42269 424.007138353473
17.44281 435.999676611871
17.46292 413.98691728882
17.48303 413.981066638233
17.50315 377.889840777932
17.52326 374.855473118798
17.54338 462.991350708971
17.56349 404.009946809117
17.5836 444
17.60372 406.972474920785
17.62383 415.014502869014
17.64394 418.043303355314
17.66406 445.013791154215
17.68417 401.067445187978
17.70428 402.938756799904
17.7244 476
17.74451 445.986467740546
17.76463 451.015272710301
17.78474 438.930591902209
17.80485 411.969150599842
17.82497 448.977049017632
17.84508 424.037507930129
17.86519 418.977406600102
17.88531 479.010372064044
17.90542 439.934311646286
17.92554 401.018576011463
17.94565 440.072422352757
17.96576 431.071109635945
17.98588 404.991229917291
18.00599 433.995373910748
18.0261 416
18.04622 426.018428407518
18.06633 432.984789793382
18.08645 424.040355607268
18.10656 464.918511527091
18.12667 476.036370690152
18.14679 427.028450598175
18.1669 403
18.18701 456.003732905912
18.20713 409.93537437505
18.22724 399.99593052142
18.24735 392.998584669193
18.26747 411.94669167106
18.28758 448.975670544125
18.3077 445
18.32781 399.983256491543
18.34792 392.010082481162
18.36804 411.052124088969
18.38815 431.987863176425
18.40826 422.025660782834
18.42838 419.989373850415
18.44849 423.013369348525
18.46861 380.990014332829
18.48872 399.035121161668
18.50883 414.971378448166
18.52895 392.050561608712
18.54906 437.98653354499
18.56917 401.030833736855
18.58929 414.996695572404
18.6094 403
18.62951 409.989079629878
18.64963 375.005567847431
18.66974 405.990724121974
18.68986 370.993900026093
18.70997 417.957418336064
18.73008 402.023821683555
18.7502 404
18.77031 426.998968558821
18.79042 411.003990738675
18.81054 428.984259603008
18.83065 392.072326366239
18.85077 399.944214593749
18.87088 428.012536517825
18.89099 386.014305307366
18.91111 389.005256724199
18.93122 401.031309522528
18.95133 450.069667600446
18.97145 468.964261656307
18.99156 429.103173583297
19.01168 394.999812142286
19.03179 419.988110117343
19.0519 418
19.07202 387.987336108386
19.09213 400.035578044311
19.11224 409.966827453424
19.13236 391.962507934429
19.15247 434.975533871323
19.17258 425.982262929117
19.1927 472
19.21281 446.976455181516
19.23293 426.042252367
19.25304 472.018586893599
19.27315 450.976976779218
19.29327 482.024634775617
19.31338 425.020770571378
19.33349 448.99961489506
19.35361 429.014879375372
19.37372 483.984792310686
19.39384 420.007951157928
19.41395 498.105076699811
19.43406 468.057740775903
19.45418 465.025121183255
19.47429 435.98304945676
19.4944 515
19.51452 490.975943111127
19.53463 503.033069988182
19.55475 521.06359354867
19.57486 554.93795339351
19.59497 554.077002625388
19.61509 513.973859440793
19.6352 631
19.65531 632.006318190928
19.67543 698.116667034334
19.69554 747.038702256607
19.71565 751.985583724898
19.73577 775.934143046846
19.75588 815.99045559073
19.776 795
19.79611 806.030694638131
19.81622 893.072229428877
19.83634 899.859865066573
19.85645 824.986398079628
19.87656 892.944377418752
19.89668 837.080176695038
19.91679 792.004234984649
19.93691 800.001743918357
19.95702 781.964585433432
19.97713 747.974391270455
19.99725 753.043300491663
20.01736 747.109793308091
20.03747 702.920414545032
20.05759 799.001465752522
20.0777 700
20.09782 726.988303861705
20.11793 661.974565908249
20.13804 720.118426484027
20.15816 720.093374998734
20.17827 673.019355801364
20.19838 706.940844641492
20.2185 745
20.23861 705.986760558475
20.25872 710.010438515918
20.27884 701.945403609919
20.29895 686.92487571759
20.31907 729.01849062993
20.33918 680.001243325567
20.35929 724.997460782872
20.37941 706.029374630954
20.39952 811.016840076286
20.41963 740.966774344859
20.43975 790.023916615649
20.45986 732.08556946906
20.47998 738.990421859391
20.50009 728.003748476946
20.5202 731
20.54032 722.003528216137
20.56043 748.060367482604
20.58054 763.921525452385
20.60066 721.921715598754
20.62077 813.95178907791
20.64088 768.029803829686
20.661 817
20.68111 941.08137139501
20.70123 1125.25893501136
20.72134 1272.2692194474
20.74145 1473.18194343726
20.76157 1903.34110272525
20.78168 2301.61267331308
20.80179 2659.86588498869
20.82191 2840.07299877268
20.84202 2909.89389270379
20.86214 2622.25921807775
20.88225 2248.03570159347
20.90236 1843.8183990155
20.92248 1449.35965842544
20.94259 1145.11799009043
20.9627 975
20.98282 924.022505296153
21.00293 953.938433062153
21.02305 859.875431417734
21.04316 891.889308672747
21.06327 905.055746918362
21.08339 844.024789365022
21.1035 840
21.12361 877.992608407175
21.14373 840.026527405849
21.16384 910.080184640707
21.18395 896.027406592061
21.20407 907.008138892396
21.22418 873.035837394001
21.2443 883
21.26441 970.008408963597
21.28452 915.953906610334
21.30464 921.04303641965
21.32475 921.06238020232
21.34486 904.939065951273
21.36498 954.995911047719
21.38509 902.027765173353
21.40521 880.998572947489
21.42532 866.962410673309
21.44543 834.019348120585
21.46555 851.853266606304
21.48566 744.092352345661
21.50577 774.978384771638
21.52589 735.01902069499
21.546 726
21.56612 716.015203982675
21.58623 726.925998700808
21.60634 656.005441917341
21.62646 707.042597621052
21.64657 615.060034889177
21.66668 659.959467615463
21.6868 637
21.70691 605.010355717126
21.72702 646.000402550667
21.74714 596.907087750029
21.76725 586.97623855955
21.78737 597.982500651369
21.80748 613.975590671467
21.82759 631.005411468354
21.84771 598.987102800896
21.86782 613.060411650618
21.88793 668.989727203702
21.90805 606.871487687118
21.92816 603.962624886538
21.94828 616.993241279604
21.96839 619.998962702837
21.9885 639
22.00862 684.989378098579
22.02873 612.870816571258
22.04884 567.006140056045
22.06896 588.995584042355
22.08907 553.080603245956
22.10919 534.974204297679
22.1293 613
22.14941 592.006750495812
22.16953 633.973642921369
22.18964 561.933349093084
22.20975 589.951303120723
22.22987 578.990563871465
22.24998 592.038755994343
22.27009 521.012060915119
22.29021 548.001856339403
22.31032 531.038997968447
22.33044 600.99727983229
22.35055 535.951278682773
22.37066 573.008245223104
22.39078 522.005704053549
22.41089 572.986639479952
22.431 534
22.45112 499.013650682363
22.47123 526.984878486591
22.49135 503.09621584285
22.51146 591.900694870906
22.53157 559.105806993823
22.55169 514.000078287333
22.5718 537
22.59191 519.998317822335
22.61203 539.021183378882
22.63214 538.000955136621
22.65225 544.002851786916
22.67237 536.998331839027
22.69248 536.027220537827
22.7126 499
22.73271 533.020141246558
22.75282 546.987569954924
22.77294 511.893208566095
22.79305 479.934543220064
22.81316 538.941159943666
22.83328 527.003131420225
22.85339 559.977127873193
22.87351 573.9801885068
22.89362 521.999283578398
22.91373 560.001419730492
22.93385 509.901830640827
22.95396 519.926494104881
22.97407 561.928769722211
22.99419 580.023796110788
23.0143 508
23.03442 555.045426877428
23.05453 557.978112613606
23.07464 549.996002509641
23.09476 545.032161239414
23.11487 531.981010196021
23.13498 560.98699889449
23.1551 554
23.17521 573.009176694753
23.19532 566.964193646804
23.21544 540.052816434039
23.23555 588.018175140369
23.25567 526.058701154685
23.27578 537.985669546128
23.29589 533.997145182776
23.31601 551.000793593045
23.33612 532.984879550809
23.35623 528.989915628042
23.37635 526.052881588579
23.39646 554.006685868862
23.41658 533.984087125426
23.43669 568.009335320449
23.4568 507
23.47692 542.027731472007
23.49703 549.053931375534
23.51714 600.003521623125
23.53726 560.019976174437
23.55737 596.95590558718
23.57749 589.010434130869
23.5976 564
23.61771 524.002160372363
23.63783 557.009341766258
23.65794 528.97073722269
23.67805 536.025736787713
23.69817 515.974238731977
23.71828 560.984051195127
23.73839 551.986670157543
23.75851 599.996829845314
23.77862 542.971637512531
23.79874 561.007169934625
23.81885 537.996955765036
23.83896 556.027092606426
23.85908 525.980382226503
23.87919 587.984823134838
23.8993 550
23.91942 519.041021531369
23.93953 593.050730241453
23.95965 567.923801567001
23.97976 570.955121706449
23.99987 578.043925790719
24.01999 544.991318438937
24.0401 590
24.06021 538.991303985394
24.08033 574.039596896669
24.10044 548.882527238562
24.12056 513.940795966812
24.14067 570.990452629112
24.16078 535.988966342749
24.1809 598
24.20101 556.966245821394
24.22112 546.085218965813
24.24124 663.086491790938
24.26135 608.182148329848
24.28146 579.998871317667
24.30158 584.001274025727
24.32169 573.008165926285
24.34181 551.985544715307
24.36192 533.012601539671
24.38203 566.030649744715
24.40215 562.987627063549
24.42226 572.95974027848
24.44237 582.028354907076
24.46249 557.994537281672
24.4826 595
24.50272 574.984122440421
24.52283 565.944635171335
24.54294 522.010367210343
24.56306 566.962213159406
24.58317 541.036449241026
24.60328 565.924836746631
24.6234 639
24.64351 599.981338944956
24.66362 612.052931325403
24.68374 653.97350660056
24.70385 613.984841944556
24.72397 686.868949840026
24.74408 723.030149768724
24.76419 669.010084186693
24.78431 701.022519314823
24.80442 710.965237146697
24.82453 688.082789677772
24.84465 780.050805808875
24.86476 716.105665237568
24.88488 724.972954630169
24.90499 736.996386378324
24.9251 726
24.94522 650.947940822885
24.96533 656.078837894568
24.98544 697.964402101184
25.00556 640.057449675883
25.02567 653.001758615624
25.04579 624.007075688575
25.0659 628
25.08601 598.001992043588
25.10613 634.028342371848
25.12624 621.983606419063
25.14635 618.084089294169
25.16647 576.986944347088
25.18658 635.94786135699
25.20669 659.984712731893
25.22681 686.9888674922
25.24692 631.974785714369
25.26704 654.049698849221
25.28715 665.060470208489
25.30726 705.933607137507
25.32738 692.076711429769
25.34749 607.010782299643
25.3676 644
25.38772 635.027188012572
25.40783 681.978056192119
25.42795 606.86814118683
25.44806 613.954255583233
25.46817 626.968269849761
25.48829 666.974690168401
25.5084 694
25.52851 645.99072159532
25.54863 673.053009495915
25.56874 669.897190809697
25.58886 609.040515331447
25.60897 629.979547210208
25.62908 620.001333493846
25.6492 642
25.66931 633.966640941653
25.68942 550.967742887535
25.70954 592.141538392412
25.72965 625.075295964495
25.74976 562.080164171873
25.76988 573.962193537213
25.78999 595.006382755213
25.81011 572.003710538009
25.83022 609.024985176927
25.85033 595.946138748875
25.87045 575.043008880302
25.89056 609.982410313941
25.91067 592.998355497067
25.93079 615.997735733844
25.9509 592
25.97102 593.015535035108
25.99113 610.020661917508
26.01124 622.03182657508
26.03136 627.053268486557
26.05147 602.949240434604
26.07158 677.956952308645
26.0917 659
26.11181 641.000550535125
26.13193 648.002085235962
26.15204 656.076256717859
26.17215 704.960390218949
26.19227 695.973687762761
26.21238 744.966820734349
26.23249 748.995968074052
26.25261 781.021007030375
26.27272 829.062684449187
26.29283 900.093794982714
26.31295 952.135697071007
26.33306 993.99897780877
26.35318 984.958300692279
26.37329 1107.91366136696
26.3934 1278
26.41352 1414.17255272035
26.43363 1653.43124542259
26.45374 2013.93218031262
26.47386 2635.44722328001
26.49397 3583.33317866223
26.51409 4873.27253086071
26.5342 6540
26.55431 8509.91912536122
26.57443 10123.1697202671
26.59454 11255.1352717478
26.61465 11097.0206972585
26.63477 9963.78185568033
26.65488 8648.74655967965
26.67499 6593.94008348678
26.69511 5036.24524637706
26.71522 3503.69993031535
26.73534 2487.21083656521
26.75545 1658.42936490678
26.77556 1281.38301903229
26.79568 1152.11602638597
26.81579 1020.06178931215
26.8359 947
26.85602 957.944835627638
26.87613 840.858165710764
26.89625 818.039937407866
26.91636 831.992390193316
26.93647 810.082729151524
26.95659 748.016845397782
26.9767 764
26.99681 789.974406255848
27.01693 718.022397894592
27.03704 807.085934984626
27.05716 762.110255297335
27.07727 742.024457037387
27.09738 718.010995554202
27.1175 695
27.13761 581.962728246933
27.15772 578.02923367935
27.17784 592.980825965962
27.19795 581.947628078897
27.21806 623.963528835197
27.23818 615.992076704971
27.25829 639.002606212628
27.27841 615.005034153039
27.29852 664.039717067531
27.31863 683.050912547428
27.33875 730.054053232573
27.35886 711.073619199363
27.37897 711.892237812513
27.39909 803.986750341798
27.4192 776
27.43932 827.991665311474
27.45943 756.944255191493
27.47954 764.938594734811
27.49966 685.108273589207
27.51977 676.02652422185
27.53988 625.054085504035
27.56 593
27.58011 598.014233659906
27.60023 619.970627173548
27.62034 591.05754275002
27.64045 653.985801736928
27.66057 586.099720806026
27.68068 573.978659980754
27.70079 602.984146730178
27.72091 632.012478576983
27.74102 631.954958452174
27.76113 596.071580334976
27.78125 673.949626186426
27.80136 578.041516619577
27.82148 643.985985602659
27.84159 586.005595521988
27.8617 654
27.88182 648.957313346315
27.90193 622.022235559142
27.92204 656.009050716031
27.94216 631.011905953188
27.96227 650.993306618824
27.98239 603.04762566469
28.0025 529
28.02261 595.010592848509
28.04273 531.867165995044
28.06284 495.069666543722
28.08295 565.874565360611
28.10307 562.054008091722
28.12318 529.016380637236
28.1433 527
28.16341 512.990401029139
28.18352 508.023170801771
28.20364 539.00834580022
28.22375 511.929264993132
28.24386 507.966977779738
28.26398 526.992868740343
28.28409 521.003083057703
28.3042 496
28.32432 420.004841791546
28.34443 503.115561332102
28.36455 518.95533058854
28.38466 496.052569846131
28.40477 467.047821004003
28.42489 444.999212276212
28.445 476
28.46511 517.001897861441
28.48523 485.94329773329
28.50534 472.026469584261
28.52546 496.964996852317
28.54557 487.05797767075
28.56568 457.979170164253
28.5858 502
28.60591 466.00191616449
28.62602 511.011862149056
28.64614 469.920803272039
28.66625 474.902514525462
28.68636 498.065376218121
28.70648 441.009152722526
28.72659 474.001285618538
28.74671 421.981433016408
28.76682 442.055811147911
28.78693 497.056728039651
28.80705 503.944351029956
28.82716 479.998912150098
28.84727 495.00983815466
28.86739 473.996006159915
28.8875 489
28.90762 410.977500939061
28.92773 460.070878356788
28.94784 471.024746290424
28.96796 490.014701772152
28.98807 468.983624643211
29.00818 514.961983944398
29.0283 508
29.04841 459.991899924133
29.06853 485.064113133639
29.08864 495.905051963355
29.10875 433.019269333885
29.12887 474.976127772592
29.14898 449.007972753152
29.16909 465.006995264117
29.18921 423.994720383037
29.20932 463.050446411915
29.22943 495.030971825585
29.24955 508.003007887507
29.26966 500.021016396924
29.28978 486.024756347082
29.30989 464.997451619463
29.33 494
29.35012 501.992627660119
29.37023 491.992987501731
29.39034 492.998512577516
29.41046 489.9966131273
29.43057 495.995601362606
29.45069 485.014149660825
29.4708 457
29.49091 477.014404679746
29.51103 492.997407633279
29.53114 482.991832688256
29.55125 487.992197092215
29.57137 480.025973970937
29.59148 470.984566278738
29.6116 491
29.63171 452.988876917127
29.65182 456.999303173833
29.67194 441.984281968568
29.69205 458.088362095672
29.71216 504.892063869784
29.73228 532.030901768796
29.75239 466.023235007078
29.7725 468
29.79262 479.985467204066
29.81273 471.062088948668
29.83285 529.996003870459
29.85296 466.099392336076
29.87307 467.976474821674
29.89319 470.00056722901
29.9133 472
29.93341 467.995947540228
29.95353 471.04300748414
29.97364 500.98402247557
29.99376 469.99916099642
30.01387 512.936626030584
30.03398 525.005143932886
30.0541 521
30.07421 521.993514903607
30.09432 515.031700772386
30.11444 546.921564207664
30.13455 464.066439714508
30.15467 520.897733007423
30.17478 533.040143095255
30.19489 487.004428266036
30.21501 526.027277708903
30.23512 545.966611302665
30.25523 506.028784179591
30.27535 550.929501351925
30.29546 466.051090990684
30.31557 518.946984871267
30.33569 490.021936933422
30.3558 481
30.37592 509.99621132811
30.39603 489.018107244933
30.41614 513.935236070913
30.43626 456.95567583733
30.45637 542.954085056928
30.47648 493.036571010688
30.4966 506
30.51671 474.981250843083
30.53683 460.011546514522
30.55694 485.073434337508
30.57705 505.050808798716
30.59717 476.969141763268
30.61728 528.990674180577
30.63739 486.015370935531
30.65751 500.013514629373
30.67762 494.949357111934
30.69773 440.999011227148
30.71785 493.119377393936
30.73796 506.98742126434
30.75808 519.992706104895
30.77819 514.007266825053
30.7983 492
30.81842 464.999176109265
30.83853 487.031850642465
30.85864 491.992773467911
30.87876 478.0668414075
30.89887 447.99078762697
30.91899 479.992748574185
30.9391 457
30.95921 432.997159146635
30.97933 448.049800159705
30.99944 474.996519342892
31.01955 444.094711712248
31.03967 438.931003198196
31.05978 499.979298165267
31.0799 473
31.10001 468.997499395699
31.12012 450.981333677835
31.14024 448.034122137776
31.16035 466.012173900589
31.18046 451.971522629661
31.20058 491.974825158571
31.22069 484.009666584964
31.2408 470
31.26092 455.989673109232
31.28103 468.073386853474
31.30115 508.932090836255
31.32126 432.094723423611
31.34137 448.942936753955
31.36149 477.983792044597
31.3816 496
31.40171 449.996835409973
31.42183 476.994089550434
31.44194 435.959877912709
31.46206 461.921692363245
31.48217 475.030372646474
31.50228 440.023590095173
31.5224 437
31.54251 444.015579911417
31.56262 480.00264418916
31.58274 453.975929268783
31.60285 457.057353485114
31.62297 413.027442842846
31.64308 439.954877806538
31.66319 459.012461355382
31.68331 419.997519274485
31.70342 441.994133121273
31.72353 409.997630511984
31.74365 444.046062037043
31.76376 440.959742275588
31.78387 474.014345054262
31.80399 419.023564481564
31.8241 416
31.84422 441.012864298296
31.86433 428.943364918236
31.88444 401.037483299038
31.90456 458.896415936926
31.92467 473.017262081767
31.94478 452.026475445273
31.9649 441
31.98501 473.000735806786
32.00513 443.971633184276
32.02524 456.047351952965
32.04535 462.05500700967
32.06547 443.957298227908
32.08558 486.020524636339
32.10569 412.020766587542
32.12581 442.02760391256
32.14592 467.987720147613
32.16604 445.005585960682
32.18615 477.070821417332
32.20626 471.076804450056
32.22638 433.00603536985
32.24649 455.991201366496
32.2666 456
32.28672 462.985998222045
32.30683 451.055091430824
32.32694 490.901674429589
32.34706 400.977746170791
32.36717 497.960784314212
32.38729 428.01715801209
32.4074 476
32.42751 470.990390567932
32.44763 463.993448490782
32.46774 450.953867636225
32.48785 442.915377038943
32.50797 496.962718736673
32.52808 462.07623286265
32.5482 409
32.56831 473.019323331841
32.58842 457.973922607073
32.60854 444.964223408771
32.62865 426.986980747303
32.64876 452.958019184281
32.66888 453.011428018035
32.68899 454.984630978837
32.7091 484
32.72922 442.00684389392
32.74933 492.023834037171
32.76945 458.949974241986
32.78956 488.890088522053
32.80967 517.040224625001
32.82979 457.021377317071
32.8499 456
32.87001 461.997348740871
32.89013 459.021678835482
32.91024 480.002641102214
32.93036 468.979831932628
32.95047 492.008729972349
32.97058 469.983599556629
32.9907 511
33.01081 464.990974075838
33.03092 498.036882817366
33.05104 496.931730605344
33.07115 452.092954189761
33.09127 455.908727328232
33.11138 529.973766647244
33.13149 502.014087663296
33.15161 510.013384030057
33.17172 524.989697920405
33.19183 516.048478440678
33.21195 555.934156381287
33.23206 491.997131976856
33.25217 560.946256798018
33.27229 522.027378449895
33.2924 504
33.31252 534.037903744731
33.33263 553.976591754959
33.35274 522.982970878722
33.37286 551.913239870715
33.39297 581.983703851616
33.41308 572.026959507396
33.4332 542
33.45331 539.008917422066
33.47343 562.016053395283
33.49354 552.961964579669
33.51365 532.059768273988
33.53377 509.024573944904
33.55388 509.976322300603
33.57399 542.988475459004
33.59411 540.988341885709
33.61422 512.980664290664
33.63434 500.962583217101
33.65445 476.966567491276
33.67456 477.99272976279
33.69468 488.965309462953
33.71479 527.99662578392
33.7349 492
33.75502 458.997889778301
33.77513 480.038096624272
33.79524 494.00988350583
33.81536 492.018678060938
33.83547 483.000609805483
33.85559 491.994558269291
33.8757 492
33.89581 472.998761653229
33.91593 487.016943018781
33.93604 471.908256432302
33.95615 432.971983058
33.97627 477.971307063257
33.99638 460.00690641157
34.0165 463
34.03661 414.007576605071
34.05672 487.047588026243
34.07684 465.89875798395
34.09695 452.866796640161
34.11706 531.931045082049
34.13718 511.017448852341
34.15729 517.004726087236
34.17741 490.997815853132
34.19752 508.000150279327
34.21763 487.992045586973
34.23775 506.038148677098
34.25786 508.986400533628
34.27797 520.996729850296
34.29809 519.991298314774
34.3182 536
34.33831 483.991700961951
34.35843 526.095653367427
34.37854 560.982437405291
34.39866 524.068652108243
34.41877 510.008718673062
34.43888 509.984280973352
34.459 539
34.47911 562.010925810788
34.49922 575.993610166026
34.51934 556.977419383297
34.53945 566.938581303413
34.55957 596.951563781375
34.57968 615.010422888061
34.59979 593.999705957785
34.61991 601.984579091894
34.64002 554.003298984761
34.66013 614.080693587305
34.68025 632.035339591575
34.70036 637.083102730745
34.72047 586.973340365671
34.74059 677.953903962783
34.7607 698
34.78082 635.00071424043
34.80093 692.052336947534
34.82104 705.136958577782
34.84116 795.004052713123
34.86127 714.051339132865
34.88138 745.010794303516
34.9015 689
34.92161 755.014140069651
34.94173 740.053924722767
34.96184 816.020934394407
34.98195 741.185563906543
35.00207 733.937056013728
35.02218 751.064033841838
35.04229 654.012111073533
35.06241 714.025103776586
35.08252 704.975365916335
35.10264 688.947405999294
35.12275 649.913723486468
35.14286 633.99916877028
35.16298 645.978851425725
35.18309 664.996258689278
35.2032 651
35.22332 615.990786812017
35.24343 629.011174369437
35.26354 616.964535494631
35.28366 605.016029503219
35.30377 594.027989200627
35.32389 585.987010602039
35.344 628
35.36411 606.986062046301
35.38423 608.053650152237
35.40434 644.996680597961
35.42445 617.998120588264
35.44457 641.019949737373
35.46468 581.057685306025
35.4848 578
35.50491 635.999033049029
35.52502 592.996467604229
35.54514 647.098363053954
35.56525 641.124548751542
35.58536 593.022241275258
35.60548 619.968842466623
35.62559 630.001542370689
35.64571 623.996580598096
35.66582 633.039444736007
35.68593 671.988579230153
35.70605 620.887051251628
35.72616 614.963230907083
35.74627 633.983997979167
35.76639 633.003620875467
35.7865 617
35.80661 591.005791851356
35.82673 633.050871033476
35.84684 642.009584863911
35.86696 649.010783426598
35.88707 641.974934007691
35.90718 669.001921190718
35.9273 632
35.94741 612.994771682014
35.96752 608.008881195028
35.98764 623.009634767406
36.00775 616.01066267428
36.02787 611.035335503808
36.04798 584.993934787519
36.06809 624.979553129917
36.08821 628.980838097029
36.10832 581.984033679436
36.12843 602.032698136092
36.14855 607.008274781552
36.16866 602.069686787989
36.18878 551.030895132567
36.20889 549.998453979448
36.229 570
36.24912 633.946519040983
36.26923 526.010328577701
36.28934 660.209293243759
36.30946 659.057337616575
36.32957 660.981208105571
36.34968 673.976730738535
36.3698 732
36.38991 843.028028483028
36.41003 851.036936006426
36.43014 965.420524465318
36.45025 1173.75902467831
36.47037 1174.95647350685
36.49048 1262.94702308899
36.51059 1235.03077250966
36.53071 1180.97426294906
36.55082 1136.97492040608
36.57094 1095.79593186478
36.59105 953.715913647441
36.61116 902.043004163336
36.63128 861.076906751338
36.65139 756.05324389842
36.6715 682
36.69162 687.026370032075
36.71173 712.023304300368
36.73184 725.049749020198
36.75196 743.045127328017
36.77207 687.072178357207
36.79219 689.971669772706
36.8123 759
36.83241 743.979816462118
36.85253 718.004389986748
36.87264 733.997946303668
36.89275 716.01176389531
36.91287 743.925536342964
36.93298 775.017840164337
36.9531 727
36.97321 724.991781583461
36.99332 685.972023953471
37.01344 685.018143368068
37.03355 691.976246218558
37.05366 701.992916583526
37.07378 685.044441710872
37.09389 641.003867738692
37.11401 660.000308841133
37.13412 623.954374106147
37.15423 608.040170604901
37.17435 649.033270322107
37.19446 617.105876289999
37.21457 569.06012336338
37.23469 553.987443046812
37.2548 591
37.27491 553.977088140507
37.29503 547.070392150303
37.31514 605.021126974612
37.33526 569.046657615534
37.35537 577.996496932713
37.37548 556.024706728957
37.3956 549
37.41571 547.980550865914
37.43582 508.023283767502
37.45594 568.011301221456
37.47605 516.054573969686
37.49617 562.899967525809
37.51628 594.012157653489
37.53639 552.025328361779
37.55651 514.989499478248
37.57662 510.009329725272
37.59673 528.033821813718
37.61685 537.959950394024
37.63696 524.935196298363
37.65708 584.973361411323
37.67719 560.017148467462
37.6973 538
37.71742 519.030865901814
37.73753 570.002936212974
37.75764 519.927669583556
37.77776 530.947569049576
37.79787 549.968677490217
37.81798 560.023154285571
37.8381 515
37.85821 516.011012432549
37.87833 534.001693134851
37.89844 529.024350476827
37.91855 546.035047650394
37.93867 512.010195556305
37.95878 535.988863627502
37.97889 516.012852330578
37.99901 519.020488390685
38.01912 559.993130711793
38.03924 508.912821388129
38.05935 493.961262412933
38.07946 486.920398581808
38.09958 538.01245100234
38.11969 482.002308230728
38.1398 546
38.15992 561.021839345633
38.18003 597.015528949343
38.20015 562.855947118505
38.22026 527.971165309003
38.24037 561.008386033384
38.26049 526.997336460365
38.2806 568
38.30071 531.994578733719
38.32083 576.093445290936
38.34094 612.000626091569
38.36105 597.994857859488
38.38117 612.012848135532
38.40128 578.027309701942
38.4214 584
38.44151 601.981123664084
38.46162 557.036237815885
38.48174 636.994983263909
38.50185 541.183333858051
38.52196 543.962697675081
38.54208 537.013207081511
38.56219 534.996327600832
38.58231 533.987412461633
38.60242 496.979884170351
38.62253 518.087128695114
38.64265 570.014284755158
38.66276 545.001011673428
38.68287 559.05464813997
38.70299 492.005756871938
38.7231 540
38.74321 509.981271349303
38.76333 512.061080788407
38.78344 538.922310606285
38.80356 474.990908895855
38.82367 541.954917188207
38.84378 502.043742113002
38.8639 500
38.88401 526.018673437178
38.90412 547.97435405333
38.92424 491.927145305187
38.94435 492.981630190858
38.96447 491.989135812903
38.98458 501.012480605401
39.00469 479.996516318872
39.02481 508.00269536598
39.04492 499.028111278924
39.06503 548.00257255496
39.08515 492.866675056267
39.10526 487.934711353986
39.12538 524.981543054282
39.14549 527.99348854014
39.1656 546
39.18572 528.018610110088
39.20583 569.003435626897
39.22594 525.931747893315
39.24606 542.887333517859
39.26617 607.919893125906
39.28628 648.953428792415
39.3064 704
39.32651 750.033804223905
39.34663 862.231798036299
39.36674 1010.18089169129
39.38685 1055.84583837552
39.40697 1133.95210319014
39.42708 1100.05761530327
39.44719 1059.01263461091
39.46731 1021.96288930456
39.48742 920.91012885664
39.50754 838.774911455325
39.52765 730.931899705623
39.54776 758.03952864401
39.56788 665.090370905773
39.58799 614.024299372685
39.6081 549
39.62822 505.9722759128
39.64833 484.972103916592
39.66845 472.001681220782
39.68856 492.920906810925
39.70867 527.98789566854
39.72879 495.032792542016
39.7489 452
39.76901 517.010549233284
39.78913 475.939350333448
39.80924 475.031118480759
39.82935 482.009726060218
39.84947 471.017995124443
39.86958 469.983963544533
39.8897 495
39.90981 488.981532615719
39.92992 453.002975817584
39.95004 495.086311753988
39.97015 516.962327177245
39.99026 523.040400551822
40.01038 485.029499133088
40.03049 496.96974633741
40.05061 563.010056401886
40.07072 555.032064075822
40.09083 608.983651938294
40.11095 543.945624976919
40.13106 613.775465948134
40.15117 685.010388476369
40.17129 658.974815544136
40.1914 781
40.21152 788.970229905743
40.23163 783.049979149063
40.25174 814.948425702241
40.27186 759.997099996766
40.29197 791.076794780381
40.31208 683.025856563877
40.3322 740
40.35231 652.964473917501
40.37242 643.996027641065
40.39254 603.881036370321
40.41265 556.050613601568
40.43277 557.994496377552
40.45288 537.051105208636
40.47299 472.027904548894
40.49311 459.020756043973
40.51322 517.02412197461
40.53333 490.935872467459
40.55345 473.039150765212
40.57356 496.009893797381
40.59368 475.987046898059
40.61379 524.980233973335
40.6339 516
40.65402 462.982093365692
40.67413 493.082357176294
40.69424 520.94267016763
40.71436 457.094294508271
40.73447 455.964308603432
40.75458 482.970575032031
40.7747 505
40.79481 493.992184065305
40.81493 490.019554409254
40.83504 514.046601214228
40.85515 512.101030132515
40.87527 470.984852132449
40.89538 511.003334348018
40.91549 466.005715686881
40.93561 506.017001791526
40.95572 509.003628793265
40.97584 515.962641788453
40.99595 467.870879502787
41.01606 452.925404019776
41.03618 511.966056065364
41.05629 504.010347464935
41.0764 491
41.09652 484.016275856945
41.11663 504.98584093149
41.13675 481.030981348722
41.15686 520.984892820868
41.17697 488.032862111376
41.19709 496.995868264167
41.2172 481
41.23731 475.027204177414
41.25743 552.039573900692
41.27754 511.899833540542
41.29765 495.982629923097
41.31777 501.015346898571
41.33788 488.986828234951
41.358 520
41.37811 509.996546449232
41.39822 505.971749870624
41.41834 472.012912207737
41.43845 511.949677734956
41.45856 503.983264732866
41.47868 537.976246061563
41.49879 529.014346330006
41.51891 508.00077089423
41.53902 520.998682370398
41.55913 505.99651444662
41.57925 515.989444726152
41.59936 488.068538898926
41.61947 473.975776083016
41.63959 498.998862163746
41.6597 500
41.67982 578.023809719517
41.69993 533.930116680089
41.72004 527.021070668315
41.74016 537.967434019639
41.76027 546.028628040097
41.78038 507.032258446958
41.8005 513
41.82061 558.9945984102
41.84072 494.939773767784
41.86084 473.996315002524
41.88095 470.017266434827
41.90107 469.973657599232
41.92118 488.009712558539
41.94129 466.993763062446
41.96141 502.000732076422
41.98152 463.972558179267
42.00163 475.041840343744
42.02175 490.991075930172
42.04186 484.967815689514
42.06198 499.036935572353
42.08209 439.002712228119
42.1022 484
42.12232 446.974532030473
42.14243 463.038622700295
42.16254 479.035934204663
42.18266 503.951148969884
42.20277 522.976964718388
42.22289 526.010070026777
42.243 508
42.26311 565.027283132647
42.28323 605.076146140644
42.30334 659.046090057458
42.32345 669.873601457489
42.34357 768.846413940405
42.36368 839.952633447211
42.38379 876.984674445026
42.40391 884.98217185755
42.42402 827.965643299806
42.44414 809.898537951477
42.46425 720.793540071957
42.48436 683.988994473852
42.50448 692.025369071428
42.52459 631.031026199075
42.5447 584
42.56482 540.988657508651
42.58493 546.975792662554
42.60505 506.935552664116
42.62516 502.029511733428
42.64527 471.033580675167
42.66539 460.010584683226
42.6855 431
42.70561 441.006879224992
42.72573 458.056874029131
42.74584 480.907921593725
42.76595 413.962185461512
42.78607 496.949928204181
42.80618 447.049692083758
42.8263 450
42.84641 453.985230416486
42.86652 409.973705795807
42.88664 404.977104069541
42.90675 386.991198511707
42.92686 412.957473474677
42.94698 416.998903981087
42.96709 421.000871256197
42.98721 417.002951033712
43.00732 426.996063943224
43.02743 417.014691660595
43.04755 442.02415257213
43.06766 445.924466579299
43.08777 478.080113852449
43.10789 368.028104156314
43.128 413
43.14812 460.997133318289
43.16823 425.948894315498
43.18834 412.991986952444
43.20846 416.953697016108
43.22857 447.976332323201
43.24868 425.062179321186
43.2688 383
43.28891 466.014015894786
43.30902 427.982879537262
43.32914 450.991675118127
43.34925 407.071528553199
43.36937 422.947268859846
43.38948 437.02253863893
43.40959 404.999276827695
43.42971 440.012791640817
43.44982 440.000583952864
43.46993 448.998477464451
43.49005 432.956169135355
43.51016 427.982961671402
43.53028 432.019427086996
43.55039 404.001171135148
43.5705 436
43.59062 448.973950301769
43.61073 404.956307730349
43.63084 397.980999611402
43.65096 390.949384812288
43.67107 423.025623348503
43.69119 385.985739058423
43.7113 467
43.73141 425.97702981162
43.75153 423.027527474198
43.77164 436.004767312807
43.79175 419.098893409626
43.81187 383.003161906101
43.83198 407.98511556454
43.85209 401.001810523464
43.87221 396.983362486842
43.89232 360.014308251173
43.91244 423.10782872982
43.93255 435.991255619917
43.95266 436.996462597705
43.97278 430.021452972675
43.99289 407.002720273112
44.013 422
44.03312 421.973034440262
44.05323 397.020891646225
44.07335 439.055624532345
44.09346 412.115889297242
44.11357 379.949711202783
44.13369 446.986112801341
44.1538 429
44.17391 452.991651361352
44.19403 388.918353484031
44.21414 395.123453149563
44.23426 444.056984452898
44.25437 378.993973156204
44.27448 452.961331799072
44.2946 415
44.31471 394.996030657244
44.33482 393.017032988733
44.35494 418.017013825444
44.37505 406.030537621675
44.39516 408.973050316982
44.41528 428.973130888264
44.43539 434.023162952598
44.45551 381.007687502291
44.47562 449.029798448927
44.49573 409.92745173969
44.51585 408.103859894469
44.53596 449.003117303921
44.55607 408.053460820544
44.57619 407.989200289547
44.5963 427
44.61642 419.990744928167
44.63653 427.046846301856
44.65664 455.98370514735
44.67676 424.014862379228
44.69687 444.992137274476
44.71698 428.001436084096
44.7371 442
44.75721 421.007414814613
44.77732 471.035928046173
44.79744 454.885365268291
44.81755 406.993431102548
44.83767 439.000922468811
44.85778 397.02974659786
44.87789 415.974591007842
44.89801 458.004220156463
44.91812 447.007892527058
44.93823 468.989374426752
44.95835 426.901166261527
44.97846 413.997370453039
44.99858 418.989329528141
45.01869 427.002606507738
45.0388 429
45.05892 479.000053663792
45.07903 434.965978793132
45.09914 457.050654156411
45.11926 445.097024518774
45.13937 400.997541903596
45.15949 441.983706791389
45.1796 453
45.19971 491.010400481608
45.21983 485.98802280597
45.23994 477.944695252608
45.26005 445.008876993524
45.28017 472.959388126086
45.30028 480.997254524634
45.32039 489.993648088528
45.34051 491.989623299134
45.36062 467.001640062635
45.38074 493.034611805406
45.40085 489.993937061222
45.42096 491.027003469236
45.44108 475.985284554634
45.46119 505.00185341874
45.4813 478
45.50142 521.026721794003
45.52153 496.91503237703
45.54165 472.134359206903
45.56176 561.92949605462
45.58187 530.033508879119
45.60199 541.004386915502
45.6221 527
45.64221 614.016332726569
45.66233 602.067002001563
45.68244 708.139728343225
45.70256 710.004085775796
45.72267 731.985671985548
45.74278 712.03003325591
45.7629 703
45.78301 720.98031782144
45.80312 644.960164622032
45.82324 642.932085515705
45.84335 575.081839949914
45.86346 594.955985439534
45.88358 583.031278745306
45.90369 553.011078520544
45.92381 528.979336717935
45.94392 471.945619348635
45.96403 453.04821873412
45.98415 492.971569298575
46.00426 439.05655653978
46.02437 455.97845565529
46.04449 435.020497778158
46.0646 407
46.08472 435.02723017809
46.10483 447.010428929866
46.12494 452.997339912358
46.14506 449.985418694655
46.16517 456.02828059002
46.18528 423.012282733985
46.2054 434
46.22551 420.998805916989
46.24563 433.006644819313
46.26574 422.981025012747
46.28585 421.998215978461
46.30597 427.96761491057
46.32608 448.009547661924
46.34619 426.993117798715
46.36631 456.99059791997
46.38642 409.007594153031
46.40653 471.045815511411
46.42665 446.95819974856
46.44676 458.004714295015
46.46688 429.027442751731
46.48699 425.991705113258
46.5071 442
46.52722 428.993057904364
46.54733 438.024139086922
46.56744 452.022472476689
46.58756 447.068053978365
46.60767 409.005103886422
46.62779 440.985301848775
46.6479 440
46.66801 424.003296606555
46.68813 440.997440419047
46.70824 420.982186635913
46.72835 425.025838805341
46.74847 417.937929014975
46.76858 486.970462113239
46.78869 448.034851320039
46.80881 406.00380452122
46.82892 438.00948495703
46.84904 419.992226962486
46.86915 442.045727078875
46.88926 443.9955032607
46.90938 446.01547107362
46.92949 406.026845362219
46.9496 381
46.96972 452.045940367741
46.98983 442.947107475007
47.00995 425.036394859067
47.03006 454.974513111756
47.05017 439.035908463799
47.07029 432.99132532966
47.0904 456
47.11051 434.983880056515
47.13063 418.015569771137
47.15074 433.975696693093
47.17086 407.983054698709
47.19097 440.005504640724
47.21108 415.969640519027
47.2312 477
47.25131 405.985250613992
47.27142 443.024392532335
47.29154 422.964964337089
47.31165 423.034637651338
47.33176 399.991047268124
47.35188 429.983498620532
47.37199 421.003864592609
47.39211 432.010190950683
47.41222 444.997807281451
47.43233 432.98696169151
47.45245 436.025441420136
47.47256 435.051830286825
47.49267 398.029818784162
47.51279 410.983202349125
47.5329 427
47.55302 396.033830645846
47.57313 472.041014995148
47.59324 426.897516982614
47.61336 419.95511165828
47.63347 437.012658066401
47.65358 409.021315812588
47.6737 413
47.69381 441.01440509114
47.71393 460.004528429605
47.73404 455.001623593199
47.75415 450.089695378182
47.77427 413.969196424659
47.79438 475.969084387432
47.81449 459.0048302286
47.83461 471.997867923101
47.85472 435.957935120602
47.87483 418.017142802633
47.89495 453.118312396331
47.91506 479.037660739815
47.93518 438.017028106521
47.95529 459.984952337329
47.9754 469
47.99552 452.992403178543
48.01563 448.972345967602
48.03574 427.007330311909
48.05586 451.974869739006
48.07597 443.009495475306
48.09609 454.989179151696
48.1162 464
48.13631 433.99303078973
48.15643 435.984687045016
48.17654 416.001850745581
48.19665 430.028400630557
48.21677 400.004714692614
48.23688 431.970329570726
48.257 435
48.27711 424.996762079548
48.29722 429.01903615244
48.31734 449.003962387897
48.33745 424.902039485705
48.35756 394.018259514518
48.37768 408.971717184968
48.39779 435.989351641329
48.4179 436
48.43802 398.999761084349
48.45813 438.060050189472
48.47825 442.928066780955
48.49836 415.981133520722
48.51847 445.004134586331
48.53859 407.012474856009
48.5587 421
48.57881 444.00584793111
48.59893 431.932567139878
48.61904 375.929968754112
48.63916 382.922609903248
48.65927 418.987090174316
48.67938 412.98336301568
48.6995 437
48.71961 387.997535011173
48.73972 434.032500252817
48.75984 422.958407815564
48.77995 419.977708275604
48.80006 425.017582858577
48.82018 410.003457084499
48.84029 421.993199035418
48.86041 430.00437475272
48.88052 436.9961768595
48.90063 434.027706417468
48.92075 457.981721900898
48.94086 415.091275335275
48.96097 398.978883166813
48.98109 422.993508685227
49.0012 411
49.02132 397.030172920299
49.04143 448.030134954247
49.06154 428.969330305347
49.08166 438.971431684324
49.10177 434.040270235034
49.12188 404.011234907301
49.142 426
49.16211 462.998074999999
49.18223 431.978215520694
49.20234 447.028880662045
49.22245 446.996268334968
49.24257 455.990510067311
49.26268 448.023764374025
49.28279 427.997393094486
49.30291 450.004391480294
49.32302 437.989420098901
49.34313 434.983194931809
49.36325 421.01156496333
49.38336 439.984843939825
49.40348 425.023076934061
49.42359 416.991947433196
49.4437 445
49.46382 441.985359142338
49.48393 420.952908402521
49.50404 397.011807226621
49.52416 422.97282764598
49.54427 417.001111838266
49.56439 434.987444705308
49.5845 454
49.60461 461.00483348684
49.62473 461.961681912473
49.64484 427.987747757826
49.66495 451.9498490596
49.68507 442.048517704337
49.70518 412.009938001888
49.7253 435
49.74541 486.013235826452
49.76552 474.962329459907
49.78564 442.991726061466
49.80575 463.046772372066
49.82586 476.939042958602
49.84598 510.997659240753
49.86609 503.979554227366
49.8862 579
49.90632 571.011398619044
49.92643 630.105006496029
49.94655 702.249247988611
49.96666 821.794213009114
49.98677 903.86474838137
50.00689 1028.92289734708
50.027 1211
50.04711 1405.06541657931
50.06723 1468.05146925575
50.08734 1489.97108319328
50.10746 1424.21389056268
50.12757 1299.19046388971
50.14768 1183.10457286176
50.1678 1094
50.18791 1054.99470698235
50.20802 1032.92695256585
50.22814 930.864940611541
50.24825 893.18433287143
50.26837 759.224625374293
50.28848 634.100327148856
50.30859 565.014100283832
50.32871 554.988582916748
50.34882 509.955268045371
50.36893 476.953469388578
50.38905 467.101564938898
50.40916 510.06584995626
50.42927 424.056232835155
50.44939 468.970033668438
50.4695 488
50.48962 470.991350940512
50.50973 476.015262246054
50.52984 486.025479990606
50.54996 493.020844592172
50.57007 480.979092609431
50.59018 519.964962528481
50.6103 524
50.63041 482.978637768681
50.65053 457.999448574285
50.67064 467.999096035971
50.69075 458.987108541103
50.71087 474.003462573123
50.73098 452.016675351588
50.75109 452.996863279097
50.77121 457.00324743073
50.79132 470.018516128804
50.81143 480.986585271785
50.83155 456.945778817376
50.85166 450.987471521508
50.87178 462.985346961645
50.89189 462.016016836566
50.912 418
50.93212 433.028497157007
50.95223 457.034731141165
50.97234 475.008452148033
50.99246 458.073691089946
51.01257 425.008862482862
51.03269 438.998238898511
51.0528 433
51.07291 466.007121204182
51.09303 445.949046438975
51.11314 423.992635588528
51.13325 438.930888860484
51.15337 467.963617851549
51.17348 467.040982127915
51.1936 416
51.21371 443.015321521953
51.23382 439.964285551714
51.25394 402.985575599715
51.27405 427.928547738067
51.29416 438.0054985046
51.31428 424.029389246911
51.33439 397.00100644294
51.3545 419
51.37462 418.977874708322
51.39473 406.040910131934
51.41485 453.036798236865
51.43496 432.017309293814
51.45507 445.005959969589
51.47519 421.004050930124
51.4953 425
51.51541 390.004474841707
51.53553 437.035150487176
51.55564 410.919177845851
51.57576 385.033402082955
51.59587 374.004250719406
51.61598 381.980999625741
51.6361 404
51.65621 417.010089807764
51.67632 438.004452433898
51.69644 430.001502380541
51.71655 438.018565312784
51.73667 408.054903754327
51.75678 386.99839041257
51.77689 399.996917073484
51.79701 390.992844860978
51.81712 396.039204863135
51.83723 432.97435665872
51.85735 373.907846253769
51.87746 383.963100686993
51.89757 387.992527914836
51.91769 396.001290625944
51.9378 385
51.95792 394.010967698119
51.97803 392.975304077694
51.99814 380.026143886621
52.01826 413.946909484076
52.03837 424.977892782813
52.05848 430.037730216386
52.0786 379
52.09871 429.019119667119
52.11883 428.995593071089
52.13894 433.977025837136
52.15905 397.115444178094
52.17917 372.978306342988
52.19928 414.958254313518
52.21939 430.005627843802
52.23951 414.000194336402
52.25962 434.021712307795
52.27974 436.962650933046
52.29985 404.915578540194
52.31996 390.966882091677
52.34008 420.984555883248
52.36019 410.010767690546
52.3803 398
52.40042 403.995308209802
52.42053 403.047417443466
52.44064 437.95970883223
52.46076 380.038597692919
52.48087 418.938500933193
52.50099 417.017073144584
52.5211 383
52.54121 391.001774033063
52.56133 396.05460394769
52.58144 446.030416421919
52.60155 418.078480468389
52.62167 403.026836330887
52.64178 392.971694717658
52.6619 440
52.68201 417.993384748287
52.70212 425.996316631555
52.72224 401.960217715033
52.74235 397.007943522867
52.76246 400.940572561658
52.78258 443.975654473839
52.80269 435.012746515582
52.8228 425
52.84292 455.001290796305
52.86303 427.973961021663
52.88315 433.00655830794
52.90326 434.944868729771
52.92337 469.00832042578
52.94349 430.009966724123
52.9636 446
52.98371 450.006587714946
53.00383 472.012462853359
53.02394 454.936618223365
53.04406 435.977772181395
53.06417 462.983022541728
53.08428 453.005484531673
53.1044 458
53.12451 439.992040010932
53.14462 440.014351803728
53.16474 465.066422388483
53.18485 492.973249154739
53.20497 481.042743057311
53.22508 461.989171693124
53.24519 499.979137453875
53.26531 511.98574399742
53.28542 472.991704624688
53.30553 502.048082112222
53.32565 506.953517226321
53.34576 486.010686969714
53.36587 497.980071853796
53.38599 504.995532945972
53.4061 517
53.42622 507.969205680777
53.44633 488.043404083277
53.46644 540.021708954008
53.48656 498.084332346032
53.50667 497.951005730096
53.52678 527.999119591161
53.5469 511
53.56701 544.017849291883
53.58713 556.987452558507
53.60724 535.947508651261
53.62735 511.059055496058
53.64747 492.015387482618
53.66758 494.983197268489
53.68769 513.995673002888
53.70781 513.001175687566
53.72792 533.038720559951
53.74804 570.025824919504
53.76815 547.88507242195
53.78826 504.051231817168
53.80838 508.967489972586
53.82849 542.994074121653
53.8486 530
53.86872 530.018042914599
53.88883 540.966724112021
53.90894 497.949896955522
53.92906 507.952344618014
53.94917 527.971089523069
53.96929 532.014628333162
53.9894 488
54.00951 500.009979579417
54.02963 509.006554984178
54.04974 511.996736971733
54.06985 504.031659367545
54.08997 495.993080105263
54.11008 506.996926491538
54.1302 508
54.15031 530.99633737276
54.17042 499.98637923745
54.19054 509.998461568466
54.21065 485.069573996696
54.23076 482.936800992074
54.25088 528.967559591478
54.27099 532.007504726562
54.29111 511.988452048911
54.31122 489.982026822022
54.33133 498.079979248138
54.35145 556.004535721528
54.37156 499.114679581567
54.39167 491.944753825606
54.41179 536.988430587939
54.4319 526
54.45201 499.988915891323
54.47213 499.05401910399
54.49224 541.001295224209
54.51236 501.064667635063
54.53247 498.994605377484
54.55258 496.994008751025
54.5727 510
54.59281 512.00895618679
54.61292 532.991799080737
54.63304 517.059575233646
54.65315 583.898123218472
54.67327 571.047965872302
54.69338 568.957550060941
54.71349 632.976489302792
54.73361 651.007150629504
54.75372 683.045106822183
54.77383 745.128943723605
54.79395 818.034924487863
54.81406 784.051030029217
54.83417 789.993079314177
54.85429 770.017326172575
54.8744 735
54.89452 712.985001243842
54.91463 694.956060631085
54.93474 666.989663005574
54.95486 671.043027615243
54.97497 622.064433586935
54.99508 600.018701136441
55.0152 575
55.03531 574.015638292133
55.05543 599.957987476088
55.07554 540.963767564503
55.09565 568.980213174486
55.11577 536.0424643259
55.13588 551.945539453259
55.15599 597.003800613863
55.17611 545.979110344849
55.19622 548.028627866946
55.21634 594.141367978182
55.23645 646.960328370444
55.25656 589.044051157591
55.27668 614.991242346571
55.29679 591.00348261686
55.3169 608
55.33702 581.987488254878
55.35713 574.930186697022
55.37724 513.990985510857
55.39736 563.937149101605
55.41747 543.052324614099
55.43759 528.998171373138
55.4577 528
55.47781 492.993623104969
55.49793 513.04637676914
55.51804 531.004886720002
55.53815 513.101081128465
55.55827 486.957763313814
55.57838 532.0158422162
55.5985 468
55.61861 504.00836748944
55.63872 472.968939525333
55.65884 463.976377893794
55.67895 451.960942726975
55.69906 472.053513755788
55.71918 430.97079419348
55.73929 518.97506002633
55.75941 489.973761047687
55.77952 462.993010475248
55.79963 464.004334250154
55.81975 463.996012124828
55.83986 462.998983294984
55.85997 460.018523259964
55.88009 455.985974922362
55.9002 490
55.92031 446.993326158788
55.94043 462.974832938732
55.96054 421.00511098817
55.98066 463.981371554623
56.00077 428.028690191772
56.02088 446.983766637428
56.041 434
56.06111 416.00132584466
56.08122 435.020267813657
56.10134 443.999614097717
56.12145 440.011380227176
56.14157 441.981336812574
56.16168 449.018398110316
56.18179 423.996228859013
56.20191 450.997030045458
56.22202 410.977274723344
56.24213 431.056033988829
56.26225 464.078840529317
56.28236 482.022882764737
56.30248 448.03368229041
56.32259 440.988117910544
56.3427 467
56.36282 440.995280504897
56.38293 464.022288902462
56.40304 444.913994324466
56.42316 418.954117008346
56.44327 461.996623187559
56.46338 426.010695061015
56.4835 459
56.50361 458.991810752432
56.52373 441.975090394907
56.54384 443.070299111344
56.56395 477.049009258636
56.58407 428.002363236685
56.60418 471.989384729633
56.62429 429.018836051624
56.64441 424.999873117278
56.66452 418.005799664373
56.68464 448.091684921214
56.70475 478.982158848772
56.72486 434.117453347613
56.74498 408.96650765339
56.76509 459.998961265909
56.7852 413
56.80532 435.042207816748
56.82543 456.988189929862
56.84554 430.954298089031
56.86566 414.057514616231
56.88577 396.945050380155
56.90589 449.006867501592
56.926 392
56.94611 462.019215392345
56.96623 438.974347822506
56.98634 445.964877571656
57.00645 407.019783408271
57.02657 438.957384629031
57.04668 435.022069304574
57.0668 420
57.08691 438.009039884799
57.10702 438.981110967442
57.12714 422.019439373776
57.14725 457.909036759981
57.16736 472.01256001301
57.18748 461.002127234344
57.20759 465.003073090874
57.22771 450.998453053802
57.24782 453.985717238183
57.26793 427.987235746533
57.28805 441.024202193148
57.30816 436.012705202816
57.32827 436.994358138878
57.34839 443.992415624243
57.3685 453
57.38861 423.995972290405
57.40873 434.992831194427
57.42884 408.964393025067
57.44896 414.967510067822
57.46907 427.985690243721
57.48918 428.015549641613
57.5093 413
57.52941 429.994807242832
57.54952 400.997692134238
57.56964 434.063471726777
57.58975 444.983811858906
57.60987 448.024135625065
57.62998 419.019579415742
57.65009 423.988655968926
57.67021 431.983773715091
57.69032 404.047428853217
57.71043 476.965936570568
57.73055 379.927857697335
57.75066 446.902864585642
57.77078 434.004380663871
57.79089 452.008063218388
57.811 412
57.83112 468.050604315709
57.85123 472.964133584047
57.87134 441.934599819851
57.89146 415.036109846804
57.91157 419.940674057327
57.93168 471.970241273173
57.9518 451
57.97191 389.994571458719
57.99203 421.029794316144
58.01214 415.011596774843
58.03225 439.966385323578
58.05237 418.075987322553
58.07248 376.998709672899
58.09259 417.977375295474
58.11271 440.002877024046
58.13282 432.976487741905
58.15294 404.967573756543
58.17305 407.027377331672
58.19316 414.995576704671
58.21328 410.010931669346
58.23339 409.986697903691
58.2535 442
58.27362 413.985537967944
58.29373 429.028905431412
58.31385 422.910229440276
58.33396 389.983849066597
58.35407 425.980738861297
58.37419 404.008692412077
58.3943 414
58.41441 422.995232033298
58.43453 414.025905533949
58.45464 447.024559954178
58.47475 429.053740162609
58.49487 429.965550528419
58.51498 452.001851771923
58.5351 433
58.55521 436.991450549789
58.57532 408.000184907566
58.59544 442.062919370837
58.61555 442.061330891864
58.63566 422.980278056146
58.65578 446.003276689357
58.67589 430.986382423955
58.69601 483.002299430078
58.71612 432.960129428067
58.73623 438.031156076309
58.75635 435.914083767843
58.77646 402.975393543409
58.79657 439.008416710659
58.81669 399.000697132298
58.8368 435
58.85691 400.003819600469
58.87703 445.000234518859
58.89714 399.982549483725
58.91726 444.931228355091
58.93737 431.054748298313
58.95748 415.974887202657
58.9776 457
58.99771 437.993417392732
59.01782 445.003478242133
59.03794 447.052261088657
59.05805 473.061083962904
59.07817 421.008961945778
59.09828 465.972938615353
59.11839 450.007780056982
59.13851 445.987725115919
59.15862 408.991312739035
59.17873 445.084832648539
59.19885 485.023180991048
59.21896 463.079604244767
59.23908 434.002114811703
59.25919 461.977442886241
59.2793 495
59.29942 461.940082230535
59.31953 422.027205809462
59.33964 485.112929201358
59.35976 488.093920911121
59.37987 440.00465806459
59.39998 479.964893346029
59.4201 482
59.44021 481.00772052257
59.46033 494.983332303918
59.48044 469.99200484591
59.50055 487.984636101313
59.52067 486.954810231332
59.54078 533.989551346629
59.56089 509.003016995716
59.58101 512.975443340655
59.60112 439.996410431103
59.62124 512.121757445722
59.64135 515.965967934598
59.66146 514.995059494209
59.68158 523.97233245045
59.70169 556.99392802115
59.7218 563
59.74192 622.02087022634
59.76203 620.069353830459
59.78215 730.2926800071
59.80226 812.879348429587
59.82237 875.885865485613
59.84249 971.945095520599
59.8626 1065
59.88271 1078.00571282247
59.90283 1091.97911156037
59.92294 1060.986659746
59.94305 1036.31406366929
59.96317 849.183798855923
59.98328 829.999767170938
60.0034 806
60.02351 828.010478400055
60.04362 822.973619168374
60.06374 788.936177736117
60.08385 760.083892446804
60.10396 693.239534286811
60.12408 572.04809691505
60.14419 583.008289491612
60.16431 515.973684897776
60.18442 499.979505027062
60.20453 473.009324639934
60.22465 498.982044950961
60.24476 457.050158134752
60.26487 461.008482372611
60.28499 440.999967697684
60.3051 464
60.32522 457.99340947309
60.34533 461.00472901737
60.36544 453.963959238554
60.38556 440.981415073489
60.40567 462.988256830693
60.42578 447.022542261659
60.4459 435
60.46601 445.010729045336
60.48612 448.957129185958
60.50624 395.001423973706
60.52635 440.959998520074
60.54647 405.052304586632
60.56658 404.984042576228
60.58669 420.990635060376
60.60681 436.000820325638
60.62692 424.986607403688
60.64703 416.992851055267
60.66715 428.10384329663
60.68726 461.060141196347
60.70738 390.034827505038
60.72749 423.970636118788
60.7476 450
60.76772 407.977793141818
60.78783 421.035295894164
60.80794 425.963473274997
60.82806 404.996253175133
60.84817 422.997002161914
60.86828 410.991820532845
60.8884 447
60.90851 454.987983912754
60.92863 424.990527017896
60.94874 436.991517766822
60.96885 410.053130668472
60.98897 416.95551713686
61.00908 436.019876808341
61.02919 402.995872985438
61.04931 450.014245845419
61.06942 440.991052831733
61.08954 446.99678751554
61.10965 436.000811288261
61.12976 446.005315315709
61.14988 433.995671145831
61.16999 450.001395221745
61.1901 434
61.21022 456.996085921726
61.23033 436.021888374353
61.25045 484.066021365254
61.27056 461.09102410472
61.29067 430.008201467226
61.31079 443.991790085768
61.3309 459
61.35101 493.012261337456
61.37113 477.898217597908
61.39124 420.057804254189
61.41135 507.896859101197
61.43147 474.049619533035
61.45158 483.980637897128
61.4717 484
61.49181 476.007472301774
61.51192 500.002545472379
61.53204 485.003308106721
61.55215 501.01542336384
61.57226 481.971871084415
61.59238 511.020606653376
61.61249 458.001524574339
61.63261 511.016303529472
61.65272 494.98285828839
61.67283 505.027253344733
61.69295 511.987909843892
61.71306 510.962095789969
61.73317 535.99905853455
61.75329 510.012104517851
61.7734 505
61.79352 525.054249371994
61.81363 572.97347636265
61.83374 509.942480141879
61.85386 544.902313913237
61.87397 552.062019063944
61.89408 511.981682474364
61.9142 561
61.93431 512.001687175679
61.95442 576.036892114925
61.97454 556.966250246413
61.99465 552.101721494557
62.01477 496.998583284212
62.03488 567.915827282537
62.05499 593.025520094155
62.07511 518.987002301011
62.09522 551.029867535104
62.11533 547.98941341813
62.13545 560.063335340842
62.15556 580.991898479153
62.17568 565.026814972209
62.19579 549.994641379492
62.2159 568
62.23602 541.994142206083
62.25613 543.938587622066
62.27624 484.998481166878
62.29636 543.912916657173
62.31647 529.06361656674
62.33659 495.010009106476
62.3567 482
62.37681 482.026338019277
62.39693 549.010693878609
62.41704 494.914056525817
62.43715 500.946307243399
62.45727 508.005934041964
62.47738 501.005569987488
62.49749 498.001812433124
62.51761 499.00705597782
62.53772 510.985978493132
62.55784 479.970335326543
62.57795 483.982476608203
62.59806 461.02735871651
62.61818 460.009747309461
62.63829 447.993055862484
62.6584 485
62.67852 475.954656613924
62.69863 429.982620542244
62.71875 453.058307989852
62.73886 459.984714507564
62.75897 461.045255292389
62.77909 424.995594656855
62.7992 472
62.81931 450.979063332413
62.83943 424.999403381246
62.85954 444.0455136034
62.87965 451.032609479654
62.89977 437.982857222417
62.91988 462.997023053857
62.94 441
62.96011 446.001612947447
62.98022 445.013249939315
63.00034 471.036930773609
63.02045 459.112756746712
63.04056 413.022053301522
63.06068 437.973913837688
63.08079 439.007854461578
63.10091 436.015428265566
63.12102 470.987821298295
63.14113 433.013076889213
63.16125 479.003714351991
63.18136 427.064857463503
63.20147 446.950602239671
63.22159 451.013832641728
63.2417 422
63.26182 455.026741709806
63.28193 448.955348297979
63.30204 420.98155464524
63.32216 427.992009547695
63.34227 423.9967016898
63.36238 437.983011930897
63.3825 440
63.40261 419.007964569704
63.42272 440.961684519378
63.44284 387.083506691189
63.46295 496.905380217891
63.48307 433.084272852192
63.50318 447.959542121622
63.52329 465.005103145163
63.54341 444.995754582625
63.56352 455.014389272675
63.58363 469.033870046744
63.60375 473.879710114542
63.62386 402.059349209781
63.64398 430.960977855542
63.66409 444.000550116493
63.6842 438
63.70432 428.008107484569
63.72443 443.998847379814
63.74454 431.00759782818
63.76466 461.922117864949
63.78477 487.984585099721
63.80489 493.99220371156
63.825 514
63.84511 498.989772065579
63.86523 490.007918683317
63.88534 517.106475359774
63.90545 563.994270701754
63.92557 533.022450239756
63.94568 561.948579562927
63.96579 596.001364993506
63.98591 571.994741605844
64.00602 577.991142715669
64.02614 536.882602555302
64.04625 495.997381275649
64.06636 516.993426934971
64.08648 504.985289861726
64.10659 533.007238362571
64.1267 483
64.14682 505.020289693968
64.16693 508.023537514833
64.18705 523.934143795416
64.20716 470.046969711524
64.22727 483.00251890642
64.24739 450.014650117982
64.2675 449
64.28761 466.003697296236
64.30773 461.987678088153
64.32784 447.943389953209
64.34796 419.013294660185
64.36807 455.881553922864
64.38818 509.040725669383
64.4083 410
64.42841 443.027516604755
64.44852 457.975826701403
64.46864 419.945802450179
64.48875 427.892805280274
64.50886 462.038137175013
64.52898 407.028692095359
64.54909 423.989866212985
64.56921 434.014116083015
64.58932 470.004159230946
64.60943 435.94132539165
64.62955 417.992994610262
64.64966 419.000676003294
64.66977 416.002695306141
64.68989 416.999230473068
64.71 415
64.73012 413.015945906127
64.75023 432.996016558208
64.77034 417.012940640087
64.79046 447.957445315501
64.81057 436.052587695583
64.83068 395.039097274276
64.8508 383
64.87091 429.003824461997
64.89102 405.001759782385
64.91114 441.042585003609
64.93125 432.015981772096
64.95137 439.002719498665
64.97148 414.039982831303
64.99159 388.993732150937
65.01171 422.006789847281
65.03182 414.007678278818
65.05193 442.023283702243
65.07205 429.944489083784
65.09216 413.026114835579
65.11228 404.999941659222
65.13239 408.99957955147
65.1525 407
65.17262 421.024764866691
65.19273 434.972890206384
65.21284 413.047057831234
65.23296 464.973697914473
65.25307 424.065457736416
65.27319 415.992475053433
65.2933 430
65.31341 419.995932721651
65.33353 410.961820006178
65.35364 377.968948231299
65.37375 404.826953566034
65.39387 468.985122898859
65.41398 420.06363973984
65.43409 387.998565495361
65.45421 415.018566496084
65.47432 428.970899091122
65.49444 381.961311319877
65.51455 398.035895347589
65.53466 394.998666937558
65.55478 417.957464088926
65.57489 455.994406908057
65.595 446
65.61512 450.988347195509
65.63523 428.9990946501
65.65535 441.968284619127
65.67546 408.022417091077
65.69557 429.967158110786
65.71569 440.988906523804
65.7358 460
65.75591 423.004273734489
65.77603 473.038703637342
65.79614 449.936849378998
65.81626 439.995809289566
65.83637 440.009656336002
65.85648 438.979308026441
65.8766 449
65.89671 373.991854773976
65.91682 419.025391730583
65.93694 399.984281760205
65.95705 416.999834601672
65.97716 395.014526152733
65.99728 413.980207526494
66.01739 415.006103315056
66.03751 395.987669857339
66.05762 383.015364156808
66.07773 405.989695617965
66.09785 377.992523906538
66.11796 403.974328982919
66.13807 407.938454844846
66.15819 467.993121607638
66.1783 433
66.19842 442.996951938814
66.21853 406.933566327038
66.23864 377.972483279908
66.25876 382.94475693515
66.27887 430.90798005079
66.29898 465.028231022911
66.3191 399
66.33921 404.010255435732
66.35933 414.009409717654
66.37944 427.046181439929
66.39955 445.015533061957
66.41967 413.06010321991
66.43978 387.006617800193
66.45989 392.996633244921
66.48001 405.01671579834
66.50012 436.990884205389
66.52023 405.004302807436
66.54035 436.994676081711
66.56046 395.04814125661
66.58058 417.958136679942
66.60069 444.997114254637
66.6208 425
66.64092 383.988169967583
66.66103 391.989419922032
66.68114 374.02016633415
66.70126 421.888540066925
66.72137 439.059065306452
66.74149 386.002627627306
66.7616 420
66.78171 385.995469431506
66.80183 410.004318056847
66.82194 392.030453205558
66.84205 424.055030667632
66.86217 367.998087287497
66.88228 439.935816092309
66.90239 435.028937002651
66.92251 365.973297502497
66.94262 363.056737420056
66.96274 426.011232536014
66.98285 383.957101424693
67.00296 416.928010027201
67.02308 419.022447283135
67.04319 397.002888634764
67.0633 421
67.08342 456.978854892529
67.10353 390.914878868193
67.12365 381.053958216206
67.14376 408.952136129921
67.16387 420.001813554025
67.18399 421.990105329194
67.2041 439
67.22421 405.007310150871
67.24433 454.011428030941
67.26444 410.944674360418
67.28456 427.949417985058
67.30467 440.975978372397
67.32478 459.993853408436
67.3449 440
67.36501 407.004855528645
67.38512 458.058509999572
67.40524 470.894117295794
67.42535 398.063331172659
67.44546 424.965110673928
67.46558 427.954709664939
67.48569 506.977017011302
67.50581 508.004890173904
67.52592 538.007558998061
67.54603 535.060750087181
67.56615 608.099173332744
67.58626 612.933872222297
67.60637 693.873604320073
67.62649 741.992485876395
67.6466 753
67.66672 813.069477222381
67.68683 847.960474272425
67.70694 778.867993613294
67.72706 717.19918661838
67.74717 611.054120499127
67.76728 639.986544449857
67.7874 604
67.80751 605.018034466315
67.82763 659.087637380731
67.84774 700.027413825986
67.86785 689.059140929166
67.88797 670.0128441302
67.90808 672.989949551809
67.92819 673.011350233397
67.94831 648.003112166204
67.96842 695.063613466742
67.98853 747.052224216271
68.00865 767.029768570532
68.02876 814.760845141916
68.04888 954.929900381027
68.06899 955.989360505574
68.0891 1017
68.10922 983.943069538824
68.12933 915.844596114903
68.14944 834.047207471828
68.16956 930.893375509717
68.18967 891.101024871214
68.20979 887.956120068373
68.2299 972
68.25001 864.004720676679
68.27013 971.002363545677
68.29024 837.810764559639
68.31035 823.160163277002
68.33047 688.143370105346
68.35058 650.070347810388
68.3707 562
68.39081 630.003096601074
68.41092 558.964922068758
68.43104 599.083869590527
68.45115 596.950949145895
68.47126 571.093354354037
68.49138 516.034996911022
68.51149 505.005228330434
68.5316 486
68.55172 473.968812251589
68.57183 440.000175027969
68.59195 464.002698245926
68.61206 441.997029213614
68.63217 461.023849150381
68.65229 412.013548018447
68.6724 429
68.69251 433.988877851591
68.71263 406.991863309737
68.73274 430.064500234442
68.75286 444.026444478022
68.77297 423.996202222513
68.79308 440.009019399008
68.8132 399
68.83331 393.016214835011
68.85342 442.039594559071
68.87354 450.964328379022
68.89365 430.009888045207
68.91376 434.033815071731
68.93388 397.026657087062
68.95399 402.984535472855
68.97411 432.003661806159
68.99422 428.01436091755
69.01433 451.992506452509
69.03445 421.968765436033
69.05456 429.026949889275
69.07467 398.007691203537
69.09479 417.001047140874
69.1149 397
69.13502 437.019567069137
69.15513 421.978379894546
69.17524 415.95090394079
69.19536 372.072295576111
69.21547 369.951649972437
69.23558 414.964669239061
69.2557 429
69.27581 434.005437528327
69.29593 446.006907183726
69.31604 439.977052987761
69.33615 432.99368390587
69.35627 436.015750441998
69.37638 423.987313218619
69.39649 449.999292910888
69.41661 434.005808148497
69.43672 465.999973186119
69.45683 422.933123998088
69.47695 410.028476642757
69.49706 422.007870559541
69.51718 403.016604319408
69.53729 401.994683302365
69.5574 408
69.57752 396.015662403665
69.59763 421.985422474141
69.61774 387.99816018876
69.63786 421.973616707967
69.65797 403.010878652757
69.67809 422.990681137564
69.6982 421
69.71831 418.010416634372
69.73843 441.989381927823
69.75854 414.996594724306
69.77865 443.950842062573
69.79877 430.04832658061
69.81888 397.030955663376
69.839 388
69.85911 430.003400262262
69.87922 401.983830887
69.89934 408.990575038455
69.91945 394.027452774961
69.93956 426.971275577317
69.95968 410.02085237654
69.97979 403.999792533826
69.9999 406
70.02002 424.03036847729
70.04013 448.999460850765
70.06025 424.934619710676
70.08036 403.063888559552
70.10047 389.925392526939
70.12059 460.997193254216
70.1407 406
70.16081 432.002503908898
70.18093 407.010801227513
70.20104 448.028584272643
70.22116 413.092222180839
70.24127 393.986226054201
70.26138 412.99081613763
70.2815 407
70.30161 411.006518242957
70.32172 419.993687351336
70.34184 405.994493219489
70.36195 411.023649738258
70.38207 392.99717664129
70.40218 410.001199107251
70.42229 386.008933139346
70.44241 393.010951228531
70.46252 411.004854159759
70.48263 409.009587873101
70.50275 419.991199035401
70.52286 415.943230537514
70.54297 450.030770069881
70.56309 381.025149185591
70.5832 382
70.60332 399.029118815277
70.62343 417.958366252537
70.64354 376.026049208196
70.66366 431.965797789046
70.68377 399.019700074267
70.70388 424.985697299621
70.724 403
70.74411 393.009173459002
70.76423 424.032015822742
70.78434 418.947373691516
70.80445 401.954393762897
70.82457 436.989350495678
70.84468 412.016559522725
70.86479 415.003299859235
70.88491 396.999116303248
70.90502 400.971914746616
70.92513 370.050176532797
70.94525 445.064984673404
70.96536 405.066008016594
70.98548 414.983487005677
71.00559 418.995653351919
71.0257 421
71.04582 371.984638226991
71.06593 394.021732856102
71.08604 387.004066669487
71.10616 404.979900190232
71.12627 393.036618616077
71.14639 379.993483385848
71.1665 407
71.18661 394.987872690909
71.20673 388.03957538269
71.22684 419.986957271332
71.24695 380.059796071719
71.26707 401.927159753383
71.28718 425.036108534803
71.3073 358
71.32741 388.033104090455
71.34752 425.973180532408
71.36764 380.034158286916
71.38775 446.94780752343
71.40786 410.02251661556
71.42798 437.006107694079
71.44809 394.005961762833
71.4682 418
71.48832 382.991149502299
71.50843 414.040094654811
71.52855 414.993242169379
71.54866 419.996068140847
71.56877 416.003266316108
71.58889 416.002609803502
71.609 404
71.62911 401.005737772792
71.64923 429.062299588126
71.66934 454.967048039012
71.68946 413.046163254202
71.70957 419.992986784995
71.72968 410.004518116415
71.7498 424
71.76991 430.982998876754
71.79002 389.006220530231
71.81014 440.072440995009
71.83025 427.093981343521
71.85037 402.994468465869
71.87048 417.007203968255
71.89059 400.990367125573
71.91071 443.003801312548
71.93082 402.956112952653
71.95093 396.041709492723
71.97105 424.996032185997
71.99116 403.995309212607
72.01127 441.935572947789
72.03139 446.024362594344
72.0515 390
72.07162 429.010332482513
72.09173 391.951152981673
72.11184 404.091155709928
72.13196 445.977820207511
72.15207 427.032584611735
72.17218 425.983944118927
72.1923 436
72.21241 406.995068881382
72.23253 413.984289798209
72.25264 398.049560714822
72.27275 441.020522432245
72.29287 393.010381672423
72.31298 432.98831130787
72.33309 405.001913824497
72.35321 432.000261771704
72.37332 407.007584114106
72.39344 445.016171076155
72.41355 417.981176804909
72.43366 434.021404223328
72.45378 401.000321548781
72.47389 428.00303523409
72.494 395
72.51412 433.996746253815
72.53423 386.973048693731
72.55434 419.06146255227
72.57446 423.989281759953
72.59457 442.971144814192
72.61469 443.012775127728
72.6348 410
72.65491 420.009373860384
72.67503 426.986756414243
72.69514 406.955306418569
72.71525 401.941115027515
72.73537 432.991422700879
72.75548 414.010402004782
72.7756 426
72.79571 428.997738250183
72.81582 418.982267613405
72.83594 410.037574721463
72.85605 438.002054766651
72.87616 411.025232899813
72.89628 421.996704592447
72.91639 411.000268338367
72.9365 435
72.95662 448.963370686472
72.97673 390.966064499093
72.99685 418.087426274871
73.01696 434.972439141843
73.03707 444.019188315786
73.05719 412.015535648266
73.0773 402
73.09741 426.012981672162
73.11753 439.996718495655
73.13764 429.989274228964
73.15776 428.024170014765
73.17787 428.923916900656
73.19798 488.012019681235
73.2181 418
73.23821 451.02087428344
73.25832 454.978353880642
73.27844 429.964210379771
73.29855 435.909084438473
73.31867 490.91853551844
73.33878 522.993852233305
73.35889 524.988643448617
73.37901 561.008172448156
73.39912 557.007346266862
73.41923 582.02557806963
73.43935 571.922574043334
73.45946 534.072071100452
73.47957 504.041063213537
73.49969 481.006345879977
73.5198 483
73.53992 502.013652122954
73.56003 496.957488706615
73.58014 466.990309897415
73.60026 485.970442471782
73.62037 484.005442022971
73.64048 481.01518426374
73.6606 467
73.68071 487.990633951006
73.70083 434.948461491068
73.72094 433.990542407211
73.74105 414.02305756634
73.76117 420.000142402286
73.78128 410.999307756316
73.80139 432.981971482971
73.82151 449.98570977362
73.84162 401.985666548945
73.86174 438.100714930588
73.88185 468.02446915261
73.90196 455.077302663238
73.92208 412.022162055871
73.94219 416.993125921837
73.9623 424
73.98242 417.977360823477
74.00253 395.001499949454
74.02264 414.01375449162
74.04276 395.056589876535
74.06287 386.961281537257
74.08299 425.991342636332
74.1031 417
74.12321 417.990361196039
74.14333 375.940219824445
74.16344 369.0652965554
74.18355 407.988582613165
74.20367 387.991643457713
74.22378 419.99122395433
74.2439 393
74.26401 400.016951048755
74.28412 434.012353730854
74.30424 412.910601784805
74.32435 370.060344845349
74.34446 374.943564733354
74.36458 401.993397229371
74.38469 400.988461700037
74.40481 434.999743453743
74.42492 400.978848469661
74.44503 397.962157796993
74.46515 364.028868829828
74.48526 406.988252907349
74.50537 376.994700974164
74.52549 411.00420547116
74.5456 374
74.56571 445.012482959278
74.58583 399.934516649592
74.60594 391.98346792607
74.62606 380.95992590215
74.64617 420.977967969496
74.66628 390.051637539713
74.6864 364
74.70651 413.016526467294
74.72662 424.025024514992
74.74674 446.936600338814
74.76685 385.035755783326
74.78697 422.973758359343
74.80708 400.010718875365
74.82719 410.00675518955
74.84731 382.005572531926
74.86742 430.028774641061
74.88753 407.926669542207
74.90765 380.043997457159
74.92776 417.983446180022
74.94787 388.040568298139
74.96799 382.003824647067
74.9881 368
75.00822 386.027903378618
