3.00117 19090
3.02128 18521
3.0414 18141
3.06151 17563
3.08162 17019
3.10174 16478
3.12185 16288
3.14197 15503
3.16208 15181
3.18219 14949
3.20231 14305
3.22242 13825
3.24253 13610
3.26265 13005
3.28276 12547
3.30288 12160
3.32299 11821
3.3431 11649
3.36322 11303
3.38333 10560
3.40344 10314
3.42356 10116
3.44367 9646
3.46379 9512
3.4839 9057
3.50401 8539
3.52413 8659
3.54424 8128
3.56435 7769
3.58447 7519
3.60458 7253
3.62469 7022
3.64481 6701
3.66492 6534
3.68504 6122
3.70515 5811
3.72526 5934
3.74538 5377
3.76549 5312
3.7856 4959
3.80572 4831
3.82583 4657
3.84595 4523
3.86606 4275
3.88617 3913
3.90629 3934
3.9264 3815
3.94651 3666
3.96663 3502
3.98674 3191
4.00686 3175
4.02697 3092
4.04708 2893
4.0672 2775
4.08731 2564
4.10742 2452
4.12754 2557
4.14765 2377
4.16776 2190
4.18788 1961
4.20799 2016
4.22811 1956
4.24822 1922
4.26833 1868
4.28845 1702
4.30856 1591
4.32867 1689
4.34879 1580
4.3689 1621
4.38902 1455
4.40913 1390
4.42924 1445
4.44936 1469
4.46947 1348
4.48958 1348
4.5097 1230
4.52981 1262
4.54992 1316
4.57004 1198
4.59015 1186
4.61027 1098
4.63038 1137
4.65049 1139
4.67061 1053
4.69072 1098
4.71083 923
4.73095 995
4.75106 978
4.77118 929
4.79129 846
4.8114 908
4.83152 832
4.85163 851
4.87174 834
4.89186 896
4.91197 778
4.93209 844
4.9522 738
4.97231 780
4.99243 741
5.01254 665
5.03265 677
5.05277 744
5.07288 645
5.09299 628
5.11311 623
5.13322 590
5.15334 677
5.17345 548
5.19356 638
5.21368 570
5.23379 615
5.2539 582
5.27402 539
5.29413 554
5.31425 492
5.33436 489
5.35447 528
5.37459 515
5.3947 512
5.41481 511
5.43493 499
5.45504 476
5.47516 468
5.49527 469
5.51538 446
5.5355 433
5.55561 414
5.57572 425
5.59584 413
5.61595 469
5.63606 394
5.65618 414
5.67629 373
5.69641 428
5.71652 384
5.73663 374
5.75675 376
5.77686 334
5.79697 378
5.81709 373
5.8372 385
5.85732 371
5.87743 352
5.89754 334
5.91766 354
5.93777 365
5.95788 355
5.978 337
5.99811 364
6.01823 326
6.03834 357
6.05845 285
6.07857 318
6.09868 314
6.11879 342
6.13891 328
6.15902 298
6.17913 321
6.19925 307
6.21936 329
6.23948 327
6.25959 310
6.2797 328
6.29982 299
6.31993 319
6.34004 294
6.36016 292
6.38027 300
6.40039 292
6.4205 318
6.44061 332
6.46073 270
6.48084 314
6.50095 312
6.52107 310
6.54118 288
6.56129 295
6.58141 291
6.60152 317
6.62164 265
6.64175 254
6.66186 303
6.68198 317
6.70209 290
6.7222 324
6.74232 287
6.76243 317
6.78255 306
6.80266 273
6.82277 303
6.84289 265
6.863 309
6.88311 292
6.90323 281
6.92334 300
6.94346 280
6.96357 303
6.98368 265
7.0038 265
7.02391 289
7.04402 295
7.06414 270
7.08425 293
7.10436 276
7.12448 284
7.14459 265
7.16471 266
7.18482 290
7.20493 253
7.22505 282
7.24516 273
7.26527 261
7.28539 297
7.3055 275
7.32562 321
7.34573 307
7.36584 286
7.38596 304
7.40607 268
7.42618 286
7.4463 250
7.46641 268
7.48653 280
7.50664 308
7.52675 262
7.54687 254
7.56698 292
7.58709 260
7.60721 258
7.62732 288
7.64743 256
7.66755 256
7.68766 253
7.70778 279
7.72789 254
7.748 281
7.76812 291
7.78823 269
7.80834 226
7.82846 247
7.84857 266
7.86869 269
7.8888 239
7.90891 235
7.92903 241
7.94914 253
7.96925 263
7.98937 264
8.00948 259
8.0296 277
8.04971 245
8.06982 307
8.08994 251
8.11005 264
8.13016 298
8.15028 258
8.17039 259
8.1905 249
8.21062 251
8.23073 255
8.25085 263
8.27096 240
8.29107 254
8.31119 277
8.3313 245
8.35141 270
8.37153 284
8.39164 265
8.41176 255
8.43187 253
8.45198 255
8.4721 269
8.49221 258
8.51232 284
8.53244 255
8.55255 260
8.57266 272
8.59278 271
8.61289 275
8.63301 262
8.65312 270
8.67323 240
8.69335 245
8.71346 275
8.73357 258
8.75369 227
8.7738 268
8.79392 281
8.81403 270
8.83414 288
8.85426 275
8.87437 275
8.89448 252
8.9146 274
8.93471 259
8.95483 266
8.97494 216
8.99505 276
9.01517 231
9.03528 263
9.05539 267
9.07551 290
9.09562 302
9.11573 284
9.13585 244
9.15596 277
9.17608 247
9.19619 236
9.2163 280
9.23642 246
9.25653 263
9.27664 241
9.29676 268
9.31687 263
9.33699 234
9.3571 210
9.37721 244
9.39733 232
9.41744 252
9.43755 274
9.45767 250
9.47778 239
9.4979 240
9.51801 223
9.53812 234
9.55824 241
9.57835 262
9.59846 289
9.61858 251
9.63869 238
9.6588 247
9.67892 276
9.69903 234
9.71915 259
9.73926 262
9.75937 278
9.77949 237
9.7996 229
9.81971 262
9.83983 248
9.85994 258
9.88006 215
9.90017 295
9.92028 255
9.9404 233
9.96051 247
9.98062 223
10.00074 255
10.02085 233
10.04097 226
10.06108 228
10.08119 250
10.10131 236
10.12142 288
10.14153 251
10.16165 188
10.18176 262
10.20187 258
10.22199 250
10.2421 208
10.26222 263
10.28233 252
10.30244 230
10.32256 250
10.34267 227
10.36278 258
10.3829 252
10.40301 249
10.42313 271
10.44324 262
10.46335 237
10.48347 241
10.50358 255
10.52369 263
10.54381 266
10.56392 250
10.58403 267
10.60415 229
10.62426 245
10.64438 268
10.66449 215
10.6846 243
10.70472 238
10.72483 250
10.74494 230
10.76506 237
10.78517 242
10.80529 257
10.8254 237
10.84551 238
10.86563 217
10.88574 256
10.90585 237
10.92597 249
10.94608 238
10.9662 233
10.98631 222
11.00642 255
11.02654 286
11.04665 238
11.06676 233
11.08688 255
11.10699 249
11.1271 251
11.14722 227
11.16733 245
11.18745 239
11.20756 280
11.22767 272
11.24779 264
11.2679 252
11.28801 290
11.30813 236
11.32824 254
11.34836 240
11.36847 253
11.38858 259
11.4087 246
11.42881 226
11.44892 226
11.46904 253
11.48915 249
11.50927 247
11.52938 258
11.54949 270
11.56961 235
11.58972 263
11.60983 222
11.62995 261
11.65006 244
11.67017 242
11.69029 235
11.7104 237
11.73052 251
11.75063 262
11.77074 258
11.79086 235
11.81097 231
11.83108 235
11.8512 239
11.87131 268
11.89143 237
11.91154 255
11.93165 263
11.95177 216
11.97188 234
11.99199 238
12.01211 225
12.03222 247
12.05234 234
12.07245 234
12.09256 222
12.11268 267
12.13279 236
12.1529 241
12.17302 245
12.19313 248
12.21324 245
12.23336 232
12.25347 234
12.27359 266
12.2937 205
12.31381 230
12.33393 237
12.35404 228
12.37415 239
12.39427 222
12.41438 250
12.4345 244
12.45461 241
12.47472 228
12.49484 231
12.51495 229
12.53506 244
12.55518 208
12.57529 244
12.5954 206
12.61552 194
12.63563 240
12.65575 222
12.67586 211
12.69597 258
12.71609 203
12.7362 215
12.75631 198
12.77643 228
12.79654 227
12.81666 194
12.83677 213
12.85688 208
12.877 221
12.89711 215
12.91722 239
12.93734 219
12.95745 230
12.97757 190
12.99768 212
13.01779 234
13.03791 212
13.05802 235
13.07813 217
13.09825 195
13.11836 209
13.13847 221
13.15859 213
13.1787 248
13.19882 216
13.21893 225
13.23904 213
13.25916 182
13.27927 216
13.29938 227
13.3195 201
13.33961 215
13.35973 197
13.37984 223
13.39995 220
13.42007 222
13.44018 219
13.46029 210
13.48041 213
13.50052 213
13.52064 203
13.54075 224
13.56086 205
13.58098 222
13.60109 237
13.6212 243
13.64132 209
13.66143 244
13.68154 203
13.70166 233
13.72177 248
13.74189 214
13.762 187
13.78211 197
13.80223 225
13.82234 220
13.84245 212
13.86257 248
13.88268 199
13.9028 212
13.92291 253
13.94302 231
13.96314 205
13.98325 248
14.00336 204
14.02348 207
14.04359 202
14.06371 191
14.08382 193
14.10393 201
14.12405 209
14.14416 205
14.16427 200
14.18439 175
14.2045 184
14.22461 190
14.24473 201
14.26484 205
14.28496 180
14.30507 198
14.32518 196
14.3453 203
14.36541 207
14.38552 226
14.40564 190
14.42575 190
14.44587 178
14.46598 195
14.48609 226
14.50621 182
14.52632 203
14.54643 190
14.56655 203
14.58666 207
14.60677 218
14.62689 196
14.647 183
14.66712 191
14.68723 199
14.70734 208
14.72746 206
14.74757 213
14.76768 195
14.7878 180
14.80791 180
14.82803 203
14.84814 189
14.86825 197
14.88837 220
14.90848 232
14.92859 219
14.94871 249
14.96882 226
14.98894 216
15.00905 173
15.02916 212
15.04928 187
15.06939 174
15.0895 195
15.10962 211
15.12973 189
15.14984 195
15.16996 215
15.19007 204
15.21019 193
15.2303 217
15.25041 209
15.27053 172
15.29064 195
15.31075 189
15.33087 202
15.35098 237
15.3711 187
15.39121 183
15.41132 199
15.43144 184
15.45155 176
15.47166 191
15.49178 179
15.51189 167
15.53201 171
15.55212 198
15.57223 162
15.59235 196
15.61246 200
15.63257 180
15.65269 190
15.6728 188
15.69291 187
15.71303 185
15.73314 197
15.75326 181
15.77337 175
15.79348 174
15.8136 177
15.83371 196
15.85382 215
15.87394 180
15.89405 202
15.91417 202
15.93428 188
15.95439 192
15.97451 191
15.99462 192
16.01473 186
16.03485 200
16.05496 198
16.07508 183
16.09519 204
16.1153 187
16.13542 212
16.15553 163
16.17564 202
16.19576 190
16.21587 173
16.23598 185
16.2561 164
16.27621 193
16.29633 189
16.31644 201
16.33655 190
16.35667 174
16.37678 193
16.39689 162
16.41701 190
16.43712 188
16.45724 205
16.47735 145
16.49746 175
16.51758 196
16.53769 190
16.5578 188
16.57792 181
16.59803 181
16.61814 165
16.63826 201
16.65837 197
16.67849 195
16.6986 161
16.71871 189
16.73883 177
16.75894 195
16.77905 188
16.79917 195
16.81928 148
16.8394 177
16.85951 199
16.87962 213
16.89974 195
16.91985 203
16.93996 161
16.96008 176
16.98019 174
17.00031 205
17.02042 183
17.04053 180
17.06065 194
17.08076 175
17.10087 184
17.12099 178
17.1411 176
17.16121 156
17.18133 171
17.20144 194
17.22156 194
17.24167 166
17.26178 200
17.2819 212
17.30201 182
17.32212 165
17.34224 186
17.36235 169
17.38247 185
17.40258 182
17.42269 200
17.44281 180
17.46292 170
17.48303 176
17.50315 169
17.52326 189
17.54338 170
17.56349 206
17.5836 160
17.60372 163
17.62383 179
17.64394 193
17.66406 156
17.68417 177
17.70428 169
17.7244 179
17.74451 165
17.76463 162
17.78474 175
17.80485 190
17.82497 171
17.84508 159
17.86519 185
17.88531 200
17.90542 151
17.92554 174
17.94565 180
17.96576 175
17.98588 165
18.00599 184
18.0261 167
18.04622 191
18.06633 175
18.08645 192
18.10656 164
18.12667 169
18.14679 189
18.1669 191
18.18701 177
18.20713 158
18.22724 198
18.24735 177
18.26747 158
18.28758 173
18.3077 221
18.32781 195
18.34792 182
18.36804 177
18.38815 177
18.40826 184
18.42838 196
18.44849 176
18.46861 162
18.48872 168
18.50883 172
18.52895 160
18.54906 170
18.56917 188
18.58929 186
18.6094 157
18.62951 175
18.64963 185
18.66974 199
18.68986 190
18.70997 184
18.73008 183
18.7502 183
18.77031 198
18.79042 202
18.81054 192
18.83065 224
18.85077 207
18.87088 219
18.89099 177
18.91111 195
18.93122 191
18.95133 198
18.97145 176
18.99156 159
19.01168 156
19.03179 170
19.0519 190
19.07202 208
19.09213 211
19.11224 170
19.13236 200
19.15247 195
19.17258 182
19.1927 182
19.21281 188
19.23293 202
19.25304 201
19.27315 208
19.29327 176
19.31338 204
19.33349 197
19.35361 194
19.37372 209
19.39384 189
19.41395 215
19.43406 210
19.45418 213
19.47429 240
19.4944 234
19.51452 240
19.53463 240
19.55475 291
19.57486 211
19.59497 255
19.61509 272
19.6352 269
19.65531 262
19.67543 283
19.69554 295
19.71565 308
19.73577 302
19.75588 332
19.776 334
19.79611 311
19.81622 334
19.83634 360
19.85645 325
19.87656 326
19.89668 340
19.91679 367
19.93691 315
19.95702 331
19.97713 330
19.99725 296
20.01736 296
20.03747 290
20.05759 299
20.0777 274
20.09782 304
20.11793 297
20.13804 290
20.15816 308
20.17827 346
20.19838 302
20.2185 320
20.23861 312
20.25872 337
20.27884 333
20.29895 341
20.31907 363
20.33918 342
20.35929 361
20.37941 375
20.39952 359
20.41963 375
20.43975 364
20.45986 378
20.47998 417
20.50009 422
20.5202 449
20.54032 447
20.56043 498
20.58054 477
20.60066 519
20.62077 562
20.64088 628
20.661 707
20.68111 939
20.70123 1110
20.72134 1651
20.74145 2152
20.76157 3110
20.78168 4413
20.80179 6120
20.82191 7675
20.84202 8874
20.86214 8983
20.88225 7671
20.90236 5728
20.92248 3972
20.94259 2505
20.9627 1408
20.98282 926
21.00293 694
21.02305 665
21.04316 543
21.06327 535
21.08339 496
21.1035 464
21.12361 400
21.14373 418
21.16384 413
21.18395 367
21.20407 348
21.22418 360
21.2443 329
21.26441 283
21.28452 358
21.30464 328
21.32475 311
21.34486 303
21.36498 305
21.38509 300
21.40521 302
21.42532 313
21.44543 315
21.46555 300
21.48566 281
21.50577 256
21.52589 252
21.546 267
21.56612 262
21.58623 272
21.60634 275
21.62646 293
21.64657 267
21.66668 251
21.6868 270
21.70691 263
21.72702 227
21.74714 269
21.76725 244
21.78737 261
21.80748 273
21.82759 260
21.84771 272
21.86782 238
21.88793 266
21.90805 293
21.92816 290
21.94828 271
21.96839 297
21.9885 308
22.00862 315
22.02873 355
22.04884 320
22.06896 315
22.08907 309
22.10919 309
22.1293 268
22.14941 237
22.16953 278
22.18964 266
22.20975 259
22.22987 252
22.24998 250
22.27009 270
22.29021 253
22.31032 277
22.33044 260
22.35055 239
22.37066 216
22.39078 223
22.41089 253
22.431 235
22.45112 233
22.47123 228
22.49135 211
22.51146 217
22.53157 226
22.55169 227
22.5718 247
22.59191 248
22.61203 238
22.63214 235
22.65225 235
22.67237 247
22.69248 236
22.7126 236
22.73271 211
22.75282 223
22.77294 241
22.79305 241
22.81316 244
22.83328 250
22.85339 227
22.87351 232
22.89362 244
22.91373 245
22.93385 217
22.95396 266
22.97407 267
22.99419 282
23.0143 247
23.03442 282
23.05453 267
23.07464 262
23.09476 262
23.11487 229
23.13498 272
23.1551 274
23.17521 274
23.19532 308
23.21544 297
23.23555 274
23.25567 260
23.27578 247
23.29589 236
23.31601 257
23.33612 231
23.35623 209
23.37635 225
23.39646 223
23.41658 231
23.43669 237
23.4568 261
23.47692 233
23.49703 282
23.51714 257
23.53726 254
23.55737 284
23.57749 279
23.5976 267
23.61771 269
23.63783 248
23.65794 238
23.67805 215
23.69817 253
23.71828 248
23.73839 265
23.75851 241
23.77862 256
23.79874 257
23.81885 243
23.83896 264
23.85908 260
23.87919 251
23.8993 294
23.91942 313
23.93953 338
23.95965 308
23.97976 347
23.99987 375
24.01999 380
24.0401 310
24.06021 298
24.08033 300
24.10044 278
24.12056 293
24.14067 267
24.16078 300
24.1809 294
24.20101 301
24.22112 284
24.24124 324
24.26135 312
24.28146 304
24.30158 249
24.32169 312
24.34181 286
24.36192 250
24.38203 234
24.40215 234
24.42226 241
24.44237 238
24.46249 246
24.4826 231
24.50272 205
24.52283 254
24.54294 212
24.56306 212
24.58317 275
24.60328 207
24.6234 252
24.64351 252
24.66362 227
24.68374 245
24.70385 249
24.72397 234
24.74408 242
24.76419 225
24.78431 249
24.80442 240
24.82453 222
24.84465 236
24.86476 264
24.88488 256
24.90499 239
24.9251 262
24.94522 212
24.96533 259
24.98544 242
25.00556 242
25.02567 231
25.04579 250
25.0659 232
25.08601 214
25.10613 215
25.12624 239
25.14635 248
25.16647 229
25.18658 250
25.20669 270
25.22681 229
25.24692 242
25.26704 239
25.28715 235
25.30726 282
25.32738 250
25.34749 234
25.3676 282
25.38772 281
25.40783 274
25.42795 280
25.44806 304
25.46817 336
25.48829 319
25.5084 340
25.52851 334
25.54863 313
25.56874 328
25.58886 339
25.60897 324
25.62908 339
25.6492 349
25.66931 398
25.68942 399
25.70954 381
25.72965 442
25.74976 433
25.76988 451
25.78999 432
25.81011 441
25.83022 495
25.85033 446
25.87045 482
25.89056 488
25.91067 474
25.93079 513
25.9509 485
25.97102 505
25.99113 532
26.01124 526
26.03136 508
26.05147 541
26.07158 613
26.0917 526
26.11181 614
26.13193 631
26.15204 726
26.17215 672
26.19227 747
26.21238 785
26.23249 896
26.25261 910
26.27272 1042
26.29283 1085
26.31295 1248
26.33306 1418
26.35318 1520
26.37329 1863
26.3934 1983
26.41352 2486
26.43363 3102
26.45374 4098
26.47386 5524
26.49397 7464
26.51409 10233
26.5342 14235
26.55431 19672
26.57443 26522
26.59454 33566
26.61465 39474
26.63477 40901
26.65488 35637
26.67499 27867
26.69511 20947
26.71522 15745
26.73534 9735
26.75545 5227
26.77556 2960
26.79568 2148
26.81579 1758
26.8359 1560
26.85602 1465
26.87613 1318
26.89625 1202
26.91636 1110
26.93647 927
26.95659 902
26.9767 860
26.99681 787
27.01693 788
27.03704 700
27.05716 620
27.07727 605
27.09738 580
27.1175 558
27.13761 556
27.15772 501
27.17784 511
27.19795 426
27.21806 430
27.23818 481
27.25829 471
27.27841 471
27.29852 486
27.31863 514
27.33875 484
27.35886 525
27.37897 531
27.39909 535
27.4192 560
27.43932 602
27.45943 599
27.47954 532
27.49966 505
27.51977 509
27.53988 477
27.56 382
27.58011 437
27.60023 390
27.62034 444
27.64045 408
27.66057 402
27.68068 381
27.70079 417
27.72091 494
27.74102 448
27.76113 415
27.78125 457
27.80136 420
27.82148 439
27.84159 425
27.8617 427
27.88182 451
27.90193 441
27.92204 511
27.94216 485
27.96227 468
27.98239 419
28.0025 412
28.02261 357
28.04273 352
28.06284 360
28.08295 339
28.10307 381
28.12318 363
28.1433 362
28.16341 359
28.18352 333
28.20364 278
28.22375 331
28.24386 334
28.26398 318
28.28409 329
28.3042 339
28.32432 328
28.34443 304
28.36455 309
28.38466 278
28.40477 266
28.42489 308
28.445 273
28.46511 274
28.48523 258
28.50534 283
28.52546 250
28.54557 250
28.56568 263
28.5858 246
28.60591 263
28.62602 270
28.64614 262
28.66625 265
28.68636 290
28.70648 249
28.72659 278
28.74671 247
28.76682 247
28.78693 237
28.80705 248
28.82716 228
28.84727 241
28.86739 238
28.8875 261
28.90762 246
28.92773 245
28.94784 217
28.96796 261
28.98807 264
29.00818 240
29.0283 272
29.04841 271
29.06853 276
29.08864 240
29.10875 259
29.12887 245
29.14898 242
29.16909 238
29.18921 266
29.20932 263
29.22943 261
29.24955 210
29.26966 240
29.28978 264
29.30989 247
29.33 266
29.35012 230
29.37023 272
29.39034 296
29.41046 271
29.43057 291
29.45069 267
29.4708 256
29.49091 277
29.51103 253
29.53114 256
29.55125 247
29.57137 246
29.59148 252
29.6116 246
29.63171 256
29.65182 214
29.67194 211
29.69205 229
29.71216 236
29.73228 219
29.75239 224
29.7725 218
29.79262 234
29.81273 283
29.83285 256
29.85296 272
29.87307 237
29.89319 222
29.9133 249
29.93341 246
29.95353 236
29.97364 238
29.99376 241
30.01387 247
30.03398 251
30.0541 249
30.07421 262
30.09432 276
30.11444 260
30.13455 275
30.15467 302
30.17478 296
30.19489 305
30.21501 277
30.23512 301
30.25523 280
30.27535 244
30.29546 267
30.31557 265
30.33569 242
30.3558 256
30.37592 276
30.39603 248
30.41614 246
30.43626 228
30.45637 251
30.47648 236
30.4966 251
30.51671 253
30.53683 259
30.55694 220
30.57705 258
30.59717 260
30.61728 226
30.63739 256
30.65751 211
30.67762 223
30.69773 246
30.71785 235
30.73796 218
30.75808 230
30.77819 245
30.7983 238
30.81842 275
30.83853 230
30.85864 259
30.87876 252
30.89887 246
30.91899 237
30.9391 250
30.95921 206
30.97933 192
30.99944 212
31.01955 206
31.03967 215
31.05978 225
31.0799 206
31.10001 199
31.12012 210
31.14024 210
31.16035 230
31.18046 226
31.20058 203
31.22069 235
31.2408 219
31.26092 222
31.28103 227
31.30115 199
31.32126 212
31.34137 217
31.36149 218
31.3816 217
31.40171 224
31.42183 222
31.44194 209
31.46206 204
31.48217 208
31.50228 194
31.5224 178
31.54251 203
31.56262 216
31.58274 211
31.60285 218
31.62297 195
31.64308 203
31.66319 243
31.68331 208
31.70342 218
31.72353 172
31.74365 210
31.76376 184
31.78387 189
31.80399 197
31.8241 222
31.84422 188
31.86433 182
31.88444 201
31.90456 206
31.92467 153
31.94478 212
31.9649 214
31.98501 175
32.00513 199
32.02524 190
32.04535 202
32.06547 168
32.08558 191
32.10569 207
32.12581 217
32.14592 210
32.16604 191
32.18615 192
32.20626 210
32.22638 197
32.24649 192
32.2666 196
32.28672 213
32.30683 193
32.32694 202
32.34706 186
32.36717 206
32.38729 201
32.4074 222
32.42751 201
32.44763 199
32.46774 201
32.48785 195
32.50797 189
32.52808 198
32.5482 197
32.56831 159
32.58842 178
32.60854 187
32.62865 176
32.64876 181
32.66888 173
32.68899 180
32.7091 172
32.72922 182
32.74933 187
32.76945 173
32.78956 195
32.80967 191
32.82979 175
32.8499 186
32.87001 190
32.89013 205
32.91024 202
32.93036 215
32.95047 203
32.97058 179
32.9907 177
33.01081 210
33.03092 168
33.05104 182
33.07115 188
33.09127 198
33.11138 173
33.13149 179
33.15161 180
33.17172 196
33.19183 198
33.21195 183
33.23206 199
33.25217 182
33.27229 180
33.2924 169
33.31252 172
33.33263 168
33.35274 191
33.37286 203
33.39297 158
33.41308 173
33.4332 181
33.45331 171
33.47343 168
33.49354 179
33.51365 159
33.53377 161
33.55388 159
33.57399 182
33.59411 184
33.61422 188
33.63434 171
33.65445 190
33.67456 172
33.69468 166
33.71479 189
33.7349 172
33.75502 166
33.77513 179
33.79524 169
33.81536 188
33.83547 196
33.85559 188
33.8757 199
33.89581 192
33.91593 187
33.93604 208
33.95615 137
33.97627 193
33.99638 174
34.0165 180
34.03661 187
34.05672 168
34.07684 197
34.09695 195
34.11706 194
34.13718 183
34.15729 193
34.17741 186
34.19752 216
34.21763 182
34.23775 204
34.25786 211
34.27797 197
34.29809 190
34.3182 183
34.33831 184
34.35843 191
34.37854 200
34.39866 188
34.41877 176
34.43888 192
34.459 195
34.47911 203
34.49922 179
34.51934 246
34.53945 194
34.55957 220
34.57968 218
34.59979 206
34.61991 221
34.64002 229
34.66013 212
34.68025 208
34.70036 219
34.72047 237
34.74059 229
34.7607 236
34.78082 235
34.80093 228
34.82104 202
34.84116 237
34.86127 219
34.88138 224
34.9015 256
34.92161 237
34.94173 246
34.96184 247
34.98195 253
35.00207 278
35.02218 226
35.04229 250
35.06241 276
35.08252 238
35.10264 248
35.12275 235
35.14286 241
35.16298 244
35.18309 236
35.2032 242
35.22332 226
35.24343 237
35.26354 215
35.28366 252
35.30377 238
35.32389 235
35.344 210
35.36411 269
35.38423 250
35.40434 223
35.42445 254
35.44457 216
35.46468 230
35.4848 247
35.50491 235
35.52502 283
35.54514 248
35.56525 261
35.58536 231
35.60548 254
35.62559 252
35.64571 257
35.66582 238
35.68593 243
35.70605 215
35.72616 225
35.74627 208
35.76639 233
35.7865 206
35.80661 233
35.82673 249
35.84684 230
35.86696 246
35.88707 210
35.90718 249
35.9273 233
35.94741 223
35.96752 240
35.98764 241
36.00775 237
36.02787 263
36.04798 255
36.06809 210
36.08821 247
36.10832 250
36.12843 263
36.14855 257
36.16866 266
36.18878 290
36.20889 286
36.229 284
36.24912 332
36.26923 343
36.28934 418
36.30946 457
36.32957 481
36.34968 560
36.3698 596
36.38991 855
36.41003 996
36.43014 1242
36.45025 1499
36.47037 1936
36.49048 2318
36.51059 2585
36.53071 2786
36.55082 2414
36.57094 1915
36.59105 1608
36.61116 1511
36.63128 1402
36.65139 966
36.6715 713
36.69162 436
36.71173 364
36.73184 337
36.75196 272
36.77207 299
36.79219 284
36.8123 290
36.83241 302
36.85253 261
36.87264 299
36.89275 243
36.91287 255
36.93298 252
36.9531 251
36.97321 275
36.99332 260
37.01344 209
37.03355 217
37.05366 226
37.07378 235
37.09389 216
37.11401 233
37.13412 222
37.15423 217
37.17435 215
37.19446 197
37.21457 232
37.23469 190
37.2548 204
37.27491 218
37.29503 211
37.31514 234
37.33526 220
37.35537 191
37.37548 189
37.3956 212
37.41571 216
37.43582 226
37.45594 200
37.47605 195
37.49617 208
37.51628 198
37.53639 225
37.55651 216
37.57662 195
37.59673 212
37.61685 203
37.63696 192
37.65708 211
37.67719 233
37.6973 199
37.71742 223
37.73753 203
37.75764 195
37.77776 179
37.79787 197
37.81798 208
37.8381 203
37.85821 197
37.87833 180
37.89844 193
37.91855 173
37.93867 210
37.95878 208
37.97889 199
37.99901 190
38.01912 195
38.03924 199
38.05935 218
38.07946 180
38.09958 189
38.11969 210
38.1398 186
38.15992 221
38.18003 191
38.20015 198
38.22026 204
38.24037 183
38.26049 182
38.2806 201
38.30071 232
38.32083 226
38.34094 197
38.36105 187
38.38117 211
38.40128 208
38.4214 205
38.44151 227
38.46162 221
38.48174 219
38.50185 217
38.52196 196
38.54208 229
38.56219 197
38.58231 212
38.60242 219
38.62253 185
38.64265 186
38.66276 205
38.68287 216
38.70299 257
38.7231 191
38.74321 206
38.76333 215
38.78344 217
38.80356 217
38.82367 226
38.84378 223
38.8639 224
38.88401 212
38.90412 221
38.92424 231
38.94435 187
38.96447 203
38.98458 230
39.00469 215
39.02481 235
39.04492 257
39.06503 216
39.08515 261
39.10526 282
39.12538 245
39.14549 285
39.1656 314
39.18572 291
39.20583 351
39.22594 383
39.24606 457
39.26617 500
39.28628 606
39.3064 680
39.32651 849
39.34663 1117
39.36674 1313
39.38685 1638
39.40697 1969
39.42708 2384
39.44719 2496
39.46731 2330
39.48742 1969
39.50754 1569
39.52765 1346
39.54776 1316
39.56788 1111
39.58799 908
39.6081 614
39.62822 388
39.64833 319
39.66845 318
39.68856 286
39.70867 260
39.72879 252
39.7489 248
39.76901 264
39.78913 270
39.80924 238
39.82935 213
39.84947 239
39.86958 239
39.8897 246
39.90981 231
39.92992 227
39.95004 248
39.97015 243
39.99026 309
40.01038 281
40.03049 292
40.05061 301
40.07072 351
40.09083 337
40.11095 400
40.13106 476
40.15117 553
40.17129 667
40.1914 778
40.21152 912
40.23163 1123
40.25174 1208
40.27186 1268
40.29197 1192
40.31208 1008
40.3322 845
40.35231 777
40.37242 727
40.39254 660
40.41265 506
40.43277 377
40.45288 307
40.47299 240
40.49311 235
40.51322 251
40.53333 213
40.55345 245
40.57356 225
40.59368 224
40.61379 210
40.6339 169
40.65402 202
40.67413 212
40.69424 213
40.71436 212
40.73447 212
40.75458 216
40.7747 193
40.79481 201
40.81493 207
40.83504 199
40.85515 208
40.87527 206
40.89538 191
40.91549 182
40.93561 235
40.95572 189
40.97584 196
40.99595 172
41.01606 205
41.03618 182
41.05629 217
41.0764 213
41.09652 193
41.11663 192
41.13675 189
41.15686 220
41.17697 200
41.19709 204
41.2172 191
41.23731 176
41.25743 190
41.27754 194
41.29765 191
41.31777 193
41.33788 175
41.358 194
41.37811 172
41.39822 178
41.41834 194
41.43845 168
41.45856 199
41.47868 198
41.49879 195
41.51891 178
41.53902 211
41.55913 199
41.57925 198
41.59936 196
41.61947 211
41.63959 191
41.6597 218
41.67982 204
41.69993 211
41.72004 224
41.74016 210
41.76027 218
41.78038 230
41.8005 220
41.82061 237
41.84072 237
41.86084 215
41.88095 248
41.90107 218
41.92118 221
41.94129 210
41.96141 223
41.98152 216
42.00163 227
42.02175 227
42.04186 220
42.06198 216
42.08209 235
42.1022 268
42.12232 266
42.14243 271
42.16254 306
42.18266 298
42.20277 323
42.22289 390
42.243 422
42.26311 482
42.28323 539
42.30334 649
42.32345 785
42.34357 948
42.36368 1163
42.38379 1439
42.40391 1699
42.42402 1792
42.44414 1704
42.46425 1498
42.48436 1186
42.50448 974
42.52459 1015
42.5447 983
42.56482 769
42.58493 612
42.60505 456
42.62516 311
42.64527 273
42.66539 268
42.6855 254
42.70561 244
42.72573 240
42.74584 203
42.76595 215
42.78607 207
42.80618 232
42.8263 232
42.84641 186
42.86652 168
42.88664 198
42.90675 195
42.92686 193
42.94698 183
42.96709 176
42.98721 182
43.00732 164
43.02743 159
43.04755 206
43.06766 163
43.08777 192
43.10789 174
43.128 208
43.14812 173
43.16823 200
43.18834 179
43.20846 186
43.22857 164
43.24868 214
43.2688 201
43.28891 191
43.30902 171
43.32914 181
43.34925 159
43.36937 182
43.38948 186
43.40959 178
43.42971 182
43.44982 176
43.46993 176
43.49005 168
43.51016 177
43.53028 186
43.55039 163
43.5705 203
43.59062 203
43.61073 169
43.63084 163
43.65096 194
43.67107 154
43.69119 167
43.7113 175
43.73141 193
43.75153 172
43.77164 189
43.79175 203
43.81187 164
43.83198 196
43.85209 157
43.87221 160
43.89232 177
43.91244 158
43.93255 193
43.95266 197
43.97278 164
43.99289 177
44.013 173
44.03312 150
44.05323 136
44.07335 159
44.09346 191
44.11357 166
44.13369 168
44.1538 197
44.17391 194
44.19403 190
44.21414 170
44.23426 181
44.25437 153
44.27448 165
44.2946 154
44.31471 179
44.33482 169
44.35494 188
44.37505 175
44.39516 169
44.41528 153
44.43539 174
44.45551 157
44.47562 206
44.49573 184
44.51585 170
44.53596 176
44.55607 165
44.57619 172
44.5963 176
44.61642 189
44.63653 180
44.65664 186
44.67676 181
44.69687 152
44.71698 174
44.7371 199
44.75721 185
44.77732 175
44.79744 168
44.81755 198
44.83767 179
44.85778 182
44.87789 158
44.89801 179
44.91812 180
44.93823 175
44.95835 163
44.97846 175
44.99858 169
45.01869 174
45.0388 171
45.05892 178
45.07903 163
45.09914 184
45.11926 158
45.13937 174
45.15949 158
45.1796 192
45.19971 172
45.21983 183
45.23994 200
45.26005 188
45.28017 198
45.30028 202
45.32039 198
45.34051 203
45.36062 219
45.38074 203
45.40085 237
45.42096 200
45.44108 246
45.46119 251
45.4813 236
45.50142 226
45.52153 280
45.54165 273
45.56176 299
45.58187 370
45.60199 432
45.6221 453
45.64221 507
45.66233 578
45.68244 726
45.70256 851
45.72267 1000
45.74278 1086
45.7629 1253
45.78301 1176
45.80312 1098
45.82324 833
45.84335 709
45.86346 635
45.88358 694
45.90369 611
45.92381 538
45.94392 370
45.96403 320
45.98415 241
46.00426 213
46.02437 215
46.04449 211
46.0646 180
46.08472 174
46.10483 193
46.12494 166
46.14506 181
46.16517 193
46.18528 207
46.2054 168
46.22551 177
46.24563 169
46.26574 156
46.28585 163
46.30597 180
46.32608 177
46.34619 169
46.36631 170
46.38642 151
46.40653 175
46.42665 164
46.44676 176
46.46688 156
46.48699 174
46.5071 153
46.52722 149
46.54733 141
46.56744 165
46.58756 184
46.60767 177
46.62779 153
46.6479 185
46.66801 159
46.68813 170
46.70824 137
46.72835 166
46.74847 169
46.76858 156
46.78869 161
46.80881 179
46.82892 158
46.84904 166
46.86915 174
46.88926 167
46.90938 163
46.92949 171
46.9496 159
46.96972 166
46.98983 166
47.00995 162
47.03006 175
47.05017 189
47.07029 165
47.0904 177
47.11051 186
47.13063 158
47.15074 144
47.17086 164
47.19097 179
47.21108 156
47.2312 167
47.25131 173
47.27142 158
47.29154 148
47.31165 173
47.33176 171
47.35188 165
47.37199 163
47.39211 190
47.41222 169
47.43233 160
47.45245 167
47.47256 165
47.49267 176
47.51279 157
47.5329 156
47.55302 176
47.57313 168
47.59324 163
47.61336 181
47.63347 178
47.65358 156
47.6737 163
47.69381 172
47.71393 155
47.73404 172
47.75415 143
47.77427 140
47.79438 152
47.81449 154
47.83461 174
47.85472 156
47.87483 159
47.89495 174
47.91506 153
47.93518 158
47.95529 174
47.9754 174
47.99552 163
48.01563 162
48.03574 156
48.05586 173
48.07597 166
48.09609 175
48.1162 177
48.13631 163
48.15643 147
48.17654 164
48.19665 174
48.21677 169
48.23688 147
48.257 167
48.27711 162
48.29722 163
48.31734 144
48.33745 162
48.35756 181
48.37768 163
48.39779 169
48.4179 167
48.43802 184
48.45813 162
48.47825 177
48.49836 174
48.51847 148
48.53859 175
48.5587 184
48.57881 180
48.59893 185
48.61904 172
48.63916 166
48.65927 153
48.67938 181
48.6995 134
48.71961 182
48.73972 183
48.75984 196
48.77995 161
48.80006 175
48.82018 175
48.84029 188
48.86041 174
48.88052 192
48.90063 181
48.92075 179
48.94086 182
48.96097 183
48.98109 204
49.0012 181
49.02132 183
49.04143 189
49.06154 163
49.08166 152
49.10177 179
49.12188 177
49.142 188
49.16211 183
49.18223 186
49.20234 183
49.22245 157
49.24257 196
49.26268 176
49.28279 172
49.30291 191
49.32302 195
49.34313 197
49.36325 166
49.38336 173
49.40348 185
49.42359 181
49.4437 168
49.46382 196
49.48393 216
49.50404 213
49.52416 194
49.54427 199
49.56439 207
49.5845 202
49.60461 246
49.62473 243
49.64484 228
49.66495 242
49.68507 248
49.70518 287
49.7253 281
49.74541 295
49.76552 343
49.78564 373
49.80575 412
49.82586 415
49.84598 477
49.86609 534
49.8862 663
49.90632 739
49.92643 840
49.94655 990
49.96666 1217
49.98677 1420
50.00689 1729
50.027 2102
50.04711 2567
50.06723 3125
50.08734 3531
50.10746 3884
50.12757 3805
50.14768 3330
50.1678 2556
50.18791 2074
50.20802 1944
50.22814 1931
50.24825 1939
50.26837 1769
50.28848 1320
50.30859 930
50.32871 630
50.34882 513
50.36893 407
50.38905 367
50.40916 343
50.42927 319
50.44939 293
50.4695 282
50.48962 264
50.50973 342
50.52984 296
50.54996 292
50.57007 315
50.59018 304
50.6103 311
50.63041 295
50.65053 253
50.67064 274
50.69075 235
50.71087 243
50.73098 236
50.75109 263
50.77121 219
50.79132 194
50.81143 218
50.83155 184
50.85166 221
50.87178 198
50.89189 155
50.912 192
50.93212 174
50.95223 172
50.97234 175
50.99246 208
51.01257 171
51.03269 156
51.0528 149
51.07291 178
51.09303 171
51.11314 181
51.13325 197
51.15337 177
51.17348 169
51.1936 190
51.21371 166
51.23382 155
51.25394 170
51.27405 172
51.29416 173
51.31428 172
51.33439 160
51.3545 168
51.37462 175
51.39473 159
51.41485 153
51.43496 151
51.45507 167
51.47519 152
51.4953 143
51.51541 167
51.53553 194
51.55564 146
51.57576 162
51.59587 181
51.61598 159
51.6361 160
51.65621 183
51.67632 168
51.69644 141
51.71655 169
51.73667 150
51.75678 148
51.77689 150
51.79701 148
51.81712 149
51.83723 135
51.85735 136
51.87746 129
51.89757 174
51.91769 148
51.9378 136
51.95792 154
51.97803 140
51.99814 149
52.01826 183
52.03837 135
52.05848 141
52.0786 151
52.09871 163
52.11883 149
52.13894 148
52.15905 164
52.17917 146
52.19928 168
52.21939 151
52.23951 159
52.25962 156
52.27974 148
52.29985 130
52.31996 144
52.34008 161
52.36019 177
52.3803 148
52.40042 156
52.42053 149
52.44064 145
52.46076 167
52.48087 128
52.50099 161
52.5211 169
52.54121 165
52.56133 165
52.58144 162
52.60155 152
52.62167 171
52.64178 144
52.6619 170
52.68201 160
52.70212 178
52.72224 158
52.74235 154
52.76246 153
52.78258 146
52.80269 166
52.8228 147
52.84292 176
52.86303 170
52.88315 184
52.90326 139
52.92337 143
52.94349 174
52.9636 159
52.98371 173
53.00383 149
53.02394 167
53.04406 159
53.06417 163
53.08428 171
53.1044 155
53.12451 172
53.14462 158
53.16474 143
53.18485 173
53.20497 187
53.22508 163
53.24519 179
53.26531 179
53.28542 179
53.30553 175
53.32565 175
53.34576 182
53.36587 143
53.38599 180
53.4061 184
53.42622 162
53.44633 187
53.46644 171
53.48656 176
53.50667 189
53.52678 166
53.5469 155
53.56701 153
53.58713 135
53.60724 169
53.62735 163
53.64747 180
53.66758 179
53.68769 204
53.70781 186
53.72792 191
53.74804 175
53.76815 200
53.78826 161
53.80838 184
53.82849 173
53.8486 167
53.86872 178
53.88883 183
53.90894 181
53.92906 197
53.94917 202
53.96929 203
53.9894 187
54.00951 169
54.02963 186
54.04974 157
54.06985 159
54.08997 200
54.11008 193
54.1302 182
54.15031 198
54.17042 201
54.19054 161
54.21065 173
54.23076 177
54.25088 170
54.27099 160
54.29111 182
54.31122 194
54.33133 175
54.35145 198
54.37156 208
54.39167 196
54.41179 218
54.4319 223
54.45201 213
54.47213 216
54.49224 243
54.51236 218
54.53247 234
54.55258 265
54.5727 274
54.59281 284
54.61292 281
54.63304 344
54.65315 380
54.67327 401
54.69338 442
54.71349 505
54.73361 604
54.75372 753
54.77383 836
54.79395 979
54.81406 1072
54.83417 1204
54.85429 1174
54.8744 1107
54.89452 886
54.91463 778
54.93474 699
54.95486 691
54.97497 705
54.99508 657
55.0152 630
55.03531 536
55.05543 421
55.07554 317
55.09565 316
55.11577 347
55.13588 318
55.15599 329
55.17611 359
55.19622 410
55.21634 478
55.23645 441
55.25656 542
55.27668 633
55.29679 648
55.3169 650
55.33702 562
55.35713 455
55.37724 365
55.39736 395
55.41747 367
55.43759 398
55.4577 384
55.47781 337
55.49793 320
55.51804 238
55.53815 191
55.55827 185
55.57838 194
55.5985 222
55.61861 181
55.63872 199
55.65884 150
55.67895 174
55.69906 160
55.71918 173
55.73929 194
55.75941 192
55.77952 157
55.79963 172
55.81975 156
55.83986 167
55.85997 155
55.88009 170
55.9002 160
55.92031 195
55.94043 170
55.96054 161
55.98066 177
56.00077 171
56.02088 152
56.041 184
56.06111 161
56.08122 176
56.10134 162
56.12145 159
56.14157 148
56.16168 147
56.18179 141
56.20191 157
56.22202 162
56.24213 159
56.26225 170
56.28236 155
56.30248 176
56.32259 145
56.3427 165
56.36282 163
56.38293 161
56.40304 147
56.42316 165
56.44327 163
56.46338 161
56.4835 145
56.50361 153
56.52373 180
56.54384 147
56.56395 161
56.58407 151
56.60418 167
56.62429 153
56.64441 170
56.66452 142
56.68464 154
56.70475 166
56.72486 160
56.74498 152
56.76509 143
56.7852 136
56.80532 173
56.82543 146
56.84554 181
56.86566 150
56.88577 150
56.90589 154
56.926 140
56.94611 168
56.96623 158
56.98634 165
57.00645 168
57.02657 158
57.04668 166
57.0668 186
57.08691 163
57.10702 180
57.12714 176
57.14725 182
57.16736 212
57.18748 216
57.20759 218
57.22771 199
57.24782 188
57.26793 199
57.28805 175
57.30816 193
57.32827 189
57.34839 178
57.3685 179
57.38861 185
57.40873 191
57.42884 178
57.44896 186
57.46907 172
57.48918 161
57.5093 140
57.52941 180
57.54952 146
57.56964 161
57.58975 144
57.60987 158
57.62998 145
57.65009 168
57.67021 143
57.69032 166
57.71043 151
57.73055 160
57.75066 161
57.77078 130
57.79089 154
57.811 167
57.83112 159
57.85123 166
57.87134 147
57.89146 139
57.91157 157
57.93168 185
57.9518 169
57.97191 173
57.99203 160
58.01214 161
58.03225 169
58.05237 165
58.07248 157
58.09259 144
58.11271 177
58.13282 172
58.15294 145
58.17305 162
58.19316 150
58.21328 164
58.23339 191
58.2535 157
58.27362 176
58.29373 130
58.31385 150
58.33396 157
58.35407 152
58.37419 152
58.3943 156
58.41441 154
58.43453 157
58.45464 154
58.47475 161
58.49487 155
58.51498 177
58.5351 159
58.55521 164
58.57532 155
58.59544 165
58.61555 178
58.63566 135
58.65578 161
58.67589 171
58.69601 163
58.71612 134
58.73623 168
58.75635 152
58.77646 172
58.79657 161
58.81669 192
58.8368 164
58.85691 149
58.87703 134
58.89714 160
58.91726 177
58.93737 155
58.95748 149
58.9776 160
58.99771 173
59.01782 166
59.03794 156
59.05805 166
59.07817 198
59.09828 169
59.11839 167
59.13851 154
59.15862 175
59.17873 166
59.19885 176
59.21896 183
59.23908 180
59.25919 168
59.2793 165
59.29942 174
59.31953 191
59.33964 207
59.35976 201
59.37987 192
59.39998 198
59.4201 227
59.44021 230
59.46033 256
59.48044 239
59.50055 220
59.52067 245
59.54078 274
59.56089 259
59.58101 321
59.60112 330
59.62124 323
59.64135 405
59.66146 400
59.68158 440
59.70169 535
59.7218 624
59.74192 680
59.76203 802
59.78215 913
59.80226 1088
59.82237 1278
59.84249 1563
59.8626 1773
59.88271 1985
59.90283 2266
59.92294 2457
59.94305 2238
59.96317 1943
59.98328 1595
60.0034 1268
60.02351 1257
60.04362 1177
60.06374 1207
60.08385 1324
60.10396 1184
60.12408 980
60.14419 744
60.16431 567
60.18442 439
60.20453 309
60.22465 260
60.24476 273
60.26487 242
60.28499 236
60.3051 223
60.32522 217
60.34533 211
60.36544 198
60.38556 205
60.40567 214
60.42578 195
60.4459 179
60.46601 188
60.48612 181
60.50624 169
60.52635 177
60.54647 171
60.56658 178
60.58669 165
60.60681 174
60.62692 181
60.64703 177
60.66715 157
60.68726 167
60.70738 137
60.72749 174
60.7476 180
60.76772 182
60.78783 193
60.80794 175
60.82806 188
60.84817 192
60.86828 172
60.8884 179
60.90851 165
60.92863 170
60.94874 171
60.96885 165
60.98897 194
61.00908 167
61.02919 157
61.04931 183
61.06942 148
61.08954 184
61.10965 163
61.12976 180
61.14988 160
61.16999 186
61.1901 166
61.21022 182
61.23033 178
61.25045 186
61.27056 172
61.29067 189
61.31079 180
61.3309 191
61.35101 169
61.37113 200
61.39124 185
61.41135 163
61.43147 178
61.45158 194
61.4717 154
61.49181 162
61.51192 159
61.53204 184
61.55215 174
61.57226 191
61.59238 173
61.61249 189
61.63261 153
61.65272 187
61.67283 180
61.69295 192
61.71306 194
61.73317 178
61.75329 184
61.7734 180
61.79352 192
61.81363 174
61.83374 179
61.85386 170
61.87397 178
61.89408 168
61.9142 197
61.93431 181
61.95442 174
61.97454 161
61.99465 162
62.01477 176
62.03488 160
62.05499 175
62.07511 149
62.09522 190
62.11533 194
62.13545 151
62.15556 161
62.17568 160
62.19579 159
62.2159 184
62.23602 184
62.25613 170
62.27624 177
62.29636 183
62.31647 174
62.33659 178
62.3567 180
62.37681 169
62.39693 172
62.41704 176
62.43715 185
62.45727 168
62.47738 168
62.49749 164
62.51761 158
62.53772 173
62.55784 152
62.57795 170
62.59806 164
62.61818 170
62.63829 137
62.6584 178
62.67852 158
62.69863 158
62.71875 169
62.73886 148
62.75897 165
62.77909 170
62.7992 155
62.81931 147
62.83943 167
62.85954 167
62.87965 155
62.89977 166
62.91988 167
62.94 154
62.96011 128
62.98022 172
63.00034 155
63.02045 159
63.04056 169
63.06068 169
63.08079 157
63.10091 147
63.12102 163
63.14113 164
63.16125 166
63.18136 148
63.20147 175
63.22159 160
63.2417 152
63.26182 168
63.28193 155
63.30204 148
63.32216 155
63.34227 129
63.36238 144
63.3825 152
63.40261 142
63.42272 164
63.44284 146
63.46295 152
63.48307 173
63.50318 175
63.52329 165
63.54341 169
63.56352 149
63.58363 146
63.60375 143
63.62386 200
63.64398 171
63.66409 195
63.6842 201
63.70432 195
63.72443 204
63.74454 194
63.76466 213
63.78477 236
63.80489 236
63.825 245
63.84511 263
63.86523 282
63.88534 333
63.90545 379
63.92557 405
63.94568 442
63.96579 490
63.98591 529
64.00602 538
64.02614 498
64.04625 462
64.06636 365
64.08648 299
64.10659 303
64.1267 372
64.14682 330
64.16693 324
64.18705 337
64.20716 317
64.22727 299
64.24739 234
64.2675 208
64.28761 192
64.30773 163
64.32784 185
64.34796 141
64.36807 148
64.38818 168
64.4083 163
64.42841 168
64.44852 169
64.46864 140
64.48875 143
64.50886 159
64.52898 161
64.54909 136
64.56921 164
64.58932 147
64.60943 172
64.62955 126
64.64966 154
64.66977 129
64.68989 154
64.71 141
64.73012 144
64.75023 141
64.77034 166
64.79046 145
64.81057 162
64.83068 134
64.8508 144
64.87091 134
64.89102 142
64.91114 155
64.93125 148
64.95137 145
64.97148 176
64.99159 150
65.01171 131
65.03182 171
65.05193 163
65.07205 181
65.09216 175
65.11228 140
65.13239 133
65.1525 163
65.17262 181
65.19273 158
65.21284 178
65.23296 168
65.25307 159
65.27319 171
65.2933 147
65.31341 145
65.33353 180
65.35364 151
65.37375 164
65.39387 167
65.41398 178
65.43409 179
65.45421 167
65.47432 151
65.49444 168
65.51455 180
65.53466 156
65.55478 174
65.57489 178
65.595 183
65.61512 208
65.63523 206
65.65535 207
65.67546 211
65.69557 243
65.71569 239
65.7358 256
65.75591 264
65.77603 226
65.79614 204
65.81626 215
65.83637 198
65.85648 194
65.8766 220
65.89671 209
65.91682 199
65.93694 201
65.95705 199
65.97716 176
65.99728 171
66.01739 167
66.03751 167
66.05762 181
66.07773 151
66.09785 147
66.11796 159
66.13807 172
66.15819 159
66.1783 167
66.19842 166
66.21853 154
66.23864 138
66.25876 170
66.27887 143
66.29898 153
66.3191 161
66.33921 163
66.35933 168
66.37944 149
66.39955 171
66.41967 161
66.43978 168
66.45989 154
66.48001 150
66.50012 164
66.52023 171
66.54035 170
66.56046 154
66.58058 137
66.60069 140
66.6208 151
66.64092 170
66.66103 146
66.68114 157
66.70126 150
66.72137 161
66.74149 148
66.7616 165
66.78171 150
66.80183 162
66.82194 136
66.84205 168
66.86217 158
66.88228 162
66.90239 178
66.92251 164
66.94262 160
66.96274 152
66.98285 150
67.00296 177
67.02308 167
67.04319 165
67.0633 194
67.08342 198
67.10353 185
67.12365 201
67.14376 202
67.16387 217
67.18399 201
67.2041 192
67.22421 221
67.24433 183
67.26444 240
67.28456 217
67.30467 256
67.32478 249
67.3449 251
67.36501 265
67.38512 280
67.40524 304
67.42535 314
67.44546 339
67.46558 384
67.48569 420
67.50581 435
67.52592 529
67.54603 579
67.56615 643
67.58626 742
67.60637 813
67.62649 1024
67.6466 1135
67.66672 1299
67.68683 1370
67.70694 1447
67.72706 1438
67.74717 1209
67.76728 1041
67.7874 887
67.80751 867
67.82763 901
67.84774 930
67.86785 1011
67.88797 1138
67.90808 1124
67.92819 1040
67.94831 1133
67.96842 1003
67.98853 1071
68.00865 1180
68.02876 1349
68.04888 1481
68.06899 1675
68.0891 1850
68.10922 1903
68.12933 1900
68.14944 1830
68.16956 1570
68.18967 1436
68.20979 1456
68.2299 1469
68.25001 1627
68.27013 1706
68.29024 1727
68.31035 1602
68.33047 1413
68.35058 1186
68.3707 860
68.39081 746
68.41092 679
68.43104 729
68.45115 660
68.47126 644
68.49138 603
68.51149 487
68.5316 449
68.55172 326
68.57183 285
68.59195 273
68.61206 252
68.63217 227
68.65229 221
68.6724 223
68.69251 202
68.71263 205
68.73274 188
68.75286 179
68.77297 198
68.79308 183
68.8132 179
68.83331 169
68.85342 164
68.87354 181
68.89365 156
68.91376 186
68.93388 194
68.95399 146
68.97411 146
68.99422 167
69.01433 155
69.03445 160
69.05456 150
69.07467 152
69.09479 147
69.1149 140
69.13502 152
69.15513 145
69.17524 164
69.19536 170
69.21547 145
69.23558 148
69.2557 158
69.27581 148
69.29593 139
69.31604 165
69.33615 170
69.35627 134
69.37638 159
69.39649 151
69.41661 167
69.43672 146
69.45683 126
69.47695 133
69.49706 156
69.51718 150
69.53729 172
69.5574 161
69.57752 142
69.59763 167
69.61774 140
69.63786 155
69.65797 144
69.67809 173
69.6982 154
69.71831 159
69.73843 160
69.75854 158
69.77865 145
69.79877 152
69.81888 141
69.839 169
69.85911 159
69.87922 161
69.89934 136
69.91945 152
69.93956 153
69.95968 139
69.97979 164
69.9999 143
70.02002 141
70.04013 168
70.06025 131
70.08036 123
70.10047 160
70.12059 174
70.1407 139
70.16081 143
70.18093 146
70.20104 153
70.22116 144
70.24127 152
70.26138 151
70.2815 126
70.30161 151
70.32172 127
70.34184 130
70.36195 116
70.38207 139
70.40218 140
70.42229 136
70.44241 134
70.46252 127
70.48263 142
70.50275 137
70.52286 149
70.54297 141
70.56309 128
70.5832 164
70.60332 144
70.62343 147
70.64354 144
70.66366 125
70.68377 153
70.70388 155
70.724 144
70.74411 157
70.76423 147
70.78434 138
70.80445 145
70.82457 145
70.84468 137
70.86479 147
70.88491 157
70.90502 139
70.92513 146
70.94525 141
70.96536 132
70.98548 134
71.00559 138
71.0257 139
71.04582 138
71.06593 141
71.08604 137
71.10616 149
71.12627 144
71.14639 135
71.1665 130
71.18661 156
71.20673 150
71.22684 136
71.24695 153
71.26707 119
71.28718 133
71.3073 130
71.32741 139
71.34752 141
71.36764 150
71.38775 150
71.40786 126
71.42798 141
71.44809 129
71.4682 143
71.48832 116
71.50843 123
71.52855 148
71.54866 149
71.56877 145
71.58889 150
71.609 152
71.62911 147
71.64923 148
71.66934 147
71.68946 117
71.70957 149
71.72968 146
71.7498 127
71.76991 146
71.79002 156
71.81014 133
71.83025 142
71.85037 142
71.87048 168
71.89059 157
71.91071 144
71.93082 153
71.95093 135
71.97105 145
71.99116 149
72.01127 132
72.03139 134
72.0515 135
72.07162 139
72.09173 141
72.11184 170
72.13196 147
72.15207 161
72.17218 133
72.1923 145
72.21241 147
72.23253 124
72.25264 158
72.27275 131
72.29287 151
72.31298 139
72.33309 128
72.35321 144
72.37332 123
72.39344 143
72.41355 150
72.43366 154
72.45378 153
72.47389 122
72.494 149
72.51412 144
72.53423 131
72.55434 148
72.57446 147
72.59457 149
72.61469 136
72.6348 148
72.65491 146
72.67503 145
72.69514 138
72.71525 151
72.73537 137
72.75548 145
72.7756 163
72.79571 158
72.81582 136
72.83594 172
72.85605 158
72.87616 147
72.89628 137
72.91639 158
72.9365 175
72.95662 165
72.97673 187
72.99685 169
73.01696 183
73.03707 161
73.05719 178
73.0773 181
73.09741 167
73.11753 185
73.13764 186
73.15776 211
73.17787 224
73.19798 226
73.2181 230
73.23821 239
73.25832 270
73.27844 299
73.29855 332
73.31867 376
73.33878 406
73.35889 444
73.37901 470
73.39912 520
73.41923 557
73.43935 581
73.45946 563
73.47957 446
73.49969 380
73.5198 341
73.53992 298
73.56003 310
73.58014 321
73.60026 372
73.62037 352
73.64048 358
73.6606 358
73.68071 322
73.70083 308
73.72094 204
73.74105 208
73.76117 195
73.78128 186
73.80139 161
73.82151 167
73.84162 176
73.86174 144
73.88185 144
73.90196 161
73.92208 162
73.94219 163
73.9623 146
73.98242 140
74.00253 147
74.02264 138
74.04276 156
74.06287 164
74.08299 156
74.1031 149
74.12321 131
74.14333 147
74.16344 135
74.18355 130
74.20367 145
74.22378 129
74.2439 151
74.26401 150
74.28412 139
74.30424 136
74.32435 150
74.34446 135
74.36458 146
74.38469 132
74.40481 150
74.42492 158
74.44503 174
74.46515 156
74.48526 155
74.50537 150
74.52549 150
74.5456 118
74.56571 141
74.58583 149
74.60594 145
74.62606 137
74.64617 146
74.66628 154
74.6864 144
74.70651 135
74.72662 150
74.74674 149
74.76685 151
74.78697 152
74.80708 157
74.82719 139
74.84731 152
74.86742 137
74.88753 146
74.90765 139
74.92776 133
74.94787 149
74.96799 150
74.9881 126
75.00822 139
