3.00117 20483
3.02128 19904
3.0414 19607
3.06151 18760
3.08162 18215
3.10174 17978
3.12185 17227
3.14197 16912
3.16208 15901
3.18219 15933
3.20231 15532
3.22242 14750
3.24253 14688
3.26265 13949
3.28276 13678
3.30288 13072
3.32299 12654
3.3431 12375
3.36322 12012
3.38333 11452
3.40344 11209
3.42356 10841
3.44367 10528
3.46379 10029
3.4839 9662
3.50401 9348
3.52413 8755
3.54424 8837
3.56435 8431
3.58447 8057
3.60458 7785
3.62469 7395
3.64481 7291
3.66492 6906
3.68504 6736
3.70515 6425
3.72526 6142
3.74538 6021
3.76549 5612
3.7856 5512
3.80572 5262
3.82583 4849
3.84595 4801
3.86606 4475
3.88617 4455
3.90629 4192
3.9264 3946
3.94651 3990
3.96663 3671
3.98674 3514
4.00686 3352
4.02697 3068
4.04708 3082
4.0672 2934
4.08731 2714
4.10742 2681
4.12754 2431
4.14765 2568
4.16776 2410
4.18788 2288
4.20799 2127
4.22811 2026
4.24822 1991
4.26833 2047
4.28845 1737
4.30856 1733
4.32867 1717
4.34879 1684
4.3689 1690
4.38902 1562
4.40913 1525
4.42924 1409
4.44936 1384
4.46947 1517
4.48958 1296
4.5097 1291
4.52981 1279
4.54992 1241
4.57004 1338
4.59015 1109
4.61027 1120
4.63038 1085
4.65049 1140
4.67061 1120
4.69072 1014
4.71083 1003
4.73095 1005
4.75106 990
4.77118 1011
4.79129 895
4.8114 897
4.83152 865
4.85163 889
4.87174 853
4.89186 833
4.91197 799
4.93209 755
4.9522 718
4.97231 769
4.99243 724
5.01254 692
5.03265 655
5.05277 711
5.07288 659
5.09299 589
5.11311 598
5.13322 575
5.15334 555
5.17345 592
5.19356 512
5.21368 529
5.23379 482
5.2539 519
5.27402 548
5.29413 528
5.31425 486
5.33436 478
5.35447 415
5.37459 425
5.3947 452
5.41481 451
5.43493 427
5.45504 375
5.47516 435
5.49527 369
5.51538 375
5.5355 390
5.55561 400
5.57572 362
5.59584 358
5.61595 357
5.63606 326
5.65618 328
5.67629 310
5.69641 332
5.71652 301
5.73663 281
5.75675 300
5.77686 295
5.79697 297
5.81709 258
5.8372 295
5.85732 304
5.87743 271
5.89754 236
5.91766 223
5.93777 279
5.95788 280
5.978 270
5.99811 277
6.01823 242
6.03834 244
6.05845 228
6.07857 260
6.09868 228
6.11879 206
6.13891 207
6.15902 242
6.17913 215
6.19925 233
6.21936 209
6.23948 220
6.25959 228
6.2797 193
6.29982 210
6.31993 209
6.34004 213
6.36016 216
6.38027 223
6.40039 231
6.4205 216
6.44061 199
6.46073 237
6.48084 235
6.50095 214
6.52107 178
6.54118 193
6.56129 206
6.58141 207
6.60152 201
6.62164 212
6.64175 189
6.66186 183
6.68198 171
6.70209 219
6.7222 199
6.74232 197
6.76243 172
6.78255 190
6.80266 183
6.82277 198
6.84289 204
6.863 202
6.88311 206
6.90323 176
6.92334 235
6.94346 220
6.96357 198
6.98368 218
7.0038 214
7.02391 191
7.04402 178
7.06414 210
7.08425 202
7.10436 207
7.12448 185
7.14459 180
7.16471 189
7.18482 188
7.20493 206
7.22505 196
7.24516 200
7.26527 192
7.28539 207
7.3055 196
7.32562 200
7.34573 195
7.36584 193
7.38596 219
7.40607 201
7.42618 208
7.4463 206
7.46641 198
7.48653 200
7.50664 206
7.52675 214
7.54687 198
7.56698 233
7.58709 202
7.60721 183
7.62732 220
7.64743 191
7.66755 205
7.68766 224
7.70778 189
7.72789 214
7.748 199
7.76812 229
7.78823 196
7.80834 206
7.82846 194
7.84857 208
7.86869 229
7.8888 185
7.90891 197
7.92903 221
7.94914 199
7.96925 232
7.98937 222
8.00948 240
8.0296 232
8.04971 200
8.06982 247
8.08994 211
8.11005 204
8.13016 216
8.15028 214
8.17039 207
8.1905 240
8.21062 221
8.23073 220
8.25085 240
8.27096 250
8.29107 216
8.31119 222
8.3313 203
8.35141 224
8.37153 228
8.39164 238
8.41176 224
8.43187 271
8.45198 256
8.4721 227
8.49221 236
8.51232 227
8.53244 236
8.55255 237
8.57266 219
8.59278 227
8.61289 224
8.63301 226
8.65312 217
8.67323 238
8.69335 233
8.71346 195
8.73357 237
8.75369 221
8.7738 214
8.79392 229
8.81403 220
8.83414 243
8.85426 214
8.87437 212
8.89448 214
8.9146 228
8.93471 242
8.95483 214
8.97494 250
8.99505 228
9.01517 218
9.03528 256
9.05539 230
9.07551 236
9.09562 229
9.11573 236
9.13585 241
9.15596 232
9.17608 242
9.19619 209
9.2163 238
9.23642 231
9.25653 222
9.27664 206
9.29676 257
9.31687 215
9.33699 239
9.3571 217
9.37721 252
9.39733 220
9.41744 233
9.43755 211
9.45767 256
9.47778 230
9.4979 217
9.51801 227
9.53812 235
9.55824 242
9.57835 224
9.59846 261
9.61858 221
9.63869 224
9.6588 217
9.67892 212
9.69903 229
9.71915 231
9.73926 198
9.75937 224
9.77949 252
9.7996 258
9.81971 204
9.83983 204
9.85994 227
9.88006 224
9.90017 213
9.92028 257
9.9404 212
9.96051 208
9.98062 220
10.00074 203
10.02085 252
10.04097 205
10.06108 213
10.08119 240
10.10131 225
10.12142 219
10.14153 246
10.16165 250
10.18176 240
10.20187 201
10.22199 239
10.2421 224
10.26222 219
10.28233 188
10.30244 218
10.32256 234
10.34267 229
10.36278 210
10.3829 213
10.40301 247
10.42313 228
10.44324 225
10.46335 211
10.48347 233
10.50358 240
10.52369 224
10.54381 238
10.56392 237
10.58403 271
10.60415 253
10.62426 233
10.64438 216
10.66449 227
10.6846 232
10.70472 226
10.72483 244
10.74494 221
10.76506 204
10.78517 258
10.80529 212
10.8254 226
10.84551 230
10.86563 234
10.88574 225
10.90585 214
10.92597 214
10.94608 233
10.9662 246
10.98631 252
11.00642 230
11.02654 201
11.04665 236
11.06676 250
11.08688 238
11.10699 235
11.1271 216
11.14722 239
11.16733 252
11.18745 236
11.20756 236
11.22767 215
11.24779 256
11.2679 245
11.28801 252
11.30813 266
11.32824 223
11.34836 237
11.36847 246
11.38858 266
11.4087 255
11.42881 240
11.44892 252
11.46904 234
11.48915 268
11.50927 279
11.52938 258
11.54949 253
11.56961 277
11.58972 241
11.60983 275
11.62995 233
11.65006 228
11.67017 249
11.69029 261
11.7104 258
11.73052 251
11.75063 261
11.77074 257
11.79086 259
11.81097 290
11.83108 295
11.8512 309
11.87131 275
11.89143 261
11.91154 286
11.93165 293
11.95177 291
11.97188 274
11.99199 296
12.01211 291
12.03222 290
12.05234 315
12.07245 326
12.09256 292
12.11268 332
12.13279 330
12.1529 303
12.17302 329
12.19313 307
12.21324 310
12.23336 321
12.25347 317
12.27359 297
12.2937 297
12.31381 328
12.33393 306
12.35404 267
12.37415 276
12.39427 281
12.41438 264
12.4345 301
12.45461 271
12.47472 266
12.49484 253
12.51495 230
12.53506 268
12.55518 277
12.57529 253
12.5954 256
12.61552 263
12.63563 256
12.65575 253
12.67586 217
12.69597 251
12.71609 214
12.7362 227
12.75631 235
12.77643 242
12.79654 269
12.81666 219
12.83677 205
12.85688 228
12.877 204
12.89711 198
12.91722 227
12.93734 202
12.95745 222
12.97757 214
12.99768 242
13.01779 236
13.03791 220
13.05802 207
13.07813 226
13.09825 203
13.11836 249
13.13847 216
13.15859 222
13.1787 227
13.19882 219
13.21893 195
13.23904 213
13.25916 212
13.27927 209
13.29938 207
13.3195 189
13.33961 196
13.35973 190
13.37984 206
13.39995 176
13.42007 191
13.44018 219
13.46029 186
13.48041 197
13.50052 185
13.52064 221
13.54075 208
13.56086 201
13.58098 199
13.60109 188
13.6212 203
13.64132 206
13.66143 173
13.68154 181
13.70166 188
13.72177 209
13.74189 177
13.762 183
13.78211 196
13.80223 213
13.82234 181
13.84245 189
13.86257 188
13.88268 199
13.9028 185
13.92291 180
13.94302 199
13.96314 195
13.98325 205
14.00336 206
14.02348 191
14.04359 156
14.06371 174
14.08382 219
14.10393 200
14.12405 176
14.14416 220
14.16427 178
14.18439 195
14.2045 182
14.22461 196
14.24473 194
14.26484 186
14.28496 190
14.30507 187
14.32518 177
14.3453 189
14.36541 200
14.38552 153
14.40564 200
14.42575 156
14.44587 168
14.46598 163
14.48609 200
14.50621 177
14.52632 198
14.54643 186
14.56655 187
14.58666 175
14.60677 197
14.62689 201
14.647 198
14.66712 206
14.68723 193
14.70734 184
14.72746 188
14.74757 173
14.76768 204
14.7878 176
14.80791 191
14.82803 168
14.84814 205
14.86825 192
14.88837 195
14.90848 189
14.92859 182
14.94871 178
14.96882 189
14.98894 191
15.00905 178
15.02916 187
15.04928 192
15.06939 190
15.0895 177
15.10962 179
15.12973 185
15.14984 193
15.16996 199
15.19007 185
15.21019 190
15.2303 164
15.25041 176
15.27053 188
15.29064 170
15.31075 181
15.33087 161
15.35098 187
15.3711 166
15.39121 193
15.41132 179
15.43144 175
15.45155 184
15.47166 195
15.49178 171
15.51189 180
15.53201 169
15.55212 165
15.57223 191
15.59235 189
15.61246 177
15.63257 175
15.65269 174
15.6728 195
15.69291 172
15.71303 198
15.73314 157
15.75326 192
15.77337 166
15.79348 164
15.8136 189
15.83371 189
15.85382 172
15.87394 180
15.89405 184
15.91417 173
15.93428 171
15.95439 173
15.97451 160
15.99462 175
16.01473 171
16.03485 154
16.05496 165
16.07508 170
16.09519 159
16.1153 183
16.13542 183
16.15553 181
16.17564 190
16.19576 183
16.21587 215
16.23598 149
16.2561 201
16.27621 181
16.29633 173
16.31644 172
16.33655 159
16.35667 167
16.37678 197
16.39689 192
16.41701 184
16.43712 171
16.45724 183
16.47735 161
16.49746 187
16.51758 184
16.53769 152
16.5578 189
16.57792 157
16.59803 174
16.61814 191
16.63826 172
16.65837 151
16.67849 168
16.6986 181
16.71871 161
16.73883 167
16.75894 150
16.77905 172
16.79917 164
16.81928 160
16.8394 176
16.85951 151
16.87962 180
16.89974 148
16.91985 144
16.93996 182
16.96008 169
16.98019 185
17.00031 149
17.02042 146
17.04053 161
17.06065 163
17.08076 176
17.10087 184
17.12099 179
17.1411 194
17.16121 183
17.18133 160
17.20144 171
17.22156 165
17.24167 170
17.26178 171
17.2819 164
17.30201 161
17.32212 168
17.34224 175
17.36235 167
17.38247 155
17.40258 141
17.42269 157
17.44281 147
17.46292 178
17.48303 186
17.50315 181
17.52326 177
17.54338 169
17.56349 156
17.5836 153
17.60372 188
17.62383 155
17.64394 178
17.66406 189
17.68417 175
17.70428 172
17.7244 169
17.74451 165
17.76463 178
17.78474 170
17.80485 187
17.82497 194
17.84508 173
17.86519 169
17.88531 170
17.90542 174
17.92554 163
17.94565 211
17.96576 180
17.98588 160
18.00599 146
18.0261 179
18.04622 183
18.06633 184
18.08645 170
18.10656 182
18.12667 168
18.14679 164
18.1669 169
18.18701 177
18.20713 181
18.22724 190
18.24735 158
18.26747 187
18.28758 169
18.3077 162
18.32781 207
18.34792 159
18.36804 175
18.38815 166
18.40826 159
18.42838 160
18.44849 172
18.46861 185
18.48872 149
18.50883 182
18.52895 163
18.54906 175
18.56917 149
18.58929 171
18.6094 165
18.62951 171
18.64963 166
18.66974 181
18.68986 153
18.70997 164
18.73008 186
18.7502 184
18.77031 187
18.79042 184
18.81054 167
18.83065 178
18.85077 212
18.87088 182
18.89099 166
18.91111 144
18.93122 199
18.95133 163
18.97145 183
18.99156 174
19.01168 174
19.03179 188
19.0519 150
19.07202 175
19.09213 186
19.11224 172
19.13236 173
19.15247 173
19.17258 180
19.1927 185
19.21281 207
19.23293 173
19.25304 179
19.27315 172
19.29327 199
19.31338 172
19.33349 181
19.35361 185
19.37372 159
19.39384 194
19.41395 192
19.43406 176
19.45418 194
19.47429 193
19.4944 184
19.51452 195
19.53463 208
19.55475 185
19.57486 176
19.59497 207
19.61509 199
19.6352 225
19.65531 222
19.67543 274
19.69554 221
19.71565 239
19.73577 291
19.75588 306
19.776 334
19.79611 309
19.81622 353
19.83634 302
19.85645 343
19.87656 321
19.89668 328
19.91679 365
19.93691 338
19.95702 373
19.97713 329
19.99725 308
20.01736 342
20.03747 364
20.05759 353
20.0777 305
20.09782 337
20.11793 340
20.13804 344
20.15816 365
20.17827 346
20.19838 348
20.2185 385
20.23861 386
20.25872 346
20.27884 309
20.29895 350
20.31907 371
20.33918 369
20.35929 370
20.37941 404
20.39952 349
20.41963 411
20.43975 400
20.45986 426
20.47998 450
20.50009 410
20.5202 434
20.54032 422
20.56043 480
20.58054 534
20.60066 532
20.62077 587
20.64088 688
20.661 838
20.68111 1050
20.70123 1257
20.72134 1786
20.74145 2480
20.76157 3529
20.78168 4841
20.80179 6389
20.82191 7795
20.84202 8623
20.86214 8309
20.88225 6744
20.90236 5005
20.92248 3401
20.94259 2145
20.9627 1317
20.98282 879
21.00293 687
21.02305 576
21.04316 559
21.06327 523
21.08339 460
21.1035 478
21.12361 433
21.14373 398
21.16384 403
21.18395 397
21.20407 367
21.22418 350
21.2443 344
21.26441 335
21.28452 311
21.30464 330
21.32475 309
21.34486 344
21.36498 312
21.38509 294
21.40521 356
21.42532 271
21.44543 287
21.46555 323
21.48566 316
21.50577 291
21.52589 286
21.546 279
21.56612 270
21.58623 275
21.60634 299
21.62646 279
21.64657 250
21.66668 260
21.6868 263
21.70691 270
21.72702 279
21.74714 264
21.76725 264
21.78737 251
21.80748 293
21.82759 244
21.84771 278
21.86782 261
21.88793 285
21.90805 252
21.92816 242
21.94828 248
21.96839 261
21.9885 237
22.00862 244
22.02873 221
22.04884 256
22.06896 217
22.08907 226
22.10919 260
22.1293 242
22.14941 224
22.16953 240
22.18964 241
22.20975 239
22.22987 242
22.24998 228
22.27009 275
22.29021 228
22.31032 251
22.33044 246
22.35055 224
22.37066 203
22.39078 239
22.41089 248
22.431 241
22.45112 215
22.47123 208
22.49135 242
22.51146 242
22.53157 219
22.55169 206
22.5718 250
22.59191 237
22.61203 219
22.63214 227
22.65225 215
22.67237 227
22.69248 220
22.7126 231
22.73271 231
22.75282 234
22.77294 236
22.79305 235
22.81316 217
22.83328 239
22.85339 207
22.87351 237
22.89362 216
22.91373 206
22.93385 200
22.95396 224
22.97407 204
22.99419 189
23.0143 236
23.03442 200
23.05453 214
23.07464 229
23.09476 217
23.11487 212
23.13498 218
23.1551 221
23.17521 227
23.19532 214
23.21544 229
23.23555 228
23.25567 212
23.27578 209
23.29589 207
23.31601 204
23.33612 221
23.35623 210
23.37635 215
23.39646 214
23.41658 245
23.43669 212
23.4568 197
23.47692 202
23.49703 203
23.51714 216
23.53726 186
23.55737 204
23.57749 218
23.5976 204
23.61771 204
23.63783 218
23.65794 209
23.67805 195
23.69817 212
23.71828 194
23.73839 207
23.75851 257
23.77862 233
23.79874 237
23.81885 238
23.83896 228
23.85908 238
23.87919 249
23.8993 265
23.91942 271
23.93953 273
23.95965 283
23.97976 316
23.99987 285
24.01999 313
24.0401 331
24.06021 287
24.08033 248
24.10044 233
24.12056 256
24.14067 217
24.16078 229
24.1809 221
24.20101 237
24.22112 246
24.24124 230
24.26135 230
24.28146 214
24.30158 213
24.32169 249
24.34181 239
24.36192 221
24.38203 235
24.40215 233
24.42226 257
24.44237 241
24.46249 254
24.4826 259
24.50272 229
24.52283 243
24.54294 241
24.56306 243
24.58317 306
24.60328 259
24.6234 255
24.64351 274
24.66362 252
24.68374 262
24.70385 285
24.72397 277
24.74408 272
24.76419 254
24.78431 290
24.80442 327
24.82453 323
24.84465 292
24.86476 272
24.88488 299
24.90499 280
24.9251 304
24.94522 282
24.96533 283
24.98544 304
25.00556 306
25.02567 275
25.04579 258
25.0659 280
25.08601 269
25.10613 278
25.12624 284
25.14635 276
25.16647 259
25.18658 265
25.20669 273
25.22681 282
25.24692 292
25.26704 280
25.28715 294
25.30726 295
25.32738 288
25.34749 265
25.3676 269
25.38772 289
25.40783 260
25.42795 267
25.44806 265
25.46817 295
25.48829 266
25.5084 283
25.52851 297
25.54863 342
25.56874 306
25.58886 283
25.60897 320
25.62908 303
25.6492 344
25.66931 363
25.68942 404
25.70954 403
25.72965 483
25.74976 460
25.76988 416
25.78999 502
25.81011 502
25.83022 443
25.85033 496
25.87045 414
25.89056 435
25.91067 487
25.93079 467
25.9509 552
25.97102 477
25.99113 488
26.01124 513
26.03136 517
26.05147 563
26.07158 567
26.0917 613
26.11181 586
26.13193 686
26.15204 730
26.17215 795
26.19227 809
26.21238 901
26.23249 929
26.25261 991
26.27272 1063
26.29283 1152
26.31295 1273
26.33306 1414
26.35318 1517
26.37329 1797
26.3934 2072
26.41352 2572
26.43363 3368
26.45374 4379
26.47386 5876
26.49397 8125
26.51409 11549
26.5342 16157
26.55431 21894
26.57443 28943
26.59454 34978
26.61465 38824
26.63477 38257
26.65488 32684
26.67499 25394
26.69511 19365
26.71522 13946
26.73534 8592
26.75545 4641
26.77556 2854
26.79568 2174
26.81579 1743
26.8359 1618
26.85602 1398
26.87613 1302
26.89625 1156
26.91636 1059
26.93647 996
26.95659 863
26.9767 758
26.99681 747
27.01693 650
27.03704 617
27.05716 642
27.07727 560
27.09738 561
27.1175 522
27.13761 468
27.15772 465
27.17784 467
27.19795 474
27.21806 464
27.23818 463
27.25829 420
27.27841 440
27.29852 453
27.31863 431
27.33875 449
27.35886 460
27.37897 428
27.39909 442
27.4192 433
27.43932 457
27.45943 414
27.47954 422
27.49966 418
27.51977 414
27.53988 407
27.56 346
27.58011 357
27.60023 346
27.62034 354
27.64045 322
27.66057 333
27.68068 324
27.70079 306
27.72091 276
27.74102 344
27.76113 315
27.78125 293
27.80136 319
27.82148 313
27.84159 308
27.8617 339
27.88182 301
27.90193 303
27.92204 301
27.94216 280
27.96227 275
27.98239 280
28.0025 274
28.02261 264
28.04273 289
28.06284 274
28.08295 260
28.10307 266
28.12318 258
28.1433 295
28.16341 297
28.18352 266
28.20364 278
28.22375 245
28.24386 284
28.26398 302
28.28409 270
28.3042 245
28.32432 287
28.34443 266
28.36455 239
28.38466 254
28.40477 269
28.42489 250
28.445 233
28.46511 243
28.48523 250
28.50534 275
28.52546 261
28.54557 254
28.56568 255
28.5858 269
28.60591 234
28.62602 249
28.64614 248
28.66625 254
28.68636 215
28.70648 264
28.72659 234
28.74671 239
28.76682 230
28.78693 249
28.80705 262
28.82716 247
28.84727 237
28.86739 222
28.8875 243
28.90762 222
28.92773 260
28.94784 224
28.96796 207
28.98807 241
29.00818 227
29.0283 219
29.04841 226
29.06853 233
29.08864 244
29.10875 224
29.12887 251
29.14898 241
29.16909 243
29.18921 232
29.20932 238
29.22943 223
29.24955 240
29.26966 211
29.28978 237
29.30989 260
29.33 215
29.35012 230
29.37023 244
29.39034 233
29.41046 270
29.43057 257
29.45069 242
29.4708 245
29.49091 240
29.51103 232
29.53114 223
29.55125 230
29.57137 240
29.59148 220
29.6116 219
29.63171 209
29.65182 222
29.67194 206
29.69205 196
29.71216 228
29.73228 211
29.75239 219
29.7725 225
29.79262 218
29.81273 205
29.83285 207
29.85296 215
29.87307 187
29.89319 219
29.9133 221
29.93341 229
29.95353 208
29.97364 203
29.99376 197
30.01387 215
30.03398 220
30.0541 208
30.07421 209
30.09432 216
30.11444 226
30.13455 229
30.15467 216
30.17478 251
30.19489 205
30.21501 204
30.23512 234
30.25523 228
30.27535 221
30.29546 211
30.31557 183
30.33569 197
30.3558 186
30.37592 186
30.39603 223
30.41614 200
30.43626 177
30.45637 196
30.47648 185
30.4966 175
30.51671 192
30.53683 211
30.55694 192
30.57705 204
30.59717 192
30.61728 223
30.63739 217
30.65751 218
30.67762 185
30.69773 201
30.71785 175
30.73796 239
30.75808 214
30.77819 222
30.7983 183
30.81842 191
30.83853 193
30.85864 195
30.87876 205
30.89887 209
30.91899 178
30.9391 199
30.95921 180
30.97933 189
30.99944 206
31.01955 184
31.03967 204
31.05978 193
31.0799 190
31.10001 188
31.12012 183
31.14024 193
31.16035 224
31.18046 190
31.20058 166
31.22069 165
31.2408 187
31.26092 169
31.28103 167
31.30115 184
31.32126 209
31.34137 171
31.36149 193
31.3816 180
31.40171 203
31.42183 183
31.44194 179
31.46206 153
31.48217 177
31.50228 182
31.5224 178
31.54251 201
31.56262 191
31.58274 179
31.60285 169
31.62297 191
31.64308 175
31.66319 172
31.68331 176
31.70342 137
31.72353 177
31.74365 187
31.76376 151
31.78387 204
31.80399 169
31.8241 175
31.84422 186
31.86433 178
31.88444 181
31.90456 150
31.92467 193
31.94478 154
31.9649 198
31.98501 183
32.00513 149
32.02524 162
32.04535 185
32.06547 149
32.08558 164
32.10569 173
32.12581 169
32.14592 186
32.16604 145
32.18615 197
32.20626 171
32.22638 196
32.24649 178
32.2666 177
32.28672 177
32.30683 171
32.32694 178
32.34706 157
32.36717 178
32.38729 169
32.4074 185
32.42751 181
32.44763 174
32.46774 187
32.48785 164
32.50797 189
32.52808 177
32.5482 143
32.56831 162
32.58842 173
32.60854 197
32.62865 158
32.64876 159
32.66888 167
32.68899 172
32.7091 155
32.72922 158
32.74933 170
32.76945 161
32.78956 179
32.80967 153
32.82979 180
32.8499 153
32.87001 178
32.89013 171
32.91024 174
32.93036 176
32.95047 163
32.97058 166
32.9907 165
33.01081 191
33.03092 157
33.05104 176
33.07115 141
33.09127 169
33.11138 171
33.13149 168
33.15161 160
33.17172 171
33.19183 165
33.21195 164
33.23206 165
33.25217 156
33.27229 167
33.2924 146
33.31252 181
33.33263 166
33.35274 150
33.37286 188
33.39297 162
33.41308 152
33.4332 173
33.45331 159
33.47343 167
33.49354 170
33.51365 143
33.53377 147
33.55388 155
33.57399 162
33.59411 175
33.61422 175
33.63434 153
33.65445 156
33.67456 177
33.69468 160
33.71479 168
33.7349 174
33.75502 156
33.77513 165
33.79524 140
33.81536 153
33.83547 147
33.85559 155
33.8757 168
33.89581 151
33.91593 139
33.93604 159
33.95615 175
33.97627 158
33.99638 157
34.0165 170
34.03661 170
34.05672 169
34.07684 170
34.09695 157
34.11706 188
34.13718 162
34.15729 173
34.17741 175
34.19752 178
34.21763 169
34.23775 152
34.25786 155
34.27797 139
34.29809 158
34.3182 160
34.33831 143
34.35843 154
34.37854 168
34.39866 161
34.41877 177
34.43888 148
34.459 191
34.47911 158
34.49922 150
34.51934 166
34.53945 181
34.55957 163
34.57968 176
34.59979 165
34.61991 191
34.64002 213
34.66013 195
34.68025 199
34.70036 190
34.72047 191
34.74059 176
34.7607 195
34.78082 219
34.80093 204
34.82104 225
34.84116 204
34.86127 219
34.88138 243
34.9015 244
34.92161 221
34.94173 213
34.96184 221
34.98195 214
35.00207 213
35.02218 204
35.04229 208
35.06241 198
35.08252 224
35.10264 200
35.12275 226
35.14286 209
35.16298 217
35.18309 234
35.2032 205
35.22332 213
35.24343 208
35.26354 207
35.28366 234
35.30377 184
35.32389 201
35.344 200
35.36411 211
35.38423 202
35.40434 208
35.42445 206
35.44457 217
35.46468 226
35.4848 198
35.50491 203
35.52502 261
35.54514 206
35.56525 205
35.58536 217
35.60548 230
35.62559 231
35.64571 210
35.66582 229
35.68593 240
35.70605 235
35.72616 232
35.74627 232
35.76639 229
35.7865 213
35.80661 222
35.82673 230
35.84684 227
35.86696 229
35.88707 219
35.90718 237
35.9273 210
35.94741 234
35.96752 231
35.98764 220
36.00775 219
36.02787 252
36.04798 231
36.06809 207
36.08821 232
36.10832 240
36.12843 264
36.14855 273
36.16866 252
36.18878 259
36.20889 251
36.229 294
36.24912 297
36.26923 331
36.28934 365
36.30946 388
36.32957 433
36.34968 583
36.3698 700
36.38991 827
36.41003 972
36.43014 1313
36.45025 1696
36.47037 2125
36.49048 2362
36.51059 2726
36.53071 2663
36.55082 2323
36.57094 1862
36.59105 1556
36.61116 1453
36.63128 1217
36.65139 936
36.6715 631
36.69162 455
36.71173 324
36.73184 298
36.75196 299
36.77207 271
36.79219 260
36.8123 245
36.83241 247
36.85253 252
36.87264 250
36.89275 222
36.91287 212
36.93298 266
36.9531 245
36.97321 219
36.99332 212
37.01344 239
37.03355 244
37.05366 245
37.07378 225
37.09389 200
37.11401 214
37.13412 204
37.15423 185
37.17435 199
37.19446 189
37.21457 203
37.23469 179
37.2548 196
37.27491 211
37.29503 188
37.31514 184
37.33526 198
37.35537 172
37.37548 182
37.3956 203
37.41571 197
37.43582 177
37.45594 203
37.47605 195
37.49617 197
37.51628 186
37.53639 205
37.55651 200
37.57662 181
37.59673 224
37.61685 210
37.63696 203
37.65708 185
37.67719 196
37.6973 184
37.71742 210
37.73753 218
37.75764 217
37.77776 202
37.79787 203
37.81798 201
37.8381 205
37.85821 197
37.87833 176
37.89844 170
37.91855 190
37.93867 213
37.95878 190
37.97889 197
37.99901 204
38.01912 188
38.03924 224
38.05935 211
38.07946 186
38.09958 200
38.11969 194
38.1398 194
38.15992 230
38.18003 201
38.20015 224
38.22026 207
38.24037 179
38.26049 206
38.2806 226
38.30071 181
38.32083 232
38.34094 207
38.36105 227
38.38117 223
38.40128 231
38.4214 199
38.44151 210
38.46162 225
38.48174 218
38.50185 205
38.52196 226
38.54208 214
38.56219 200
38.58231 217
38.60242 200
38.62253 215
38.64265 213
38.66276 202
38.68287 236
38.70299 189
38.7231 200
38.74321 203
38.76333 192
38.78344 219
38.80356 191
38.82367 199
38.84378 207
38.8639 206
38.88401 216
38.90412 187
38.92424 244
38.94435 215
38.96447 230
38.98458 245
39.00469 203
39.02481 261
39.04492 241
39.06503 241
39.08515 243
39.10526 246
39.12538 288
39.14549 241
39.1656 305
39.18572 274
39.20583 321
39.22594 386
39.24606 459
39.26617 514
39.28628 587
39.3064 784
39.32651 914
39.34663 1148
39.36674 1447
39.38685 1841
39.40697 2150
39.42708 2378
39.44719 2486
39.46731 2146
39.48742 1874
39.50754 1513
39.52765 1313
39.54776 1255
39.56788 1047
39.58799 765
39.6081 500
39.62822 390
39.64833 336
39.66845 307
39.68856 237
39.70867 283
39.72879 209
39.7489 230
39.76901 275
39.78913 236
39.80924 220
39.82935 197
39.84947 229
39.86958 218
39.8897 191
39.90981 249
39.92992 211
39.95004 223
39.97015 236
39.99026 224
40.01038 238
40.03049 276
40.05061 282
40.07072 312
40.09083 364
40.11095 416
40.13106 474
40.15117 610
40.17129 671
40.1914 865
40.21152 1050
40.23163 1156
40.25174 1263
40.27186 1266
40.29197 1138
40.31208 1026
40.3322 845
40.35231 713
40.37242 650
40.39254 585
40.41265 464
40.43277 349
40.45288 263
40.47299 220
40.49311 243
40.51322 206
40.53333 224
40.55345 209
40.57356 177
40.59368 201
40.61379 182
40.6339 180
40.65402 182
40.67413 180
40.69424 176
40.71436 185
40.73447 179
40.75458 184
40.7747 172
40.79481 198
40.81493 167
40.83504 164
40.85515 171
40.87527 148
40.89538 175
40.91549 159
40.93561 178
40.95572 181
40.97584 200
40.99595 171
41.01606 191
41.03618 144
41.05629 178
41.0764 185
41.09652 163
41.11663 163
41.13675 175
41.15686 169
41.17697 161
41.19709 193
41.2172 189
41.23731 179
41.25743 180
41.27754 161
41.29765 176
41.31777 174
41.33788 174
41.358 185
41.37811 184
41.39822 181
41.41834 168
41.43845 165
41.45856 177
41.47868 177
41.49879 166
41.51891 168
41.53902 176
41.55913 191
41.57925 205
41.59936 149
41.61947 198
41.63959 189
41.6597 161
41.67982 192
41.69993 171
41.72004 184
41.74016 209
41.76027 203
41.78038 184
41.8005 201
41.82061 185
41.84072 186
41.86084 186
41.88095 200
41.90107 172
41.92118 194
41.94129 205
41.96141 204
41.98152 190
42.00163 201
42.02175 225
42.04186 224
42.06198 214
42.08209 201
42.1022 222
42.12232 259
42.14243 249
42.16254 262
42.18266 285
42.20277 315
42.22289 363
42.243 401
42.26311 489
42.28323 565
42.30334 670
42.32345 829
42.34357 1052
42.36368 1280
42.38379 1508
42.40391 1729
42.42402 1736
42.44414 1650
42.46425 1433
42.48436 1171
42.50448 1069
42.52459 988
42.5447 859
42.56482 666
42.58493 477
42.60505 363
42.62516 315
42.64527 284
42.66539 241
42.6855 255
42.70561 220
42.72573 191
42.74584 177
42.76595 181
42.78607 181
42.80618 181
42.8263 175
42.84641 201
42.86652 169
42.88664 166
42.90675 188
42.92686 158
42.94698 198
42.96709 172
42.98721 164
43.00732 164
43.02743 172
43.04755 164
43.06766 167
43.08777 146
43.10789 165
43.128 191
43.14812 178
43.16823 154
43.18834 177
43.20846 156
43.22857 170
43.24868 157
43.2688 147
43.28891 171
43.30902 149
43.32914 167
43.34925 148
43.36937 170
43.38948 139
43.40959 173
43.42971 178
43.44982 162
43.46993 183
43.49005 155
43.51016 140
43.53028 138
43.55039 183
43.5705 130
43.59062 152
43.61073 175
43.63084 161
43.65096 150
43.67107 151
43.69119 146
43.7113 154
43.73141 163
43.75153 154
43.77164 165
43.79175 138
43.81187 160
43.83198 149
43.85209 164
43.87221 171
43.89232 167
43.91244 147
43.93255 192
43.95266 151
43.97278 148
43.99289 142
44.013 172
44.03312 157
44.05323 142
44.07335 142
44.09346 142
44.11357 149
44.13369 159
44.1538 172
44.17391 141
44.19403 134
44.21414 166
44.23426 174
44.25437 163
44.27448 159
44.2946 163
44.31471 154
44.33482 162
44.35494 154
44.37505 152
44.39516 173
44.41528 156
44.43539 166
44.45551 166
44.47562 157
44.49573 162
44.51585 151
44.53596 154
44.55607 166
44.57619 165
44.5963 125
44.61642 154
44.63653 169
44.65664 157
44.67676 154
44.69687 156
44.71698 168
44.7371 160
44.75721 159
44.77732 158
44.79744 180
44.81755 152
44.83767 191
44.85778 161
44.87789 172
44.89801 176
44.91812 157
44.93823 171
44.95835 166
44.97846 168
44.99858 189
45.01869 167
45.0388 162
45.05892 156
45.07903 160
45.09914 162
45.11926 158
45.13937 162
45.15949 165
45.1796 144
45.19971 162
45.21983 156
45.23994 164
45.26005 183
45.28017 175
45.30028 169
45.32039 161
45.34051 204
45.36062 180
45.38074 171
45.40085 176
45.42096 185
45.44108 217
45.46119 247
45.4813 210
45.50142 260
45.52153 248
45.54165 281
45.56176 297
45.58187 343
45.60199 360
45.6221 392
45.64221 538
45.66233 617
45.68244 759
45.70256 913
45.72267 1063
45.74278 1196
45.7629 1222
45.78301 1143
45.80312 988
45.82324 757
45.84335 729
45.86346 650
45.88358 673
45.90369 624
45.92381 460
45.94392 371
45.96403 260
45.98415 259
46.00426 189
46.02437 211
46.04449 189
46.0646 184
46.08472 186
46.10483 171
46.12494 191
46.14506 171
46.16517 154
46.18528 156
46.2054 161
46.22551 174
46.24563 191
46.26574 141
46.28585 155
46.30597 156
46.32608 146
46.34619 170
46.36631 166
46.38642 156
46.40653 168
46.42665 160
46.44676 162
46.46688 189
46.48699 164
46.5071 162
46.52722 171
46.54733 184
46.56744 179
46.58756 143
46.60767 142
46.62779 161
46.6479 145
46.66801 149
46.68813 157
46.70824 152
46.72835 149
46.74847 147
46.76858 142
46.78869 149
46.80881 147
46.82892 172
46.84904 151
46.86915 145
46.88926 138
46.90938 157
46.92949 149
46.9496 140
46.96972 141
46.98983 173
47.00995 156
47.03006 152
47.05017 139
47.07029 159
47.0904 140
47.11051 156
47.13063 152
47.15074 163
47.17086 147
47.19097 139
47.21108 154
47.2312 149
47.25131 165
47.27142 143
47.29154 139
47.31165 169
47.33176 143
47.35188 139
47.37199 159
47.39211 158
47.41222 175
47.43233 153
47.45245 156
47.47256 147
47.49267 142
47.51279 144
47.5329 130
47.55302 155
47.57313 135
47.59324 158
47.61336 149
47.63347 150
47.65358 151
47.6737 144
47.69381 176
47.71393 148
47.73404 141
47.75415 167
47.77427 141
47.79438 141
47.81449 161
47.83461 157
47.85472 143
47.87483 132
47.89495 152
47.91506 138
47.93518 144
47.95529 156
47.9754 153
47.99552 168
48.01563 147
48.03574 157
48.05586 145
48.07597 153
48.09609 168
48.1162 137
48.13631 131
48.15643 149
48.17654 139
48.19665 145
48.21677 156
48.23688 152
48.257 142
48.27711 153
48.29722 162
48.31734 179
48.33745 136
48.35756 134
48.37768 175
48.39779 163
48.4179 147
48.43802 153
48.45813 152
48.47825 165
48.49836 151
48.51847 151
48.53859 155
48.5587 180
48.57881 149
48.59893 153
48.61904 143
48.63916 168
48.65927 143
48.67938 168
48.6995 172
48.71961 170
48.73972 170
48.75984 175
48.77995 161
48.80006 170
48.82018 143
48.84029 168
48.86041 180
48.88052 168
48.90063 154
48.92075 177
48.94086 163
48.96097 166
48.98109 129
49.0012 159
49.02132 155
49.04143 148
49.06154 167
49.08166 178
49.10177 184
49.12188 172
49.142 177
49.16211 155
49.18223 165
49.20234 155
49.22245 171
49.24257 180
49.26268 152
49.28279 181
49.30291 183
49.32302 160
49.34313 165
49.36325 193
49.38336 201
49.40348 168
49.42359 183
49.4437 168
49.46382 189
49.48393 189
49.50404 182
49.52416 178
49.54427 183
49.56439 189
49.5845 174
49.60461 195
49.62473 191
49.64484 213
49.66495 227
49.68507 274
49.70518 257
49.7253 256
49.74541 278
49.76552 346
49.78564 312
49.80575 328
49.82586 389
49.84598 380
49.86609 502
49.8862 573
49.90632 663
49.92643 815
49.94655 976
49.96666 1177
49.98677 1456
50.00689 1922
50.027 2318
50.04711 2824
50.06723 3302
50.08734 3773
50.10746 3883
50.12757 3749
50.14768 3129
50.1678 2489
50.18791 2181
50.20802 2025
50.22814 2083
50.24825 1948
50.26837 1680
50.28848 1198
50.30859 778
50.32871 567
50.34882 409
50.36893 364
50.38905 319
50.40916 315
50.42927 311
50.44939 294
50.4695 311
50.48962 316
50.50973 278
50.52984 269
50.54996 274
50.57007 271
50.59018 287
50.6103 281
50.63041 263
50.65053 193
50.67064 228
50.69075 237
50.71087 239
50.73098 222
50.75109 201
50.77121 190
50.79132 208
50.81143 174
50.83155 163
50.85166 162
50.87178 161
50.89189 199
50.912 156
50.93212 178
50.95223 150
50.97234 170
50.99246 178
51.01257 151
51.03269 169
51.0528 152
51.07291 165
51.09303 150
51.11314 143
51.13325 146
51.15337 143
51.17348 155
51.1936 141
51.21371 138
51.23382 142
51.25394 153
51.27405 172
51.29416 143
51.31428 143
51.33439 165
51.3545 142
51.37462 132
51.39473 136
51.41485 150
51.43496 133
51.45507 134
51.47519 138
51.4953 141
51.51541 169
51.53553 135
51.55564 148
51.57576 144
51.59587 145
51.61598 139
51.6361 138
51.65621 150
51.67632 136
51.69644 143
51.71655 123
51.73667 125
51.75678 140
51.77689 148
51.79701 144
51.81712 138
51.83723 143
51.85735 114
51.87746 131
51.89757 128
51.91769 126
51.9378 148
51.95792 151
51.97803 153
51.99814 140
52.01826 127
52.03837 137
52.05848 133
52.0786 139
52.09871 142
52.11883 153
52.13894 141
52.15905 145
52.17917 147
52.19928 150
52.21939 146
52.23951 132
52.25962 133
52.27974 144
52.29985 141
52.31996 131
52.34008 128
52.36019 125
52.3803 130
52.40042 141
52.42053 127
52.44064 141
52.46076 131
52.48087 126
52.50099 131
52.5211 147
52.54121 128
52.56133 157
52.58144 118
52.60155 124
52.62167 134
52.64178 141
52.6619 151
52.68201 141
52.70212 148
52.72224 122
52.74235 146
52.76246 136
52.78258 147
52.80269 141
52.8228 141
52.84292 104
52.86303 135
52.88315 133
52.90326 143
52.92337 144
52.94349 136
52.9636 130
52.98371 159
53.00383 138
53.02394 152
53.04406 151
53.06417 146
53.08428 150
53.1044 153
53.12451 136
53.14462 141
53.16474 135
53.18485 151
53.20497 131
53.22508 142
53.24519 149
53.26531 154
53.28542 140
53.30553 148
53.32565 147
53.34576 165
53.36587 165
53.38599 142
53.4061 151
53.42622 168
53.44633 161
53.46644 163
53.48656 146
53.50667 118
53.52678 161
53.5469 140
53.56701 178
53.58713 152
53.60724 165
53.62735 133
53.64747 171
53.66758 163
53.68769 146
53.70781 161
53.72792 157
53.74804 170
53.76815 158
53.78826 165
53.80838 128
53.82849 150
53.8486 177
53.86872 162
53.88883 147
53.90894 167
53.92906 164
53.94917 152
53.96929 165
53.9894 139
54.00951 157
54.02963 173
54.04974 170
54.06985 178
54.08997 177
54.11008 182
54.1302 151
54.15031 144
54.17042 182
54.19054 155
54.21065 191
54.23076 188
54.25088 177
54.27099 169
54.29111 199
54.31122 192
54.33133 193
54.35145 180
54.37156 174
54.39167 193
54.41179 166
54.4319 187
54.45201 173
54.47213 212
54.49224 235
54.51236 232
54.53247 219
54.55258 265
54.5727 238
54.59281 299
54.61292 274
54.63304 309
54.65315 374
54.67327 388
54.69338 486
54.71349 546
54.73361 662
54.75372 752
54.77383 898
54.79395 1035
54.81406 1202
54.83417 1201
54.85429 1216
54.8744 1012
54.89452 844
54.91463 727
54.93474 708
54.95486 701
54.97497 755
54.99508 675
55.0152 672
55.03531 471
55.05543 362
55.07554 379
55.09565 301
55.11577 316
55.13588 306
55.15599 349
55.17611 385
55.19622 421
55.21634 435
55.23645 481
55.25656 577
55.27668 658
55.29679 577
55.3169 556
55.33702 509
55.35713 419
55.37724 413
55.39736 385
55.41747 381
55.43759 389
55.4577 316
55.47781 324
55.49793 268
55.51804 242
55.53815 203
55.55827 197
55.57838 195
55.5985 171
55.61861 183
55.63872 159
55.65884 194
55.67895 164
55.69906 178
55.71918 172
55.73929 162
55.75941 167
55.77952 180
55.79963 154
55.81975 151
55.83986 159
55.85997 175
55.88009 148
55.9002 150
55.92031 155
55.94043 136
55.96054 153
55.98066 157
56.00077 165
56.02088 148
56.041 160
56.06111 156
56.08122 158
56.10134 178
56.12145 149
56.14157 153
56.16168 155
56.18179 159
56.20191 138
56.22202 116
56.24213 160
56.26225 150
56.28236 157
56.30248 160
56.32259 146
56.3427 128
56.36282 147
56.38293 132
56.40304 153
56.42316 161
56.44327 142
56.46338 138
56.4835 151
56.50361 150
56.52373 126
56.54384 148
56.56395 135
56.58407 146
56.60418 150
56.62429 131
56.64441 147
56.66452 121
56.68464 137
56.70475 132
56.72486 146
56.74498 146
56.76509 137
56.7852 147
56.80532 137
56.82543 158
56.84554 133
56.86566 137
56.88577 145
56.90589 132
56.926 152
56.94611 129
56.96623 156
56.98634 152
57.00645 145
57.02657 142
57.04668 154
57.0668 154
57.08691 144
57.10702 165
57.12714 196
57.14725 196
57.16736 219
57.18748 193
57.20759 188
57.22771 176
57.24782 168
57.26793 190
57.28805 150
57.30816 144
57.32827 169
57.34839 149
57.3685 161
57.38861 172
57.40873 147
57.42884 147
57.44896 150
57.46907 126
57.48918 136
57.5093 141
57.52941 148
57.54952 138
57.56964 131
57.58975 148
57.60987 147
57.62998 148
57.65009 150
57.67021 147
57.69032 153
57.71043 156
57.73055 143
57.75066 148
57.77078 144
57.79089 138
57.811 158
57.83112 156
57.85123 165
57.87134 143
57.89146 152
57.91157 149
57.93168 148
57.9518 137
57.97191 144
57.99203 142
58.01214 149
58.03225 146
58.05237 154
58.07248 151
58.09259 151
58.11271 167
58.13282 144
58.15294 136
58.17305 129
58.19316 133
58.21328 145
58.23339 141
58.2535 156
58.27362 145
58.29373 148
58.31385 131
58.33396 155
58.35407 151
58.37419 146
58.3943 149
58.41441 137
58.43453 135
58.45464 124
58.47475 155
58.49487 138
58.51498 128
58.5351 125
58.55521 126
58.57532 142
58.59544 161
58.61555 138
58.63566 151
58.65578 125
58.67589 139
58.69601 147
58.71612 135
58.73623 155
58.75635 151
58.77646 138
58.79657 135
58.81669 147
58.8368 154
58.85691 164
58.87703 143
58.89714 149
58.91726 131
58.93737 151
58.95748 132
58.9776 134
58.99771 135
59.01782 156
59.03794 174
59.05805 146
59.07817 147
59.09828 150
59.11839 146
59.13851 127
59.15862 158
59.17873 175
59.19885 150
59.21896 146
59.23908 164
59.25919 186
59.2793 189
59.29942 159
59.31953 170
59.33964 174
59.35976 164
59.37987 188
59.39998 174
59.4201 166
59.44021 200
59.46033 199
59.48044 181
59.50055 227
59.52067 225
59.54078 264
59.56089 234
59.58101 249
59.60112 311
59.62124 337
59.64135 339
59.66146 358
59.68158 401
59.70169 488
59.7218 562
59.74192 623
59.76203 758
59.78215 921
59.80226 1096
59.82237 1388
59.84249 1621
59.8626 1986
59.88271 2239
59.90283 2448
59.92294 2593
59.94305 2354
59.96317 1784
59.98328 1587
60.0034 1284
60.02351 1220
60.04362 1290
60.06374 1310
60.08385 1325
60.10396 1130
60.12408 902
60.14419 659
60.16431 497
60.18442 370
60.20453 285
60.22465 270
60.24476 246
60.26487 222
60.28499 228
60.3051 200
60.32522 207
60.34533 192
60.36544 200
60.38556 208
60.40567 180
60.42578 161
60.4459 186
60.46601 174
60.48612 160
60.50624 166
60.52635 153
60.54647 160
60.56658 168
60.58669 156
60.60681 172
60.62692 157
60.64703 136
60.66715 170
60.68726 168
60.70738 173
60.72749 140
60.7476 146
60.76772 149
60.78783 155
60.80794 173
60.82806 161
60.84817 158
60.86828 151
60.8884 149
60.90851 154
60.92863 140
60.94874 131
60.96885 151
60.98897 145
61.00908 135
61.02919 164
61.04931 137
61.06942 146
61.08954 147
61.10965 155
61.12976 166
61.14988 130
61.16999 152
61.1901 159
61.21022 144
61.23033 147
61.25045 146
61.27056 134
61.29067 136
61.31079 134
61.3309 161
61.35101 139
61.37113 152
61.39124 151
61.41135 141
61.43147 151
61.45158 138
61.4717 162
61.49181 151
61.51192 150
61.53204 158
61.55215 148
61.57226 150
61.59238 135
61.61249 163
61.63261 162
61.65272 161
61.67283 136
61.69295 152
61.71306 155
61.73317 165
61.75329 165
61.7734 168
61.79352 156
61.81363 174
61.83374 146
61.85386 158
61.87397 143
61.89408 174
61.9142 178
61.93431 144
61.95442 159
61.97454 158
61.99465 164
62.01477 169
62.03488 175
62.05499 174
62.07511 193
62.09522 185
62.11533 185
62.13545 205
62.15556 194
62.17568 201
62.19579 192
62.2159 177
62.23602 197
62.25613 191
62.27624 194
62.29636 183
62.31647 200
62.33659 186
62.3567 177
62.37681 163
62.39693 160
62.41704 168
62.43715 173
62.45727 138
62.47738 180
62.49749 179
62.51761 154
62.53772 171
62.55784 138
62.57795 170
62.59806 145
62.61818 144
62.63829 144
62.6584 134
62.67852 144
62.69863 136
62.71875 163
62.73886 148
62.75897 139
62.77909 133
62.7992 144
62.81931 110
62.83943 133
62.85954 132
62.87965 149
62.89977 132
62.91988 159
62.94 132
62.96011 162
62.98022 144
63.00034 131
63.02045 164
63.04056 135
63.06068 149
63.08079 143
63.10091 133
63.12102 130
63.14113 107
63.16125 142
63.18136 151
63.20147 145
63.22159 134
63.2417 133
63.26182 160
63.28193 156
63.30204 161
63.32216 168
63.34227 144
63.36238 115
63.3825 122
63.40261 127
63.42272 142
63.44284 130
63.46295 132
63.48307 161
63.50318 122
63.52329 159
63.54341 158
63.56352 123
63.58363 160
63.60375 160
63.62386 150
63.64398 162
63.66409 168
63.6842 168
63.70432 159
63.72443 166
63.74454 181
63.76466 192
63.78477 212
63.80489 194
63.825 235
63.84511 276
63.86523 279
63.88534 328
63.90545 374
63.92557 439
63.94568 464
63.96579 528
63.98591 563
64.00602 514
64.02614 443
64.04625 407
64.06636 354
64.08648 324
64.10659 319
64.1267 321
64.14682 310
64.16693 349
64.18705 332
64.20716 305
64.22727 235
64.24739 211
64.2675 202
64.28761 172
64.30773 154
64.32784 150
64.34796 176
64.36807 156
64.38818 150
64.4083 153
64.42841 138
64.44852 144
64.46864 138
64.48875 124
64.50886 118
64.52898 134
64.54909 132
64.56921 141
64.58932 144
64.60943 147
64.62955 150
64.64966 128
64.66977 144
64.68989 133
64.71 124
64.73012 124
64.75023 116
64.77034 116
64.79046 136
64.81057 155
64.83068 118
64.8508 129
64.87091 147
64.89102 136
64.91114 134
64.93125 135
64.95137 118
64.97148 138
64.99159 139
65.01171 147
65.03182 116
65.05193 133
65.07205 118
65.09216 135
65.11228 121
65.13239 146
65.1525 125
65.17262 134
65.19273 128
65.21284 150
65.23296 133
65.25307 144
65.27319 131
65.2933 141
65.31341 142
65.33353 138
65.35364 155
65.37375 136
65.39387 154
65.41398 138
65.43409 137
65.45421 147
65.47432 153
65.49444 162
65.51455 154
65.53466 163
65.55478 151
65.57489 193
65.595 183
65.61512 183
65.63523 180
65.65535 197
65.67546 212
65.69557 239
65.71569 234
65.7358 205
65.75591 222
65.77603 215
65.79614 208
65.81626 205
65.83637 196
65.85648 179
65.8766 191
65.89671 187
65.91682 188
65.93694 170
65.95705 171
65.97716 169
65.99728 166
66.01739 165
66.03751 150
66.05762 140
66.07773 130
66.09785 137
66.11796 145
66.13807 165
66.15819 154
66.1783 157
66.19842 130
66.21853 151
66.23864 129
66.25876 141
66.27887 156
66.29898 143
66.3191 135
66.33921 138
66.35933 136
66.37944 162
66.39955 155
66.41967 120
66.43978 163
66.45989 147
66.48001 159
66.50012 152
66.52023 153
66.54035 161
66.56046 143
66.58058 141
66.60069 138
66.6208 129
66.64092 154
66.66103 145
66.68114 159
66.70126 113
66.72137 148
66.74149 135
66.7616 138
66.78171 150
66.80183 130
66.82194 139
66.84205 159
66.86217 152
66.88228 144
66.90239 158
66.92251 146
66.94262 164
66.96274 146
66.98285 146
67.00296 151
67.02308 165
67.04319 162
67.0633 159
67.08342 145
67.10353 161
67.12365 142
67.14376 169
67.16387 156
67.18399 162
67.2041 169
67.22421 189
67.24433 184
67.26444 163
67.28456 183
67.30467 205
67.32478 238
67.3449 236
67.36501 247
67.38512 225
67.40524 258
67.42535 279
67.44546 289
67.46558 321
67.48569 402
67.50581 425
67.52592 501
67.54603 542
67.56615 619
67.58626 778
67.60637 899
67.62649 1091
67.6466 1206
67.66672 1368
67.68683 1436
67.70694 1429
67.72706 1334
67.74717 1116
67.76728 1000
67.7874 888
67.80751 848
67.82763 890
67.84774 933
67.86785 1034
67.88797 1062
67.90808 1005
67.92819 1069
67.94831 1027
67.96842 1008
67.98853 1104
68.00865 1212
68.02876 1461
68.04888 1603
68.06899 1735
68.0891 1953
68.10922 1953
68.12933 1922
68.14944 1721
68.16956 1577
68.18967 1473
68.20979 1503
68.2299 1652
68.25001 1742
68.27013 1785
68.29024 1751
68.31035 1511
68.33047 1313
68.35058 1115
68.3707 882
68.39081 779
68.41092 678
68.43104 682
68.45115 689
68.47126 660
68.49138 580
68.51149 445
68.5316 385
68.55172 351
68.57183 293
68.59195 244
68.61206 237
68.63217 238
68.65229 219
68.6724 195
68.69251 197
68.71263 223
68.73274 192
68.75286 172
68.77297 165
68.79308 166
68.8132 171
68.83331 201
68.85342 176
68.87354 149
68.89365 177
68.91376 151
68.93388 140
68.95399 153
68.97411 159
68.99422 143
69.01433 142
69.03445 149
69.05456 143
69.07467 133
69.09479 169
69.1149 151
69.13502 143
69.15513 138
69.17524 149
69.19536 149
69.21547 136
69.23558 139
69.2557 137
69.27581 139
69.29593 139
69.31604 130
69.33615 137
69.35627 121
69.37638 133
69.39649 131
69.41661 151
69.43672 136
69.45683 151
69.47695 142
69.49706 132
69.51718 138
69.53729 140
69.5574 125
69.57752 133
69.59763 131
69.61774 140
69.63786 143
69.65797 127
69.67809 141
69.6982 118
69.71831 116
69.73843 144
69.75854 139
69.77865 136
69.79877 129
69.81888 149
69.839 139
69.85911 122
69.87922 147
69.89934 134
69.91945 130
69.93956 136
69.95968 143
69.97979 134
69.9999 118
70.02002 106
70.04013 139
70.06025 147
70.08036 137
70.10047 142
70.12059 126
70.1407 122
70.16081 150
70.18093 138
70.20104 137
70.22116 136
70.24127 127
70.26138 135
70.2815 113
70.30161 140
70.32172 147
70.34184 144
70.36195 159
70.38207 116
70.40218 135
70.42229 132
70.44241 146
70.46252 129
70.48263 157
70.50275 130
70.52286 107
70.54297 139
70.56309 138
70.5832 136
70.60332 116
70.62343 146
70.64354 144
70.66366 124
70.68377 105
70.70388 143
70.724 140
70.74411 125
70.76423 124
70.78434 128
70.80445 129
70.82457 139
70.84468 120
70.86479 152
70.88491 127
70.90502 147
70.92513 132
70.94525 128
70.96536 133
70.98548 133
71.00559 129
71.0257 121
71.04582 129
71.06593 129
71.08604 141
71.10616 119
71.12627 133
71.14639 120
71.1665 117
71.18661 138
71.20673 125
71.22684 127
71.24695 116
71.26707 138
71.28718 141
71.3073 138
71.32741 124
71.34752 143
71.36764 114
71.38775 123
71.40786 115
71.42798 128
71.44809 133
71.4682 130
71.48832 111
71.50843 119
71.52855 130
71.54866 124
71.56877 117
71.58889 118
71.609 118
71.62911 134
71.64923 138
71.66934 124
71.68946 124
71.70957 121
71.72968 131
71.7498 112
71.76991 128
71.79002 119
71.81014 138
71.83025 139
71.85037 145
71.87048 108
71.89059 134
71.91071 132
71.93082 137
71.95093 135
71.97105 131
71.99116 161
72.01127 129
72.03139 128
72.0515 132
72.07162 134
72.09173 124
72.11184 134
72.13196 128
72.15207 118
72.17218 130
72.1923 115
72.21241 141
72.23253 126
72.25264 120
72.27275 117
72.29287 119
72.31298 117
72.33309 138
72.35321 148
72.37332 139
72.39344 109
72.41355 120
72.43366 136
72.45378 123
72.47389 136
72.494 124
72.51412 126
72.53423 121
72.55434 127
72.57446 121
72.59457 131
72.61469 138
72.6348 136
72.65491 132
72.67503 119
72.69514 119
72.71525 140
72.73537 124
72.75548 140
72.7756 134
72.79571 147
72.81582 133
72.83594 151
72.85605 136
72.87616 153
72.89628 141
72.91639 130
72.9365 143
72.95662 138
72.97673 142
72.99685 131
73.01696 151
73.03707 149
73.05719 154
73.0773 142
73.09741 165
73.11753 162
73.13764 164
73.15776 166
73.17787 204
73.19798 202
73.2181 225
73.23821 235
73.25832 261
73.27844 289
73.29855 298
73.31867 376
73.33878 436
73.35889 487
73.37901 512
73.39912 518
73.41923 579
73.43935 581
73.45946 500
73.47957 426
73.49969 373
73.5198 335
73.53992 310
73.56003 319
73.58014 330
73.60026 312
73.62037 350
73.64048 349
73.6606 335
73.68071 287
73.70083 229
73.72094 203
73.74105 196
73.76117 178
73.78128 157
73.80139 157
73.82151 156
73.84162 140
73.86174 140
73.88185 146
73.90196 153
73.92208 126
73.94219 141
73.9623 102
73.98242 160
74.00253 142
74.02264 127
74.04276 129
74.06287 134
74.08299 129
74.1031 130
74.12321 151
74.14333 124
74.16344 133
74.18355 132
74.20367 142
74.22378 139
74.2439 138
74.26401 137
74.28412 141
74.30424 118
74.32435 129
74.34446 123
74.36458 127
74.38469 136
74.40481 131
74.42492 132
74.44503 114
74.46515 157
74.48526 123
74.50537 119
74.52549 125
74.5456 127
74.56571 99
74.58583 126
74.60594 139
74.62606 138
74.64617 119
74.66628 123
74.6864 134
74.70651 140
74.72662 175
74.74674 126
74.76685 142
74.78697 137
74.80708 133
74.82719 140
74.84731 121
74.86742 129
74.88753 138
74.90765 137
74.92776 138
74.94787 128
74.96799 144
74.9881 120
75.00822 143
