3.00117 20457
3.02128 20158
3.0414 19371
3.06151 19299
3.08162 18887
3.10174 18182
3.12185 17596
3.14197 16971
3.16208 16741
3.18219 16345
3.20231 15430
3.22242 15429
3.24253 14738
3.26265 14365
3.28276 14306
3.30288 13503
3.32299 13201
3.3431 12535
3.36322 12260
3.38333 12029
3.40344 11511
3.42356 11263
3.44367 10831
3.46379 10580
3.4839 9973
3.50401 9554
3.52413 9450
3.54424 9048
3.56435 8813
3.58447 8557
3.60458 8279
3.62469 7828
3.64481 7473
3.66492 7140
3.68504 6925
3.70515 6592
3.72526 6504
3.74538 6008
3.76549 6011
3.7856 5769
3.80572 5401
3.82583 5308
3.84595 4958
3.86606 4824
3.88617 4661
3.90629 4465
3.9264 4364
3.94651 4125
3.96663 3847
3.98674 3863
4.00686 3418
4.02697 3521
4.04708 3233
4.0672 3157
4.08731 3080
4.10742 2778
4.12754 2915
4.14765 2638
4.16776 2545
4.18788 2627
4.20799 2320
4.22811 2217
4.24822 2141
4.26833 2064
4.28845 2142
4.30856 1858
4.32867 1880
4.34879 1789
4.3689 1837
4.38902 1887
4.40913 1581
4.42924 1597
4.44936 1577
4.46947 1620
4.48958 1597
4.5097 1460
4.52981 1418
4.54992 1462
4.57004 1382
4.59015 1403
4.61027 1217
4.63038 1322
4.65049 1256
4.67061 1313
4.69072 1249
4.71083 1113
4.73095 1100
4.75106 1126
4.77118 1069
4.79129 1146
4.8114 989
4.83152 984
4.85163 996
4.87174 989
4.89186 975
4.91197 922
4.93209 957
4.9522 937
4.97231 904
4.99243 846
5.01254 814
5.03265 902
5.05277 819
5.07288 750
5.09299 791
5.11311 790
5.13322 804
5.15334 732
5.17345 721
5.19356 685
5.21368 690
5.23379 693
5.2539 653
5.27402 697
5.29413 677
5.31425 649
5.33436 602
5.35447 624
5.37459 542
5.3947 640
5.41481 588
5.43493 561
5.45504 534
5.47516 591
5.49527 521
5.51538 552
5.5355 522
5.55561 530
5.57572 513
5.59584 480
5.61595 513
5.63606 473
5.65618 481
5.67629 472
5.69641 457
5.71652 490
5.73663 447
5.75675 468
5.77686 431
5.79697 412
5.81709 436
5.8372 413
5.85732 435
5.87743 471
5.89754 451
5.91766 444
5.93777 417
5.95788 420
5.978 461
5.99811 438
6.01823 408
6.03834 481
6.05845 410
6.07857 400
6.09868 442
6.11879 423
6.13891 461
6.15902 430
6.17913 403
6.19925 444
6.21936 453
6.23948 445
6.25959 447
6.2797 417
6.29982 419
6.31993 386
6.34004 401
6.36016 379
6.38027 399
6.40039 390
6.4205 485
6.44061 372
6.46073 367
6.48084 353
6.50095 368
6.52107 380
6.54118 350
6.56129 359
6.58141 395
6.60152 345
6.62164 324
6.64175 336
6.66186 366
6.68198 392
6.70209 368
6.7222 364
6.74232 327
6.76243 360
6.78255 368
6.80266 353
6.82277 349
6.84289 331
6.863 379
6.88311 328
6.90323 339
6.92334 317
6.94346 338
6.96357 325
6.98368 368
7.0038 352
7.02391 331
7.04402 312
7.06414 347
7.08425 321
7.10436 344
7.12448 319
7.14459 339
7.16471 305
7.18482 325
7.20493 342
7.22505 342
7.24516 310
7.26527 301
7.28539 334
7.3055 364
7.32562 329
7.34573 366
7.36584 363
7.38596 342
7.40607 343
7.42618 348
7.4463 363
7.46641 326
7.48653 353
7.50664 330
7.52675 335
7.54687 318
7.56698 340
7.58709 328
7.60721 339
7.62732 328
7.64743 310
7.66755 284
7.68766 343
7.70778 329
7.72789 339
7.748 371
7.76812 335
7.78823 337
7.80834 361
7.82846 336
7.84857 346
7.86869 286
7.8888 344
7.90891 329
7.92903 337
7.94914 349
7.96925 325
7.98937 295
8.00948 328
8.0296 313
8.04971 346
8.06982 351
8.08994 347
8.11005 340
8.13016 328
8.15028 318
8.17039 310
8.1905 333
8.21062 342
8.23073 351
8.25085 330
8.27096 343
8.29107 342
8.31119 315
8.3313 324
8.35141 291
8.37153 304
8.39164 311
8.41176 346
8.43187 333
8.45198 342
8.4721 321
8.49221 305
8.51232 291
8.53244 314
8.55255 317
8.57266 321
8.59278 313
8.61289 327
8.63301 299
8.65312 313
8.67323 331
8.69335 298
8.71346 323
8.73357 322
8.75369 349
8.7738 332
8.79392 323
8.81403 361
8.83414 308
8.85426 342
8.87437 312
8.89448 366
8.9146 300
8.93471 353
8.95483 329
8.97494 322
8.99505 366
9.01517 325
9.03528 323
9.05539 337
9.07551 330
9.09562 359
9.11573 314
9.13585 332
9.15596 307
9.17608 337
9.19619 348
9.2163 325
9.23642 334
9.25653 309
9.27664 322
9.29676 341
9.31687 311
9.33699 311
9.3571 308
9.37721 276
9.39733 331
9.41744 313
9.43755 313
9.45767 311
9.47778 309
9.4979 309
9.51801 308
9.53812 351
9.55824 335
9.57835 337
9.59846 303
9.61858 310
9.63869 294
9.6588 331
9.67892 312
9.69903 332
9.71915 330
9.73926 303
9.75937 326
9.77949 310
9.7996 335
9.81971 304
9.83983 342
9.85994 305
9.88006 321
9.90017 297
9.92028 323
9.9404 325
9.96051 310
9.98062 316
10.00074 274
10.02085 319
10.04097 315
10.06108 338
10.08119 323
10.10131 322
10.12142 315
10.14153 323
10.16165 308
10.18176 313
10.20187 343
10.22199 310
10.2421 312
10.26222 332
10.28233 330
10.30244 349
10.32256 331
10.34267 294
10.36278 309
10.3829 313
10.40301 359
10.42313 279
10.44324 364
10.46335 322
10.48347 328
10.50358 290
10.52369 317
10.54381 306
10.56392 321
10.58403 338
10.60415 323
10.62426 309
10.64438 316
10.66449 356
10.6846 347
10.70472 336
10.72483 351
10.74494 349
10.76506 354
10.78517 321
10.80529 357
10.8254 305
10.84551 312
10.86563 337
10.88574 279
10.90585 334
10.92597 314
10.94608 304
10.9662 337
10.98631 333
11.00642 311
11.02654 328
11.04665 329
11.06676 313
11.08688 336
11.10699 312
11.1271 322
11.14722 355
11.16733 281
11.18745 334
11.20756 325
11.22767 309
11.24779 358
11.2679 339
11.28801 379
11.30813 305
11.32824 304
11.34836 335
11.36847 358
11.38858 317
11.4087 361
11.42881 379
11.44892 338
11.46904 352
11.48915 369
11.50927 341
11.52938 331
11.54949 362
11.56961 371
11.58972 326
11.60983 370
11.62995 344
11.65006 374
11.67017 357
11.69029 385
11.7104 389
11.73052 354
11.75063 389
11.77074 402
11.79086 391
11.81097 423
11.83108 403
11.8512 372
11.87131 393
11.89143 433
11.91154 420
11.93165 420
11.95177 444
11.97188 461
11.99199 408
12.01211 465
12.03222 432
12.05234 460
12.07245 434
12.09256 486
12.11268 502
12.13279 501
12.1529 569
12.17302 521
12.19313 530
12.21324 553
12.23336 564
12.25347 548
12.27359 589
12.2937 575
12.31381 610
12.33393 593
12.35404 591
12.37415 555
12.39427 555
12.41438 544
12.4345 525
12.45461 479
12.47472 419
12.49484 415
12.51495 429
12.53506 432
12.55518 400
12.57529 394
12.5954 417
12.61552 389
12.63563 379
12.65575 405
12.67586 351
12.69597 342
12.71609 349
12.7362 367
12.75631 394
12.77643 356
12.79654 354
12.81666 318
12.83677 346
12.85688 313
12.877 337
12.89711 315
12.91722 326
12.93734 319
12.95745 342
12.97757 285
12.99768 325
13.01779 312
13.03791 319
13.05802 319
13.07813 288
13.09825 335
13.11836 306
13.13847 292
13.15859 309
13.1787 305
13.19882 276
13.21893 293
13.23904 279
13.25916 272
13.27927 276
13.29938 310
13.3195 293
13.33961 299
13.35973 291
13.37984 324
13.39995 296
13.42007 292
13.44018 283
13.46029 288
13.48041 314
13.50052 299
13.52064 276
13.54075 286
13.56086 321
13.58098 310
13.60109 306
13.6212 279
13.64132 304
13.66143 308
13.68154 284
13.70166 280
13.72177 301
13.74189 289
13.762 283
13.78211 269
13.80223 310
13.82234 323
13.84245 292
13.86257 255
13.88268 296
13.9028 261
13.92291 318
13.94302 276
13.96314 277
13.98325 255
14.00336 296
14.02348 271
14.04359 292
14.06371 292
14.08382 305
14.10393 283
14.12405 310
14.14416 277
14.16427 270
14.18439 289
14.2045 275
14.22461 251
14.24473 302
14.26484 291
14.28496 295
14.30507 285
14.32518 299
14.3453 268
14.36541 244
14.38552 268
14.40564 267
14.42575 321
14.44587 289
14.46598 268
14.48609 290
14.50621 299
14.52632 267
14.54643 257
14.56655 260
14.58666 301
14.60677 285
14.62689 274
14.647 274
14.66712 293
14.68723 281
14.70734 242
14.72746 281
14.74757 265
14.76768 304
14.7878 261
14.80791 296
14.82803 278
14.84814 298
14.86825 280
14.88837 287
14.90848 275
14.92859 296
14.94871 279
14.96882 259
14.98894 269
15.00905 246
15.02916 292
15.04928 278
15.06939 269
15.0895 298
15.10962 282
15.12973 255
15.14984 246
15.16996 263
15.19007 301
15.21019 273
15.2303 293
15.25041 266
15.27053 253
15.29064 259
15.31075 285
15.33087 259
15.35098 257
15.3711 294
15.39121 241
15.41132 299
15.43144 278
15.45155 268
15.47166 313
15.49178 263
15.51189 260
15.53201 262
15.55212 262
15.57223 241
15.59235 304
15.61246 293
15.63257 286
15.65269 289
15.6728 249
15.69291 263
15.71303 277
15.73314 253
15.75326 280
15.77337 288
15.79348 276
15.8136 253
15.83371 288
15.85382 246
15.87394 293
15.89405 244
15.91417 264
15.93428 256
15.95439 316
15.97451 269
15.99462 266
16.01473 253
16.03485 269
16.05496 248
16.07508 248
16.09519 287
16.1153 266
16.13542 268
16.15553 258
16.17564 271
16.19576 246
16.21587 249
16.23598 270
16.2561 255
16.27621 244
16.29633 269
16.31644 290
16.33655 266
16.35667 253
16.37678 268
16.39689 247
16.41701 296
16.43712 309
16.45724 265
16.47735 285
16.49746 290
16.51758 281
16.53769 259
16.5578 275
16.57792 248
16.59803 268
16.61814 280
16.63826 237
16.65837 297
16.67849 271
16.6986 266
16.71871 304
16.73883 269
16.75894 269
16.77905 276
16.79917 268
16.81928 272
16.8394 260
16.85951 247
16.87962 259
16.89974 281
16.91985 279
16.93996 273
16.96008 299
16.98019 295
17.00031 274
17.02042 266
17.04053 289
17.06065 291
17.08076 280
17.10087 240
17.12099 276
17.1411 258
17.16121 267
17.18133 287
17.20144 276
17.22156 256
17.24167 275
17.26178 272
17.2819 282
17.30201 298
17.32212 298
17.34224 268
17.36235 256
17.38247 269
17.40258 265
17.42269 260
17.44281 258
17.46292 279
17.48303 273
17.50315 284
17.52326 268
17.54338 279
17.56349 284
17.5836 310
17.60372 276
17.62383 321
17.64394 279
17.66406 286
17.68417 279
17.70428 247
17.7244 268
17.74451 283
17.76463 273
17.78474 297
17.80485 286
17.82497 280
17.84508 289
17.86519 280
17.88531 291
17.90542 305
17.92554 315
17.94565 322
17.96576 286
17.98588 295
18.00599 285
18.0261 313
18.04622 305
18.06633 298
18.08645 340
18.10656 298
18.12667 344
18.14679 343
18.1669 344
18.18701 361
18.20713 417
18.22724 395
18.24735 407
18.26747 441
18.28758 408
18.3077 415
18.32781 442
18.34792 425
18.36804 378
18.38815 358
18.40826 359
18.42838 337
18.44849 327
18.46861 327
18.48872 273
18.50883 279
18.52895 283
18.54906 308
18.56917 304
18.58929 332
18.6094 310
18.62951 276
18.64963 326
18.66974 312
18.68986 325
18.70997 284
18.73008 296
18.7502 281
18.77031 298
18.79042 287
18.81054 279
18.83065 301
18.85077 297
18.87088 290
18.89099 321
18.91111 279
18.93122 265
18.95133 278
18.97145 289
18.99156 264
19.01168 290
19.03179 302
19.0519 268
19.07202 286
19.09213 253
19.11224 290
19.13236 291
19.15247 272
19.17258 325
19.1927 290
19.21281 340
19.23293 310
19.25304 311
19.27315 278
19.29327 285
19.31338 343
19.33349 291
19.35361 325
19.37372 323
19.39384 344
19.41395 328
19.43406 305
19.45418 335
19.47429 354
19.4944 360
19.51452 368
19.53463 333
19.55475 356
19.57486 376
19.59497 407
19.61509 416
19.6352 453
19.65531 446
19.67543 475
19.69554 468
19.71565 508
19.73577 540
19.75588 571
19.776 595
19.79611 633
19.81622 585
19.83634 655
19.85645 684
19.87656 676
19.89668 699
19.91679 667
19.93691 636
19.95702 653
19.97713 645
19.99725 622
20.01736 630
20.03747 618
20.05759 602
20.0777 543
20.09782 636
20.11793 586
20.13804 571
20.15816 648
20.17827 631
20.19838 626
20.2185 638
20.23861 636
20.25872 617
20.27884 623
20.29895 660
20.31907 617
20.33918 625
20.35929 614
20.37941 661
20.39952 628
20.41963 622
20.43975 624
20.45986 609
20.47998 636
20.50009 689
20.5202 702
20.54032 757
20.56043 736
20.58054 754
20.60066 746
20.62077 889
20.64088 988
20.661 1067
20.68111 1352
20.70123 1817
20.72134 2165
20.74145 2794
20.76157 3486
20.78168 4162
20.80179 4777
20.82191 5125
20.84202 4852
20.86214 4440
20.88225 3735
20.90236 2812
20.92248 1966
20.94259 1402
20.9627 1034
20.98282 830
21.00293 693
21.02305 666
21.04316 652
21.06327 625
21.08339 609
21.1035 596
21.12361 615
21.14373 555
21.16384 560
21.18395 555
21.20407 518
21.22418 497
21.2443 566
21.26441 552
21.28452 548
21.30464 520
21.32475 547
21.34486 552
21.36498 501
21.38509 563
21.40521 542
21.42532 545
21.44543 570
21.46555 529
21.48566 532
21.50577 535
21.52589 542
21.546 504
21.56612 514
21.58623 515
21.60634 463
21.62646 470
21.64657 493
21.66668 487
21.6868 491
21.70691 475
21.72702 480
21.74714 481
21.76725 485
21.78737 477
21.80748 476
21.82759 483
21.84771 439
21.86782 429
21.88793 421
21.90805 417
21.92816 429
21.94828 439
21.96839 486
21.9885 417
22.00862 453
22.02873 447
22.04884 426
22.06896 438
22.08907 459
22.10919 401
22.1293 381
22.14941 401
22.16953 427
22.18964 407
22.20975 395
22.22987 382
22.24998 395
22.27009 366
22.29021 446
22.31032 414
22.33044 446
22.35055 431
22.37066 400
22.39078 380
22.41089 384
22.431 373
22.45112 377
22.47123 406
22.49135 368
22.51146 362
22.53157 402
22.55169 408
22.5718 388
22.59191 412
22.61203 385
22.63214 372
22.65225 385
22.67237 373
22.69248 349
22.7126 401
22.73271 397
22.75282 348
22.77294 399
22.79305 401
22.81316 422
22.83328 391
22.85339 388
22.87351 378
22.89362 358
22.91373 390
22.93385 402
22.95396 370
22.97407 400
22.99419 356
23.0143 363
23.03442 399
23.05453 428
23.07464 389
23.09476 322
23.11487 366
23.13498 377
23.1551 367
23.17521 367
23.19532 383
23.21544 376
23.23555 356
23.25567 347
23.27578 347
23.29589 382
23.31601 372
23.33612 382
23.35623 377
23.37635 380
23.39646 368
23.41658 349
23.43669 381
23.4568 379
23.47692 373
23.49703 335
23.51714 397
23.53726 350
23.55737 357
23.57749 362
23.5976 400
23.61771 374
23.63783 373
23.65794 372
23.67805 375
23.69817 376
23.71828 385
23.73839 375
23.75851 337
23.77862 375
23.79874 399
23.81885 398
23.83896 374
23.85908 370
23.87919 372
23.8993 418
23.91942 395
23.93953 433
23.95965 412
23.97976 420
23.99987 394
24.01999 383
24.0401 424
24.06021 419
24.08033 401
24.10044 364
24.12056 400
24.14067 434
24.16078 405
24.1809 422
24.20101 403
24.22112 425
24.24124 386
24.26135 443
24.28146 408
24.30158 422
24.32169 399
24.34181 370
24.36192 404
24.38203 359
24.40215 375
24.42226 432
24.44237 406
24.46249 405
24.4826 414
24.50272 461
24.52283 426
24.54294 390
24.56306 427
24.58317 438
24.60328 422
24.6234 450
24.64351 465
24.66362 463
24.68374 494
24.70385 473
24.72397 532
24.74408 533
24.76419 513
24.78431 514
24.80442 585
24.82453 531
24.84465 541
24.86476 541
24.88488 554
24.90499 549
24.9251 563
24.94522 507
24.96533 511
24.98544 511
25.00556 503
25.02567 533
25.04579 527
25.0659 548
25.08601 536
25.10613 505
25.12624 537
25.14635 526
25.16647 536
25.18658 564
25.20669 505
25.22681 564
25.24692 554
25.26704 555
25.28715 512
25.30726 487
25.32738 510
25.34749 449
25.3676 466
25.38772 424
25.40783 430
25.42795 452
25.44806 446
25.46817 429
25.48829 422
25.5084 427
25.52851 408
25.54863 400
25.56874 437
25.58886 437
25.60897 423
25.62908 441
25.6492 459
25.66931 475
25.68942 492
25.70954 436
25.72965 517
25.74976 510
25.76988 494
25.78999 540
25.81011 559
25.83022 537
25.85033 530
25.87045 540
25.89056 500
25.91067 526
25.93079 555
25.9509 582
25.97102 531
25.99113 582
26.01124 619
26.03136 548
26.05147 624
26.07158 657
26.0917 642
26.11181 681
26.13193 716
26.15204 748
26.17215 755
26.19227 822
26.21238 873
26.23249 931
26.25261 982
26.27272 1098
26.29283 1143
26.31295 1327
26.33306 1561
26.35318 1693
26.37329 1981
26.3934 2494
26.41352 3052
26.43363 3992
26.45374 5342
26.47386 6962
26.49397 8949
26.51409 11526
26.5342 14878
26.55431 17565
26.57443 20487
26.59454 21557
26.61465 21312
26.63477 19262
26.65488 16682
26.67499 12710
26.69511 9041
26.71522 6484
26.73534 4354
26.75545 2766
26.77556 1895
26.79568 1470
26.81579 1312
26.8359 1111
26.85602 1048
26.87613 1037
26.89625 931
26.91636 900
26.93647 802
26.95659 762
26.9767 698
26.99681 660
27.01693 616
27.03704 637
27.05716 523
27.07727 548
27.09738 544
27.1175 539
27.13761 515
27.15772 500
27.17784 516
27.19795 482
27.21806 499
27.23818 498
27.25829 500
27.27841 497
27.29852 491
27.31863 527
27.33875 437
27.35886 470
27.37897 450
27.39909 550
27.4192 481
27.43932 473
27.45943 482
27.47954 425
27.49966 437
27.51977 437
27.53988 414
27.56 432
27.58011 429
27.60023 407
27.62034 404
27.64045 405
27.66057 403
27.68068 436
27.70079 431
27.72091 379
27.74102 399
27.76113 414
27.78125 429
27.80136 369
27.82148 395
27.84159 384
27.8617 376
27.88182 378
27.90193 371
27.92204 377
27.94216 366
27.96227 397
27.98239 385
28.0025 415
28.02261 410
28.04273 399
28.06284 378
28.08295 402
28.10307 392
28.12318 378
28.1433 374
28.16341 357
28.18352 393
28.20364 370
28.22375 360
28.24386 348
28.26398 343
28.28409 327
28.3042 335
28.32432 346
28.34443 323
28.36455 336
28.38466 334
28.40477 360
28.42489 352
28.445 337
28.46511 355
28.48523 334
28.50534 336
28.52546 349
28.54557 376
28.56568 325
28.5858 343
28.60591 325
28.62602 321
28.64614 336
28.66625 322
28.68636 355
28.70648 348
28.72659 334
28.74671 340
28.76682 347
28.78693 326
28.80705 301
28.82716 310
28.84727 333
28.86739 332
28.8875 354
28.90762 340
28.92773 328
28.94784 347
28.96796 314
28.98807 333
29.00818 351
29.0283 320
29.04841 325
29.06853 381
29.08864 321
29.10875 322
29.12887 308
29.14898 298
29.16909 313
29.18921 317
29.20932 313
29.22943 330
29.24955 348
29.26966 317
29.28978 296
29.30989 275
29.33 281
29.35012 317
29.37023 317
29.39034 336
29.41046 342
29.43057 328
29.45069 334
29.4708 310
29.49091 320
29.51103 334
29.53114 343
29.55125 298
29.57137 307
29.59148 308
29.6116 312
29.63171 288
29.65182 305
29.67194 290
29.69205 320
29.71216 320
29.73228 317
29.75239 309
29.7725 319
29.79262 316
29.81273 304
29.83285 335
29.85296 277
29.87307 300
29.89319 306
29.9133 325
29.93341 288
29.95353 305
29.97364 308
29.99376 326
30.01387 298
30.03398 335
30.0541 342
30.07421 367
30.09432 317
30.11444 323
30.13455 288
30.15467 284
30.17478 314
30.19489 312
30.21501 313
30.23512 305
30.25523 314
30.27535 328
30.29546 319
30.31557 320
30.33569 292
30.3558 315
30.37592 307
30.39603 333
30.41614 336
30.43626 320
30.45637 309
30.47648 308
30.4966 296
30.51671 326
30.53683 287
30.55694 309
30.57705 281
30.59717 309
30.61728 301
30.63739 333
30.65751 302
30.67762 302
30.69773 291
30.71785 299
30.73796 298
30.75808 262
30.77819 295
30.7983 327
30.81842 298
30.83853 313
30.85864 290
30.87876 305
30.89887 334
30.91899 321
30.9391 275
30.95921 294
30.97933 307
30.99944 293
31.01955 289
31.03967 300
31.05978 261
31.0799 319
31.10001 285
31.12012 317
31.14024 314
31.16035 285
31.18046 312
31.20058 301
31.22069 312
31.2408 286
31.26092 328
31.28103 293
31.30115 298
31.32126 281
31.34137 293
31.36149 250
31.3816 306
31.40171 324
31.42183 299
31.44194 305
31.46206 343
31.48217 322
31.50228 317
31.5224 320
31.54251 287
31.56262 293
31.58274 266
31.60285 322
31.62297 331
31.64308 289
31.66319 281
31.68331 293
31.70342 298
31.72353 317
31.74365 305
31.76376 281
31.78387 290
31.80399 265
31.8241 285
31.84422 260
31.86433 280
31.88444 287
31.90456 309
31.92467 288
31.94478 304
31.9649 269
31.98501 281
32.00513 295
32.02524 261
32.04535 320
32.06547 307
32.08558 282
32.10569 261
32.12581 280
32.14592 287
32.16604 294
32.18615 300
32.20626 299
32.22638 324
32.24649 283
32.2666 300
32.28672 261
32.30683 331
32.32694 305
32.34706 298
32.36717 257
32.38729 303
32.4074 275
32.42751 277
32.44763 261
32.46774 259
32.48785 272
32.50797 294
32.52808 311
32.5482 298
32.56831 311
32.58842 296
32.60854 294
32.62865 294
32.64876 317
32.66888 283
32.68899 311
32.7091 315
32.72922 277
32.74933 310
32.76945 318
32.78956 309
32.80967 306
32.82979 306
32.8499 293
32.87001 343
32.89013 295
32.91024 324
32.93036 297
32.95047 321
32.97058 294
32.9907 355
33.01081 342
33.03092 323
33.05104 352
33.07115 318
33.09127 322
33.11138 326
33.13149 360
33.15161 358
33.17172 358
33.19183 315
33.21195 320
33.23206 367
33.25217 324
33.27229 347
33.2924 278
33.31252 334
33.33263 350
33.35274 352
33.37286 337
33.39297 362
33.41308 273
33.4332 305
33.45331 317
33.47343 342
33.49354 322
33.51365 318
33.53377 341
33.55388 305
33.57399 327
33.59411 292
33.61422 303
33.63434 296
33.65445 306
33.67456 314
33.69468 315
33.71479 281
33.7349 309
33.75502 299
33.77513 332
33.79524 300
33.81536 272
33.83547 275
33.85559 283
33.8757 299
33.89581 293
33.91593 303
33.93604 325
33.95615 294
33.97627 278
33.99638 317
34.0165 293
34.03661 306
34.05672 292
34.07684 284
34.09695 297
34.11706 253
34.13718 298
34.15729 281
34.17741 309
34.19752 317
34.21763 273
34.23775 287
34.25786 312
34.27797 275
34.29809 285
34.3182 303
34.33831 313
34.35843 321
34.37854 329
34.39866 331
34.41877 320
34.43888 320
34.459 296
34.47911 340
34.49922 335
34.51934 355
34.53945 345
34.55957 351
34.57968 339
34.59979 335
34.61991 371
34.64002 364
34.66013 375
34.68025 354
34.70036 403
34.72047 413
34.74059 426
34.7607 432
34.78082 399
34.80093 422
34.82104 440
34.84116 437
34.86127 420
34.88138 427
34.9015 451
34.92161 458
34.94173 431
34.96184 463
34.98195 449
35.00207 421
35.02218 415
35.04229 410
35.06241 424
35.08252 407
35.10264 411
35.12275 400
35.14286 413
35.16298 415
35.18309 421
35.2032 381
35.22332 412
35.24343 409
35.26354 392
35.28366 402
35.30377 411
35.32389 399
35.344 445
35.36411 385
35.38423 439
35.40434 399
35.42445 452
35.44457 443
35.46468 470
35.4848 447
35.50491 449
35.52502 455
35.54514 460
35.56525 443
35.58536 431
35.60548 468
35.62559 500
35.64571 477
35.66582 442
35.68593 495
35.70605 477
35.72616 473
35.74627 479
35.76639 451
35.7865 469
35.80661 472
35.82673 472
35.84684 468
35.86696 479
35.88707 421
35.90718 508
35.9273 460
35.94741 486
35.96752 443
35.98764 459
36.00775 437
36.02787 440
36.04798 442
36.06809 439
36.08821 439
36.10832 459
36.12843 446
36.14855 418
36.16866 434
36.18878 474
36.20889 461
36.229 510
36.24912 527
36.26923 522
36.28934 575
36.30946 651
36.32957 683
36.34968 819
36.3698 855
36.38991 1038
36.41003 1155
36.43014 1427
36.45025 1609
36.47037 1654
36.49048 1738
36.51059 1726
36.53071 1553
36.55082 1367
36.57094 1244
36.59105 1017
36.61116 911
36.63128 786
36.65139 599
36.6715 507
36.69162 483
36.71173 471
36.73184 408
36.75196 422
36.77207 375
36.79219 417
36.8123 367
36.83241 421
36.85253 399
36.87264 384
36.89275 375
36.91287 375
36.93298 386
36.9531 380
36.97321 370
36.99332 385
37.01344 384
37.03355 369
37.05366 355
37.07378 397
37.09389 377
37.11401 416
37.13412 354
37.15423 373
37.17435 382
37.19446 389
37.21457 391
37.23469 360
37.2548 416
37.27491 368
37.29503 338
37.31514 358
37.33526 379
37.35537 370
37.37548 353
37.3956 412
37.41571 362
37.43582 363
37.45594 388
37.47605 405
37.49617 419
37.51628 403
37.53639 401
37.55651 381
37.57662 421
37.59673 383
37.61685 394
37.63696 443
37.65708 381
37.67719 409
37.6973 419
37.71742 391
37.73753 435
37.75764 365
37.77776 393
37.79787 392
37.81798 393
37.8381 369
37.85821 370
37.87833 388
37.89844 368
37.91855 388
37.93867 376
37.95878 389
37.97889 393
37.99901 418
38.01912 362
38.03924 391
38.05935 390
38.07946 392
38.09958 402
38.11969 386
38.1398 375
38.15992 442
38.18003 418
38.20015 380
38.22026 399
38.24037 388
38.26049 389
38.2806 421
38.30071 442
38.32083 380
38.34094 426
38.36105 407
38.38117 415
38.40128 455
38.4214 433
38.44151 460
38.46162 396
38.48174 435
38.50185 413
38.52196 416
38.54208 393
38.56219 395
38.58231 381
38.60242 397
38.62253 410
38.64265 395
38.66276 334
38.68287 349
38.70299 377
38.7231 386
38.74321 364
38.76333 372
38.78344 362
38.80356 357
38.82367 393
38.84378 366
38.8639 388
38.88401 388
38.90412 381
38.92424 331
38.94435 416
38.96447 372
38.98458 359
39.00469 347
39.02481 409
39.04492 426
39.06503 414
39.08515 402
39.10526 420
39.12538 366
39.14549 401
39.1656 459
39.18572 493
39.20583 541
39.22594 540
39.24606 636
39.26617 711
39.28628 811
39.3064 935
39.32651 1125
39.34663 1265
39.36674 1302
39.38685 1534
39.40697 1556
39.42708 1628
39.44719 1364
39.46731 1303
39.48742 1179
39.50754 1053
39.52765 875
39.54776 742
39.56788 627
39.58799 535
39.6081 498
39.62822 404
39.64833 365
39.66845 399
39.68856 370
39.70867 370
39.72879 361
39.7489 321
39.76901 348
39.78913 338
39.80924 333
39.82935 356
39.84947 296
39.86958 304
39.8897 293
39.90981 356
39.92992 354
39.95004 350
39.97015 367
39.99026 343
40.01038 407
40.03049 403
40.05061 401
40.07072 489
40.09083 530
40.11095 543
40.13106 581
40.15117 729
40.17129 799
40.1914 809
40.21152 885
40.23163 902
40.25174 882
40.27186 835
40.29197 726
40.31208 687
40.3322 650
40.35231 585
40.37242 548
40.39254 510
40.41265 406
40.43277 411
40.45288 345
40.47299 350
40.49311 344
40.51322 310
40.53333 341
40.55345 352
40.57356 312
40.59368 329
40.61379 314
40.6339 375
40.65402 334
40.67413 296
40.69424 314
40.71436 333
40.73447 296
40.75458 349
40.7747 297
40.79481 321
40.81493 330
40.83504 320
40.85515 346
40.87527 318
40.89538 324
40.91549 315
40.93561 360
40.95572 343
40.97584 324
40.99595 299
41.01606 333
41.03618 319
41.05629 352
41.0764 336
41.09652 348
41.11663 369
41.13675 321
41.15686 333
41.17697 363
41.19709 321
41.2172 308
41.23731 301
41.25743 323
41.27754 307
41.29765 300
41.31777 317
41.33788 330
41.358 286
41.37811 321
41.39822 303
41.41834 290
41.43845 283
41.45856 310
41.47868 314
41.49879 299
41.51891 320
41.53902 307
41.55913 300
41.57925 321
41.59936 305
41.61947 309
41.63959 324
41.6597 300
41.67982 325
41.69993 292
41.72004 290
41.74016 290
41.76027 302
41.78038 298
41.8005 299
41.82061 302
41.84072 296
41.86084 304
41.88095 306
41.90107 325
41.92118 304
41.94129 296
41.96141 320
41.98152 317
42.00163 289
42.02175 321
42.04186 343
42.06198 343
42.08209 334
42.1022 359
42.12232 366
42.14243 350
42.16254 382
42.18266 428
42.20277 432
42.22289 557
42.243 563
42.26311 679
42.28323 702
42.30334 804
42.32345 943
42.34357 1003
42.36368 1154
42.38379 1144
42.40391 1173
42.42402 1099
42.44414 1043
42.46425 854
42.48436 813
42.50448 735
42.52459 647
42.5447 598
42.56482 528
42.58493 449
42.60505 356
42.62516 305
42.64527 337
42.66539 285
42.6855 292
42.70561 305
42.72573 304
42.74584 280
42.76595 280
42.78607 275
42.80618 283
42.8263 288
42.84641 274
42.86652 290
42.88664 273
42.90675 274
42.92686 259
42.94698 276
42.96709 285
42.98721 279
43.00732 286
43.02743 266
43.04755 246
43.06766 258
43.08777 243
43.10789 253
43.128 267
43.14812 265
43.16823 241
43.18834 262
43.20846 250
43.22857 259
43.24868 270
43.2688 265
43.28891 291
43.30902 256
43.32914 265
43.34925 258
43.36937 275
43.38948 264
43.40959 305
43.42971 234
43.44982 276
43.46993 251
43.49005 245
43.51016 264
43.53028 276
43.55039 296
43.5705 283
43.59062 261
43.61073 268
43.63084 251
43.65096 272
43.67107 277
43.69119 266
43.7113 274
43.73141 256
43.75153 259
43.77164 280
43.79175 261
43.81187 252
43.83198 286
43.85209 254
43.87221 245
43.89232 258
43.91244 268
43.93255 284
43.95266 268
43.97278 270
43.99289 264
44.013 256
44.03312 258
44.05323 268
44.07335 248
44.09346 251
44.11357 276
44.13369 259
44.1538 256
44.17391 275
44.19403 277
44.21414 255
44.23426 267
44.25437 280
44.27448 255
44.2946 245
44.31471 272
44.33482 246
44.35494 241
44.37505 257
44.39516 264
44.41528 252
44.43539 279
44.45551 237
44.47562 277
44.49573 274
44.51585 268
44.53596 258
44.55607 276
44.57619 259
44.5963 280
44.61642 276
44.63653 283
44.65664 248
44.67676 259
44.69687 255
44.71698 232
44.7371 249
44.75721 274
44.77732 276
44.79744 319
44.81755 271
44.83767 293
44.85778 303
44.87789 232
44.89801 251
44.91812 267
44.93823 293
44.95835 267
44.97846 270
44.99858 289
45.01869 274
45.0388 280
45.05892 275
45.07903 277
45.09914 275
45.11926 267
45.13937 285
45.15949 302
45.1796 315
45.19971 310
45.21983 285
45.23994 295
45.26005 329
45.28017 299
45.30028 312
45.32039 301
45.34051 302
45.36062 297
45.38074 345
45.40085 333
45.42096 331
45.44108 346
45.46119 381
45.4813 342
45.50142 400
45.52153 445
45.54165 412
45.56176 416
45.58187 448
45.60199 537
45.6221 568
45.64221 693
45.66233 665
45.68244 730
45.70256 806
45.72267 903
45.74278 870
45.7629 839
45.78301 781
45.80312 680
45.82324 656
45.84335 654
45.86346 536
45.88358 519
45.90369 489
45.92381 369
45.94392 408
45.96403 351
45.98415 312
46.00426 274
46.02437 315
46.04449 300
46.0646 281
46.08472 256
46.10483 274
46.12494 254
46.14506 312
46.16517 281
46.18528 312
46.2054 291
46.22551 273
46.24563 324
46.26574 284
46.28585 247
46.30597 280
46.32608 292
46.34619 290
46.36631 285
46.38642 261
46.40653 257
46.42665 258
46.44676 257
46.46688 273
46.48699 287
46.5071 293
46.52722 227
46.54733 269
46.56744 240
46.58756 224
46.60767 250
46.62779 292
46.6479 285
46.66801 288
46.68813 271
46.70824 289
46.72835 268
46.74847 261
46.76858 257
46.78869 232
46.80881 267
46.82892 255
46.84904 267
46.86915 246
46.88926 291
46.90938 279
46.92949 231
46.9496 273
46.96972 237
46.98983 234
47.00995 308
47.03006 278
47.05017 242
47.07029 257
47.0904 261
47.11051 251
47.13063 285
47.15074 261
47.17086 268
47.19097 245
47.21108 272
47.2312 275
47.25131 250
47.27142 265
47.29154 270
47.31165 301
47.33176 225
47.35188 289
47.37199 276
47.39211 262
47.41222 292
47.43233 266
47.45245 258
47.47256 265
47.49267 250
47.51279 294
47.5329 298
47.55302 268
47.57313 282
47.59324 274
47.61336 261
47.63347 235
47.65358 230
47.6737 250
47.69381 264
47.71393 258
47.73404 248
47.75415 267
47.77427 272
47.79438 285
47.81449 278
47.83461 293
47.85472 287
47.87483 294
47.89495 237
47.91506 306
47.93518 252
47.95529 322
47.9754 268
47.99552 295
48.01563 307
48.03574 263
48.05586 312
48.07597 291
48.09609 282
48.1162 256
48.13631 247
48.15643 277
48.17654 263
48.19665 242
48.21677 274
48.23688 259
48.257 258
48.27711 277
48.29722 277
48.31734 269
48.33745 252
48.35756 254
48.37768 267
48.39779 246
48.4179 250
48.43802 251
48.45813 247
48.47825 270
48.49836 243
48.51847 267
48.53859 260
48.5587 257
48.57881 244
48.59893 245
48.61904 285
48.63916 250
48.65927 249
48.67938 279
48.6995 256
48.71961 261
48.73972 249
48.75984 251
48.77995 247
48.80006 282
48.82018 275
48.84029 281
48.86041 275
48.88052 259
48.90063 275
48.92075 240
48.94086 272
48.96097 249
48.98109 258
49.0012 268
49.02132 272
49.04143 255
49.06154 281
49.08166 287
49.10177 282
49.12188 276
49.142 260
49.16211 301
49.18223 254
49.20234 266
49.22245 295
49.24257 267
49.26268 284
49.28279 304
49.30291 256
49.32302 286
49.34313 275
49.36325 265
49.38336 312
49.40348 309
49.42359 295
49.4437 297
49.46382 300
49.48393 274
49.50404 311
49.52416 306
49.54427 326
49.56439 328
49.5845 333
49.60461 319
49.62473 316
49.64484 326
49.66495 331
49.68507 348
49.70518 365
49.7253 395
49.74541 403
49.76552 441
49.78564 460
49.80575 483
49.82586 546
49.84598 608
49.86609 665
49.8862 702
49.90632 824
49.92643 1004
49.94655 1118
49.96666 1327
49.98677 1584
50.00689 1742
50.027 2012
50.04711 2217
50.06723 2319
50.08734 2206
50.10746 2173
50.12757 1884
50.14768 1709
50.1678 1488
50.18791 1389
50.20802 1262
50.22814 1195
50.24825 1008
50.26837 823
50.28848 691
50.30859 519
50.32871 450
50.34882 391
50.36893 359
50.38905 375
50.40916 311
50.42927 320
50.44939 337
50.4695 330
50.48962 328
50.50973 309
50.52984 328
50.54996 324
50.57007 326
50.59018 326
50.6103 286
50.63041 290
50.65053 343
50.67064 294
50.69075 295
50.71087 281
50.73098 280
50.75109 274
50.77121 295
50.79132 295
50.81143 287
50.83155 296
50.85166 261
50.87178 261
50.89189 246
50.912 269
50.93212 287
50.95223 270
50.97234 239
50.99246 278
51.01257 233
51.03269 269
51.0528 261
51.07291 266
51.09303 252
51.11314 237
51.13325 254
51.15337 246
51.17348 261
51.1936 251
51.21371 240
51.23382 226
51.25394 242
51.27405 234
51.29416 240
51.31428 254
51.33439 284
51.3545 249
51.37462 243
51.39473 240
51.41485 224
51.43496 244
51.45507 261
51.47519 238
51.4953 245
51.51541 236
51.53553 229
51.55564 269
51.57576 259
51.59587 270
51.61598 239
51.6361 262
51.65621 256
51.67632 249
51.69644 227
51.71655 229
51.73667 256
51.75678 243
51.77689 249
51.79701 254
51.81712 264
51.83723 258
51.85735 240
51.87746 261
51.89757 237
51.91769 226
51.9378 261
51.95792 246
51.97803 242
51.99814 214
52.01826 238
52.03837 252
52.05848 255
52.0786 264
52.09871 262
52.11883 257
52.13894 260
52.15905 252
52.17917 257
52.19928 276
52.21939 253
52.23951 258
52.25962 258
52.27974 256
52.29985 242
52.31996 260
52.34008 242
52.36019 248
52.3803 226
52.40042 240
52.42053 230
52.44064 222
52.46076 242
52.48087 251
52.50099 234
52.5211 271
52.54121 266
52.56133 262
52.58144 254
52.60155 251
52.62167 266
52.64178 210
52.6619 240
52.68201 238
52.70212 212
52.72224 227
52.74235 230
52.76246 255
52.78258 236
52.80269 242
52.8228 234
52.84292 261
52.86303 235
52.88315 238
52.90326 255
52.92337 248
52.94349 266
52.9636 245
52.98371 242
53.00383 259
53.02394 259
53.04406 265
53.06417 249
53.08428 262
53.1044 260
53.12451 287
53.14462 271
53.16474 276
53.18485 264
53.20497 255
53.22508 252
53.24519 263
53.26531 266
53.28542 249
53.30553 300
53.32565 261
53.34576 293
53.36587 262
53.38599 269
53.4061 297
53.42622 275
53.44633 285
53.46644 287
53.48656 264
53.50667 290
53.52678 249
53.5469 276
53.56701 299
53.58713 278
53.60724 307
53.62735 306
53.64747 314
53.66758 274
53.68769 278
53.70781 303
53.72792 340
53.74804 279
53.76815 306
53.78826 301
53.80838 314
53.82849 314
53.8486 343
53.86872 337
53.88883 333
53.90894 306
53.92906 332
53.94917 348
53.96929 350
53.9894 310
54.00951 347
54.02963 305
54.04974 330
54.06985 294
54.08997 337
54.11008 339
54.1302 311
54.15031 349
54.17042 364
54.19054 343
54.21065 398
54.23076 373
54.25088 349
54.27099 360
54.29111 351
54.31122 371
54.33133 337
54.35145 400
54.37156 358
54.39167 362
54.41179 370
54.4319 383
54.45201 343
54.47213 370
54.49224 367
54.51236 383
54.53247 388
54.55258 387
54.5727 444
54.59281 406
54.61292 442
54.63304 477
54.65315 528
54.67327 567
54.69338 589
54.71349 682
54.73361 730
54.75372 768
54.77383 876
54.79395 880
54.81406 888
54.83417 905
54.85429 850
54.8744 718
54.89452 712
54.91463 641
54.93474 660
54.95486 665
54.97497 599
54.99508 578
55.0152 514
55.03531 504
55.05543 461
55.07554 437
55.09565 410
55.11577 466
55.13588 449
55.15599 473
55.17611 499
55.19622 508
55.21634 575
55.23645 575
55.25656 563
55.27668 516
55.29679 536
55.3169 480
55.33702 495
55.35713 451
55.37724 455
55.39736 442
55.41747 421
55.43759 411
55.4577 335
55.47781 357
55.49793 349
55.51804 316
55.53815 319
55.55827 317
55.57838 291
55.5985 306
55.61861 318
55.63872 282
55.65884 309
55.67895 283
55.69906 310
55.71918 305
55.73929 314
55.75941 295
55.77952 284
55.79963 298
55.81975 265
55.83986 294
55.85997 272
55.88009 285
55.9002 292
55.92031 294
55.94043 268
55.96054 302
55.98066 274
56.00077 291
56.02088 267
56.041 302
56.06111 260
56.08122 271
56.10134 280
56.12145 268
56.14157 289
56.16168 279
56.18179 259
56.20191 284
56.22202 281
56.24213 287
56.26225 266
56.28236 257
56.30248 309
56.32259 260
56.3427 259
56.36282 277
56.38293 285
56.40304 279
56.42316 242
56.44327 285
56.46338 287
56.4835 266
56.50361 248
56.52373 286
56.54384 308
56.56395 279
56.58407 303
56.60418 273
56.62429 287
56.64441 262
56.66452 264
56.68464 245
56.70475 264
56.72486 260
56.74498 271
56.76509 288
56.7852 262
56.80532 247
56.82543 253
56.84554 271
56.86566 255
56.88577 264
56.90589 259
56.926 243
56.94611 284
56.96623 249
56.98634 272
57.00645 259
57.02657 261
57.04668 252
57.0668 283
57.08691 276
57.10702 305
57.12714 270
57.14725 309
57.16736 276
57.18748 277
57.20759 276
57.22771 256
57.24782 274
57.26793 261
57.28805 279
57.30816 273
57.32827 294
57.34839 248
57.3685 278
57.38861 271
57.40873 252
57.42884 280
57.44896 257
57.46907 231
57.48918 245
57.5093 251
57.52941 266
57.54952 281
57.56964 274
57.58975 219
57.60987 260
57.62998 252
57.65009 286
57.67021 266
57.69032 269
57.71043 270
57.73055 252
57.75066 250
57.77078 258
57.79089 249
57.811 258
57.83112 253
57.85123 241
57.87134 264
57.89146 266
57.91157 273
57.93168 241
57.9518 245
57.97191 264
57.99203 234
58.01214 258
58.03225 261
58.05237 284
58.07248 248
58.09259 281
58.11271 239
58.13282 242
58.15294 240
58.17305 268
58.19316 266
58.21328 288
58.23339 259
58.2535 280
58.27362 262
58.29373 256
58.31385 255
58.33396 256
58.35407 223
58.37419 247
58.3943 246
58.41441 233
58.43453 260
58.45464 254
58.47475 249
58.49487 257
58.51498 264
58.5351 244
58.55521 232
58.57532 247
58.59544 254
58.61555 262
58.63566 253
58.65578 267
58.67589 270
58.69601 244
58.71612 243
58.73623 273
58.75635 270
58.77646 274
58.79657 241
58.81669 229
58.8368 234
58.85691 240
58.87703 261
58.89714 270
58.91726 248
58.93737 223
58.95748 280
58.9776 237
58.99771 249
59.01782 261
59.03794 242
59.05805 248
59.07817 256
59.09828 264
59.11839 256
59.13851 269
59.15862 246
59.17873 242
59.19885 295
59.21896 266
59.23908 251
59.25919 304
59.2793 285
59.29942 262
59.31953 257
59.33964 276
59.35976 275
59.37987 279
59.39998 295
59.4201 292
59.44021 305
59.46033 321
59.48044 317
59.50055 315
59.52067 357
59.54078 340
59.56089 349
59.58101 386
59.60112 404
59.62124 407
59.64135 478
59.66146 489
59.68158 541
59.70169 644
59.7218 746
59.74192 765
59.76203 885
59.78215 1013
59.80226 1133
59.82237 1300
59.84249 1487
59.8626 1480
59.88271 1541
59.90283 1540
59.92294 1410
59.94305 1288
59.96317 1115
59.98328 1038
60.0034 1010
60.02351 946
60.04362 940
60.06374 847
60.08385 810
60.10396 635
60.12408 560
60.14419 455
60.16431 379
60.18442 368
60.20453 326
60.22465 333
60.24476 317
60.26487 310
60.28499 302
60.3051 299
60.32522 286
60.34533 306
60.36544 285
60.38556 253
60.40567 242
60.42578 255
60.4459 275
60.46601 280
60.48612 280
60.50624 259
60.52635 278
60.54647 263
60.56658 272
60.58669 241
60.60681 264
60.62692 290
60.64703 267
60.66715 248
60.68726 272
60.70738 261
60.72749 266
60.7476 240
60.76772 250
60.78783 234
60.80794 276
60.82806 234
60.84817 243
60.86828 258
60.8884 240
60.90851 231
60.92863 228
60.94874 244
60.96885 248
60.98897 245
61.00908 236
61.02919 261
61.04931 258
61.06942 243
61.08954 259
61.10965 265
61.12976 242
61.14988 229
61.16999 268
61.1901 248
61.21022 272
61.23033 248
61.25045 233
61.27056 263
61.29067 261
61.31079 251
61.3309 274
61.35101 263
61.37113 255
61.39124 243
61.41135 279
61.43147 247
61.45158 280
61.4717 278
61.49181 292
61.51192 262
61.53204 286
61.55215 271
61.57226 271
61.59238 281
61.61249 244
61.63261 288
61.65272 292
61.67283 306
61.69295 275
61.71306 308
61.73317 274
61.75329 288
61.7734 267
61.79352 320
61.81363 336
61.83374 290
61.85386 291
61.87397 302
61.89408 327
61.9142 324
61.93431 302
61.95442 300
61.97454 328
61.99465 354
62.01477 302
62.03488 346
62.05499 330
62.07511 336
62.09522 353
62.11533 376
62.13545 363
62.15556 360
62.17568 335
62.19579 394
62.2159 375
62.23602 378
62.25613 349
62.27624 354
62.29636 374
62.31647 341
62.33659 348
62.3567 333
62.37681 316
62.39693 318
62.41704 303
62.43715 323
62.45727 306
62.47738 327
62.49749 309
62.51761 327
62.53772 288
62.55784 278
62.57795 314
62.59806 286
62.61818 298
62.63829 302
62.6584 311
62.67852 299
62.69863 245
62.71875 289
62.73886 287
62.75897 281
62.77909 284
62.7992 254
62.81931 272
62.83943 268
62.85954 255
62.87965 222
62.89977 273
62.91988 278
62.94 260
62.96011 265
62.98022 288
63.00034 272
63.02045 228
63.04056 264
63.06068 238
63.08079 246
63.10091 276
63.12102 245
63.14113 291
63.16125 289
63.18136 223
63.20147 268
63.22159 261
63.2417 269
63.26182 252
63.28193 254
63.30204 252
63.32216 255
63.34227 264
63.36238 239
63.3825 249
63.40261 240
63.42272 270
63.44284 278
63.46295 299
63.48307 280
63.50318 237
63.52329 246
63.54341 286
63.56352 276
63.58363 296
63.60375 279
63.62386 262
63.64398 292
63.66409 267
63.6842 295
63.70432 279
63.72443 339
63.74454 323
63.76466 332
63.78477 340
63.80489 364
63.825 357
63.84511 391
63.86523 410
63.88534 421
63.90545 408
63.92557 459
63.94568 502
63.96579 473
63.98591 482
64.00602 461
64.02614 450
64.04625 397
64.06636 380
64.08648 418
64.10659 381
64.1267 391
64.14682 380
64.16693 387
64.18705 343
64.20716 334
64.22727 311
64.24739 275
64.2675 260
64.28761 258
64.30773 270
64.32784 269
64.34796 289
64.36807 253
64.38818 254
64.4083 269
64.42841 227
64.44852 267
64.46864 256
64.48875 278
64.50886 248
64.52898 258
64.54909 240
64.56921 227
64.58932 249
64.60943 259
64.62955 248
64.64966 233
64.66977 274
64.68989 237
64.71 241
64.73012 225
64.75023 231
64.77034 243
64.79046 262
64.81057 225
64.83068 250
64.8508 250
64.87091 233
64.89102 244
64.91114 246
64.93125 249
64.95137 260
64.97148 224
64.99159 238
65.01171 261
65.03182 243
65.05193 219
65.07205 221
65.09216 259
65.11228 243
65.13239 245
65.1525 216
65.17262 211
65.19273 245
65.21284 267
65.23296 241
65.25307 237
65.27319 283
65.2933 247
65.31341 223
65.33353 241
65.35364 253
65.37375 226
65.39387 207
65.41398 232
65.43409 252
65.45421 253
65.47432 271
65.49444 282
65.51455 282
65.53466 260
65.55478 263
65.57489 279
65.595 265
65.61512 299
65.63523 277
65.65535 290
65.67546 303
65.69557 288
65.71569 314
65.7358 272
65.75591 292
65.77603 259
65.79614 286
65.81626 266
65.83637 264
65.85648 262
65.8766 262
65.89671 290
65.91682 265
65.93694 268
65.95705 280
65.97716 255
65.99728 247
66.01739 266
66.03751 245
66.05762 241
66.07773 241
66.09785 229
66.11796 254
66.13807 225
66.15819 242
66.1783 255
66.19842 272
66.21853 231
66.23864 223
66.25876 235
66.27887 251
66.29898 211
66.3191 258
66.33921 205
66.35933 252
66.37944 241
66.39955 237
66.41967 244
66.43978 221
66.45989 254
66.48001 266
66.50012 246
66.52023 255
66.54035 250
66.56046 245
66.58058 246
66.60069 243
66.6208 237
66.64092 208
66.66103 239
66.68114 234
66.70126 207
66.72137 233
66.74149 229
66.7616 252
66.78171 223
66.80183 239
66.82194 251
66.84205 248
66.86217 260
66.88228 231
66.90239 263
66.92251 242
66.94262 239
66.96274 242
66.98285 236
67.00296 211
67.02308 236
67.04319 245
67.0633 233
67.08342 290
67.10353 280
67.12365 252
67.14376 250
67.16387 268
67.18399 293
67.2041 293
67.22421 282
67.24433 261
67.26444 299
67.28456 302
67.30467 329
67.32478 320
67.3449 351
67.36501 340
67.38512 361
67.40524 373
67.42535 412
67.44546 439
67.46558 460
67.48569 466
67.50581 510
67.52592 545
67.54603 637
67.56615 745
67.58626 804
67.60637 855
67.62649 998
67.6466 974
67.66672 1047
67.68683 990
67.70694 935
67.72706 919
67.74717 768
67.76728 791
67.7874 735
67.80751 775
67.82763 795
67.84774 798
67.86785 909
67.88797 903
67.90808 833
67.92819 871
67.94831 926
67.96842 984
67.98853 1022
68.00865 1143
68.02876 1157
68.04888 1330
68.06899 1370
68.0891 1293
68.10922 1335
68.12933 1254
68.14944 1176
68.16956 1140
68.18967 1163
68.20979 1182
68.2299 1212
68.25001 1161
68.27013 1115
68.29024 1032
68.31035 946
68.33047 777
68.35058 690
68.3707 634
68.39081 647
68.41092 590
68.43104 542
68.45115 531
68.47126 462
68.49138 448
68.51149 392
68.5316 346
68.55172 344
68.57183 296
68.59195 293
68.61206 298
68.63217 264
68.65229 269
68.6724 288
68.69251 283
68.71263 252
68.73274 268
68.75286 289
68.77297 270
68.79308 257
68.8132 275
68.83331 270
68.85342 272
68.87354 251
68.89365 242
68.91376 242
68.93388 246
68.95399 275
68.97411 234
68.99422 246
69.01433 242
69.03445 221
69.05456 249
69.07467 233
69.09479 230
69.1149 277
69.13502 204
69.15513 260
69.17524 250
69.19536 224
69.21547 236
69.23558 220
69.2557 231
69.27581 230
69.29593 218
69.31604 225
69.33615 250
69.35627 228
69.37638 238
69.39649 247
69.41661 238
69.43672 223
69.45683 212
69.47695 250
69.49706 235
69.51718 235
69.53729 253
69.5574 218
69.57752 211
69.59763 234
69.61774 224
69.63786 248
69.65797 244
69.67809 200
69.6982 221
69.71831 233
69.73843 221
69.75854 215
69.77865 241
69.79877 238
69.81888 247
69.839 241
69.85911 227
69.87922 243
69.89934 226
69.91945 220
69.93956 227
69.95968 236
69.97979 270
69.9999 219
70.02002 217
70.04013 232
70.06025 207
70.08036 218
70.10047 233
70.12059 254
70.1407 230
70.16081 236
70.18093 220
70.20104 237
70.22116 205
70.24127 213
70.26138 246
70.2815 235
70.30161 241
70.32172 252
70.34184 252
70.36195 233
70.38207 233
70.40218 228
70.42229 225
70.44241 215
70.46252 222
70.48263 218
70.50275 217
70.52286 229
70.54297 209
70.56309 223
70.5832 232
70.60332 218
70.62343 219
70.64354 212
70.66366 241
70.68377 223
70.70388 215
70.724 232
70.74411 211
70.76423 247
70.78434 203
70.80445 246
70.82457 220
70.84468 220
70.86479 203
70.88491 215
70.90502 211
70.92513 241
70.94525 235
70.96536 233
70.98548 232
71.00559 217
71.0257 225
71.04582 219
71.06593 244
71.08604 212
71.10616 228
71.12627 219
71.14639 197
71.1665 199
71.18661 212
71.20673 207
71.22684 230
71.24695 210
71.26707 233
71.28718 213
71.3073 211
71.32741 206
71.34752 194
71.36764 244
71.38775 219
71.40786 240
71.42798 217
71.44809 208
71.4682 228
71.48832 219
71.50843 226
71.52855 222
71.54866 250
71.56877 243
71.58889 218
71.609 224
71.62911 193
71.64923 213
71.66934 230
71.68946 229
71.70957 229
71.72968 229
71.7498 249
71.76991 227
71.79002 214
71.81014 236
71.83025 219
71.85037 217
71.87048 237
71.89059 218
71.91071 258
71.93082 236
71.95093 217
71.97105 220
71.99116 208
72.01127 238
72.03139 238
72.0515 225
72.07162 225
72.09173 229
72.11184 222
72.13196 235
72.15207 241
72.17218 236
72.1923 216
72.21241 225
72.23253 221
72.25264 236
72.27275 229
72.29287 214
72.31298 227
72.33309 244
72.35321 209
72.37332 252
72.39344 232
72.41355 233
72.43366 222
72.45378 237
72.47389 237
72.494 240
72.51412 228
72.53423 233
72.55434 224
72.57446 231
72.59457 252
72.61469 259
72.6348 223
72.65491 224
72.67503 245
72.69514 212
72.71525 202
72.73537 214
72.75548 220
72.7756 217
72.79571 225
72.81582 213
72.83594 233
72.85605 240
72.87616 239
72.89628 228
72.91639 253
72.9365 241
72.95662 260
72.97673 237
72.99685 237
73.01696 255
73.03707 284
73.05719 269
73.0773 258
73.09741 280
73.11753 279
73.13764 299
73.15776 307
73.17787 300
73.19798 295
73.2181 318
73.23821 346
73.25832 351
73.27844 387
73.29855 409
73.31867 425
73.33878 432
73.35889 512
73.37901 498
73.39912 515
73.41923 464
73.43935 449
73.45946 454
73.47957 394
73.49969 373
73.5198 358
73.53992 375
73.56003 368
73.58014 362
73.60026 371
73.62037 364
73.64048 366
73.6606 327
73.68071 262
73.70083 256
73.72094 278
73.74105 266
73.76117 263
73.78128 245
73.80139 229
73.82151 226
73.84162 231
73.86174 229
73.88185 228
73.90196 232
73.92208 244
73.94219 215
73.9623 226
73.98242 211
74.00253 220
74.02264 240
74.04276 215
74.06287 229
74.08299 220
74.1031 228
74.12321 212
74.14333 232
74.16344 213
74.18355 221
74.20367 215
74.22378 227
74.2439 207
74.26401 217
74.28412 214
74.30424 212
74.32435 232
74.34446 214
74.36458 212
74.38469 242
74.40481 225
74.42492 220
74.44503 209
74.46515 225
74.48526 229
74.50537 218
74.52549 204
74.5456 223
74.56571 214
74.58583 220
74.60594 214
74.62606 219
74.64617 237
74.66628 240
74.6864 222
74.70651 224
74.72662 220
74.74674 229
74.76685 227
74.78697 233
74.80708 258
74.82719 231
74.84731 239
74.86742 217
74.88753 245
74.90765 227
74.92776 224
74.94787 255
74.96799 246
74.9881 219
75.00822 261
