3.00117 21458
3.02128 21063
3.0414 20524
3.06151 20155
3.08162 19380
3.10174 18752
3.12185 18354
3.14197 17699
3.16208 17592
3.18219 16609
3.20231 16593
3.22242 15820
3.24253 15555
3.26265 15369
3.28276 14558
3.30288 14422
3.32299 13700
3.3431 13304
3.36322 13215
3.38333 12291
3.40344 12248
3.42356 11930
3.44367 11239
3.46379 11040
3.4839 10443
3.50401 10146
3.52413 9927
3.54424 9362
3.56435 9486
3.58447 8567
3.60458 8725
3.62469 8275
3.64481 8084
3.66492 7762
3.68504 7262
3.70515 6907
3.72526 6611
3.74538 6641
3.76549 6595
3.7856 5901
3.80572 5899
3.82583 5551
3.84595 5310
3.86606 5315
3.88617 4827
3.90629 4627
3.9264 4458
3.94651 4338
3.96663 4351
3.98674 4017
4.00686 3844
4.02697 3790
4.04708 3613
4.0672 3469
4.08731 3000
4.10742 3098
4.12754 3008
4.14765 2915
4.16776 2833
4.18788 2394
4.20799 2521
4.22811 2427
4.24822 2282
4.26833 2366
4.28845 2082
4.30856 2087
4.32867 2027
4.34879 1978
4.3689 1964
4.38902 1662
4.40913 1724
4.42924 1753
4.44936 1781
4.46947 1797
4.48958 1576
4.5097 1598
4.52981 1577
4.54992 1465
4.57004 1465
4.59015 1434
4.61027 1406
4.63038 1372
4.65049 1367
4.67061 1380
4.69072 1273
4.71083 1219
4.73095 1304
4.75106 1150
4.77118 1149
4.79129 1187
4.8114 1142
4.83152 1108
4.85163 1052
4.87174 1100
4.89186 994
4.91197 983
4.93209 997
4.9522 1026
4.97231 931
4.99243 914
5.01254 920
5.03265 958
5.05277 831
5.07288 866
5.09299 862
5.11311 778
5.13322 871
5.15334 806
5.17345 774
5.19356 767
5.21368 741
5.23379 714
5.2539 732
5.27402 734
5.29413 707
5.31425 699
5.33436 677
5.35447 665
5.37459 650
5.3947 602
5.41481 636
5.43493 628
5.45504 634
5.47516 567
5.49527 607
5.51538 568
5.5355 549
5.55561 611
5.57572 561
5.59584 559
5.61595 515
5.63606 520
5.65618 586
5.67629 531
5.69641 524
5.71652 510
5.73663 545
5.75675 495
5.77686 520
5.79697 454
5.81709 462
5.8372 470
5.85732 491
5.87743 505
5.89754 458
5.91766 418
5.93777 465
5.95788 476
5.978 426
5.99811 467
6.01823 463
6.03834 462
6.05845 427
6.07857 430
6.09868 384
6.11879 484
6.13891 483
6.15902 470
6.17913 499
6.19925 498
6.21936 448
6.23948 463
6.25959 477
6.2797 463
6.29982 416
6.31993 382
6.34004 391
6.36016 422
6.38027 425
6.40039 443
6.4205 388
6.44061 447
6.46073 382
6.48084 422
6.50095 422
6.52107 380
6.54118 352
6.56129 404
6.58141 375
6.60152 392
6.62164 427
6.64175 396
6.66186 379
6.68198 402
6.70209 389
6.7222 376
6.74232 392
6.76243 401
6.78255 402
6.80266 411
6.82277 400
6.84289 393
6.863 371
6.88311 396
6.90323 393
6.92334 370
6.94346 358
6.96357 396
6.98368 376
7.0038 329
7.02391 394
7.04402 370
7.06414 407
7.08425 370
7.10436 381
7.12448 392
7.14459 388
7.16471 381
7.18482 374
7.20493 331
7.22505 358
7.24516 366
7.26527 363
7.28539 401
7.3055 361
7.32562 346
7.34573 449
7.36584 379
7.38596 399
7.40607 327
7.42618 391
7.4463 408
7.46641 373
7.48653 403
7.50664 408
7.52675 368
7.54687 416
7.56698 398
7.58709 394
7.60721 400
7.62732 413
7.64743 400
7.66755 362
7.68766 457
7.70778 408
7.72789 399
7.748 411
7.76812 419
7.78823 428
7.80834 401
7.82846 422
7.84857 447
7.86869 485
7.8888 430
7.90891 456
7.92903 402
7.94914 450
7.96925 462
7.98937 493
8.00948 485
8.0296 492
8.04971 474
8.06982 534
8.08994 564
8.11005 516
8.13016 520
8.15028 572
8.17039 556
8.1905 579
8.21062 567
8.23073 642
8.25085 631
8.27096 631
8.29107 637
8.31119 643
8.3313 641
8.35141 655
8.37153 667
8.39164 674
8.41176 622
8.43187 716
8.45198 655
8.4721 683
8.49221 636
8.51232 622
8.53244 614
8.55255 649
8.57266 620
8.59278 602
8.61289 605
8.63301 547
8.65312 575
8.67323 570
8.69335 590
8.71346 568
8.73357 503
8.75369 557
8.7738 563
8.79392 558
8.81403 530
8.83414 540
8.85426 502
8.87437 501
8.89448 462
8.9146 453
8.93471 398
8.95483 388
8.97494 402
8.99505 410
9.01517 390
9.03528 425
9.05539 404
9.07551 387
9.09562 356
9.11573 337
9.13585 347
9.15596 368
9.17608 361
9.19619 323
9.2163 344
9.23642 343
9.25653 307
9.27664 336
9.29676 334
9.31687 334
9.33699 340
9.3571 283
9.37721 337
9.39733 301
9.41744 314
9.43755 318
9.45767 317
9.47778 360
9.4979 333
9.51801 309
9.53812 312
9.55824 308
9.57835 319
9.59846 304
9.61858 332
9.63869 306
9.6588 345
9.67892 340
9.69903 295
9.71915 314
9.73926 343
9.75937 341
9.77949 350
9.7996 337
9.81971 338
9.83983 369
9.85994 290
9.88006 325
9.90017 322
9.92028 284
9.9404 310
9.96051 276
9.98062 308
10.00074 309
10.02085 285
10.04097 277
10.06108 296
10.08119 277
10.10131 293
10.12142 295
10.14153 341
10.16165 298
10.18176 353
10.20187 251
10.22199 307
10.2421 295
10.26222 289
10.28233 342
10.30244 334
10.32256 306
10.34267 336
10.36278 334
10.3829 412
10.40301 404
10.42313 413
10.44324 422
10.46335 420
10.48347 404
10.50358 428
10.52369 369
10.54381 408
10.56392 337
10.58403 338
10.60415 328
10.62426 290
10.64438 356
10.66449 288
10.6846 289
10.70472 278
10.72483 306
10.74494 322
10.76506 311
10.78517 256
10.80529 288
10.8254 247
10.84551 308
10.86563 298
10.88574 283
10.90585 272
10.92597 277
10.94608 292
10.9662 317
10.98631 297
11.00642 289
11.02654 313
11.04665 282
11.06676 280
11.08688 303
11.10699 300
11.1271 309
11.14722 307
11.16733 279
11.18745 308
11.20756 308
11.22767 324
11.24779 308
11.2679 321
11.28801 287
11.30813 327
11.32824 298
11.34836 320
11.36847 293
11.38858 279
11.4087 278
11.42881 287
11.44892 292
11.46904 298
11.48915 315
11.50927 324
11.52938 304
11.54949 289
11.56961 325
11.58972 307
11.60983 329
11.62995 328
11.65006 284
11.67017 317
11.69029 324
11.7104 316
11.73052 315
11.75063 283
11.77074 321
11.79086 324
11.81097 307
11.83108 277
11.8512 289
11.87131 283
11.89143 324
11.91154 321
11.93165 300
11.95177 324
11.97188 318
11.99199 282
12.01211 292
12.03222 293
12.05234 323
12.07245 305
12.09256 307
12.11268 333
12.13279 303
12.1529 323
12.17302 281
12.19313 306
12.21324 307
12.23336 350
12.25347 319
12.27359 332
12.2937 326
12.31381 359
12.33393 346
12.35404 396
12.37415 355
12.39427 410
12.41438 377
12.4345 344
12.45461 345
12.47472 355
12.49484 354
12.51495 307
12.53506 321
12.55518 326
12.57529 314
12.5954 336
12.61552 331
12.63563 307
12.65575 278
12.67586 265
12.69597 288
12.71609 305
12.7362 307
12.75631 312
12.77643 291
12.79654 328
12.81666 261
12.83677 310
12.85688 276
12.877 309
12.89711 283
12.91722 277
12.93734 276
12.95745 294
12.97757 286
12.99768 312
13.01779 270
13.03791 302
13.05802 286
13.07813 259
13.09825 266
13.11836 289
13.13847 277
13.15859 303
13.1787 299
13.19882 321
13.21893 303
13.23904 282
13.25916 270
13.27927 318
13.29938 310
13.3195 298
13.33961 261
13.35973 280
13.37984 263
13.39995 307
13.42007 263
13.44018 276
13.46029 272
13.48041 307
13.50052 327
13.52064 302
13.54075 319
13.56086 321
13.58098 331
13.60109 321
13.6212 321
13.64132 386
13.66143 317
13.68154 306
13.70166 329
13.72177 356
13.74189 350
13.762 385
13.78211 373
13.80223 345
13.82234 352
13.84245 349
13.86257 370
13.88268 355
13.9028 313
13.92291 352
13.94302 331
13.96314 302
13.98325 272
14.00336 313
14.02348 307
14.04359 316
14.06371 310
14.08382 317
14.10393 346
14.12405 285
14.14416 292
14.16427 245
14.18439 285
14.2045 299
14.22461 290
14.24473 279
14.26484 283
14.28496 250
14.30507 258
14.32518 261
14.3453 263
14.36541 300
14.38552 301
14.40564 271
14.42575 271
14.44587 254
14.46598 251
14.48609 274
14.50621 290
14.52632 254
14.54643 268
14.56655 283
14.58666 265
14.60677 262
14.62689 308
14.647 290
14.66712 262
14.68723 270
14.70734 290
14.72746 287
14.74757 261
14.76768 275
14.7878 266
14.80791 285
14.82803 286
14.84814 290
14.86825 297
14.88837 261
14.90848 299
14.92859 257
14.94871 299
14.96882 302
14.98894 299
15.00905 303
15.02916 286
15.04928 310
15.06939 307
15.0895 289
15.10962 288
15.12973 278
15.14984 283
15.16996 297
15.19007 268
15.21019 273
15.2303 261
15.25041 281
15.27053 275
15.29064 276
15.31075 289
15.33087 282
15.35098 271
15.3711 254
15.39121 242
15.41132 272
15.43144 236
15.45155 268
15.47166 263
15.49178 259
15.51189 254
15.53201 260
15.55212 293
15.57223 285
15.59235 238
15.61246 281
15.63257 243
15.65269 259
15.6728 249
15.69291 311
15.71303 275
15.73314 286
15.75326 262
15.77337 235
15.79348 279
15.8136 275
15.83371 260
15.85382 255
15.87394 276
15.89405 287
15.91417 283
15.93428 275
15.95439 267
15.97451 250
15.99462 275
16.01473 289
16.03485 295
16.05496 269
16.07508 304
16.09519 263
16.1153 253
16.13542 271
16.15553 287
16.17564 307
16.19576 296
16.21587 265
16.23598 264
16.2561 304
16.27621 277
16.29633 274
16.31644 279
16.33655 288
16.35667 257
16.37678 308
16.39689 313
16.41701 299
16.43712 299
16.45724 287
16.47735 291
16.49746 301
16.51758 256
16.53769 287
16.5578 260
16.57792 250
16.59803 277
16.61814 270
16.63826 275
16.65837 238
16.67849 262
16.6986 279
16.71871 283
16.73883 253
16.75894 266
16.77905 269
16.79917 303
16.81928 244
16.8394 256
16.85951 269
16.87962 249
16.89974 268
16.91985 278
16.93996 292
16.96008 272
16.98019 276
17.00031 264
17.02042 248
17.04053 258
17.06065 239
17.08076 273
17.10087 288
17.12099 308
17.1411 235
17.16121 272
17.18133 213
17.20144 266
17.22156 258
17.24167 308
17.26178 258
17.2819 253
17.30201 297
17.32212 250
17.34224 281
17.36235 281
17.38247 299
17.40258 300
17.42269 274
17.44281 280
17.46292 296
17.48303 258
17.50315 294
17.52326 296
17.54338 268
17.56349 314
17.5836 298
17.60372 284
17.62383 290
17.64394 319
17.66406 325
17.68417 307
17.70428 286
17.7244 328
17.74451 284
17.76463 331
17.78474 326
17.80485 323
17.82497 277
17.84508 304
17.86519 301
17.88531 317
17.90542 302
17.92554 323
17.94565 302
17.96576 310
17.98588 306
18.00599 324
18.0261 271
18.04622 310
18.06633 280
18.08645 275
18.10656 304
18.12667 296
18.14679 280
18.1669 296
18.18701 307
18.20713 305
18.22724 276
18.24735 292
18.26747 260
18.28758 288
18.3077 280
18.32781 281
18.34792 275
18.36804 282
18.38815 268
18.40826 273
18.42838 297
18.44849 324
18.46861 268
18.48872 323
18.50883 290
18.52895 296
18.54906 308
18.56917 293
18.58929 324
18.6094 280
18.62951 288
18.64963 288
18.66974 302
18.68986 306
18.70997 328
18.73008 305
18.7502 308
18.77031 327
18.79042 324
18.81054 303
18.83065 325
18.85077 300
18.87088 304
18.89099 285
18.91111 309
18.93122 293
18.95133 337
18.97145 288
18.99156 295
19.01168 319
19.03179 306
19.0519 304
19.07202 295
19.09213 341
19.11224 311
19.13236 338
19.15247 342
19.17258 340
19.1927 352
19.21281 340
19.23293 342
19.25304 375
19.27315 365
19.29327 395
19.31338 358
19.33349 367
19.35361 364
19.37372 387
19.39384 383
19.41395 365
19.43406 397
19.45418 391
19.47429 473
19.4944 461
19.51452 422
19.53463 500
19.55475 489
19.57486 537
19.59497 539
19.61509 529
19.6352 556
19.65531 552
19.67543 579
19.69554 613
19.71565 579
19.73577 631
19.75588 597
19.776 617
19.79611 636
19.81622 582
19.83634 585
19.85645 562
19.87656 543
19.89668 516
19.91679 524
19.93691 472
19.95702 472
19.97713 457
19.99725 454
20.01736 492
20.03747 472
20.05759 431
20.0777 430
20.09782 428
20.11793 441
20.13804 421
20.15816 401
20.17827 406
20.19838 440
20.2185 457
20.23861 446
20.25872 407
20.27884 387
20.29895 376
20.31907 397
20.33918 446
20.35929 406
20.37941 395
20.39952 421
20.41963 441
20.43975 437
20.45986 446
20.47998 420
20.50009 457
20.5202 504
20.54032 513
20.56043 558
20.58054 589
20.60066 682
20.62077 745
20.64088 839
20.661 1061
20.68111 1208
20.70123 1390
20.72134 1605
20.74145 1926
20.76157 2107
20.78168 2293
20.80179 2299
20.82191 2093
20.84202 1953
20.86214 1708
20.88225 1348
20.90236 1115
20.92248 855
20.94259 769
20.9627 684
20.98282 586
21.00293 562
21.02305 513
21.04316 535
21.06327 490
21.08339 463
21.1035 434
21.12361 423
21.14373 424
21.16384 374
21.18395 425
21.20407 405
21.22418 403
21.2443 422
21.26441 397
21.28452 378
21.30464 417
21.32475 414
21.34486 408
21.36498 422
21.38509 384
21.40521 366
21.42532 381
21.44543 388
21.46555 380
21.48566 399
21.50577 359
21.52589 383
21.546 403
21.56612 419
21.58623 401
21.60634 392
21.62646 380
21.64657 379
21.66668 358
21.6868 393
21.70691 401
21.72702 403
21.74714 379
21.76725 382
21.78737 452
21.80748 472
21.82759 483
21.84771 519
21.86782 619
21.88793 596
21.90805 638
21.92816 650
21.94828 718
21.96839 702
21.9885 667
22.00862 607
22.02873 525
22.04884 497
22.06896 463
22.08907 417
22.10919 414
22.1293 395
22.14941 374
22.16953 380
22.18964 427
22.20975 403
22.22987 354
22.24998 312
22.27009 384
22.29021 388
22.31032 369
22.33044 405
22.35055 353
22.37066 377
22.39078 347
22.41089 362
22.431 352
22.45112 355
22.47123 379
22.49135 363
22.51146 378
22.53157 361
22.55169 338
22.5718 379
22.59191 373
22.61203 341
22.63214 382
22.65225 385
22.67237 397
22.69248 355
22.7126 362
22.73271 401
22.75282 389
22.77294 423
22.79305 376
22.81316 399
22.83328 409
22.85339 419
22.87351 402
22.89362 455
22.91373 437
22.93385 474
22.95396 452
22.97407 493
22.99419 445
23.0143 467
23.03442 445
23.05453 469
23.07464 413
23.09476 437
23.11487 478
23.13498 467
23.1551 434
23.17521 428
23.19532 423
23.21544 390
23.23555 375
23.25567 414
23.27578 361
23.29589 355
23.31601 386
23.33612 448
23.35623 418
23.37635 441
23.39646 460
23.41658 447
23.43669 480
23.4568 523
23.47692 539
23.49703 539
23.51714 526
23.53726 503
23.55737 515
23.57749 501
23.5976 483
23.61771 442
23.63783 515
23.65794 469
23.67805 435
23.69817 432
23.71828 458
23.73839 430
23.75851 422
23.77862 441
23.79874 481
23.81885 501
23.83896 470
23.85908 469
23.87919 444
23.8993 500
23.91942 443
23.93953 488
23.95965 451
23.97976 465
23.99987 513
24.01999 483
24.0401 499
24.06021 506
24.08033 508
24.10044 536
24.12056 543
24.14067 590
24.16078 577
24.1809 550
24.20101 556
24.22112 552
24.24124 538
24.26135 529
24.28146 507
24.30158 519
24.32169 470
24.34181 435
24.36192 417
24.38203 417
24.40215 406
24.42226 393
24.44237 404
24.46249 384
24.4826 385
24.50272 431
24.52283 340
24.54294 400
24.56306 400
24.58317 360
24.60328 386
24.6234 380
24.64351 325
24.66362 364
24.68374 399
24.70385 354
24.72397 377
24.74408 389
24.76419 362
24.78431 359
24.80442 364
24.82453 357
24.84465 349
24.86476 371
24.88488 389
24.90499 399
24.9251 417
24.94522 443
24.96533 383
24.98544 423
25.00556 410
25.02567 413
25.04579 428
25.0659 391
25.08601 411
25.10613 403
25.12624 435
25.14635 429
25.16647 447
25.18658 424
25.20669 415
25.22681 402
25.24692 431
25.26704 450
25.28715 493
25.30726 486
25.32738 419
25.34749 441
25.3676 482
25.38772 501
25.40783 457
25.42795 556
25.44806 471
25.46817 488
25.48829 519
25.5084 529
25.52851 516
25.54863 550
25.56874 462
25.58886 511
25.60897 476
25.62908 505
25.6492 480
25.66931 490
25.68942 489
25.70954 483
25.72965 489
25.74976 454
25.76988 447
25.78999 469
25.81011 423
25.83022 471
25.85033 453
25.87045 489
25.89056 462
25.91067 443
25.93079 449
25.9509 462
25.97102 450
25.99113 493
26.01124 457
26.03136 514
26.05147 529
26.07158 595
26.0917 635
26.11181 592
26.13193 629
26.15204 685
26.17215 667
26.19227 701
26.21238 790
26.23249 779
26.25261 885
26.27272 957
26.29283 1117
26.31295 1251
26.33306 1471
26.35318 1696
26.37329 2110
26.3934 2406
26.41352 2964
26.43363 3729
26.45374 4659
26.47386 5583
26.49397 6639
26.51409 7957
26.5342 8943
26.55431 9120
26.57443 9060
26.59454 8319
26.61465 7571
26.63477 6297
26.65488 4806
26.67499 3643
26.69511 2608
26.71522 2010
26.73534 1484
26.75545 1212
26.77556 1025
26.79568 929
26.81579 850
26.8359 858
26.85602 740
26.87613 776
26.89625 749
26.91636 673
26.93647 673
26.95659 717
26.9767 682
26.99681 647
27.01693 679
27.03704 669
27.05716 618
27.07727 595
27.09738 596
27.1175 598
27.13761 584
27.15772 626
27.17784 573
27.19795 583
27.21806 592
27.23818 592
27.25829 598
27.27841 616
27.29852 644
27.31863 652
27.33875 683
27.35886 733
27.37897 737
27.39909 754
27.4192 702
27.43932 717
27.45943 745
27.47954 712
27.49966 828
27.51977 715
27.53988 752
27.56 719
27.58011 791
27.60023 789
27.62034 887
27.64045 889
27.66057 885
27.68068 974
27.70079 951
27.72091 961
27.74102 1032
27.76113 996
27.78125 1010
27.80136 1017
27.82148 1071
27.84159 1014
27.8617 1023
27.88182 974
27.90193 998
27.92204 930
27.94216 869
27.96227 778
27.98239 777
28.0025 719
28.02261 716
28.04273 676
28.06284 631
28.08295 579
28.10307 603
28.12318 577
28.1433 570
28.16341 554
28.18352 564
28.20364 501
28.22375 459
28.24386 512
28.26398 521
28.28409 487
28.3042 472
28.32432 454
28.34443 482
28.36455 468
28.38466 460
28.40477 473
28.42489 419
28.445 467
28.46511 458
28.48523 438
28.50534 440
28.52546 384
28.54557 423
28.56568 442
28.5858 440
28.60591 421
28.62602 410
28.64614 441
28.66625 423
28.68636 398
28.70648 398
28.72659 371
28.74671 401
28.76682 412
28.78693 374
28.80705 406
28.82716 418
28.84727 437
28.86739 398
28.8875 369
28.90762 405
28.92773 449
28.94784 438
28.96796 382
28.98807 412
29.00818 403
29.0283 430
29.04841 418
29.06853 445
29.08864 473
29.10875 438
29.12887 543
29.14898 488
29.16909 540
29.18921 532
29.20932 621
29.22943 657
29.24955 731
29.26966 780
29.28978 878
29.30989 979
29.33 962
29.35012 1099
29.37023 1092
29.39034 1064
29.41046 1029
29.43057 1063
29.45069 951
29.4708 919
29.49091 785
29.51103 748
29.53114 669
29.55125 639
29.57137 580
29.59148 561
29.6116 539
29.63171 505
29.65182 521
29.67194 500
29.69205 501
29.71216 492
29.73228 477
29.75239 482
29.7725 458
29.79262 505
29.81273 474
29.83285 468
29.85296 436
29.87307 430
29.89319 438
29.9133 445
29.93341 465
29.95353 457
29.97364 420
29.99376 427
30.01387 430
30.03398 458
30.0541 459
30.07421 479
30.09432 413
30.11444 482
30.13455 496
30.15467 454
30.17478 485
30.19489 455
30.21501 488
30.23512 446
30.25523 491
30.27535 496
30.29546 532
30.31557 520
30.33569 506
30.3558 480
30.37592 482
30.39603 510
30.41614 449
30.43626 431
30.45637 466
30.47648 446
30.4966 437
30.51671 414
30.53683 382
30.55694 405
30.57705 412
30.59717 373
30.61728 379
30.63739 435
30.65751 429
30.67762 429
30.69773 435
30.71785 480
30.73796 436
30.75808 421
30.77819 428
30.7983 446
30.81842 397
30.83853 428
30.85864 419
30.87876 393
30.89887 407
30.91899 419
30.9391 380
30.95921 353
30.97933 370
30.99944 383
31.01955 367
31.03967 336
31.05978 326
31.0799 373
31.10001 329
31.12012 357
31.14024 391
31.16035 339
31.18046 388
31.20058 379
31.22069 440
31.2408 388
31.26092 411
31.28103 337
31.30115 394
31.32126 382
31.34137 403
31.36149 398
31.3816 374
31.40171 370
31.42183 405
31.44194 343
31.46206 348
31.48217 378
31.50228 358
31.5224 327
31.54251 343
31.56262 336
31.58274 336
31.60285 376
31.62297 331
31.64308 329
31.66319 361
31.68331 312
31.70342 321
31.72353 368
31.74365 300
31.76376 338
31.78387 337
31.80399 309
31.8241 316
31.84422 316
31.86433 326
31.88444 341
31.90456 334
31.92467 359
31.94478 331
31.9649 314
31.98501 347
32.00513 345
32.02524 348
32.04535 329
32.06547 329
32.08558 322
32.10569 329
32.12581 344
32.14592 315
32.16604 321
32.18615 314
32.20626 316
32.22638 307
32.24649 358
32.2666 363
32.28672 314
32.30683 333
32.32694 353
32.34706 325
32.36717 331
32.38729 350
32.4074 308
32.42751 362
32.44763 383
32.46774 327
32.48785 367
32.50797 364
32.52808 324
32.5482 334
32.56831 299
32.58842 319
32.60854 300
32.62865 366
32.64876 344
32.66888 341
32.68899 320
32.7091 321
32.72922 339
32.74933 364
32.76945 337
32.78956 368
32.80967 367
32.82979 382
32.8499 360
32.87001 407
32.89013 411
32.91024 395
32.93036 422
32.95047 430
32.97058 404
32.9907 365
33.01081 408
33.03092 376
33.05104 340
33.07115 347
33.09127 353
33.11138 368
33.13149 363
33.15161 328
33.17172 361
33.19183 370
33.21195 323
33.23206 370
33.25217 361
33.27229 329
33.2924 338
33.31252 336
33.33263 370
33.35274 314
33.37286 364
33.39297 341
33.41308 335
33.4332 317
33.45331 308
33.47343 329
33.49354 308
33.51365 348
33.53377 298
33.55388 339
33.57399 351
33.59411 343
33.61422 348
33.63434 355
33.65445 343
33.67456 331
33.69468 366
33.71479 355
33.7349 374
33.75502 352
33.77513 388
33.79524 377
33.81536 353
33.83547 382
33.85559 399
33.8757 354
33.89581 375
33.91593 378
33.93604 381
33.95615 376
33.97627 415
33.99638 397
34.0165 375
34.03661 374
34.05672 409
34.07684 418
34.09695 413
34.11706 421
34.13718 425
34.15729 451
34.17741 413
34.19752 451
34.21763 454
34.23775 464
34.25786 462
34.27797 455
34.29809 507
34.3182 534
34.33831 494
34.35843 529
34.37854 527
34.39866 544
34.41877 582
34.43888 551
34.459 572
34.47911 579
34.49922 578
34.51934 591
34.53945 585
34.55957 637
34.57968 667
34.59979 671
34.61991 657
34.64002 635
34.66013 636
34.68025 633
34.70036 655
34.72047 575
34.74059 574
34.7607 613
34.78082 616
34.80093 586
34.82104 586
34.84116 654
34.86127 608
34.88138 536
34.9015 628
34.92161 578
34.94173 616
34.96184 617
34.98195 605
35.00207 550
35.02218 602
35.04229 571
35.06241 578
35.08252 555
35.10264 540
35.12275 555
35.14286 523
35.16298 528
35.18309 525
35.2032 505
35.22332 517
35.24343 488
35.26354 479
35.28366 463
35.30377 517
35.32389 533
35.344 498
35.36411 499
35.38423 465
35.40434 481
35.42445 502
35.44457 501
35.46468 519
35.4848 507
35.50491 470
35.52502 466
35.54514 481
35.56525 478
35.58536 462
35.60548 459
35.62559 443
35.64571 447
35.66582 396
35.68593 481
35.70605 429
35.72616 419
35.74627 458
35.76639 448
35.7865 511
35.80661 411
35.82673 438
35.84684 475
35.86696 478
35.88707 482
35.90718 505
35.9273 497
35.94741 499
35.96752 480
35.98764 504
36.00775 486
36.02787 448
36.04798 450
36.06809 473
36.08821 428
36.10832 410
36.12843 421
36.14855 455
36.16866 395
36.18878 447
36.20889 432
36.229 435
36.24912 480
36.26923 527
36.28934 561
36.30946 564
36.32957 638
36.34968 708
36.3698 807
36.38991 823
36.41003 865
36.43014 896
36.45025 865
36.47037 942
36.49048 916
36.51059 878
36.53071 817
36.55082 669
36.57094 658
36.59105 648
36.61116 562
36.63128 538
36.65139 504
36.6715 475
36.69162 465
36.71173 440
36.73184 443
36.75196 447
36.77207 436
36.79219 397
36.8123 431
36.83241 386
36.85253 432
36.87264 437
36.89275 433
36.91287 387
36.93298 403
36.9531 408
36.97321 411
36.99332 381
37.01344 387
37.03355 366
37.05366 426
37.07378 400
37.09389 372
37.11401 419
37.13412 385
37.15423 384
37.17435 352
37.19446 423
37.21457 374
37.23469 386
37.2548 403
37.27491 389
37.29503 398
37.31514 424
37.33526 397
37.35537 409
37.37548 418
37.3956 421
37.41571 409
37.43582 413
37.45594 418
37.47605 421
37.49617 388
37.51628 415
37.53639 410
37.55651 438
37.57662 396
37.59673 419
37.61685 410
37.63696 435
37.65708 405
37.67719 374
37.6973 397
37.71742 410
37.73753 378
37.75764 384
37.77776 376
37.79787 358
37.81798 333
37.8381 363
37.85821 366
37.87833 330
37.89844 310
37.91855 347
37.93867 332
37.95878 311
37.97889 335
37.99901 313
38.01912 354
38.03924 326
38.05935 348
38.07946 324
38.09958 345
38.11969 340
38.1398 360
38.15992 328
38.18003 352
38.20015 381
38.22026 327
38.24037 323
38.26049 330
38.2806 343
38.30071 336
38.32083 336
38.34094 350
38.36105 369
38.38117 371
38.40128 333
38.4214 342
38.44151 306
38.46162 330
38.48174 359
38.50185 359
38.52196 353
38.54208 322
38.56219 333
38.58231 319
38.60242 336
38.62253 337
38.64265 305
38.66276 334
38.68287 322
38.70299 296
38.7231 307
38.74321 367
38.76333 327
38.78344 326
38.80356 365
38.82367 345
38.84378 303
38.8639 323
38.88401 330
38.90412 319
38.92424 345
38.94435 356
38.96447 322
38.98458 375
39.00469 345
39.02481 377
39.04492 339
39.06503 367
39.08515 382
39.10526 396
39.12538 459
39.14549 413
39.1656 479
39.18572 483
39.20583 545
39.22594 612
39.24606 644
39.26617 644
39.28628 759
39.3064 753
39.32651 868
39.34663 878
39.36674 1025
39.38685 950
39.40697 849
39.42708 903
39.44719 758
39.46731 748
39.48742 678
39.50754 633
39.52765 548
39.54776 459
39.56788 468
39.58799 423
39.6081 418
39.62822 388
39.64833 406
39.66845 393
39.68856 388
39.70867 369
39.72879 333
39.7489 366
39.76901 364
39.78913 337
39.80924 409
39.82935 361
39.84947 373
39.86958 363
39.8897 341
39.90981 372
39.92992 387
39.95004 408
39.97015 363
39.99026 375
40.01038 445
40.03049 406
40.05061 461
40.07072 429
40.09083 493
40.11095 488
40.13106 540
40.15117 569
40.17129 519
40.1914 588
40.21152 616
40.23163 586
40.25174 587
40.27186 549
40.29197 529
40.31208 477
40.3322 433
40.35231 407
40.37242 397
40.39254 369
40.41265 368
40.43277 315
40.45288 331
40.47299 334
40.49311 336
40.51322 330
40.53333 351
40.55345 307
40.57356 366
40.59368 322
40.61379 322
40.6339 349
40.65402 348
40.67413 343
40.69424 319
40.71436 348
40.73447 317
40.75458 308
40.7747 309
40.79481 360
40.81493 327
40.83504 374
40.85515 328
40.87527 357
40.89538 356
40.91549 337
40.93561 362
40.95572 354
40.97584 318
40.99595 313
41.01606 317
41.03618 347
41.05629 350
41.0764 343
41.09652 351
41.11663 321
41.13675 343
41.15686 345
41.17697 326
41.19709 360
41.2172 312
41.23731 341
41.25743 316
41.27754 325
41.29765 331
41.31777 322
41.33788 302
41.358 306
41.37811 314
41.39822 334
41.41834 335
41.43845 332
41.45856 343
41.47868 336
41.49879 338
41.51891 359
41.53902 391
41.55913 363
41.57925 350
41.59936 359
41.61947 392
41.63959 382
41.6597 388
41.67982 385
41.69993 384
41.72004 397
41.74016 356
41.76027 402
41.78038 394
41.8005 380
41.82061 359
41.84072 360
41.86084 337
41.88095 337
41.90107 352
41.92118 342
41.94129 371
41.96141 355
41.98152 316
42.00163 359
42.02175 370
42.04186 372
42.06198 434
42.08209 385
42.1022 421
42.12232 365
42.14243 418
42.16254 446
42.18266 491
42.20277 465
42.22289 492
42.243 526
42.26311 557
42.28323 622
42.30334 682
42.32345 763
42.34357 738
42.36368 674
42.38379 683
42.40391 655
42.42402 584
42.44414 590
42.46425 559
42.48436 493
42.50448 501
42.52459 434
42.5447 419
42.56482 398
42.58493 391
42.60505 377
42.62516 346
42.64527 386
42.66539 337
42.6855 350
42.70561 383
42.72573 308
42.74584 328
42.76595 344
42.78607 313
42.80618 359
42.8263 314
42.84641 347
42.86652 318
42.88664 369
42.90675 324
42.92686 351
42.94698 379
42.96709 341
42.98721 355
43.00732 375
43.02743 385
43.04755 374
43.06766 369
43.08777 430
43.10789 401
43.128 394
43.14812 407
43.16823 413
43.18834 394
43.20846 361
43.22857 400
43.24868 385
43.2688 364
43.28891 385
43.30902 334
43.32914 372
43.34925 333
43.36937 350
43.38948 327
43.40959 319
43.42971 309
43.44982 316
43.46993 325
43.49005 347
43.51016 323
43.53028 337
43.55039 311
43.5705 327
43.59062 314
43.61073 284
43.63084 266
43.65096 290
43.67107 266
43.69119 277
43.7113 315
43.73141 322
43.75153 282
43.77164 298
43.79175 316
43.81187 291
43.83198 269
43.85209 291
43.87221 263
43.89232 267
43.91244 272
43.93255 309
43.95266 328
43.97278 307
43.99289 320
44.013 311
44.03312 287
44.05323 287
44.07335 288
44.09346 313
44.11357 282
44.13369 309
44.1538 326
44.17391 302
44.19403 289
44.21414 256
44.23426 304
44.25437 313
44.27448 306
44.2946 279
44.31471 277
44.33482 294
44.35494 290
44.37505 302
44.39516 324
44.41528 293
44.43539 265
44.45551 275
44.47562 287
44.49573 305
44.51585 283
44.53596 298
44.55607 289
44.57619 314
44.5963 314
44.61642 279
44.63653 291
44.65664 298
44.67676 326
44.69687 344
44.71698 319
44.7371 291
44.75721 329
44.77732 319
44.79744 336
44.81755 305
44.83767 352
44.85778 340
44.87789 341
44.89801 327
44.91812 349
44.93823 344
44.95835 314
44.97846 316
44.99858 291
45.01869 329
45.0388 323
45.05892 287
45.07903 344
45.09914 321
45.11926 317
45.13937 333
45.15949 311
45.1796 299
45.19971 359
45.21983 342
45.23994 345
45.26005 333
45.28017 336
45.30028 349
45.32039 309
45.34051 347
45.36062 324
45.38074 342
45.40085 330
45.42096 305
45.44108 385
45.46119 376
45.4813 386
45.50142 402
45.52153 359
45.54165 408
45.56176 399
45.58187 432
45.60199 512
45.6221 494
45.64221 516
45.66233 549
45.68244 523
45.70256 552
45.72267 512
45.74278 503
45.7629 509
45.78301 497
45.80312 428
45.82324 430
45.84335 413
45.86346 408
45.88358 359
45.90369 372
45.92381 344
45.94392 335
45.96403 343
45.98415 359
46.00426 321
46.02437 316
46.04449 260
46.0646 302
46.08472 256
46.10483 299
46.12494 313
46.14506 306
46.16517 308
46.18528 274
46.2054 262
46.22551 307
46.24563 302
46.26574 318
46.28585 299
46.30597 258
46.32608 275
46.34619 308
46.36631 272
46.38642 284
46.40653 294
46.42665 278
46.44676 308
46.46688 283
46.48699 252
46.5071 284
46.52722 268
46.54733 308
46.56744 280
46.58756 300
46.60767 267
46.62779 309
46.6479 306
46.66801 290
46.68813 260
46.70824 246
46.72835 281
46.74847 267
46.76858 289
46.78869 294
46.80881 297
46.82892 297
46.84904 274
46.86915 291
46.88926 293
46.90938 284
46.92949 298
46.9496 299
46.96972 296
46.98983 285
47.00995 338
47.03006 317
47.05017 338
47.07029 339
47.0904 342
47.11051 355
47.13063 324
47.15074 330
47.17086 378
47.19097 337
47.21108 323
47.2312 313
47.25131 316
47.27142 336
47.29154 354
47.31165 346
47.33176 348
47.35188 365
47.37199 378
47.39211 371
47.41222 359
47.43233 408
47.45245 389
47.47256 361
47.49267 408
47.51279 367
47.5329 410
47.55302 357
47.57313 371
47.59324 377
47.61336 355
47.63347 368
47.65358 351
47.6737 351
47.69381 327
47.71393 337
47.73404 331
47.75415 296
47.77427 308
47.79438 322
47.81449 292
47.83461 326
47.85472 320
47.87483 304
47.89495 308
47.91506 333
47.93518 324
47.95529 343
47.9754 304
47.99552 309
48.01563 308
48.03574 273
48.05586 338
48.07597 310
48.09609 315
48.1162 336
48.13631 317
48.15643 305
48.17654 334
48.19665 358
48.21677 310
48.23688 306
48.257 346
48.27711 371
48.29722 357
48.31734 341
48.33745 355
48.35756 353
48.37768 338
48.39779 359
48.4179 352
48.43802 391
48.45813 399
48.47825 404
48.49836 403
48.51847 402
48.53859 413
48.5587 382
48.57881 391
48.59893 388
48.61904 372
48.63916 373
48.65927 384
48.67938 343
48.6995 407
48.71961 335
48.73972 347
48.75984 350
48.77995 318
48.80006 315
48.82018 333
48.84029 296
48.86041 305
48.88052 307
48.90063 344
48.92075 323
48.94086 293
48.96097 306
48.98109 352
49.0012 301
49.02132 309
49.04143 302
49.06154 309
49.08166 340
49.10177 294
49.12188 362
49.142 341
49.16211 327
49.18223 336
49.20234 346
49.22245 317
49.24257 320
49.26268 339
49.28279 347
49.30291 323
49.32302 300
49.34313 308
49.36325 300
49.38336 314
49.40348 319
49.42359 318
49.4437 335
49.46382 329
49.48393 335
49.50404 325
49.52416 306
49.54427 332
49.56439 331
49.5845 314
49.60461 367
49.62473 343
49.64484 377
49.66495 386
49.68507 404
49.70518 398
49.7253 416
49.74541 430
49.76552 463
49.78564 486
49.80575 519
49.82586 536
49.84598 573
49.86609 658
49.8862 703
49.90632 791
49.92643 862
49.94655 929
49.96666 970
49.98677 1041
50.00689 1103
50.027 1173
50.04711 1225
50.06723 1199
50.08734 1036
50.10746 937
50.12757 891
50.14768 793
50.1678 795
50.18791 688
50.20802 612
50.22814 569
50.24825 520
50.26837 469
50.28848 369
50.30859 379
50.32871 353
50.34882 372
50.36893 363
50.38905 384
50.40916 356
50.42927 387
50.44939 380
50.4695 376
50.48962 359
50.50973 363
50.52984 338
50.54996 348
50.57007 374
50.59018 389
50.6103 342
50.63041 362
50.65053 329
50.67064 350
50.69075 336
50.71087 336
50.73098 314
50.75109 325
50.77121 296
50.79132 315
50.81143 309
50.83155 297
50.85166 316
50.87178 311
50.89189 300
50.912 296
50.93212 284
50.95223 286
50.97234 323
50.99246 317
51.01257 315
51.03269 312
51.0528 319
51.07291 304
51.09303 343
51.11314 329
51.13325 300
51.15337 331
51.17348 314
51.1936 314
51.21371 283
51.23382 259
51.25394 321
51.27405 289
51.29416 270
51.31428 268
51.33439 277
51.3545 301
51.37462 304
51.39473 287
51.41485 293
51.43496 273
51.45507 269
51.47519 267
51.4953 295
51.51541 235
51.53553 259
51.55564 281
51.57576 266
51.59587 269
51.61598 283
51.6361 266
51.65621 251
51.67632 261
51.69644 262
51.71655 254
51.73667 237
51.75678 278
51.77689 262
51.79701 278
51.81712 259
51.83723 262
51.85735 271
51.87746 254
51.89757 266
51.91769 272
51.9378 266
51.95792 277
51.97803 282
51.99814 268
52.01826 274
52.03837 274
52.05848 289
52.0786 272
52.09871 289
52.11883 295
52.13894 279
52.15905 319
52.17917 289
52.19928 302
52.21939 271
52.23951 268
52.25962 281
52.27974 298
52.29985 304
52.31996 250
52.34008 273
52.36019 279
52.3803 277
52.40042 292
52.42053 293
52.44064 329
52.46076 265
52.48087 299
52.50099 301
52.5211 262
52.54121 291
52.56133 254
52.58144 299
52.60155 297
52.62167 293
52.64178 303
52.6619 289
52.68201 267
52.70212 287
52.72224 288
52.74235 287
52.76246 294
52.78258 284
52.80269 296
52.8228 309
52.84292 272
52.86303 293
52.88315 268
52.90326 317
52.92337 298
52.94349 327
52.9636 273
52.98371 330
53.00383 284
53.02394 327
53.04406 327
53.06417 329
53.08428 301
53.1044 315
53.12451 329
53.14462 309
53.16474 301
53.18485 308
53.20497 319
53.22508 323
53.24519 306
53.26531 309
53.28542 314
53.30553 306
53.32565 289
53.34576 307
53.36587 296
53.38599 300
53.4061 296
53.42622 327
53.44633 299
53.46644 334
53.48656 310
53.50667 309
53.52678 302
53.5469 319
53.56701 300
53.58713 335
53.60724 295
53.62735 288
53.64747 304
53.66758 339
53.68769 304
53.70781 306
53.72792 335
53.74804 302
53.76815 322
53.78826 311
53.80838 326
53.82849 307
53.8486 301
53.86872 312
53.88883 316
53.90894 356
53.92906 339
53.94917 338
53.96929 294
53.9894 307
54.00951 340
54.02963 337
54.04974 288
54.06985 325
54.08997 325
54.11008 343
54.1302 309
54.15031 310
54.17042 291
54.19054 343
54.21065 275
54.23076 319
54.25088 312
54.27099 342
54.29111 320
54.31122 340
54.33133 342
54.35145 331
54.37156 334
54.39167 353
54.41179 354
54.4319 326
54.45201 339
54.47213 358
54.49224 339
54.51236 336
54.53247 335
54.55258 394
54.5727 370
54.59281 374
54.61292 388
54.63304 448
54.65315 477
54.67327 441
54.69338 469
54.71349 525
54.73361 508
54.75372 540
54.77383 593
54.79395 554
54.81406 518
54.83417 526
54.85429 546
54.8744 474
54.89452 435
54.91463 458
54.93474 443
54.95486 442
54.97497 363
54.99508 417
55.0152 385
55.03531 362
55.05543 378
55.07554 396
55.09565 382
55.11577 393
55.13588 371
55.15599 416
55.17611 402
55.19622 398
55.21634 416
55.23645 437
55.25656 442
55.27668 415
55.29679 394
55.3169 390
55.33702 372
55.35713 363
55.37724 383
55.39736 353
55.41747 358
55.43759 320
55.4577 364
55.47781 337
55.49793 335
55.51804 305
55.53815 317
55.55827 326
55.57838 320
55.5985 309
55.61861 309
55.63872 292
55.65884 310
55.67895 303
55.69906 314
55.71918 307
55.73929 334
55.75941 283
55.77952 286
55.79963 315
55.81975 293
55.83986 348
55.85997 273
55.88009 259
55.9002 290
55.92031 290
55.94043 309
55.96054 305
55.98066 280
56.00077 304
56.02088 296
56.041 280
56.06111 304
56.08122 290
56.10134 295
56.12145 285
56.14157 318
56.16168 296
56.18179 285
56.20191 292
56.22202 282
56.24213 295
56.26225 295
56.28236 302
56.30248 313
56.32259 268
56.3427 297
56.36282 311
56.38293 291
56.40304 302
56.42316 308
56.44327 295
56.46338 298
56.4835 315
56.50361 287
56.52373 314
56.54384 315
56.56395 309
56.58407 337
56.60418 313
56.62429 318
56.64441 301
56.66452 315
56.68464 328
56.70475 301
56.72486 313
56.74498 334
56.76509 313
56.7852 305
56.80532 340
56.82543 328
56.84554 316
56.86566 290
56.88577 293
56.90589 309
56.926 295
56.94611 314
56.96623 301
56.98634 274
57.00645 290
57.02657 287
57.04668 304
57.0668 306
57.08691 327
57.10702 304
57.12714 297
57.14725 312
57.16736 311
57.18748 321
57.20759 335
57.22771 302
57.24782 319
57.26793 329
57.28805 366
57.30816 325
57.32827 313
57.34839 308
57.3685 352
57.38861 340
57.40873 361
57.42884 343
57.44896 364
57.46907 352
57.48918 350
57.5093 329
57.52941 342
57.54952 296
57.56964 346
57.58975 321
57.60987 320
57.62998 324
57.65009 310
57.67021 283
57.69032 317
57.71043 309
57.73055 309
57.75066 291
57.77078 269
57.79089 287
57.811 293
57.83112 278
57.85123 288
57.87134 274
57.89146 300
57.91157 287
57.93168 299
57.9518 267
57.97191 278
57.99203 288
58.01214 291
58.03225 282
58.05237 286
58.07248 294
58.09259 281
58.11271 304
58.13282 259
58.15294 293
58.17305 277
58.19316 287
58.21328 290
58.23339 300
58.2535 283
58.27362 266
58.29373 280
58.31385 267
58.33396 280
58.35407 296
58.37419 260
58.3943 293
58.41441 303
58.43453 305
58.45464 283
58.47475 277
58.49487 278
58.51498 285
58.5351 306
58.55521 294
58.57532 301
58.59544 292
58.61555 324
58.63566 297
58.65578 264
58.67589 279
58.69601 295
58.71612 294
58.73623 294
58.75635 285
58.77646 306
58.79657 330
58.81669 262
58.8368 252
58.85691 299
58.87703 303
58.89714 287
58.91726 312
58.93737 285
58.95748 292
58.9776 306
58.99771 284
59.01782 288
59.03794 304
59.05805 280
59.07817 295
59.09828 315
59.11839 280
59.13851 278
59.15862 313
59.17873 311
59.19885 307
59.21896 318
59.23908 293
59.25919 297
59.2793 336
59.29942 296
59.31953 324
59.33964 350
59.35976 303
59.37987 319
59.39998 332
59.4201 329
59.44021 346
59.46033 326
59.48044 358
59.50055 364
59.52067 370
59.54078 410
59.56089 407
59.58101 401
59.60112 416
59.62124 412
59.64135 443
59.66146 477
59.68158 551
59.70169 594
59.7218 584
59.74192 662
59.76203 744
59.78215 826
59.80226 836
59.82237 816
59.84249 874
59.8626 880
59.88271 856
59.90283 816
59.92294 750
59.94305 655
59.96317 630
59.98328 644
60.0034 602
60.02351 567
60.04362 574
60.06374 534
60.08385 492
60.10396 437
60.12408 426
60.14419 413
60.16431 369
60.18442 346
60.20453 358
60.22465 349
60.24476 366
60.26487 312
60.28499 332
60.3051 337
60.32522 354
60.34533 322
60.36544 302
60.38556 339
60.40567 315
60.42578 304
60.4459 332
60.46601 313
60.48612 316
60.50624 333
60.52635 360
60.54647 368
60.56658 332
60.58669 328
60.60681 350
60.62692 304
60.64703 315
60.66715 357
60.68726 328
60.70738 314
60.72749 330
60.7476 347
60.76772 351
60.78783 321
60.80794 355
60.82806 340
60.84817 335
60.86828 336
60.8884 340
60.90851 319
60.92863 328
60.94874 333
60.96885 353
60.98897 310
61.00908 346
61.02919 341
61.04931 340
61.06942 331
61.08954 368
61.10965 341
61.12976 358
61.14988 394
61.16999 354
61.1901 342
61.21022 355
61.23033 357
61.25045 340
61.27056 376
61.29067 382
61.31079 369
61.3309 374
61.35101 341
61.37113 382
61.39124 410
61.41135 384
61.43147 383
61.45158 390
61.4717 413
61.49181 363
61.51192 397
61.53204 382
61.55215 398
61.57226 366
61.59238 407
61.61249 404
61.63261 385
61.65272 358
61.67283 378
61.69295 382
61.71306 373
61.73317 353
61.75329 359
61.7734 372
61.79352 323
61.81363 351
61.83374 343
61.85386 367
61.87397 339
61.89408 337
61.9142 317
61.93431 317
61.95442 341
61.97454 296
61.99465 301
62.01477 309
62.03488 315
62.05499 283
62.07511 325
62.09522 350
62.11533 291
62.13545 324
62.15556 286
62.17568 335
62.19579 293
62.2159 342
62.23602 297
62.25613 310
62.27624 296
62.29636 294
62.31647 317
62.33659 295
62.3567 288
62.37681 292
62.39693 290
62.41704 308
62.43715 310
62.45727 271
62.47738 276
62.49749 273
62.51761 297
62.53772 300
62.55784 263
62.57795 281
62.59806 270
62.61818 284
62.63829 292
62.6584 284
62.67852 266
62.69863 288
62.71875 267
62.73886 293
62.75897 286
62.77909 288
62.7992 294
62.81931 263
62.83943 293
62.85954 275
62.87965 304
62.89977 290
62.91988 306
62.94 289
62.96011 287
62.98022 292
63.00034 309
63.02045 283
63.04056 244
63.06068 311
63.08079 307
63.10091 313
63.12102 318
63.14113 295
63.16125 308
63.18136 286
63.20147 294
63.22159 290
63.2417 309
63.26182 303
63.28193 281
63.30204 314
63.32216 296
63.34227 261
63.36238 290
63.3825 301
63.40261 305
63.42272 284
63.44284 294
63.46295 293
63.48307 304
63.50318 315
63.52329 307
63.54341 282
63.56352 287
63.58363 311
63.60375 345
63.62386 327
63.64398 326
63.66409 363
63.6842 330
63.70432 368
63.72443 344
63.74454 336
63.76466 355
63.78477 356
63.80489 367
63.825 372
63.84511 382
63.86523 399
63.88534 398
63.90545 365
63.92557 374
63.94568 396
63.96579 391
63.98591 376
64.00602 380
64.02614 373
64.04625 383
64.06636 334
64.08648 305
64.10659 318
64.1267 292
64.14682 340
64.16693 301
64.18705 276
64.20716 305
64.22727 285
64.24739 291
64.2675 281
64.28761 302
64.30773 281
64.32784 312
64.34796 277
64.36807 258
64.38818 262
64.4083 293
64.42841 296
64.44852 275
64.46864 296
64.48875 268
64.50886 304
64.52898 284
64.54909 288
64.56921 291
64.58932 284
64.60943 322
64.62955 297
64.64966 322
64.66977 265
64.68989 286
64.71 298
64.73012 331
64.75023 301
64.77034 290
64.79046 292
64.81057 320
64.83068 308
64.8508 314
64.87091 306
64.89102 302
64.91114 291
64.93125 294
64.95137 294
64.97148 334
64.99159 300
65.01171 271
65.03182 300
65.05193 271
65.07205 265
65.09216 317
65.11228 300
65.13239 293
65.1525 288
65.17262 286
65.19273 277
65.21284 282
65.23296 246
65.25307 283
65.27319 277
65.2933 287
65.31341 301
65.33353 278
65.35364 273
65.37375 307
65.39387 277
65.41398 295
65.43409 295
65.45421 280
65.47432 293
65.49444 281
65.51455 287
65.53466 308
65.55478 297
65.57489 306
65.595 303
65.61512 265
65.63523 296
65.65535 279
65.67546 316
65.69557 318
65.71569 276
65.7358 299
65.75591 310
65.77603 284
65.79614 298
65.81626 295
65.83637 288
65.85648 298
65.8766 264
65.89671 279
65.91682 275
65.93694 279
65.95705 279
65.97716 279
65.99728 272
66.01739 250
66.03751 287
66.05762 269
66.07773 255
66.09785 255
66.11796 255
66.13807 269
66.15819 283
66.1783 302
66.19842 253
66.21853 277
66.23864 263
66.25876 299
66.27887 271
66.29898 263
66.3191 248
66.33921 230
66.35933 255
66.37944 252
66.39955 277
66.41967 243
66.43978 252
66.45989 273
66.48001 272
66.50012 262
66.52023 249
66.54035 273
66.56046 274
66.58058 257
66.60069 276
66.6208 263
66.64092 241
66.66103 246
66.68114 277
66.70126 281
66.72137 239
66.74149 241
66.7616 258
66.78171 257
66.80183 266
66.82194 284
66.84205 275
66.86217 283
66.88228 242
66.90239 253
66.92251 247
66.94262 281
66.96274 259
66.98285 253
67.00296 266
67.02308 319
67.04319 271
67.0633 291
67.08342 291
67.10353 264
67.12365 281
67.14376 263
67.16387 285
67.18399 302
67.2041 312
67.22421 272
67.24433 286
67.26444 275
67.28456 345
67.30467 327
67.32478 315
67.3449 333
67.36501 369
67.38512 344
67.40524 373
67.42535 364
67.44546 381
67.46558 394
67.48569 440
67.50581 464
67.52592 486
67.54603 505
67.56615 565
67.58626 548
67.60637 554
67.62649 589
67.6466 590
67.66672 547
67.68683 579
67.70694 562
67.72706 523
67.74717 524
67.76728 569
67.7874 518
67.80751 524
67.82763 492
67.84774 521
67.86785 576
67.88797 611
67.90808 597
67.92819 589
67.94831 695
67.96842 718
67.98853 746
68.00865 718
68.02876 738
68.04888 731
68.06899 738
68.0891 737
68.10922 697
68.12933 701
68.14944 781
68.16956 670
68.18967 701
68.20979 719
68.2299 682
68.25001 627
68.27013 572
68.29024 537
68.31035 489
68.33047 489
68.35058 431
68.3707 431
68.39081 383
68.41092 393
68.43104 362
68.45115 371
68.47126 358
68.49138 302
68.51149 355
68.5316 315
68.55172 278
68.57183 286
68.59195 294
68.61206 309
68.63217 271
68.65229 256
68.6724 321
68.69251 284
68.71263 279
68.73274 259
68.75286 282
68.77297 287
68.79308 252
68.8132 285
68.83331 248
68.85342 288
68.87354 294
68.89365 251
68.91376 287
68.93388 282
68.95399 293
68.97411 250
68.99422 286
69.01433 268
69.03445 277
69.05456 279
69.07467 264
69.09479 274
69.1149 252
69.13502 291
69.15513 273
69.17524 264
69.19536 301
69.21547 273
69.23558 277
69.2557 273
69.27581 302
69.29593 270
69.31604 284
69.33615 303
69.35627 321
69.37638 302
69.39649 273
69.41661 277
69.43672 264
69.45683 264
69.47695 263
69.49706 293
69.51718 275
69.53729 302
69.5574 281
69.57752 260
69.59763 281
69.61774 278
69.63786 277
69.65797 288
69.67809 292
69.6982 270
69.71831 289
69.73843 313
69.75854 270
69.77865 286
69.79877 286
69.81888 295
69.839 290
69.85911 306
69.87922 263
69.89934 279
69.91945 283
69.93956 249
69.95968 271
69.97979 298
69.9999 255
70.02002 238
70.04013 267
70.06025 262
70.08036 304
70.10047 297
70.12059 284
70.1407 253
70.16081 264
70.18093 282
70.20104 258
70.22116 275
70.24127 276
70.26138 264
70.2815 265
70.30161 272
70.32172 257
70.34184 277
70.36195 261
70.38207 269
70.40218 274
70.42229 274
70.44241 265
70.46252 247
70.48263 271
70.50275 265
70.52286 248
70.54297 279
70.56309 257
70.5832 299
70.60332 261
70.62343 225
70.64354 280
70.66366 254
70.68377 266
70.70388 264
70.724 284
70.74411 264
70.76423 289
70.78434 257
70.80445 283
70.82457 273
70.84468 255
70.86479 249
70.88491 268
70.90502 303
70.92513 263
70.94525 246
70.96536 275
70.98548 295
71.00559 229
71.0257 276
71.04582 288
71.06593 262
71.08604 269
71.10616 298
71.12627 265
71.14639 283
71.1665 285
71.18661 266
71.20673 257
71.22684 267
71.24695 273
71.26707 250
71.28718 289
71.3073 274
71.32741 269
71.34752 258
71.36764 281
71.38775 267
71.40786 276
71.42798 235
71.44809 267
71.4682 274
71.48832 270
71.50843 267
71.52855 268
71.54866 260
71.56877 281
71.58889 258
71.609 243
71.62911 282
71.64923 286
71.66934 261
71.68946 261
71.70957 241
71.72968 265
71.7498 262
71.76991 271
71.79002 278
71.81014 262
71.83025 270
71.85037 258
71.87048 282
71.89059 252
71.91071 268
71.93082 264
71.95093 287
71.97105 260
71.99116 304
72.01127 282
72.03139 280
72.0515 242
72.07162 300
72.09173 267
72.11184 261
72.13196 249
72.15207 292
72.17218 276
72.1923 255
72.21241 263
72.23253 286
72.25264 260
72.27275 292
72.29287 270
72.31298 274
72.33309 277
72.35321 306
72.37332 271
72.39344 265
72.41355 268
72.43366 243
72.45378 285
72.47389 278
72.494 280
72.51412 301
72.53423 264
72.55434 291
72.57446 284
72.59457 302
72.61469 288
72.6348 294
72.65491 305
72.67503 263
72.69514 307
72.71525 308
72.73537 295
72.75548 284
72.7756 266
72.79571 299
72.81582 284
72.83594 323
72.85605 307
72.87616 298
72.89628 331
72.91639 298
72.9365 297
72.95662 305
72.97673 315
72.99685 284
73.01696 302
73.03707 310
73.05719 318
73.0773 323
73.09741 311
73.11753 338
73.13764 334
73.15776 335
73.17787 310
73.19798 331
73.2181 365
73.23821 347
73.25832 354
73.27844 362
73.29855 404
73.31867 368
73.33878 435
73.35889 402
73.37901 387
73.39912 387
73.41923 352
73.43935 362
73.45946 327
73.47957 327
73.49969 333
73.5198 344
73.53992 349
73.56003 338
73.58014 327
73.60026 330
73.62037 318
73.64048 268
73.6606 292
73.68071 284
73.70083 291
73.72094 253
73.74105 274
73.76117 262
73.78128 278
73.80139 289
73.82151 279
73.84162 272
73.86174 254
73.88185 283
73.90196 262
73.92208 291
73.94219 288
73.9623 270
73.98242 285
74.00253 273
74.02264 303
74.04276 283
74.06287 267
74.08299 288
74.1031 286
74.12321 273
74.14333 293
74.16344 309
74.18355 264
74.20367 270
74.22378 243
74.2439 255
74.26401 269
74.28412 284
74.30424 257
74.32435 275
74.34446 282
74.36458 271
74.38469 267
74.40481 262
74.42492 279
74.44503 270
74.46515 292
74.48526 268
74.50537 249
74.52549 256
74.5456 255
74.56571 255
74.58583 282
74.60594 272
74.62606 232
74.64617 257
74.66628 275
74.6864 253
74.70651 256
74.72662 277
74.74674 239
74.76685 259
74.78697 234
74.80708 270
74.82719 265
74.84731 247
74.86742 292
74.88753 252
74.90765 261
74.92776 267
74.94787 265
74.96799 267
74.9881 255
75.00822 249
