3.00117 20447
3.02128 19812
3.0414 19674
3.06151 19040
3.08162 18609
3.10174 17785
3.12185 17489
3.14197 17121
3.16208 16203
3.18219 16263
3.20231 15176
3.22242 15159
3.24253 14642
3.26265 13907
3.28276 13949
3.30288 13319
3.32299 13056
3.3431 12218
3.36322 12050
3.38333 11849
3.40344 11254
3.42356 10993
3.44367 10647
3.46379 10259
3.4839 9887
3.50401 9583
3.52413 9409
3.54424 8937
3.56435 8559
3.58447 8470
3.60458 7939
3.62469 7782
3.64481 7454
3.66492 7266
3.68504 7183
3.70515 6498
3.72526 6316
3.74538 6316
3.76549 5856
3.7856 5808
3.80572 5286
3.82583 5201
3.84595 5142
3.86606 4798
3.88617 4708
3.90629 4444
3.9264 4287
3.94651 4085
3.96663 3822
3.98674 3791
4.00686 3592
4.02697 3429
4.04708 3285
4.0672 3072
4.08731 3076
4.10742 2843
4.12754 2838
4.14765 2543
4.16776 2442
4.18788 2589
4.20799 2412
4.22811 2263
4.24822 2239
4.26833 2168
4.28845 2066
4.30856 2108
4.32867 2080
4.34879 1908
4.3689 1877
4.38902 1877
4.40913 1817
4.42924 1738
4.44936 1668
4.46947 1629
4.48958 1655
4.5097 1699
4.52981 1567
4.54992 1529
4.57004 1587
4.59015 1458
4.61027 1569
4.63038 1439
4.65049 1468
4.67061 1389
4.69072 1481
4.71083 1392
4.73095 1296
4.75106 1321
4.77118 1282
4.79129 1259
4.8114 1268
4.83152 1162
4.85163 1112
4.87174 1160
4.89186 1147
4.91197 1223
4.93209 1157
4.9522 1171
4.97231 1079
4.99243 1062
5.01254 1126
5.03265 1067
5.05277 1035
5.07288 978
5.09299 1022
5.11311 1043
5.13322 999
5.15334 1036
5.17345 964
5.19356 984
5.21368 986
5.23379 989
5.2539 885
5.27402 899
5.29413 879
5.31425 903
5.33436 854
5.35447 816
5.37459 856
5.3947 852
5.41481 848
5.43493 847
5.45504 784
5.47516 804
5.49527 848
5.51538 826
5.5355 769
5.55561 782
5.57572 795
5.59584 755
5.61595 804
5.63606 801
5.65618 763
5.67629 756
5.69641 770
5.71652 788
5.73663 719
5.75675 710
5.77686 742
5.79697 700
5.81709 710
5.8372 741
5.85732 680
5.87743 716
5.89754 684
5.91766 690
5.93777 729
5.95788 723
5.978 619
5.99811 745
6.01823 682
6.03834 672
6.05845 677
6.07857 646
6.09868 690
6.11879 654
6.13891 669
6.15902 669
6.17913 659
6.19925 650
6.21936 619
6.23948 636
6.25959 613
6.2797 596
6.29982 617
6.31993 598
6.34004 633
6.36016 545
6.38027 600
6.40039 648
6.4205 625
6.44061 604
6.46073 599
6.48084 603
6.50095 564
6.52107 525
6.54118 574
6.56129 582
6.58141 564
6.60152 557
6.62164 558
6.64175 502
6.66186 521
6.68198 525
6.70209 510
6.7222 550
6.74232 518
6.76243 515
6.78255 503
6.80266 478
6.82277 519
6.84289 492
6.863 523
6.88311 522
6.90323 445
6.92334 508
6.94346 467
6.96357 508
6.98368 479
7.0038 486
7.02391 486
7.04402 456
7.06414 493
7.08425 510
7.10436 431
7.12448 488
7.14459 469
7.16471 455
7.18482 436
7.20493 427
7.22505 458
7.24516 451
7.26527 471
7.28539 463
7.3055 462
7.32562 479
7.34573 420
7.36584 414
7.38596 473
7.40607 437
7.42618 483
7.4463 435
7.46641 480
7.48653 441
7.50664 412
7.52675 424
7.54687 427
7.56698 439
7.58709 384
7.60721 465
7.62732 434
7.64743 426
7.66755 391
7.68766 386
7.70778 449
7.72789 406
7.748 405
7.76812 419
7.78823 415
7.80834 401
7.82846 382
7.84857 418
7.86869 420
7.8888 402
7.90891 420
7.92903 408
7.94914 420
7.96925 381
7.98937 443
8.00948 393
8.0296 395
8.04971 408
8.06982 416
8.08994 395
8.11005 374
8.13016 363
8.15028 420
8.17039 367
8.1905 397
8.21062 403
8.23073 387
8.25085 350
8.27096 364
8.29107 431
8.31119 378
8.3313 402
8.35141 376
8.37153 407
8.39164 389
8.41176 406
8.43187 371
8.45198 384
8.4721 383
8.49221 379
8.51232 400
8.53244 392
8.55255 408
8.57266 362
8.59278 391
8.61289 408
8.63301 378
8.65312 385
8.67323 413
8.69335 385
8.71346 437
8.73357 365
8.75369 408
8.7738 357
8.79392 417
8.81403 380
8.83414 353
8.85426 416
8.87437 362
8.89448 372
8.9146 396
8.93471 334
8.95483 376
8.97494 354
8.99505 342
9.01517 388
9.03528 341
9.05539 322
9.07551 391
9.09562 362
9.11573 354
9.13585 335
9.15596 348
9.17608 356
9.19619 381
9.2163 342
9.23642 342
9.25653 359
9.27664 352
9.29676 360
9.31687 342
9.33699 378
9.3571 406
9.37721 321
9.39733 355
9.41744 363
9.43755 400
9.45767 380
9.47778 379
9.4979 419
9.51801 394
9.53812 401
9.55824 372
9.57835 370
9.59846 343
9.61858 335
9.63869 335
9.6588 322
9.67892 336
9.69903 337
9.71915 379
9.73926 340
9.75937 308
9.77949 344
9.7996 311
9.81971 341
9.83983 343
9.85994 331
9.88006 299
9.90017 339
9.92028 334
9.9404 315
9.96051 366
9.98062 308
10.00074 339
10.02085 295
10.04097 356
10.06108 340
10.08119 288
10.10131 343
10.12142 322
10.14153 343
10.16165 318
10.18176 328
10.20187 372
10.22199 355
10.2421 362
10.26222 354
10.28233 344
10.30244 362
10.32256 385
10.34267 407
10.36278 416
10.3829 410
10.40301 417
10.42313 394
10.44324 416
10.46335 407
10.48347 387
10.50358 397
10.52369 382
10.54381 340
10.56392 339
10.58403 324
10.60415 339
10.62426 333
10.64438 363
10.66449 303
10.6846 341
10.70472 289
10.72483 331
10.74494 334
10.76506 355
10.78517 394
10.80529 347
10.8254 356
10.84551 338
10.86563 388
10.88574 372
10.90585 367
10.92597 332
10.94608 304
10.9662 363
10.98631 355
11.00642 357
11.02654 345
11.04665 342
11.06676 320
11.08688 351
11.10699 333
11.1271 334
11.14722 330
11.16733 308
11.18745 328
11.20756 340
11.22767 320
11.24779 318
11.2679 327
11.28801 268
11.30813 350
11.32824 306
11.34836 308
11.36847 353
11.38858 369
11.4087 336
11.42881 308
11.44892 319
11.46904 304
11.48915 323
11.50927 335
11.52938 346
11.54949 336
11.56961 361
11.58972 330
11.60983 318
11.62995 308
11.65006 310
11.67017 310
11.69029 326
11.7104 334
11.73052 329
11.75063 301
11.77074 338
11.79086 339
11.81097 310
11.83108 349
11.8512 311
11.87131 337
11.89143 336
11.91154 328
11.93165 342
11.95177 345
11.97188 366
11.99199 319
12.01211 323
12.03222 360
12.05234 347
12.07245 370
12.09256 341
12.11268 333
12.13279 346
12.1529 342
12.17302 356
12.19313 339
12.21324 367
12.23336 356
12.25347 360
12.27359 431
12.2937 403
12.31381 428
12.33393 475
12.35404 515
12.37415 541
12.39427 559
12.41438 590
12.4345 616
12.45461 580
12.47472 575
12.49484 541
12.51495 493
12.53506 449
12.55518 419
12.57529 381
12.5954 358
12.61552 390
12.63563 367
12.65575 352
12.67586 368
12.69597 350
12.71609 303
12.7362 324
12.75631 348
12.77643 353
12.79654 352
12.81666 333
12.83677 360
12.85688 349
12.877 354
12.89711 307
12.91722 338
12.93734 323
12.95745 328
12.97757 322
12.99768 317
13.01779 301
13.03791 357
13.05802 268
13.07813 334
13.09825 327
13.11836 331
13.13847 300
13.15859 332
13.1787 278
13.19882 316
13.21893 319
13.23904 333
13.25916 359
13.27927 322
13.29938 314
13.3195 321
13.33961 330
13.35973 321
13.37984 307
13.39995 345
13.42007 341
13.44018 360
13.46029 354
13.48041 346
13.50052 382
13.52064 389
13.54075 394
13.56086 437
13.58098 502
13.60109 527
13.6212 554
13.64132 499
13.66143 574
13.68154 523
13.70166 476
13.72177 450
13.74189 418
13.762 444
13.78211 455
13.80223 440
13.82234 444
13.84245 426
13.86257 385
13.88268 370
13.9028 349
13.92291 352
13.94302 405
13.96314 352
13.98325 319
14.00336 350
14.02348 334
14.04359 299
14.06371 318
14.08382 303
14.10393 310
14.12405 328
14.14416 329
14.16427 332
14.18439 354
14.2045 323
14.22461 338
14.24473 322
14.26484 336
14.28496 257
14.30507 314
14.32518 320
14.3453 281
14.36541 322
14.38552 328
14.40564 303
14.42575 287
14.44587 322
14.46598 328
14.48609 306
14.50621 301
14.52632 281
14.54643 313
14.56655 334
14.58666 309
14.60677 327
14.62689 343
14.647 330
14.66712 319
14.68723 317
14.70734 328
14.72746 338
14.74757 315
14.76768 360
14.7878 286
14.80791 303
14.82803 325
14.84814 326
14.86825 354
14.88837 328
14.90848 324
14.92859 333
14.94871 334
14.96882 360
14.98894 342
15.00905 337
15.02916 380
15.04928 340
15.06939 350
15.0895 356
15.10962 351
15.12973 383
15.14984 369
15.16996 395
15.19007 375
15.21019 407
15.2303 356
15.25041 370
15.27053 372
15.29064 393
15.31075 398
15.33087 362
15.35098 379
15.3711 352
15.39121 334
15.41132 348
15.43144 337
15.45155 307
15.47166 324
15.49178 327
15.51189 330
15.53201 304
15.55212 340
15.57223 297
15.59235 325
15.61246 309
15.63257 349
15.65269 320
15.6728 351
15.69291 356
15.71303 310
15.73314 345
15.75326 340
15.77337 365
15.79348 350
15.8136 393
15.83371 373
15.85382 422
15.87394 415
15.89405 386
15.91417 376
15.93428 393
15.95439 356
15.97451 391
15.99462 359
16.01473 373
16.03485 344
16.05496 339
16.07508 331
16.09519 329
16.1153 325
16.13542 328
16.15553 311
16.17564 385
16.19576 291
16.21587 310
16.23598 323
16.2561 363
16.27621 359
16.29633 356
16.31644 322
16.33655 361
16.35667 349
16.37678 341
16.39689 335
16.41701 342
16.43712 347
16.45724 394
16.47735 367
16.49746 376
16.51758 359
16.53769 363
16.5578 324
16.57792 347
16.59803 295
16.61814 342
16.63826 329
16.65837 328
16.67849 313
16.6986 365
16.71871 313
16.73883 340
16.75894 332
16.77905 333
16.79917 323
16.81928 346
16.8394 331
16.85951 351
16.87962 347
16.89974 301
16.91985 341
16.93996 339
16.96008 316
16.98019 326
17.00031 342
17.02042 303
17.04053 331
17.06065 358
17.08076 311
17.10087 314
17.12099 330
17.1411 306
17.16121 319
17.18133 338
17.20144 340
17.22156 318
17.24167 341
17.26178 338
17.2819 329
17.30201 308
17.32212 348
17.34224 321
17.36235 342
17.38247 329
17.40258 330
17.42269 329
17.44281 339
17.46292 328
17.48303 356
17.50315 372
17.52326 397
17.54338 398
17.56349 409
17.5836 424
17.60372 383
17.62383 429
17.64394 421
17.66406 392
17.68417 345
17.70428 416
17.7244 424
17.74451 473
17.76463 425
17.78474 450
17.80485 495
17.82497 493
17.84508 488
17.86519 470
17.88531 472
17.90542 463
17.92554 439
17.94565 408
17.96576 365
17.98588 366
18.00599 378
18.0261 340
18.04622 333
18.06633 333
18.08645 325
18.10656 319
18.12667 361
18.14679 337
18.1669 335
18.18701 338
18.20713 345
18.22724 360
18.24735 324
18.26747 339
18.28758 367
18.3077 321
18.32781 349
18.34792 330
18.36804 335
18.38815 345
18.40826 360
18.42838 347
18.44849 353
18.46861 365
18.48872 341
18.50883 305
18.52895 305
18.54906 344
18.56917 348
18.58929 328
18.6094 308
18.62951 323
18.64963 317
18.66974 339
18.68986 318
18.70997 355
18.73008 347
18.7502 328
18.77031 343
18.79042 365
18.81054 333
18.83065 342
18.85077 351
18.87088 323
18.89099 338
18.91111 376
18.93122 365
18.95133 355
18.97145 352
18.99156 335
19.01168 344
19.03179 346
19.0519 340
19.07202 399
19.09213 362
19.11224 393
19.13236 372
19.15247 345
19.17258 370
19.1927 404
19.21281 407
19.23293 339
19.25304 428
19.27315 378
19.29327 382
19.31338 421
19.33349 408
19.35361 470
19.37372 472
19.39384 417
19.41395 429
19.43406 468
19.45418 486
19.47429 495
19.4944 510
19.51452 539
19.53463 543
19.55475 528
19.57486 497
19.59497 557
19.61509 567
19.6352 563
19.65531 564
19.67543 561
19.69554 581
19.71565 555
19.73577 561
19.75588 537
19.776 546
19.79611 595
19.81622 535
19.83634 579
19.85645 547
19.87656 550
19.89668 511
19.91679 535
19.93691 519
19.95702 471
19.97713 536
19.99725 525
20.01736 535
20.03747 461
20.05759 486
20.0777 459
20.09782 478
20.11793 527
20.13804 511
20.15816 473
20.17827 460
20.19838 457
20.2185 458
20.23861 480
20.25872 444
20.27884 448
20.29895 489
20.31907 477
20.33918 490
20.35929 416
20.37941 445
20.39952 469
20.41963 478
20.43975 461
20.45986 466
20.47998 506
20.50009 506
20.5202 512
20.54032 492
20.56043 524
20.58054 519
20.60066 519
20.62077 554
20.64088 549
20.661 527
20.68111 538
20.70123 550
20.72134 570
20.74145 578
20.76157 727
20.78168 757
20.80179 831
20.82191 935
20.84202 916
20.86214 897
20.88225 838
20.90236 731
20.92248 662
20.94259 586
20.9627 580
20.98282 555
21.00293 549
21.02305 495
21.04316 571
21.06327 454
21.08339 508
21.1035 471
21.12361 500
21.14373 442
21.16384 492
21.18395 466
21.20407 474
21.22418 470
21.2443 460
21.26441 438
21.28452 494
21.30464 484
21.32475 457
21.34486 526
21.36498 463
21.38509 493
21.40521 516
21.42532 520
21.44543 574
21.46555 538
21.48566 642
21.50577 699
21.52589 790
21.546 814
21.56612 848
21.58623 948
21.60634 1015
21.62646 950
21.64657 949
21.66668 947
21.6868 848
21.70691 820
21.72702 802
21.74714 711
21.76725 687
21.78737 597
21.80748 636
21.82759 660
21.84771 677
21.86782 630
21.88793 653
21.90805 641
21.92816 661
21.94828 712
21.96839 752
21.9885 675
22.00862 663
22.02873 655
22.04884 578
22.06896 558
22.08907 476
22.10919 421
22.1293 455
22.14941 440
22.16953 419
22.18964 441
22.20975 422
22.22987 401
22.24998 411
22.27009 467
22.29021 416
22.31032 410
22.33044 400
22.35055 447
22.37066 439
22.39078 426
22.41089 411
22.431 440
22.45112 428
22.47123 446
22.49135 427
22.51146 440
22.53157 446
22.55169 435
22.5718 478
22.59191 436
22.61203 457
22.63214 441
22.65225 401
22.67237 462
22.69248 476
22.7126 516
22.73271 500
22.75282 520
22.77294 570
22.79305 566
22.81316 626
22.83328 629
22.85339 664
22.87351 620
22.89362 651
22.91373 644
22.93385 600
22.95396 621
22.97407 617
22.99419 661
23.0143 643
23.03442 644
23.05453 662
23.07464 659
23.09476 608
23.11487 605
23.13498 563
23.1551 553
23.17521 511
23.19532 496
23.21544 504
23.23555 446
23.25567 506
23.27578 502
23.29589 485
23.31601 495
23.33612 510
23.35623 508
23.37635 520
23.39646 466
23.41658 541
23.43669 490
23.4568 549
23.47692 631
23.49703 602
23.51714 700
23.53726 805
23.55737 768
23.57749 832
23.5976 933
23.61771 902
23.63783 965
23.65794 961
23.67805 951
23.69817 881
23.71828 926
23.73839 794
23.75851 806
23.77862 755
23.79874 725
23.81885 717
23.83896 716
23.85908 686
23.87919 665
23.8993 678
23.91942 650
23.93953 625
23.95965 652
23.97976 581
23.99987 511
24.01999 534
24.0401 535
24.06021 542
24.08033 484
24.10044 498
24.12056 493
24.14067 505
24.16078 508
24.1809 522
24.20101 510
24.22112 552
24.24124 553
24.26135 511
24.28146 518
24.30158 546
24.32169 491
24.34181 490
24.36192 491
24.38203 505
24.40215 472
24.42226 453
24.44237 468
24.46249 506
24.4826 457
24.50272 485
24.52283 504
24.54294 505
24.56306 458
24.58317 467
24.60328 467
24.6234 452
24.64351 445
24.66362 496
24.68374 452
24.70385 447
24.72397 446
24.74408 480
24.76419 418
24.78431 431
24.80442 442
24.82453 444
24.84465 482
24.86476 487
24.88488 497
24.90499 397
24.9251 475
24.94522 424
24.96533 401
24.98544 455
25.00556 432
25.02567 462
25.04579 420
25.0659 425
25.08601 394
25.10613 461
25.12624 416
25.14635 451
25.16647 460
25.18658 421
25.20669 431
25.22681 423
25.24692 395
25.26704 399
25.28715 434
25.30726 444
25.32738 438
25.34749 442
25.3676 436
25.38772 457
25.40783 432
25.42795 443
25.44806 474
25.46817 479
25.48829 518
25.5084 505
25.52851 578
25.54863 519
25.56874 622
25.58886 547
25.60897 590
25.62908 609
25.6492 609
25.66931 692
25.68942 694
25.70954 672
25.72965 643
25.74976 676
25.76988 675
25.78999 627
25.81011 623
25.83022 584
25.85033 596
25.87045 594
25.89056 563
25.91067 591
25.93079 610
25.9509 625
25.97102 627
25.99113 576
26.01124 575
26.03136 579
26.05147 558
26.07158 537
26.0917 520
26.11181 536
26.13193 492
26.15204 554
26.17215 506
26.19227 514
26.21238 550
26.23249 545
26.25261 504
26.27272 519
26.29283 521
26.31295 558
26.33306 551
26.35318 572
26.37329 595
26.3934 643
26.41352 648
26.43363 688
26.45374 806
26.47386 911
26.49397 1049
26.51409 1336
26.5342 1523
26.55431 1997
26.57443 2278
26.59454 2523
26.61465 2744
26.63477 2562
26.65488 2294
26.67499 1848
26.69511 1533
26.71522 1304
26.73534 1040
26.75545 754
26.77556 647
26.79568 622
26.81579 552
26.8359 590
26.85602 580
26.87613 579
26.89625 589
26.91636 550
26.93647 562
26.95659 565
26.9767 588
26.99681 674
27.01693 594
27.03704 637
27.05716 649
27.07727 684
27.09738 632
27.1175 624
27.13761 680
27.15772 710
27.17784 659
27.19795 675
27.21806 710
27.23818 706
27.25829 756
27.27841 824
27.29852 865
27.31863 1003
27.33875 1081
27.35886 1267
27.37897 1497
27.39909 1668
27.4192 1790
27.43932 1870
27.45943 2079
27.47954 2189
27.49966 2035
27.51977 1906
27.53988 1769
27.56 1673
27.58011 1652
27.60023 1543
27.62034 1528
27.64045 1619
27.66057 1690
27.68068 1683
27.70079 1870
27.72091 1927
27.74102 1958
27.76113 1995
27.78125 1996
27.80136 1752
27.82148 1585
27.84159 1602
27.8617 1502
27.88182 1364
27.90193 1348
27.92204 1334
27.94216 1403
27.96227 1331
27.98239 1222
28.0025 1233
28.02261 1215
28.04273 1083
28.06284 963
28.08295 909
28.10307 846
28.12318 750
28.1433 770
28.16341 717
28.18352 739
28.20364 663
28.22375 720
28.24386 697
28.26398 686
28.28409 623
28.3042 650
28.32432 643
28.34443 589
28.36455 596
28.38466 585
28.40477 588
28.42489 549
28.445 512
28.46511 547
28.48523 536
28.50534 460
28.52546 495
28.54557 480
28.56568 474
28.5858 506
28.60591 436
28.62602 459
28.64614 465
28.66625 478
28.68636 465
28.70648 448
28.72659 452
28.74671 475
28.76682 452
28.78693 443
28.80705 398
28.82716 431
28.84727 437
28.86739 452
28.8875 455
28.90762 445
28.92773 457
28.94784 476
28.96796 453
28.98807 486
29.00818 487
29.0283 521
29.04841 449
29.06853 446
29.08864 489
29.10875 489
29.12887 495
29.14898 575
29.16909 577
29.18921 603
29.20932 572
29.22943 732
29.24955 786
29.26966 875
29.28978 976
29.30989 1149
29.33 1253
29.35012 1377
29.37023 1413
29.39034 1461
29.41046 1577
29.43057 1486
29.45069 1394
29.4708 1252
29.49091 1134
29.51103 1066
29.53114 919
29.55125 829
29.57137 788
29.59148 697
29.6116 763
29.63171 620
29.65182 710
29.67194 659
29.69205 678
29.71216 670
29.73228 699
29.75239 645
29.7725 725
29.79262 647
29.81273 738
29.83285 701
29.85296 665
29.87307 660
29.89319 651
29.9133 633
29.93341 653
29.95353 631
29.97364 649
29.99376 599
30.01387 609
30.03398 579
30.0541 555
30.07421 659
30.09432 651
30.11444 579
30.13455 604
30.15467 614
30.17478 655
30.19489 593
30.21501 611
30.23512 544
30.25523 602
30.27535 663
30.29546 650
30.31557 661
30.33569 634
30.3558 648
30.37592 718
30.39603 622
30.41614 665
30.43626 656
30.45637 695
30.47648 711
30.4966 721
30.51671 734
30.53683 678
30.55694 756
30.57705 667
30.59717 675
30.61728 654
30.63739 676
30.65751 638
30.67762 711
30.69773 597
30.71785 603
30.73796 670
30.75808 613
30.77819 613
30.7983 626
30.81842 602
30.83853 535
30.85864 520
30.87876 567
30.89887 490
30.91899 487
30.9391 532
30.95921 530
30.97933 502
30.99944 469
31.01955 467
31.03967 504
31.05978 435
31.0799 455
31.10001 479
31.12012 403
31.14024 451
31.16035 457
31.18046 462
31.20058 438
31.22069 419
31.2408 458
31.26092 483
31.28103 445
31.30115 475
31.32126 439
31.34137 455
31.36149 449
31.3816 444
31.40171 468
31.42183 473
31.44194 420
31.46206 444
31.48217 382
31.50228 431
31.5224 373
31.54251 365
31.56262 417
31.58274 425
31.60285 419
31.62297 398
31.64308 383
31.66319 412
31.68331 434
31.70342 414
31.72353 438
31.74365 410
31.76376 407
31.78387 416
31.80399 408
31.8241 378
31.84422 411
31.86433 419
31.88444 422
31.90456 412
31.92467 418
31.94478 386
31.9649 404
31.98501 404
32.00513 421
32.02524 391
32.04535 389
32.06547 396
32.08558 413
32.10569 404
32.12581 400
32.14592 441
32.16604 409
32.18615 408
32.20626 439
32.22638 418
32.24649 421
32.2666 397
32.28672 437
32.30683 447
32.32694 434
32.34706 470
32.36717 467
32.38729 443
32.4074 432
32.42751 461
32.44763 426
32.46774 454
32.48785 473
32.50797 454
32.52808 494
32.5482 449
32.56831 462
32.58842 470
32.60854 461
32.62865 442
32.64876 460
32.66888 450
32.68899 466
32.7091 516
32.72922 502
32.74933 460
32.76945 436
32.78956 470
32.80967 447
32.82979 447
32.8499 460
32.87001 467
32.89013 404
32.91024 458
32.93036 458
32.95047 466
32.97058 431
32.9907 444
33.01081 469
33.03092 452
33.05104 446
33.07115 436
33.09127 431
33.11138 457
33.13149 425
33.15161 443
33.17172 402
33.19183 455
33.21195 433
33.23206 406
33.25217 460
33.27229 407
33.2924 427
33.31252 422
33.33263 411
33.35274 423
33.37286 475
33.39297 435
33.41308 428
33.4332 444
33.45331 473
33.47343 403
33.49354 419
33.51365 406
33.53377 368
33.55388 380
33.57399 416
33.59411 369
33.61422 385
33.63434 407
33.65445 430
33.67456 394
33.69468 430
33.71479 387
33.7349 400
33.75502 389
33.77513 417
33.79524 376
33.81536 382
33.83547 406
33.85559 379
33.8757 386
33.89581 397
33.91593 380
33.93604 370
33.95615 400
33.97627 366
33.99638 383
34.0165 384
34.03661 358
34.05672 394
34.07684 389
34.09695 411
34.11706 455
34.13718 432
34.15729 459
34.17741 430
34.19752 426
34.21763 410
34.23775 466
34.25786 483
34.27797 468
34.29809 481
34.3182 495
34.33831 489
34.35843 521
34.37854 494
34.39866 457
34.41877 510
34.43888 495
34.459 497
34.47911 478
34.49922 494
34.51934 526
34.53945 494
34.55957 516
34.57968 468
34.59979 562
34.61991 519
34.64002 510
34.66013 537
34.68025 574
34.70036 465
34.72047 527
34.74059 499
34.7607 514
34.78082 496
34.80093 559
34.82104 511
34.84116 495
34.86127 509
34.88138 519
34.9015 558
34.92161 536
34.94173 541
34.96184 571
34.98195 601
35.00207 565
35.02218 578
35.04229 612
35.06241 630
35.08252 636
35.10264 724
35.12275 698
35.14286 716
35.16298 757
35.18309 783
35.2032 795
35.22332 821
35.24343 758
35.26354 782
35.28366 728
35.30377 733
35.32389 741
35.344 720
35.36411 679
35.38423 680
35.40434 726
35.42445 696
35.44457 706
35.46468 655
35.4848 667
35.50491 684
35.52502 640
35.54514 610
35.56525 676
35.58536 636
35.60548 656
35.62559 559
35.64571 555
35.66582 580
35.68593 527
35.70605 535
35.72616 492
35.74627 519
35.76639 510
35.7865 459
35.80661 502
35.82673 510
35.84684 489
35.86696 521
35.88707 504
35.90718 533
35.9273 579
35.94741 589
35.96752 586
35.98764 551
36.00775 589
36.02787 610
36.04798 529
36.06809 576
36.08821 481
36.10832 503
36.12843 482
36.14855 469
36.16866 443
36.18878 438
36.20889 496
36.229 453
36.24912 428
36.26923 446
36.28934 421
36.30946 443
36.32957 419
36.34968 443
36.3698 429
36.38991 437
36.41003 439
36.43014 539
36.45025 529
36.47037 539
36.49048 541
36.51059 561
36.53071 539
36.55082 576
36.57094 550
36.59105 502
36.61116 485
36.63128 486
36.65139 465
36.6715 459
36.69162 433
36.71173 459
36.73184 486
36.75196 429
36.77207 445
36.79219 470
36.8123 446
36.83241 445
36.85253 419
36.87264 470
36.89275 438
36.91287 478
36.93298 402
36.9531 463
36.97321 444
36.99332 438
37.01344 462
37.03355 501
37.05366 461
37.07378 443
37.09389 416
37.11401 430
37.13412 447
37.15423 462
37.17435 431
37.19446 439
37.21457 474
37.23469 424
37.2548 408
37.27491 410
37.29503 429
37.31514 418
37.33526 396
37.35537 431
37.37548 428
37.3956 449
37.41571 424
37.43582 392
37.45594 432
37.47605 408
37.49617 401
37.51628 403
37.53639 389
37.55651 381
37.57662 414
37.59673 410
37.61685 409
37.63696 420
37.65708 381
37.67719 406
37.6973 381
37.71742 372
37.73753 402
37.75764 367
37.77776 385
37.79787 384
37.81798 388
37.8381 358
37.85821 390
37.87833 381
37.89844 351
37.91855 405
37.93867 356
37.95878 347
37.97889 349
37.99901 356
38.01912 367
38.03924 385
38.05935 359
38.07946 359
38.09958 414
38.11969 380
38.1398 390
38.15992 345
38.18003 366
38.20015 366
38.22026 385
38.24037 356
38.26049 386
38.2806 378
38.30071 432
38.32083 359
38.34094 428
38.36105 386
38.38117 379
38.40128 378
38.4214 405
38.44151 395
38.46162 381
38.48174 406
38.50185 431
38.52196 403
38.54208 417
38.56219 391
38.58231 419
38.60242 417
38.62253 424
38.64265 430
38.66276 391
38.68287 386
38.70299 390
38.7231 402
38.74321 414
38.76333 436
38.78344 365
38.80356 407
38.82367 401
38.84378 380
38.8639 407
38.88401 400
38.90412 400
38.92424 426
38.94435 430
38.96447 364
38.98458 409
39.00469 372
39.02481 385
39.04492 411
39.06503 426
39.08515 390
39.10526 431
39.12538 426
39.14549 391
39.1656 376
39.18572 417
39.20583 432
39.22594 443
39.24606 469
39.26617 472
39.28628 499
39.3064 452
39.32651 569
39.34663 597
39.36674 592
39.38685 619
39.40697 662
39.42708 663
39.44719 638
39.46731 581
39.48742 621
39.50754 587
39.52765 503
39.54776 525
39.56788 471
39.58799 490
39.6081 417
39.62822 377
39.64833 415
39.66845 372
39.68856 381
39.70867 424
39.72879 410
39.7489 397
39.76901 379
39.78913 383
39.80924 359
39.82935 381
39.84947 380
39.86958 376
39.8897 377
39.90981 376
39.92992 379
39.95004 363
39.97015 336
39.99026 364
40.01038 368
40.03049 356
40.05061 379
40.07072 367
40.09083 372
40.11095 418
40.13106 394
40.15117 385
40.17129 424
40.1914 463
40.21152 409
40.23163 443
40.25174 411
40.27186 417
40.29197 475
40.31208 413
40.3322 370
40.35231 408
40.37242 355
40.39254 403
40.41265 402
40.43277 376
40.45288 387
40.47299 393
40.49311 396
40.51322 407
40.53333 389
40.55345 348
40.57356 375
40.59368 377
40.61379 385
40.6339 365
40.65402 384
40.67413 383
40.69424 386
40.71436 404
40.73447 385
40.75458 406
40.7747 388
40.79481 360
40.81493 364
40.83504 412
40.85515 361
40.87527 378
40.89538 394
40.91549 381
40.93561 368
40.95572 390
40.97584 384
40.99595 348
41.01606 388
41.03618 384
41.05629 366
41.0764 357
41.09652 381
41.11663 348
41.13675 389
41.15686 373
41.17697 407
41.19709 384
41.2172 350
41.23731 367
41.25743 384
41.27754 350
41.29765 356
41.31777 360
41.33788 373
41.358 378
41.37811 372
41.39822 379
41.41834 349
41.43845 372
41.45856 399
41.47868 374
41.49879 374
41.51891 384
41.53902 437
41.55913 422
41.57925 460
41.59936 445
41.61947 441
41.63959 505
41.6597 490
41.67982 473
41.69993 474
41.72004 484
41.74016 477
41.76027 496
41.78038 444
41.8005 418
41.82061 400
41.84072 438
41.86084 403
41.88095 376
41.90107 386
41.92118 390
41.94129 373
41.96141 370
41.98152 386
42.00163 403
42.02175 359
42.04186 362
42.06198 381
42.08209 361
42.1022 394
42.12232 423
42.14243 378
42.16254 410
42.18266 345
42.20277 393
42.22289 385
42.243 390
42.26311 420
42.28323 462
42.30334 395
42.32345 452
42.34357 399
42.36368 473
42.38379 473
42.40391 467
42.42402 515
42.44414 463
42.46425 437
42.48436 430
42.50448 419
42.52459 455
42.5447 432
42.56482 389
42.58493 396
42.60505 380
42.62516 421
42.64527 405
42.66539 415
42.6855 392
42.70561 412
42.72573 368
42.74584 381
42.76595 384
42.78607 403
42.80618 381
42.8263 418
42.84641 385
42.86652 417
42.88664 369
42.90675 378
42.92686 394
42.94698 370
42.96709 437
42.98721 438
43.00732 408
43.02743 451
43.04755 412
43.06766 506
43.08777 503
43.10789 481
43.128 493
43.14812 513
43.16823 512
43.18834 521
43.20846 479
43.22857 512
43.24868 502
43.2688 487
43.28891 473
43.30902 436
43.32914 396
43.34925 386
43.36937 401
43.38948 386
43.40959 346
43.42971 377
43.44982 366
43.46993 369
43.49005 362
43.51016 336
43.53028 387
43.55039 349
43.5705 367
43.59062 290
43.61073 343
43.63084 360
43.65096 351
43.67107 344
43.69119 363
43.7113 342
43.73141 360
43.75153 318
43.77164 401
43.79175 336
43.81187 310
43.83198 337
43.85209 351
43.87221 354
43.89232 361
43.91244 336
43.93255 319
43.95266 365
43.97278 375
43.99289 397
44.013 366
44.03312 359
44.05323 369
44.07335 348
44.09346 391
44.11357 393
44.13369 377
44.1538 374
44.17391 363
44.19403 348
44.21414 347
44.23426 367
44.25437 379
44.27448 351
44.2946 316
44.31471 330
44.33482 333
44.35494 353
44.37505 341
44.39516 359
44.41528 334
44.43539 337
44.45551 314
44.47562 349
44.49573 347
44.51585 343
44.53596 350
44.55607 326
44.57619 341
44.5963 378
44.61642 376
44.63653 366
44.65664 369
44.67676 315
44.69687 338
44.71698 357
44.7371 374
44.75721 388
44.77732 345
44.79744 353
44.81755 352
44.83767 357
44.85778 360
44.87789 350
44.89801 369
44.91812 349
44.93823 357
44.95835 359
44.97846 338
44.99858 335
45.01869 396
45.0388 372
45.05892 342
45.07903 340
45.09914 352
45.11926 327
45.13937 332
45.15949 323
45.1796 324
45.19971 312
45.21983 337
45.23994 367
45.26005 328
45.28017 372
45.30028 344
45.32039 307
45.34051 325
45.36062 285
45.38074 333
45.40085 346
45.42096 342
45.44108 350
45.46119 336
45.4813 349
45.50142 314
45.52153 321
45.54165 324
45.56176 351
45.58187 347
45.60199 352
45.6221 334
45.64221 398
45.66233 376
45.68244 359
45.70256 472
45.72267 379
45.74278 394
45.7629 390
45.78301 403
45.80312 398
45.82324 379
45.84335 340
45.86346 334
45.88358 354
45.90369 380
45.92381 371
45.94392 352
45.96403 377
45.98415 334
46.00426 317
46.02437 337
46.04449 349
46.0646 334
46.08472 326
46.10483 343
46.12494 368
46.14506 321
46.16517 318
46.18528 318
46.2054 360
46.22551 382
46.24563 357
46.26574 395
46.28585 382
46.30597 386
46.32608 382
46.34619 376
46.36631 374
46.38642 394
46.40653 385
46.42665 338
46.44676 324
46.46688 382
46.48699 356
46.5071 351
46.52722 381
46.54733 378
46.56744 333
46.58756 363
46.60767 383
46.62779 359
46.6479 389
46.66801 359
46.68813 339
46.70824 377
46.72835 344
46.74847 378
46.76858 363
46.78869 374
46.80881 362
46.82892 345
46.84904 383
46.86915 388
46.88926 389
46.90938 348
46.92949 392
46.9496 342
46.96972 374
46.98983 384
47.00995 356
47.03006 385
47.05017 410
47.07029 404
47.0904 396
47.11051 371
47.13063 418
47.15074 382
47.17086 381
47.19097 400
47.21108 435
47.2312 377
47.25131 366
47.27142 395
47.29154 413
47.31165 415
47.33176 405
47.35188 409
47.37199 445
47.39211 449
47.41222 415
47.43233 464
47.45245 494
47.47256 503
47.49267 473
47.51279 448
47.5329 517
47.55302 477
47.57313 444
47.59324 440
47.61336 437
47.63347 400
47.65358 433
47.6737 431
47.69381 381
47.71393 403
47.73404 372
47.75415 379
47.77427 357
47.79438 365
47.81449 351
47.83461 362
47.85472 337
47.87483 363
47.89495 325
47.91506 334
47.93518 396
47.95529 391
47.9754 387
47.99552 360
48.01563 383
48.03574 366
48.05586 380
48.07597 359
48.09609 393
48.1162 364
48.13631 326
48.15643 366
48.17654 385
48.19665 395
48.21677 350
48.23688 397
48.257 371
48.27711 400
48.29722 429
48.31734 421
48.33745 439
48.35756 481
48.37768 425
48.39779 444
48.4179 459
48.43802 513
48.45813 495
48.47825 509
48.49836 547
48.51847 565
48.53859 527
48.5587 550
48.57881 496
48.59893 489
48.61904 481
48.63916 492
48.65927 470
48.67938 437
48.6995 444
48.71961 427
48.73972 450
48.75984 423
48.77995 384
48.80006 408
48.82018 380
48.84029 395
48.86041 369
48.88052 349
48.90063 407
48.92075 378
48.94086 374
48.96097 371
48.98109 417
49.0012 350
49.02132 365
49.04143 358
49.06154 362
49.08166 355
49.10177 348
49.12188 379
49.142 388
49.16211 382
49.18223 342
49.20234 319
49.22245 339
49.24257 371
49.26268 344
49.28279 346
49.30291 328
49.32302 333
49.34313 316
49.36325 339
49.38336 367
49.40348 350
49.42359 365
49.4437 336
49.46382 380
49.48393 348
49.50404 340
49.52416 358
49.54427 350
49.56439 368
49.5845 374
49.60461 372
49.62473 362
49.64484 414
49.66495 364
49.68507 396
49.70518 383
49.7253 370
49.74541 392
49.76552 377
49.78564 377
49.80575 414
49.82586 416
49.84598 400
49.86609 363
49.8862 403
49.90632 395
49.92643 419
49.94655 435
49.96666 413
49.98677 440
50.00689 471
50.027 484
50.04711 502
50.06723 498
50.08734 475
50.10746 511
50.12757 528
50.14768 529
50.1678 480
50.18791 461
50.20802 474
50.22814 444
50.24825 407
50.26837 401
50.28848 401
50.30859 385
50.32871 340
50.34882 384
50.36893 329
50.38905 369
50.40916 348
50.42927 334
50.44939 360
50.4695 381
50.48962 418
50.50973 391
50.52984 395
50.54996 415
50.57007 375
50.59018 411
50.6103 414
50.63041 424
50.65053 414
50.67064 385
50.69075 396
50.71087 397
50.73098 434
50.75109 423
50.77121 393
50.79132 419
50.81143 399
50.83155 438
50.85166 453
50.87178 463
50.89189 451
50.912 471
50.93212 506
50.95223 476
50.97234 490
50.99246 487
51.01257 487
51.03269 434
51.0528 460
51.07291 466
51.09303 453
51.11314 433
51.13325 422
51.15337 425
51.17348 373
51.1936 438
51.21371 455
51.23382 382
51.25394 399
51.27405 412
51.29416 403
51.31428 393
51.33439 420
51.3545 411
51.37462 372
51.39473 377
51.41485 372
51.43496 354
51.45507 346
51.47519 372
51.4953 352
51.51541 342
51.53553 338
51.55564 359
51.57576 333
51.59587 330
51.61598 364
51.6361 347
51.65621 329
51.67632 339
51.69644 326
51.71655 328
51.73667 323
51.75678 305
51.77689 340
51.79701 320
51.81712 303
51.83723 332
51.85735 340
51.87746 315
51.89757 323
51.91769 305
51.9378 271
51.95792 323
51.97803 322
51.99814 322
52.01826 334
52.03837 332
52.05848 318
52.0786 306
52.09871 339
52.11883 312
52.13894 312
52.15905 293
52.17917 304
52.19928 333
52.21939 317
52.23951 322
52.25962 319
52.27974 313
52.29985 342
52.31996 326
52.34008 320
52.36019 333
52.3803 299
52.40042 364
52.42053 320
52.44064 337
52.46076 350
52.48087 334
52.50099 325
52.5211 311
52.54121 339
52.56133 337
52.58144 347
52.60155 366
52.62167 389
52.64178 394
52.6619 382
52.68201 383
52.70212 356
52.72224 362
52.74235 404
52.76246 336
52.78258 379
52.80269 369
52.8228 360
52.84292 368
52.86303 355
52.88315 344
52.90326 361
52.92337 369
52.94349 377
52.9636 373
52.98371 338
53.00383 351
53.02394 384
53.04406 330
53.06417 358
53.08428 386
53.1044 357
53.12451 353
53.14462 369
53.16474 363
53.18485 375
53.20497 345
53.22508 405
53.24519 368
53.26531 368
53.28542 393
53.30553 371
53.32565 364
53.34576 356
53.36587 381
53.38599 370
53.4061 362
53.42622 375
53.44633 328
53.46644 392
53.48656 383
53.50667 381
53.52678 352
53.5469 359
53.56701 343
53.58713 355
53.60724 361
53.62735 358
53.64747 364
53.66758 368
53.68769 356
53.70781 357
53.72792 376
53.74804 365
53.76815 360
53.78826 340
53.80838 322
53.82849 384
53.8486 345
53.86872 324
53.88883 355
53.90894 357
53.92906 330
53.94917 372
53.96929 369
53.9894 365
54.00951 384
54.02963 328
54.04974 365
54.06985 351
54.08997 348
54.11008 338
54.1302 334
54.15031 338
54.17042 328
54.19054 335
54.21065 344
54.23076 383
54.25088 313
54.27099 342
54.29111 368
54.31122 358
54.33133 359
54.35145 320
54.37156 334
54.39167 333
54.41179 377
54.4319 354
54.45201 326
54.47213 340
54.49224 348
54.51236 374
54.53247 316
54.55258 368
54.5727 368
54.59281 360
54.61292 305
54.63304 354
54.65315 345
54.67327 336
54.69338 368
54.71349 363
54.73361 382
54.75372 398
54.77383 378
54.79395 396
54.81406 396
54.83417 439
54.85429 384
54.8744 405
54.89452 422
54.91463 370
54.93474 362
54.95486 370
54.97497 373
54.99508 320
55.0152 357
55.03531 382
55.05543 331
55.07554 379
55.09565 352
55.11577 341
55.13588 341
55.15599 350
55.17611 346
55.19622 306
55.21634 367
55.23645 332
55.25656 354
55.27668 371
55.29679 341
55.3169 364
55.33702 337
55.35713 367
55.37724 371
55.39736 366
55.41747 386
55.43759 364
55.4577 341
55.47781 364
55.49793 358
55.51804 328
55.53815 312
55.55827 341
55.57838 346
55.5985 319
55.61861 330
55.63872 305
55.65884 323
55.67895 358
55.69906 293
55.71918 317
55.73929 346
55.75941 320
55.77952 329
55.79963 304
55.81975 339
55.83986 324
55.85997 304
55.88009 320
55.9002 328
55.92031 302
55.94043 337
55.96054 352
55.98066 343
56.00077 322
56.02088 316
56.041 329
56.06111 318
56.08122 318
56.10134 315
56.12145 324
56.14157 354
56.16168 311
56.18179 342
56.20191 334
56.22202 317
56.24213 309
56.26225 344
56.28236 295
56.30248 334
56.32259 315
56.3427 337
56.36282 308
56.38293 350
56.40304 344
56.42316 322
56.44327 311
56.46338 337
56.4835 341
56.50361 330
56.52373 360
56.54384 335
56.56395 372
56.58407 343
56.60418 337
56.62429 346
56.64441 345
56.66452 346
56.68464 385
56.70475 348
56.72486 356
56.74498 381
56.76509 328
56.7852 320
56.80532 349
56.82543 358
56.84554 321
56.86566 306
56.88577 334
56.90589 329
56.926 347
56.94611 347
56.96623 322
56.98634 309
57.00645 351
57.02657 312
57.04668 326
57.0668 335
57.08691 338
57.10702 353
57.12714 345
57.14725 361
57.16736 389
57.18748 351
57.20759 348
57.22771 349
57.24782 333
57.26793 379
57.28805 375
57.30816 360
57.32827 355
57.34839 382
57.3685 394
57.38861 420
57.40873 388
57.42884 392
57.44896 385
57.46907 403
57.48918 399
57.5093 400
57.52941 389
57.54952 342
57.56964 342
57.58975 336
57.60987 333
57.62998 374
57.65009 366
57.67021 360
57.69032 328
57.71043 327
57.73055 312
57.75066 325
57.77078 335
57.79089 342
57.811 338
57.83112 273
57.85123 326
57.87134 323
57.89146 340
57.91157 322
57.93168 321
57.9518 340
57.97191 336
57.99203 340
58.01214 323
58.03225 354
58.05237 339
58.07248 359
58.09259 321
58.11271 318
58.13282 337
58.15294 348
58.17305 341
58.19316 321
58.21328 324
58.23339 324
58.2535 311
58.27362 347
58.29373 330
58.31385 339
58.33396 322
58.35407 329
58.37419 342
58.3943 356
58.41441 316
58.43453 317
58.45464 311
58.47475 336
58.49487 317
58.51498 325
58.5351 342
58.55521 327
58.57532 302
58.59544 315
58.61555 314
58.63566 319
58.65578 317
58.67589 337
58.69601 318
58.71612 334
58.73623 302
58.75635 312
58.77646 299
58.79657 343
58.81669 311
58.8368 288
58.85691 334
58.87703 315
58.89714 280
58.91726 314
58.93737 325
58.95748 295
58.9776 298
58.99771 306
59.01782 353
59.03794 295
59.05805 275
59.07817 302
59.09828 310
59.11839 318
59.13851 322
59.15862 313
59.17873 330
59.19885 316
59.21896 352
59.23908 310
59.25919 303
59.2793 305
59.29942 307
59.31953 310
59.33964 294
59.35976 311
59.37987 325
59.39998 300
59.4201 315
59.44021 289
59.46033 327
59.48044 289
59.50055 332
59.52067 364
59.54078 299
59.56089 336
59.58101 338
59.60112 320
59.62124 327
59.64135 310
59.66146 312
59.68158 343
59.70169 346
59.7218 333
59.74192 341
59.76203 324
59.78215 357
59.80226 335
59.82237 376
59.84249 357
59.8626 411
59.88271 436
59.90283 405
59.92294 463
59.94305 451
59.96317 384
59.98328 396
60.0034 410
60.02351 369
60.04362 383
60.06374 360
60.08385 359
60.10396 365
60.12408 353
60.14419 314
60.16431 361
60.18442 352
60.20453 315
60.22465 319
60.24476 321
60.26487 291
60.28499 335
60.3051 336
60.32522 347
60.34533 324
60.36544 328
60.38556 333
60.40567 342
60.42578 332
60.4459 332
60.46601 332
60.48612 349
60.50624 344
60.52635 343
60.54647 336
60.56658 347
60.58669 368
60.60681 370
60.62692 397
60.64703 364
60.66715 386
60.68726 371
60.70738 380
60.72749 397
60.7476 358
60.76772 405
60.78783 377
60.80794 412
60.82806 392
60.84817 343
60.86828 375
60.8884 378
60.90851 394
60.92863 403
60.94874 365
60.96885 380
60.98897 377
61.00908 383
61.02919 409
61.04931 355
61.06942 359
61.08954 354
61.10965 372
61.12976 369
61.14988 380
61.16999 386
61.1901 378
61.21022 387
61.23033 394
61.25045 383
61.27056 384
61.29067 384
61.31079 377
61.3309 409
61.35101 369
61.37113 394
61.39124 377
61.41135 402
61.43147 360
61.45158 366
61.4717 407
61.49181 389
61.51192 407
61.53204 402
61.55215 350
61.57226 406
61.59238 382
61.61249 405
61.63261 386
61.65272 378
61.67283 322
61.69295 374
61.71306 395
61.73317 420
61.75329 341
61.7734 412
61.79352 362
61.81363 397
61.83374 363
61.85386 394
61.87397 378
61.89408 389
61.9142 374
61.93431 363
61.95442 375
61.97454 365
61.99465 405
62.01477 407
62.03488 402
62.05499 413
62.07511 412
62.09522 422
62.11533 392
62.13545 397
62.15556 409
62.17568 370
62.19579 414
62.2159 378
62.23602 419
62.25613 394
62.27624 389
62.29636 376
62.31647 384
62.33659 387
62.3567 371
62.37681 397
62.39693 367
62.41704 338
62.43715 383
62.45727 349
62.47738 336
62.49749 355
62.51761 339
62.53772 332
62.55784 342
62.57795 382
62.59806 383
62.61818 385
62.63829 365
62.6584 345
62.67852 317
62.69863 368
62.71875 386
62.73886 357
62.75897 394
62.77909 370
62.7992 320
62.81931 373
62.83943 339
62.85954 361
62.87965 357
62.89977 315
62.91988 315
62.94 328
62.96011 345
62.98022 320
63.00034 358
63.02045 341
63.04056 347
63.06068 357
63.08079 344
63.10091 314
63.12102 324
63.14113 328
63.16125 339
63.18136 333
63.20147 345
63.22159 332
63.2417 330
63.26182 335
63.28193 323
63.30204 309
63.32216 332
63.34227 343
63.36238 307
63.3825 309
63.40261 313
63.42272 316
63.44284 311
63.46295 303
63.48307 325
63.50318 307
63.52329 324
63.54341 310
63.56352 296
63.58363 297
63.60375 320
63.62386 348
63.64398 320
63.66409 348
63.6842 338
63.70432 325
63.72443 362
63.74454 291
63.76466 310
63.78477 323
63.80489 319
63.825 325
63.84511 338
63.86523 307
63.88534 326
63.90545 326
63.92557 335
63.94568 328
63.96579 320
63.98591 322
64.00602 328
64.02614 368
64.04625 326
64.06636 312
64.08648 354
64.10659 309
64.1267 321
64.14682 332
64.16693 326
64.18705 336
64.20716 318
64.22727 298
64.24739 317
64.2675 314
64.28761 330
64.30773 345
64.32784 300
64.34796 310
64.36807 294
64.38818 334
64.4083 286
64.42841 303
64.44852 315
64.46864 306
64.48875 314
64.50886 315
64.52898 300
64.54909 297
64.56921 315
64.58932 336
64.60943 324
64.62955 325
64.64966 329
64.66977 325
64.68989 332
64.71 372
64.73012 311
64.75023 328
64.77034 356
64.79046 348
64.81057 333
64.83068 366
64.8508 302
64.87091 330
64.89102 361
64.91114 315
64.93125 308
64.95137 298
64.97148 319
64.99159 330
65.01171 300
65.03182 306
65.05193 295
65.07205 275
65.09216 258
65.11228 302
65.13239 325
65.1525 327
65.17262 323
65.19273 332
65.21284 295
65.23296 359
65.25307 327
65.27319 322
65.2933 339
65.31341 295
65.33353 309
65.35364 316
65.37375 318
65.39387 292
65.41398 280
65.43409 313
65.45421 316
65.47432 304
65.49444 333
65.51455 317
65.53466 290
65.55478 323
65.57489 275
65.595 285
65.61512 307
65.63523 329
65.65535 327
65.67546 310
65.69557 324
65.71569 298
65.7358 305
65.75591 317
65.77603 313
65.79614 326
65.81626 299
65.83637 358
65.85648 326
65.8766 313
65.89671 319
65.91682 334
65.93694 304
65.95705 303
65.97716 292
65.99728 288
66.01739 345
66.03751 314
66.05762 320
66.07773 302
66.09785 312
66.11796 319
66.13807 330
66.15819 303
66.1783 314
66.19842 312
66.21853 269
66.23864 299
66.25876 318
66.27887 304
66.29898 282
66.3191 305
66.33921 296
66.35933 291
66.37944 283
66.39955 269
66.41967 268
66.43978 268
66.45989 279
66.48001 278
66.50012 270
66.52023 281
66.54035 315
66.56046 273
66.58058 311
66.60069 264
66.6208 292
66.64092 311
66.66103 284
66.68114 289
66.70126 284
66.72137 254
66.74149 298
66.7616 283
66.78171 287
66.80183 319
66.82194 308
66.84205 302
66.86217 277
66.88228 300
66.90239 268
66.92251 280
66.94262 281
66.96274 297
66.98285 290
67.00296 298
67.02308 281
67.04319 313
67.0633 286
67.08342 289
67.10353 263
67.12365 292
67.14376 290
67.16387 335
67.18399 276
67.2041 270
67.22421 304
67.24433 302
67.26444 277
67.28456 295
67.30467 287
67.32478 290
67.3449 313
67.36501 257
67.38512 282
67.40524 290
67.42535 298
67.44546 297
67.46558 319
67.48569 326
67.50581 306
67.52592 342
67.54603 331
67.56615 348
67.58626 357
67.60637 351
67.62649 387
67.6466 405
67.66672 418
67.68683 406
67.70694 378
67.72706 431
67.74717 365
67.76728 361
67.7874 363
67.80751 373
67.82763 388
67.84774 369
67.86785 360
67.88797 364
67.90808 372
67.92819 399
67.94831 383
67.96842 361
67.98853 357
68.00865 401
68.02876 396
68.04888 401
68.06899 372
68.0891 436
68.10922 395
68.12933 402
68.14944 380
68.16956 382
68.18967 387
68.20979 417
68.2299 396
68.25001 375
68.27013 394
68.29024 385
68.31035 387
68.33047 377
68.35058 370
68.3707 333
68.39081 330
68.41092 308
68.43104 357
68.45115 328
68.47126 324
68.49138 344
68.51149 320
68.5316 356
68.55172 332
68.57183 326
68.59195 304
68.61206 316
68.63217 291
68.65229 304
68.6724 305
68.69251 302
68.71263 299
68.73274 314
68.75286 271
68.77297 291
68.79308 294
68.8132 278
68.83331 283
68.85342 313
68.87354 283
68.89365 296
68.91376 290
68.93388 324
68.95399 296
68.97411 302
68.99422 311
69.01433 299
69.03445 302
69.05456 323
69.07467 317
69.09479 330
69.1149 310
69.13502 274
69.15513 304
69.17524 313
69.19536 299
69.21547 293
69.23558 296
69.2557 313
69.27581 300
69.29593 286
69.31604 333
69.33615 335
69.35627 316
69.37638 311
69.39649 321
69.41661 329
69.43672 286
69.45683 311
69.47695 284
69.49706 276
69.51718 322
69.53729 295
69.5574 331
69.57752 302
69.59763 284
69.61774 263
69.63786 294
69.65797 304
69.67809 309
69.6982 284
69.71831 313
69.73843 295
69.75854 306
69.77865 287
69.79877 289
69.81888 275
69.839 307
69.85911 282
69.87922 283
69.89934 289
69.91945 299
69.93956 286
69.95968 304
69.97979 300
69.9999 290
70.02002 277
70.04013 291
70.06025 315
70.08036 314
70.10047 301
70.12059 309
70.1407 285
70.16081 302
70.18093 306
70.20104 293
70.22116 259
70.24127 287
70.26138 264
70.2815 290
70.30161 295
70.32172 269
70.34184 309
70.36195 275
70.38207 300
70.40218 278
70.42229 313
70.44241 307
70.46252 272
70.48263 263
70.50275 271
70.52286 290
70.54297 275
70.56309 301
70.5832 285
70.60332 277
70.62343 258
70.64354 308
70.66366 282
70.68377 301
70.70388 276
70.724 278
70.74411 300
70.76423 264
70.78434 276
70.80445 262
70.82457 251
70.84468 275
70.86479 321
70.88491 265
70.90502 278
70.92513 267
70.94525 281
70.96536 300
70.98548 260
71.00559 295
71.0257 299
71.04582 297
71.06593 310
71.08604 271
71.10616 334
71.12627 296
71.14639 311
71.1665 299
71.18661 329
71.20673 279
71.22684 301
71.24695 289
71.26707 285
71.28718 287
71.3073 286
71.32741 267
71.34752 300
71.36764 267
71.38775 283
71.40786 286
71.42798 308
71.44809 286
71.4682 285
71.48832 274
71.50843 275
71.52855 292
71.54866 302
71.56877 289
71.58889 286
71.609 272
71.62911 299
71.64923 267
71.66934 266
71.68946 315
71.70957 278
71.72968 284
71.7498 272
71.76991 272
71.79002 269
71.81014 268
71.83025 306
71.85037 302
71.87048 286
71.89059 300
71.91071 275
71.93082 282
71.95093 302
71.97105 271
71.99116 274
72.01127 280
72.03139 284
72.0515 305
72.07162 296
72.09173 311
72.11184 266
72.13196 301
72.15207 282
72.17218 304
72.1923 319
72.21241 296
72.23253 268
72.25264 274
72.27275 304
72.29287 289
72.31298 279
72.33309 303
72.35321 293
72.37332 309
72.39344 313
72.41355 289
72.43366 317
72.45378 308
72.47389 291
72.494 271
72.51412 266
72.53423 292
72.55434 325
72.57446 291
72.59457 304
72.61469 322
72.6348 292
72.65491 266
72.67503 285
72.69514 335
72.71525 305
72.73537 326
72.75548 294
72.7756 305
72.79571 323
72.81582 296
72.83594 311
72.85605 297
72.87616 326
72.89628 298
72.91639 342
72.9365 322
72.95662 306
72.97673 293
72.99685 320
73.01696 308
73.03707 284
73.05719 328
73.0773 298
73.09741 300
73.11753 305
73.13764 296
73.15776 300
73.17787 328
73.19798 284
73.2181 278
73.23821 299
73.25832 286
73.27844 290
73.29855 328
73.31867 294
73.33878 302
73.35889 325
73.37901 333
73.39912 298
73.41923 342
73.43935 325
73.45946 315
73.47957 315
73.49969 309
73.5198 281
73.53992 307
73.56003 309
73.58014 323
73.60026 295
73.62037 287
73.64048 312
73.6606 296
73.68071 330
73.70083 295
73.72094 312
73.74105 288
73.76117 288
73.78128 276
73.80139 275
73.82151 320
73.84162 298
73.86174 293
73.88185 298
73.90196 295
73.92208 277
73.94219 290
73.9623 307
73.98242 313
74.00253 338
74.02264 315
74.04276 289
74.06287 299
74.08299 284
74.1031 297
74.12321 283
74.14333 326
74.16344 304
74.18355 314
74.20367 320
74.22378 312
74.2439 334
74.26401 319
74.28412 301
74.30424 338
74.32435 318
74.34446 302
74.36458 300
74.38469 311
74.40481 282
74.42492 325
74.44503 298
74.46515 298
74.48526 346
74.50537 345
74.52549 317
74.5456 328
74.56571 348
74.58583 326
74.60594 300
74.62606 307
74.64617 324
74.66628 330
74.6864 303
74.70651 318
74.72662 318
74.74674 312
74.76685 320
74.78697 326
74.80708 305
74.82719 307
74.84731 303
74.86742 312
74.88753 294
74.90765 307
74.92776 310
74.94787 328
74.96799 296
74.9881 285
75.00822 294
