3.00117 20084.4193613891
3.02128 19684.6345279098
3.0414 18906
3.06151 18425.8344836025
3.08162 17978.2539461662
3.10174 17196.2928657441
3.12185 17078.3142670137
3.14197 16135.063965254
3.16208 15882.2064327054
3.18219 15369.3741424309
3.20231 14733.886880747
3.22242 14689.6270045885
3.24253 13993.2610120197
3.26265 13826.4245804421
3.28276 13302.2976092098
3.30288 12732.4369034354
3.32299 12370.1916984465
3.3431 12032
3.36322 11956.6259512913
3.38333 11290.1019700913
3.40344 10931.4214538057
3.42356 10518.0958578441
3.44367 9988.49664595018
3.46379 9785.15724198978
3.4839 9330
3.50401 9179.00286078134
3.52413 9031.19268302742
3.54424 8339.2810690417
3.56435 8262.79480521454
3.58447 7661.58530018855
3.60458 7605.08433217474
3.62469 7287.19420686523
3.64481 7017.94302781608
3.66492 6900.69190171143
3.68504 6460.36593488474
3.70515 6360.91660242951
3.72526 6141.0068087531
3.74538 5559.34340019649
3.76549 5492.02929870076
3.7856 5298
3.80572 5179.93275312821
3.82583 5060.6439755358
3.84595 4726.15881854976
3.86606 4466.37798034235
3.88617 4299.27181245014
3.90629 4152.01169987339
3.9264 4095
3.94651 3606.86733891869
3.96663 3607.91397775822
3.98674 3366.5534782166
4.00686 3276.07834844152
4.02697 3198.18386479871
4.04708 3069.08814450096
4.0672 2980
4.08731 2735.89876685022
4.10742 2662.03685400847
4.12754 2664.68596365661
4.14765 2392.53011537569
4.16776 2319.0504393023
4.18788 2268.05745818215
4.20799 2229.00679023275
4.22811 2185.93342666648
4.24822 2015.91022269948
4.26833 2016.98245520426
4.28845 1933.72833888863
4.30856 1879.92426926922
4.32867 1905.19268941787
4.34879 1688.04791076256
4.3689 1745
4.38902 1668.9033247976
4.40913 1647.09096650031
4.42924 1697.88170457622
4.44936 1544.26000855193
4.46947 1514.94854079821
4.48958 1535.03442005007
4.5097 1494
4.52981 1565.9814143102
4.54992 1426.90735848873
4.57004 1439.05826963755
4.59015 1411.17797131743
4.61027 1362.9565259224
4.63038 1417.02734918181
4.65049 1294.06252548303
4.67061 1260.02947550921
4.69072 1306.92797214266
4.71083 1192.03871151516
4.73095 1300.87900829015
4.75106 1106.17647854278
4.77118 1203.88719937922
4.79129 1182.06807039145
4.8114 1055
4.83152 1123.01056541019
4.85163 1059.97722178968
4.87174 1113.0417464304
4.89186 1053.17700279803
4.91197 1012.94744999899
4.93209 1068.0037165268
4.9522 986
4.97231 945.993189973336
4.99243 945.026857646205
5.01254 969.021490436759
5.03265 943.166047800706
5.05277 874.04234792366
5.07288 894.964302417349
5.09299 905.011024450734
5.11311 864.981526483675
5.13322 833.957934058587
5.15334 801.028464947048
5.17345 828.9263433638
5.19356 771.965836356035
5.21368 845.987932940893
5.23379 781.019090167347
5.2539 782
5.27402 702.00436971797
5.29413 782.050286150392
5.31425 743.966006404612
5.33436 780.964296174402
5.35447 739.10908071189
5.37459 689.000722059353
5.3947 712
5.41481 679.99177207309
5.43493 677.949868433902
5.45504 625.977425553532
5.47516 665.915144569821
5.49527 668.049897451509
5.51538 630.016606467484
5.5355 640
5.55561 635.985293532057
5.57572 610.012143082675
5.59584 647.027617469946
5.61595 622.078471691735
5.63606 603.038933437356
5.65618 574.033982170509
5.67629 559.98648152224
5.69641 600.001640656235
5.71652 564.974618494088
5.73663 568.004295285007
5.75675 551.937523361158
5.77686 549.913550573903
5.79697 603.989048722552
5.81709 558.024043901153
5.8372 538
5.85732 532.018118882797
5.87743 548.958454968261
5.89754 505.023683011136
5.91766 554.009871635906
5.93777 501.006448193793
5.95788 550.987274978373
5.978 508
5.99811 532.016159033293
6.01823 534.964956468824
6.03834 502.9489021395
6.05845 500.939869042531
6.07857 533.967221290183
6.09868 536.006873970185
6.11879 525.010588253103
6.13891 496.987599508106
6.15902 493.024928368755
6.17913 531.04002138364
6.19925 535.991364055553
6.21936 524.067081312042
6.23948 484.017364506165
6.25959 490.99781415304
6.2797 482
6.29982 481.99309609129
6.31993 473.01020839163
6.34004 494.031267298973
6.36016 500.971860805772
6.38027 516.009594136412
6.40039 487.015035968412
6.4205 474
6.44061 479.000415819567
6.46073 468.970563555993
6.48084 459.035997771423
6.50095 498.908044655833
6.52107 505.042183144599
6.54118 460.040444804181
6.56129 444.994630323405
6.58141 467.009148588414
6.60152 464.975700000358
6.62164 438.990604233985
6.64175 459.063678830654
6.66186 473.985805178944
6.68198 466.033171041286
6.70209 447.975966288369
6.7222 522
6.74232 459.95632642611
6.76243 479.058279484994
6.78255 486.92177545134
6.80266 442.047707731742
6.82277 453.95712103989
6.84289 471.002001227445
6.863 461
6.88311 474.991195844966
6.90323 443.012484739327
6.92334 488.046986731842
6.94346 477.001687994146
6.96357 496.990006488044
6.98368 476.028629044056
7.0038 460
7.02391 485.032897551603
7.04402 536.96919981164
7.06414 438.839440513548
7.08425 425.947703326629
7.10436 444.970160900631
7.12448 460.976086723957
7.14459 475.010519179388
7.16471 443.003328440373
7.18482 486.027384450637
7.20493 468.941793749032
7.22505 450.051130201619
7.24516 492.943212201387
7.26527 481.062701260597
7.28539 442.006618004016
7.3055 452
7.32562 452.010647658119
7.34573 462.973247119909
7.36584 425.965764250606
7.38596 436.982631761901
7.40607 444.941419640032
7.42618 496.98601760654
7.4463 463
7.46641 447.000417177727
7.48653 464.061058713812
7.50664 485.905429823272
7.52675 421.941926937614
7.54687 503.987738156728
7.56698 428.037422361152
7.58709 474.972674641963
7.60721 476.982527106182
7.62732 450.010563617391
7.64743 483.016136184935
7.66755 458.932533774182
7.68766 447.020064157641
7.70778 428.0251370292
7.72789 419.985004437715
7.748 463
7.76812 444.003547047861
7.78823 467.987046805835
7.80834 440.037684934141
7.82846 482.050093854633
7.84857 410.012597633389
7.86869 479.973998289477
7.8888 473
7.90891 472.986740169509
7.92903 435.00637207131
7.94914 477.043699300255
7.96925 459.049788538599
7.98937 451.029716075245
8.00948 429.98735241085
8.0296 480
8.04971 494.979501108519
8.06982 441.994953943867
8.08994 476.009325856885
8.11005 445.994733381884
8.13016 491.89765891504
8.15028 509.014834815566
8.17039 477.018210858339
8.1905 448
8.21062 436.000261232474
8.23073 459.080191584416
8.25085 499.94224551609
8.27096 447.987835485397
8.29107 503.98353439818
8.31119 456.012808059567
8.3313 477
8.35141 460.998471629264
8.37153 477.002049851023
8.39164 457.976889322727
8.41176 474.922728344785
8.43187 495.04895722193
8.45198 419.074805340968
8.4721 408
8.49221 496.008046724236
8.51232 459.015596934918
8.53244 531.052506209855
8.55255 473.195862556281
8.57266 445.932770798377
8.59278 500.973115310114
8.61289 482.016766172679
8.63301 468.004396847508
8.65312 486.010316910278
8.67323 471.942638619658
8.69335 453.110587381954
8.71346 528.937887038062
8.73357 492.078899923057
8.75369 476.987939317103
8.7738 499
8.79392 467.038654257691
8.81403 554.049575362258
8.83414 528.021444996162
8.85426 576.021024896953
8.87437 502.069678089982
8.89448 510.998036979851
8.9146 478
8.93471 475.011209261122
8.95483 492.982003683732
8.97494 463.985071125784
8.99505 497.859092926382
9.01517 503.152597703324
9.03528 379.003959625658
9.05539 480.974396918883
9.07551 443.996694463332
9.09562 492.00833889486
9.11573 443.959417874726
9.13585 471.093903040382
9.15596 477.049457828085
9.17608 442.025322801716
9.19619 443.986277966706
9.2163 482
9.23642 480.943423136658
9.25653 411.973524486492
9.27664 461.136051203222
9.29676 500.978454176486
9.31687 480.082358975966
9.33699 433.995461496363
9.3571 486
9.37721 489.004812145697
9.39733 512.004147794533
9.41744 500.023959182955
9.43755 522.052039543398
9.45767 468.036158133922
9.47778 488.981534057026
9.4979 475
9.51801 453.996161992235
9.53812 454.999830689967
9.55824 462.064571032302
9.57835 501.021270122165
9.59846 471.078585265629
9.61858 451.997408386732
9.63869 468.988585548656
9.6588 469
9.67892 420.00372783751
9.69903 479.08771134793
9.71915 482.875206647841
9.73926 443.92665517288
9.75937 523.961194175315
9.77949 474.02500924492
9.7996 461
9.81971 440.001819981315
9.83983 478.075096732004
9.85994 506.991968057543
9.88006 474.091210951681
9.90017 451.966171429823
9.92028 497.973296979536
9.9404 475
9.96051 428.003346808601
9.98062 476.036894451133
10.00074 480.001603691122
10.02085 475.107056794635
10.04097 417.025859309281
10.06108 457.939345578498
10.08119 492.00077320405
10.10131 464.983269186462
10.12142 443.992168747645
10.14153 449.02565344262
10.16165 466.012793074312
10.18176 461.003615325262
10.20187 455.046031206208
10.22199 416.004782899473
10.2421 441
10.26222 436.963806941206
10.28233 404.010817232695
10.30244 447.075059678824
10.32256 450.040124087973
10.34267 427.025659419683
10.36278 429.971308743213
10.3829 463
10.40301 442.985729807891
10.42313 437.040471385442
10.44324 473.02062796175
10.46335 456.028691785144
10.48347 478.919888469101
10.50358 508.047057982218
10.52369 427.010004739419
10.54381 469.00521755475
10.56392 414.942179519097
10.58403 416.094342745331
10.60415 482.015953133427
10.62426 442.021851638334
10.64438 482.959657642788
10.66449 483.014022285016
10.6846 457
10.70472 471.014983424845
10.72483 469.976713420723
10.74494 458.016572312858
10.76506 475.005522651648
10.78517 451.02733124863
10.80529 455.990586271846
10.8254 464
10.84551 436.998922261174
10.86563 463.036067999959
10.88574 473.026636666504
10.90585 480.066277279258
10.92597 444.986143696004
10.94608 499.951106655688
10.9662 502
10.98631 462.989524830507
11.00642 456.984096305119
11.02654 428.96604184082
11.04665 444.88062132556
11.06676 487.996155546743
11.08688 458.016157844022
11.10699 467.998527232054
11.1271 459
11.14722 480.003319983791
11.16733 470.018099309419
11.18745 493.975758683883
11.20756 443.106996096576
11.22767 436.919171297651
11.24779 493.006611932719
11.2679 445
11.28801 525.008242124265
11.30813 455.915458057504
11.32824 466.066730179093
11.34836 479.016970909145
11.36847 457.03969024544
11.38858 454.957361369573
11.4087 510
11.42881 480.989769189495
11.44892 485.996430722003
11.46904 461.955860815442
11.48915 453.016193153536
11.50927 451.972549861512
11.52938 479.986265792152
11.54949 476.000752693043
11.56961 498.023011805443
11.58972 523.960623166982
11.60983 445.933986696565
11.62995 476.181689457648
11.65006 524.028317801816
11.67017 470.051683264569
11.69029 480.988319017322
11.7104 477
11.73052 447.027952741451
11.75063 502.00182300338
11.77074 461.017132352709
11.79086 514.993927267088
11.81097 468.000172080686
11.83108 524.973175140219
11.8512 501
11.87131 536.019909136142
11.89143 540.952650894873
11.91154 509.011509455494
11.93165 527.082649953127
11.95177 466.997991492046
11.97188 523.981724647444
11.99199 494.995307809559
12.01211 562.028734020123
12.03222 565.972462564663
12.05234 566.129497230594
12.07245 657.10167944879
12.09256 638.02558247823
12.11268 670.947952040733
12.13279 710.988796712422
12.1529 725
12.17302 747.006748215124
12.19313 758.077893817564
12.21324 838.114928588426
12.23336 843.056400041087
12.25347 828.957715278715
12.27359 875.993200461457
12.2937 844
12.31381 852.03290959093
12.33393 927.033300453915
12.35404 896.958411507708
12.37415 898.063451302605
12.39427 842.062183713072
12.41438 825.026828164477
12.4345 781
12.45461 755.976903185235
12.47472 703.98813951644
12.49484 717.960663652397
12.51495 652.160067608699
12.53506 630.966876057422
12.55518 648.014473714891
12.57529 600.025515041197
12.5954 554
12.61552 494.985641759088
12.63563 529.067650244629
12.65575 543.950150379682
12.67586 512.031866942632
12.69597 511.021786937764
12.71609 489.995753707433
12.7362 516
12.75631 485.998961990235
12.77643 514.0104627356
12.79654 497.013532003329
12.81666 533.94935024053
12.83677 512.09522686974
12.85688 472.953301349762
12.877 554
12.89711 480.985490145717
12.91722 514.998314737849
12.93734 456.927728051718
12.95745 477.910749015889
12.97757 482.047936032902
12.99768 447.997189560966
13.01779 475.000189992604
13.03791 441.99045512865
13.05802 455.017172191206
13.07813 450.965767329108
13.09825 422.946287843527
13.11836 430.902197786688
13.13847 480.006064773371
13.15859 430.017612287738
13.1787 442
13.19882 461.001632248034
13.21893 464.041413695613
13.23904 492.967069204197
13.25916 439.071842469327
13.27927 444.974055188115
13.29938 457.976603070521
13.3195 483
13.33961 459.986325247397
13.35973 442.981323534603
13.37984 430.981188962278
13.39995 429.971866745553
13.42007 455.941581201743
13.44018 491.982038916778
13.46029 482.016528296854
13.48041 448.99299733543
13.50052 442.972693186102
13.52064 408.001635852153
13.54075 443.061184057633
13.56086 434.042201081768
13.58098 419.011743068983
13.60109 421.983894389168
13.6212 460
13.64132 445.015708709548
13.66143 486.014657344695
13.68154 457.967387105382
13.70166 459.04993854041
13.72177 417.009037026874
13.74189 442.999521334198
13.762 418
13.78211 459.012984104776
13.80223 443.952614653201
13.82234 421.979971318774
13.84245 440.844199269428
13.86257 510.960993621796
13.88268 475.064428474268
13.9028 430
13.92291 448.011824971971
13.94302 445.963042653117
13.96314 407.003543847328
13.98325 445.925919883025
14.00336 444.020045216753
14.02348 442.998479300184
14.04359 437.008481710787
14.06371 418.997368530505
14.08382 436.035103544751
14.10393 468.016694925445
14.12405 451.919779717635
14.14416 420.051387473664
14.16427 412.971767789437
14.18439 441.992061192651
14.2045 439
14.22461 450.013409649706
14.24473 471.993834795877
14.26484 445.954930684839
14.28496 431.055672560885
14.30507 406.973417458512
14.32518 458.959818474501
14.3453 464
14.36541 460.999301759445
14.38552 460.001836592975
14.40564 461.994070177905
14.42575 445.086183554062
14.44587 425.949600327258
14.46598 475.010721695639
14.48609 409.020555364496
14.50621 423.009922910448
14.52632 425.009383530438
14.54643 439.990103367498
14.56655 417.989954016807
14.58666 437.966708496697
14.60677 439.99549582741
14.62689 437.015827867097
14.647 405
14.66712 462.029336896723
14.68723 441.960351874754
14.70734 445.051602745061
14.72746 469.986777957205
14.74757 450.056309119292
14.76768 421.999660467967
14.7878 429
14.80791 389.003936647194
14.82803 434.01525224461
14.84814 404.997649888392
14.86825 444.932342108609
14.88837 435.026451091915
14.90848 431.995298048452
14.92859 441.990160219445
14.94871 465.007524410838
14.96882 465.991717894017
14.98894 454.976407147261
15.00905 448.004427380557
15.02916 453.002472413134
15.04928 448.993860257614
15.06939 454.010186788788
15.0895 426
15.10962 459.008154415416
15.12973 433.976399505038
15.14984 446.032333749497
15.16996 452.984646051304
15.19007 449.05701320506
15.21019 405.99783674265
15.2303 441
15.25041 392.985010015898
15.27053 402.010331184082
15.29064 400.046453376685
15.31075 449.892598869174
15.33087 461.020069351448
15.35098 442.013141465656
15.3711 423
15.39121 379.007621207307
15.41132 434.019514390113
15.43144 406.980122911323
15.45155 438.912727350143
15.47166 441.056577429446
15.49178 414.993149469895
15.51189 445.992178288463
15.53201 443.007114833442
15.55212 471.002132590633
15.57223 443.970085023161
15.59235 439.96300208116
15.61246 413.026395996012
15.63257 427.952073523172
15.65269 462.982732088719
15.6728 478
15.69291 439.990103150617
15.71303 448.015805472782
15.73314 459.068691823827
15.75326 498.992034090716
15.77337 459.075873262937
15.79348 427.016571175805
15.8136 423
15.83371 429.994100500739
15.85382 416.016970017532
15.87394 456.043300044853
15.89405 445.042507952416
15.91417 440.002170250029
15.93428 437.001116608476
15.95439 435.004509595524
15.97451 428.005182449499
15.99462 455.02731694322
16.01473 472.017496956929
16.03485 463.881820864857
16.05496 419.955393935537
16.07508 481.987947903036
16.09519 427.024678671785
16.1153 414
16.13542 402.045295734309
16.15553 473.019173441155
16.17564 422.931430800509
16.19576 436.966323027437
16.21587 433.004721706052
16.23598 438.001291511877
16.2561 439
16.27621 459.980917836061
16.29633 384.947708175391
16.31644 410.057774007893
16.33655 419.941133305657
16.35667 459.96135145592
16.37678 450.036889752274
16.39689 414.007700532164
16.41701 418.001449971224
16.43712 414.00376093727
16.45724 430.03587837935
16.47735 437.990118713409
16.49746 423.045754696764
16.51758 413.976028871295
16.53769 448.997778196264
16.5578 435
16.57792 480.003897475388
16.59803 430.926645791418
16.61814 422.03763517858
16.63826 440.993224628625
16.65837 432.004069300938
16.67849 447.985865276181
16.6986 472
16.71871 458.984300206321
16.73883 427.977925317317
16.75894 431.013689383083
16.77905 444.905517187876
16.79917 484.99570908811
16.81928 450.033997344698
16.8394 435
16.85951 413.995590753191
16.87962 426.024638184562
16.89974 442.993602398403
16.91985 421.066394139026
16.93996 427.870589182464
16.96008 495.011887447904
16.98019 422.017332166755
17.00031 445.000563666738
17.02042 412.000134752311
17.04053 448.011247134395
17.06065 431.066034181647
17.08076 484.01155717411
17.10087 418.063521989444
17.12099 438.979748898544
17.1411 457
17.16121 441.990942299948
17.18133 430.997346327018
17.20144 434.00272898012
17.22156 436.971741897679
17.24167 457.979493610482
17.26178 453.020952760513
17.2819 427
17.30201 432.023778755804
17.32212 470.963399543078
17.34224 386.928527094912
17.36235 441.768788342722
17.38247 490.040562963518
17.40258 436.001693824848
17.42269 485.989216487429
17.44281 445.972688251613
17.46292 428.023955843646
17.48303 457.992064988501
17.50315 427.992478108279
17.52326 456.9713891498
17.54338 439.021456526369
17.56349 442.985131205463
17.5836 469
17.60372 446.011361317915
17.62383 484.011326211536
17.64394 454.969986609684
17.66406 467.990656420545
17.68417 454.009972119867
17.70428 476.951345498133
17.7244 503
17.74451 427.9862363706
17.76463 474.09837418399
17.78474 515.049491100655
17.80485 531.979327005266
17.82497 539.97516226432
17.84508 535.065530455391
17.86519 457.00095425233
17.88531 522.017034432284
17.90542 486.954898136556
17.92554 476.018331708055
17.94565 494.073662979197
17.96576 518.997741536566
17.98588 496.028232529481
18.00599 478.005278760727
18.0261 475
18.04622 492.021329598077
18.06633 497.963272689753
18.08645 461.967317881788
18.10656 477.965791488001
18.12667 472.038229820548
18.14679 452.994831113174
18.1669 476
18.18701 454.004337563661
18.20713 483.989800283758
18.22724 433.916834980807
18.24735 438.903221082849
18.26747 466.026529237175
18.28758 424.012415474639
18.3077 454
18.32781 463.001752506876
18.34792 459.972558157675
18.36804 435.045401976222
18.38815 495.890977480731
18.40826 481.12024684797
18.42838 425.014699250009
18.44849 441.998856197702
18.46861 421.998332413218
18.48872 447.02609299102
18.50883 444.95124399642
18.52895 421.065791921543
18.54906 476.954950167229
18.56917 450.045345735616
18.58929 450.989641960882
18.6094 463
18.62951 438.999559025756
18.64963 450.972425072594
18.66974 413.999119535519
18.68986 447.977988261239
18.70997 428.99849458532
18.73008 452.003264328034
18.7502 419
18.77031 435.011502819288
18.79042 441.994192113351
18.81054 438.018364640068
18.83065 448.032450127636
18.85077 422.007459970509
18.87088 446.970302594826
18.89099 445.02256692634
18.91111 399.003868366641
18.93122 455.044208224244
18.95133 449.951147514676
18.97145 433.051084284129
18.99156 476.937683151114
19.01168 475.020052615103
19.03179 463.994831409065
19.0519 478
19.07202 446.988574511321
19.09213 464.02474892466
19.11224 454.938311411538
19.13236 428.000759759096
19.15247 457.93767910107
19.17258 480.010596516277
19.1927 455
19.21281 471.007733177244
19.23293 465.96824369897
19.25304 453.030997685596
19.27315 471.064540213978
19.29327 423.998051627123
19.31338 475.964847365224
19.33349 467.00670549435
19.35361 465.994318667385
19.37372 452.014060320655
19.39384 474.964047389603
19.41395 433.001846748948
19.43406 464.035323542995
19.45418 407.007651350237
19.47429 464.974501150714
19.4944 471
19.51452 472.993996960387
19.53463 466.021500674101
19.55475 485.968840156174
19.57486 455.988685420742
19.59497 490.992649219218
19.61509 472.98710571927
19.6352 545
19.65531 543.986943570897
19.67543 534.027946829942
19.69554 562.010915926721
19.71565 567.848571931232
19.73577 665.90680574966
19.75588 662.028137589992
19.776 664
19.79611 719.010032452071
19.81622 702.991509568366
19.83634 737.135682901612
19.85645 794.971938837074
19.87656 758.100985344132
19.89668 732.994323126267
19.91679 748.001113181597
19.93691 716.977759648211
19.95702 709.063861871587
19.97713 764.898581676809
19.99725 623.880451673062
20.01736 688.935333411355
20.03747 655.979039109361
20.05759 716.004069240679
20.0777 646
20.09782 714.046726321247
20.11793 694.955144216675
20.13804 668.877104340044
20.15816 603.990847083015
20.17827 673.912115197867
20.19838 682.005882905075
20.2185 705
20.23861 733.96546414777
20.25872 624.979844843823
20.27884 686.013619217637
20.29895 627.002585621973
20.31907 708.901362897994
20.33918 714.999127741844
20.35929 721.016705574031
20.37941 665.993336539802
20.39952 699.021226842696
20.41963 681.963988820663
20.43975 688.105364669521
20.45986 734.973352674213
20.47998 711.02719321453
20.50009 700.004501348674
20.5202 692
20.54032 714.024863194284
20.56043 741.060500295304
20.58054 762.920003089342
20.60066 711.933563544542
20.62077 804.950828440574
20.64088 758.026434538282
20.661 813
20.68111 905.039301978239
20.70123 974.104296041589
20.72134 1099.44543658802
20.74145 1394.268614369
20.76157 1696.41777402101
20.78168 2197.44895954061
20.80179 2739.73954869805
20.82191 3256.26181339636
20.84202 3694.23210174965
20.86214 3634.35517147387
20.88225 3171.75071126043
20.90236 2646.25192960074
20.92248 1962.60306544413
20.94259 1500.19007489533
20.9627 1149
20.98282 926.883573506755
21.00293 890.999223038905
21.02305 878.938112403303
21.04316 855.015433379403
21.06327 872.943124906071
21.08339 899.00636145848
21.1035 866
21.12361 900.023491456033
21.14373 932.025264843965
21.16384 937.997950168239
21.18395 976.698328822747
21.20407 1110.94917338527
21.22418 1042.06133805531
21.2443 1045
21.26441 1054.01993142472
21.28452 1111.02331065509
21.30464 1085.92432448506
21.32475 1068.00026691375
21.34486 1080.95288653697
21.36498 1087.03743889137
21.38509 1024.0218611891
21.40521 1006.9867214318
21.42532 961.964790424643
21.44543 933.924298380407
21.46555 866.883405189793
21.48566 852.014603127796
21.50577 831.046795809253
21.52589 779.042860443964
21.546 707
21.56612 768.036658665508
21.58623 749.966007511503
21.60634 737.928971301009
21.62646 682.075306884794
21.64657 672.015445453522
21.66668 661.980859084937
21.6868 685
21.70691 620.984529552442
21.72702 652.053089452095
21.74714 665.905456385407
21.76725 606.002533157413
21.78737 648.99872419101
21.80748 588.055750067729
21.82759 581.988973430065
21.84771 592.991178189204
21.86782 569.009693534208
21.88793 618.080582152089
21.90805 630.90058680536
21.92816 572.063215430463
21.94828 594.940787752631
21.96839 637.005692015368
21.9885 581
22.00862 553.984895663159
22.02873 541.998975605375
22.04884 553.029908109721
22.06896 569.951619771553
22.08907 598.962020298145
22.10919 612.000022437592
22.1293 590
22.14941 536.992026756232
22.16953 557.025989950423
22.18964 551.982476516721
22.20975 556.955998440484
22.22987 575.985108456967
22.24998 567.027356455802
22.27009 540.003941430417
22.29021 553.008516944296
22.31032 556.990435972332
22.33044 566.120264347236
22.35055 617.878245572373
22.37066 502.111614481086
22.39078 547.936270246518
22.41089 558.016019591333
22.431 525
22.45112 538.991693511089
22.47123 520.033442870453
22.49135 565.999822116327
22.51146 519.049821177468
22.53157 541.957596413777
22.55169 532.024648926221
22.5718 498
22.59191 572.008894085111
22.61203 523.952895895122
22.63214 550.085230784417
22.65225 578.938119892688
22.67237 591.029498713593
22.69248 560.002586000101
22.7126 575
22.73271 528.990902326393
22.75282 540.98932446816
22.77294 514.032130895187
22.79305 564.955554644363
22.81316 540.01953252178
22.83328 568.967073580627
22.85339 575.008737945443
22.87351 542.979716828819
22.89362 521.018612905563
22.91373 567.056907998516
22.93385 583.036403894622
22.95396 582.102388204756
22.97407 512.032372186992
22.99419 544.986705279754
23.0143 533
23.03442 523.999272483706
23.05453 520.983815526893
23.07464 512.016105666294
23.09476 525.018998942937
23.11487 490.053613585428
23.13498 479.981930837718
23.1551 514
23.17521 521.98371984779
23.19532 487.014685531458
23.21544 532.007644584217
23.23555 488.066931817646
23.25567 510.939056787992
23.27578 533.001504364375
23.29589 514.012762702308
23.31601 504.008538848299
23.33612 520.978107675126
23.35623 477.989092097191
23.37635 515.08353439427
23.39646 520.002462583272
23.41658 519.016764755231
23.43669 499.995672656108
23.4568 526
23.47692 505.997447645589
23.49703 527.015596454693
23.51714 521.011217636856
23.53726 547.940926281381
23.55737 549.060551119278
23.57749 503.001043133659
23.5976 533
23.61771 498.993373110911
23.63783 535.087422823517
23.65794 562.942037499511
23.67805 513.019502644073
23.69817 550.963205215371
23.71828 530.039408792028
23.73839 513.988647328539
23.75851 552.007056339224
23.77862 530.971458870376
23.79874 523.02715315878
23.81885 548.062879978907
23.83896 562.989987031444
23.85908 558.015536499557
23.87919 534.014681609913
23.8993 521
23.91942 568.040588790611
23.93953 561.90584514779
23.95965 511.100819456341
23.97976 611.899445654574
23.99987 589.014021809752
24.01999 625.985672211606
24.0401 591
24.06021 507.006779249244
24.08033 591.067848170945
24.10044 577.027823230034
24.12056 622.017222599221
24.14067 550.090331239924
24.16078 560.932875632298
24.1809 618
24.20101 565.985071021889
24.22112 578.005738123592
24.24124 565.00770650888
24.26135 583.015590562777
24.28146 555.017464580741
24.30158 576.977039041084
24.32169 572.016179039134
24.34181 556.021958911343
24.36192 620.000042886431
24.38203 547.89742080826
24.40215 538.072734836761
24.42226 573.941317212863
24.44237 585.009844078045
24.46249 572.004464967882
24.4826 566
24.50272 556.018964970653
24.52283 595.037930264583
24.54294 588.956336223409
24.56306 581.953645185223
24.58317 612.998750515654
24.60328 591.99641450567
24.6234 634
24.64351 661.006492569255
24.66362 668.002202610424
24.68374 662.968256335257
24.70385 660.899507264227
24.72397 713.989308165502
24.74408 695.96391888367
24.76419 781.974391566682
24.78431 768.988543261661
24.80442 781.037614825487
24.82453 819.032620664873
24.84465 818.971628504661
24.86476 827.899591850525
24.88488 882.001614944323
24.90499 836.009790374177
24.9251 854
24.94522 792.906054978082
24.96533 731.018709891499
24.98544 770.957529943864
25.00556 683.139973158235
25.02567 678.959102002054
25.04579 697.997234671119
25.0659 690
25.08601 674.995935107723
25.10613 654.916731465202
25.12624 601.018363905704
25.14635 640.064736168736
25.16647 569.001417126303
25.18658 641.964913696885
25.20669 608.011355638445
25.22681 635.017406603854
25.24692 645.996774685692
25.26704 632.944086503058
25.28715 605.988981185307
25.30726 619.986370457532
25.32738 598.046713244233
25.34749 572.980082811115
25.3676 634
25.38772 566.963742262939
25.40783 582.997753457806
25.42795 549.978255816294
25.44806 564.040381334593
25.46817 528.959758109708
25.48829 613.969229778569
25.5084 603
25.52851 556.988378384135
25.54863 553.998275765776
25.56874 562.085614201932
25.58886 608.018373872727
25.60897 548.072278763497
25.62908 553.959494155513
25.6492 581
25.66931 562.022712076539
25.68942 632.98910246379
25.70954 551.935927540651
25.72965 604.862043645542
25.74976 617.983606604529
25.76988 640.98054789171
25.78999 646.999709299187
25.81011 634.980153276647
25.83022 581.964122215539
25.85033 576.010866531214
25.87045 587.054740447815
25.89056 603.028552957722
25.91067 582.9653464874
25.93079 635.990009008732
25.9509 607
25.97102 599.997932927246
25.99113 602.037024094734
26.01124 633.003896418271
26.03136 613.99326333539
26.05147 638.000649211227
26.07158 620.980547092904
26.0917 670
26.11181 657.008199551247
26.13193 700.009140603585
26.15204 682.067110799023
26.17215 762.882358379388
26.19227 761.975226177756
26.21238 795.017695083679
26.23249 752.986169371801
26.25261 843.025028068799
26.27272 810.944922829615
26.29283 813.121381768649
26.31295 916.112806089234
26.33306 915.909483390429
26.35318 1000.97301189238
26.37329 986.97050931257
26.3934 1134
26.41352 1226.11892132399
26.43363 1419.36240263087
26.45374 1703.67789054356
26.47386 2155.80245541875
26.49397 2906.71637345884
26.51409 3940.34868859362
26.5342 5582
26.55431 7816.30081223272
26.57443 10664.2559439094
26.59454 13185.1298621175
26.61465 14639.0878823293
26.63477 14700.9120686637
26.65488 13367.1351171141
26.67499 10792.2579458435
26.69511 8500.84098595867
26.71522 6096.78155884726
26.73534 4203.74549212889
26.75545 2755.89909049842
26.77556 1785.25820098715
26.79568 1400.28614100972
26.81579 1140.07469577785
26.8359 1090
26.85602 1023.97109444609
26.87613 1004.85603764999
26.89625 861.822023716017
26.91636 866.066524235839
26.93647 762.140324362694
26.95659 733.993408361988
26.9767 736
26.99681 678.985258456274
27.01693 678.977206292319
27.03704 638.941268305049
27.05716 639.967455254751
27.07727 645.026531089591
27.09738 623.993139097837
27.1175 650
27.13761 626.991054902967
27.15772 620.980043032552
27.17784 584.944537737847
27.19795 583.948839719167
27.21806 600.018519436054
27.23818 564.042813735613
27.25829 535.006740944057
27.27841 549.025971713352
27.29852 602.005702241539
27.31863 548.887373493223
27.33875 519.117827534486
27.35886 603.89950187005
27.37897 594.03744979588
27.39909 587.000548204918
27.4192 586
27.43932 599.015160548144
27.45943 594.941043344859
27.47954 545.967372648737
27.49966 559.999733318468
27.51977 542.98973887273
27.53988 581.962062081407
27.56 576
27.58011 509.993707786189
27.60023 535.986565366871
27.62034 490.982640451442
27.64045 529.936171226962
27.66057 519.014877908578
27.68068 523.006763808912
27.70079 514.987458232564
27.72091 552.997917581258
27.74102 522.012358058179
27.76113 567.999584553732
27.78125 522.978473307174
27.80136 559.978248500262
27.82148 531.011055854755
27.84159 558.98486362059
27.8617 557
27.88182 529.009983993582
27.90193 567.033810824525
27.92204 548.918536259544
27.94216 517.017139346818
27.96227 524.994362873001
27.98239 507.018115567175
28.0025 479
28.02261 501.001309856884
28.04273 495.050069634663
28.06284 560.080626138796
28.08295 547.098312611153
28.10307 512.039425215664
28.12318 495.010843966475
28.1433 491
28.16341 491.987045511418
28.18352 459.001149978925
28.20364 489.025003614454
28.22375 472.975767267647
28.24386 492.924042281675
28.26398 513.022966403856
28.28409 473.00280047822
28.3042 498
28.32432 478.018612922616
28.34443 525.008814788676
28.36455 493.005905417268
28.38466 537.953309389596
28.40477 519.027519330199
28.42489 517.006359011419
28.445 495
28.46511 515.008201826629
28.48523 501.936387348233
28.50534 460.983944606397
28.52546 488.929028775196
28.54557 507.990744560753
28.56568 521.961606474581
28.5858 549
28.60591 475.987172106107
28.62602 507.01492585203
28.64614 477.943449743711
28.66625 476.978242939823
28.68636 480.00084102244
28.70648 482.98909402814
28.72659 489.008182631324
28.74671 456.988513178024
28.76682 477.072586685786
28.78693 534.948212348145
28.80705 449.961088356182
28.82716 512.937723636327
28.84727 481.024955591442
28.86739 501.998832919819
28.8875 487
28.90762 541.01313178114
28.92773 500.945546390669
28.94784 498.007858279295
28.96796 498.970855209201
28.98807 522.981529857487
29.00818 506.042774251262
29.0283 478
29.04841 532.010994237253
29.06853 504.951884046788
29.08864 494.992071323348
29.10875 498.92529238803
29.12887 526.034774371847
29.14898 476.005451663119
29.16909 511.998530809834
29.18921 476.998415863922
29.20932 523.04276995751
29.22943 522.953808702607
29.24955 491.969489337087
29.26966 493.019460636658
29.28978 471.011413213355
29.30989 478.99323327424
29.33 486
29.35012 487.002199008845
29.37023 495.02408993915
29.39034 515.034380633805
29.41046 517.038275264475
29.43057 481.063158850437
29.45069 453.001735644445
29.4708 470
29.49091 485.003325379999
29.51103 487.001575450424
29.53114 490.008172644795
29.55125 491.013602302964
29.57137 483.004802831085
29.59148 486.993736829765
29.6116 492
29.63171 493.997300040092
29.65182 496.028554746017
29.67194 531.003321063819
29.69205 490.873493082805
29.71216 474.932698443937
29.73228 519.997243580371
29.75239 491.99686404595
29.7725 523
29.79262 463.986188769816
29.81273 514.071675561579
29.83285 529.041304463277
29.85296 539.078265160263
29.87307 482.995935731273
29.89319 536.989117013273
29.9133 502
29.93341 495.993997456885
29.95353 471.987222271789
29.97364 475.973034988377
29.99376 442.053492808221
30.01387 446.948747903534
30.03398 481.990699177962
30.0541 475
30.07421 502.000456258131
30.09432 477.992854397356
30.11444 497.025734694145
30.13455 489.028648337531
30.15467 476.044541385768
30.17478 443.006974355196
30.19489 476.969800017032
30.21501 513.988593972512
30.23512 464.994943588175
30.25523 492.970846006635
30.27535 445.057180541414
30.29546 526.941601908631
30.31557 485.03111407985
30.33569 504.007591324301
30.3558 454
30.37592 500.047315514457
30.39603 506.969596441559
30.41614 485.983769196185
30.43626 495.960399058793
30.45637 489.093161169906
30.47648 433.956137959087
30.4966 538
30.51671 472.971617759288
30.53683 485.055121759075
30.55694 502.998461635374
30.57705 489.054003585977
30.59717 477.980986893382
30.61728 505.97853912877
30.63739 516.991028298514
30.65751 530.990670534876
30.67762 499.002909336742
30.69773 526.992867499958
30.71785 475.867756598685
30.73796 462.949016418064
30.75808 493.995095039257
30.77819 487.985185261011
30.7983 526
30.81842 448.966072201715
30.83853 479.035757870839
30.85864 464.972182241257
30.87876 476.948708489767
30.89887 487.034551959583
30.91899 475.968131534672
30.9391 575
30.95921 513.963679624458
30.97933 474.942347207296
30.99944 442.022914564111
31.01955 508.766729234197
31.03967 550.094337340873
31.05978 447.026078739748
31.0799 495
31.10001 443.002028339125
31.12012 509.023255324662
31.14024 478.014316411711
31.16035 531.958724260118
31.18046 489.08086683019
31.20058 486.989301079462
31.22069 479.016136810206
31.2408 459
31.26092 515.000075865077
31.28103 471.000455055539
31.30115 522.049959333475
31.32126 493.029296783307
31.34137 509.000270208157
31.36149 479.013109469684
31.3816 486
31.40171 524.007413795671
31.42183 512.977198119142
31.44194 498.942738071214
31.46206 469.002709637925
31.48217 487.997739212359
31.50228 458.037312243223
31.5224 450
31.54251 486.993253972197
31.56262 442.998656154029
31.58274 495.0860285316
31.60285 491.06866496033
31.62297 470.011830606155
31.64308 473.991845031725
31.66319 472.009383105972
31.68331 463.017081060851
31.70342 518.019504304968
31.72353 492.965682155276
31.74365 484.933930150596
31.76376 453.975465395465
31.78387 480.055944464243
31.80399 401.01035615223
31.8241 471
31.84422 508.970237211445
31.86433 458.984827234363
31.88444 494.051668226609
31.90456 481.054832471541
31.92467 477.945958109474
31.94478 516.012456161149
31.9649 455
31.98501 449.015350593312
32.00513 488.045370664473
32.02524 487.929019682531
32.04535 452.981529519946
32.06547 494.95957260995
32.08558 483.025478967205
32.10569 465.007269341973
32.12581 472.025410365049
32.14592 527.999330609064
32.16604 483.974905091484
32.18615 503.949144802114
32.20626 452.996967469697
32.22638 506.976581156917
32.24649 469.023634904345
32.2666 460
32.28672 505.053148741833
32.30683 533.974198650687
32.32694 478.875362786851
32.34706 450.962045604923
32.36717 494.948221665154
32.38729 494.014271542282
32.4074 468
32.42751 494.015952416195
32.44763 511.002289115497
32.46774 488.893774183247
32.48785 448.934973305647
32.50797 528.897227127458
32.52808 538.034214554414
32.5482 498
32.56831 498.005366963871
32.58842 509.013874926119
32.60854 521.004820622935
32.62865 511.043591731122
32.64876 497.00841922654
32.66888 492.022527473171
32.68899 474.985644902705
32.7091 530
32.72922 519.018748160052
32.74933 563.004101941703
32.76945 513.887467905097
32.78956 513.937706125121
32.80967 541.993747889232
32.82979 519.016333996635
32.8499 504
32.87001 523.997536390466
32.89013 503.005379071149
32.91024 548.125143768906
32.93036 588.995151270527
32.95047 569.015151073289
32.97058 583.977080068147
32.9907 592
33.01081 583.012966504964
33.03092 633.031676295474
33.05104 624.945061501971
33.07115 606.998177215507
33.09127 631.931669812304
33.11138 661.0218362678
33.13149 617.999870529671
33.15161 652.998368144845
33.17172 619.015636313921
33.19183 681.036871240057
33.21195 656.997799232036
33.23206 702.91136389136
33.25217 716.000868408163
33.27229 703.020953742546
33.2924 668
33.31252 723.00145745938
33.33263 673.980065420855
33.35274 704.996679359965
33.37286 669.983742938089
33.39297 722.965528954189
33.41308 685.054915943442
33.4332 657
33.45331 667.001136226689
33.47343 668.036070922082
33.49354 682.898653487764
33.51365 597.081655063686
33.53377 622.000406792895
33.55388 594.972062961343
33.57399 657.003647702062
33.59411 575.972397969404
33.61422 573.980594919435
33.63434 541.056655214665
33.65445 612.050402022492
33.67456 568.056702072494
33.69468 573.023070899667
33.71479 511.024689010526
33.7349 526
33.75502 596.984911879887
33.77513 508.893309321642
33.79524 501.026911574499
33.81536 493.060394090703
33.83547 476.946443789709
33.85559 534.993838232557
33.8757 498
33.89581 496.981567597747
33.91593 454.057602802388
33.93604 544.048299792929
33.95615 486.098014326103
33.97627 512.939843564453
33.99638 506.061507047751
34.0165 437
34.03661 475.025779188328
34.05672 495.990429885813
34.07684 486.039080019173
34.09695 519.992791074847
34.11706 488.050416739482
34.13718 489.991780838695
34.15729 481.014294904408
34.17741 465.015806380951
34.19752 522.024612877983
34.21763 502.974688438788
34.23775 504.980595576633
34.25786 494.952137448725
34.27797 530.019997010932
34.29809 479.008958275992
34.3182 512
34.33831 506.988280684569
34.35843 490.999821357074
34.37854 502.018206484027
34.39866 502.006940886754
34.41877 501.992899268933
34.43888 519.961801077157
34.459 553
34.47911 527.002172672663
34.49922 557.000044137024
34.51934 522.966750644343
34.53945 539.960838839311
34.55957 539.992893474574
34.57968 553.992862165718
34.59979 551.000203811965
34.61991 556.000223962529
34.64002 566.043412766071
34.66013 616.007625837044
34.68025 571.884396749612
34.70036 551.027480132856
34.72047 561.89251102129
34.74059 644.996387961913
34.7607 602
34.78082 676.009114208629
34.80093 617.987696902567
34.82104 692.144183687421
34.84116 714.982004394463
34.86127 733.974893152851
34.88138 746.980402608851
34.9015 763
34.92161 741.999957979281
34.94173 768.035897257933
34.96184 763.939660786291
34.98195 728.05580180481
35.00207 726.986005473805
35.02218 728.015050765367
35.04229 700.014816326504
35.06241 679.995154193148
35.08252 675.996769769571
35.10264 660.931663351199
35.12275 631.013808486282
35.14286 661.970020986445
35.16298 641.035761907293
35.18309 621.99563767411
35.2032 635
35.22332 596.985214193159
35.24343 612.01172351075
35.26354 601.996642191629
35.28366 609.02007543841
35.30377 593.973097557253
35.32389 634.992195560618
35.344 624
35.36411 644.98867079633
35.38423 602.023621706069
35.40434 661.015817621628
35.42445 610.058137017863
35.44457 641.957411413538
35.46468 629.0335103844
35.4848 626
35.50491 697.002251793041
35.52502 640.968601872603
35.54514 669.075578079255
35.56525 666.112471840235
35.58536 632.930721587294
35.60548 718.936137582117
35.62559 737.988276396576
35.64571 748.965907466938
35.66582 665.031309549782
35.68593 782.063010944886
35.70605 714.872782751574
35.72616 726.010506406043
35.74627 684.030436496407
35.76639 708.982302184716
35.7865 728
35.80661 735.00115077943
35.82673 732.99358793453
35.84684 726.981805794485
35.86696 720.99023937889
35.88707 718.055762058091
35.90718 677.984327618229
35.9273 727
35.94741 667.975223307054
35.96752 674.039181417207
35.98764 700.982601025944
36.00775 665.077427883849
36.02787 663.966480464019
36.04798 678.019740609896
36.06809 639.008915745856
36.08821 653.008181836357
36.10832 643.967196237297
36.12843 616.006585179411
36.14855 645.046120809543
36.16866 636.03700182853
36.18878 628.992227396646
36.20889 639.001853805387
36.229 620
36.24912 620.026106189731
36.26923 657.03880548346
36.28934 676.075004699163
36.30946 717.988356388128
36.32957 687.042485960947
36.34968 690.973234414149
36.3698 738
36.38991 801.003994921408
36.41003 804.137618751173
36.43014 999.433992782876
36.45025 1162.72571022518
36.47037 1273.75610490025
36.49048 1476.82319322613
36.51059 1562.004935897
36.53071 1515.98971158257
36.55082 1480.85039391114
36.57094 1259.708888357
36.59105 1238.01954756116
36.61116 1205.09862357377
36.63128 1125.14747413167
36.65139 957.050380143176
36.6715 920
36.69162 822.947299711596
36.71173 829.001751371802
36.73184 818.066035510798
36.75196 871.016347897675
36.77207 810.036832101089
36.79219 861.960463541495
36.8123 883
36.83241 780.987558318909
36.85253 841.07249474075
36.87264 826.936763821996
36.89275 823.931794560158
36.91287 847.026631701394
36.93298 798.033556823482
36.9531 788
36.97321 752.998135722743
36.99332 775.000451788067
37.01344 738.919899247813
37.03355 714.054829094305
37.05366 690.036092389708
37.07378 671.03429643661
37.09389 637.001457757173
37.11401 663.01098368465
37.13412 666.001525938714
37.15423 658.939922631259
37.17435 599.903711263025
37.19446 596.981376731459
37.21457 597.011181752017
37.23469 597.988235543628
37.2548 610
37.27491 517.964684029359
37.29503 511.052687967491
37.31514 543.009642240248
37.33526 527.013220274047
37.35537 552.922807843581
37.37548 573.061980826066
37.3956 490
37.41571 577.019181276038
37.43582 531.962773578957
37.45594 540.000558332186
37.47605 517.021342124336
37.49617 543.931347218605
37.51628 586.965711585338
37.53639 586.028729178071
37.55651 520.999382667657
37.57662 584.056656477697
37.59673 568.876344131444
37.61685 495.018369019253
37.63696 569.888414323199
37.65708 563.027974396404
37.67719 558.98831062488
37.6973 579
37.71742 536.982450477524
37.73753 540.962192363192
37.75764 500.015483688944
37.77776 557.91101447143
37.79787 550.055289554771
37.81798 520.010335176678
37.8381 526
37.85821 530.007204247838
37.87833 551.015839318622
37.89844 550.005886598417
37.91855 546.092586534564
37.93867 505.978882011076
37.95878 563.965971318745
37.97889 563.988451040229
37.99901 596.985976353373
38.01912 524.972503147185
38.03924 567.097662677221
38.05935 559.840496927445
38.07946 510.921557672244
38.09958 600.970421433189
38.11969 541.033830355071
38.1398 531
38.15992 578.049532306791
38.18003 606.99475318899
38.20015 585.970392281078
38.22026 598.946197268698
38.24037 619.991520861612
38.26049 614.002301733054
38.2806 608
38.30071 596.021560466819
38.32083 666.035584429766
38.34094 638.979713854182
38.36105 647.099076347015
38.38117 582.997179945835
38.40128 652.950516875119
38.4214 653
38.44151 673.987948461905
38.46162 622.997439498975
38.48174 667.027352888155
38.50185 637.025773684122
38.52196 645.076133168665
38.54208 577.015986398617
38.56219 614.993898539977
38.58231 576.983640601796
38.60242 571.9904491778
38.62253 561.034721568756
38.64265 595.971805043235
38.66276 548.033473661601
38.68287 568.007600051965
38.70299 542.988828299046
38.7231 599
38.74321 552.987484328221
38.76333 567.999310134507
38.78344 537.963652104551
38.80356 559.902053639144
38.82367 599.989235406679
38.84378 572.041558493486
38.8639 553
38.88401 584.001042922816
38.90412 555.98170948966
38.92424 558.993084151019
38.94435 547.979405107054
38.96447 563.026368029934
38.98458 533.979509109753
39.00469 588.993522589779
39.02481 548.986314669976
39.04492 575.05495434301
39.06503 600.944035610316
39.08515 548.033698285535
39.10526 622.902471562837
39.12538 608.029874616905
39.14549 602.994440994906
39.1656 603
39.18572 574.020692040073
39.20583 627.02802888016
39.22594 602.981551139105
39.24606 639.886904254006
39.26617 672.016936336319
39.28628 646.990190677699
39.3064 734
39.32651 868.011075237698
39.34663 842.115317150613
39.36674 1047.41166004882
39.38685 1169.80722209572
39.40697 1258.82531291403
39.42708 1373.93414602126
39.44719 1364.03305518042
39.46731 1286.96953721791
39.48742 1199.82020220314
39.50754 993.81071883119
39.52765 1008.97400604917
39.54776 925.13801133048
39.56788 886.080088987828
39.58799 747.07087997891
39.6081 640
39.62822 572.9711434877
39.64833 569.990746342949
39.66845 556.006877589638
39.68856 565.039225439092
39.70867 529.007285356609
39.72879 545.010477566879
39.7489 494
39.76901 526.013586392564
39.78913 529.017195104424
39.80924 548.991468595208
39.82935 517.074832325741
39.84947 514.965980862693
39.86958 545.974404658046
39.8897 548
39.90981 507.983524338183
39.92992 505.030047777344
39.95004 550.076469759332
39.97015 574.936214114344
39.99026 574.137862795244
40.01038 497.979002825806
40.03049 602.964496562887
40.05061 577.966944029022
40.07072 560.065301324596
40.09083 660.074940363788
40.11095 628.850522300241
40.13106 615.88443586081
40.15117 710.889712587741
40.17129 741.987747412248
40.1914 801
40.21152 901.061352514434
40.23163 931.067891702708
40.25174 975.963053516117
40.27186 919.013800337999
40.29197 959.006429536672
40.31208 877.100833367883
40.3322 804
40.35231 762.990293763601
40.37242 747.965518389503
40.39254 700.944409717608
40.41265 689.075110655685
40.43277 633.081777416181
40.45288 594.035492871706
40.47299 568.997292825395
40.49311 582.990436048098
40.51322 522.933637785511
40.53333 501.059984803821
40.55345 568.102591232482
40.57356 556.080081791537
40.59368 522.018217031385
40.61379 518.000306661679
40.6339 518
40.65402 521.977629808406
40.67413 487.986664205131
40.69424 514.068667566318
40.71436 534.976817505649
40.73447 534.031930139671
40.75458 504.018834720176
40.7747 514
40.79481 556.013316749734
40.81493 556.977350155309
40.83504 531.924070948443
40.85515 506.955408041266
40.87527 553.951467932565
40.89538 547.027684982463
40.91549 526.002557121882
40.93561 532.001655288371
40.95572 532.009760141524
40.97584 549.016859647509
40.99595 545.995442638064
41.01606 546.020059203278
41.03618 534.990836193603
41.05629 560.990976839952
41.0764 557
41.09652 542.990862400809
41.11663 534.979818895738
41.13675 529.053035802759
41.15686 576.892994192579
41.17697 609.990904252207
41.19709 588.022343964133
41.2172 538
41.23731 528.017116087454
41.25743 578.036961617544
41.27754 556.90679182155
41.29765 526.975721994826
41.31777 560.970147846896
41.33788 559.99069469517
41.358 577
41.37811 554.00528950336
41.39822 597.026930721678
41.41834 580.92415790766
41.43845 548.052846141142
41.45856 552.92158974187
41.47868 595.992707211548
41.49879 570.008721327889
41.51891 578.004354697173
41.53902 568.979542386249
41.55913 547.975324501655
41.57925 526.902141971561
41.59936 488.011557175278
41.61947 511.973229786655
41.63959 499.016324627841
41.6597 487
41.67982 546.020043405289
41.69993 509.924898939373
41.72004 480.972560920787
41.74016 476.986914898039
41.76027 496.94700826023
41.78038 518.025514907452
41.8005 464
41.82061 480.019058325387
41.84072 509.013323611205
41.86084 516.032023920486
41.88095 531.029353414277
41.90107 498.034131225498
41.92118 487.028654941387
41.94129 452.998433658454
41.96141 490.012470235889
41.98152 494.019391471268
42.00163 523.998584168217
42.02175 494.967850214426
42.04186 502.026167139644
42.06198 475.991380528001
42.08209 513.992870923305
42.1022 492
42.12232 504.027211713455
42.14243 517.97979033173
42.16254 493.993372170699
42.18266 530.869907814183
42.20277 579.005259538276
42.22289 536.017822651629
42.243 534
42.26311 547.010670529247
42.28323 579.055823000361
42.30334 635.1852058762
42.32345 746.768721369208
42.34357 807.921288686995
42.36368 895.857660443721
42.38379 1046.95432839101
42.40391 1082.02386414707
42.42402 1128.96257953198
42.44414 1007.76120549825
42.46425 941.893222820415
42.48436 883.163661822932
42.50448 796.064889503372
42.52459 764.006982979379
42.5447 748
42.56482 707.937106022205
42.58493 620.842380329311
42.60505 531.89480287063
42.62516 524.031165105044
42.64527 486.048748012596
42.66539 473.003377649428
42.6855 466
42.70561 476.00829052162
42.72573 496.035184258592
42.74584 503.946185807229
42.76595 458.072163427358
42.78607 468.942725747375
42.80618 491.025498397005
42.8263 449
42.84641 487.999482588015
42.86652 447.996638469417
42.88664 496.07722113254
42.90675 484.10876198379
42.92686 449.009778443038
42.94698 462.002937725741
42.96709 449.990157869123
42.98721 488.000836607829
43.00732 448.970480923156
43.02743 466.076429931266
43.04755 503.97466827069
43.06766 466.020800920284
43.08777 485.007131958357
43.10789 455.001580757197
43.128 479
43.14812 454.002421546446
43.16823 488.026925243942
43.18834 467.934590711075
43.20846 445.030435170217
43.22857 443.966649198722
43.24868 473.987312234853
43.2688 470
43.28891 479.993127667946
43.30902 442.969566984256
43.32914 449.08626130074
43.34925 485.042146052006
43.36937 440.004053818465
43.38948 487.963729658655
43.40959 474.020379884997
43.42971 438.990296255423
43.44982 435.002019663342
43.46993 437.00805126067
43.49005 448.038403135872
43.51016 460.990618507468
43.53028 458.00442106365
43.55039 460.993502114518
43.5705 461
43.59062 416.007325854127
43.61073 468.045806339481
43.63084 448.937345511834
43.65096 437.989395539864
43.67107 460.930891860564
43.69119 488.020237779146
43.7113 420
43.73141 482.024029891905
43.75153 467.935848964893
43.77164 449.049211901413
43.79175 488.98291765724
43.81187 461.024403522738
43.83198 467.007524152348
43.85209 441.006623973813
43.87221 455.012327230263
43.89232 472.007122623626
43.91244 460.929309803322
43.93255 448.156699566865
43.95266 531.013357147743
43.97278 435.07522091106
43.99289 438.983587988571
44.013 455
44.03312 458.009755817608
44.05323 471.007838811328
44.07335 455.908039092865
44.09346 424.990432415674
44.11357 459.955216059702
44.13369 465.002348996419
44.1538 454
44.17391 437.018431818282
44.19403 502.037176889958
44.21414 467.912037377408
44.23426 451.995875232698
44.25437 457.990735857281
44.27448 460.999892854131
44.2946 464
44.31471 479.004166763392
44.33482 467.967227432853
44.35494 451.078521316054
44.37505 502.057191930516
44.39516 411.134323835301
44.41528 433.912018006707
44.43539 513.988819587471
44.45551 468.963614394759
44.47562 419.988251516375
44.49573 449.090451092986
44.51585 493.978493032116
44.53596 454.021932309697
44.55607 472.0194495618
44.57619 415.026623012615
44.5963 416
44.61642 481.014847422196
44.63653 458.010332665097
44.65664 492.987350999069
44.67676 439.075694628758
44.69687 453.937539065332
44.71698 475.021350068231
44.7371 438
44.75721 474.016700608114
44.77732 480.998423073909
44.79744 491.047399012409
44.81755 513.987278421852
44.83767 498.034957375322
44.85778 478.019280588907
44.87789 467.994570819727
44.89801 496.014754765588
44.91812 508.993426014642
44.93823 493.986124553694
44.95835 488.959757801011
44.97846 470.989897631509
44.99858 495.983117687641
45.01869 499.992990874406
45.0388 512
45.05892 469.997403921675
45.07903 511.049368343821
45.09914 502.938374001668
45.11926 486.962550269092
45.13937 524.967408682522
45.15949 521.001978481058
45.1796 518
45.19971 488.006279910789
45.21983 526.000655708148
45.23994 494.00650806869
45.26005 543.900355269136
45.28017 554.971310213978
45.30028 568.044720116613
45.32039 480.031902166577
45.34051 476.012619440868
45.36062 512.058357812518
45.38074 552.942150834733
45.40085 481.917869635543
45.42096 526.835200604866
45.44108 581.001511610331
45.46119 550.003702204541
45.4813 560
45.50142 509.011630755166
45.52153 571.02746145122
45.54165 522.891106378139
45.56176 528.938747394155
45.58187 561.943666151779
45.60199 588.002374289236
45.6221 568
45.64221 606.030380732112
45.66233 668.084032410035
45.68244 723.128754757028
45.70256 781.947890113359
45.72267 799.909312824339
45.74278 900.913037188658
45.7629 909
45.78301 806.981907847864
45.80312 824.976961276334
45.82324 733.820198559237
45.84335 692.034253470807
45.86346 681.025539204622
45.88358 657.039644798767
45.90369 619.006827380471
45.92381 629.005299257559
45.94392 608.941295774816
45.96403 537.928697687824
45.98415 513.913624278345
46.00426 466.057433059379
46.02437 471.963269782802
46.04449 494.991387093547
46.0646 498
46.08472 472.980176370882
46.10483 479.05771276192
46.12494 516.99471855007
46.14506 477.06713754637
46.16517 480.955422697036
46.18528 500.016768723806
46.2054 467
46.22551 492.004887761769
46.24563 468.956492181473
46.26574 464.045635867572
46.28585 493.969636783508
46.30597 483.022316293425
46.32608 491.958632099507
46.34619 518.023119260795
46.36631 437.991342997596
46.38642 487.023218728355
46.40653 456.971319389777
46.42665 486.126485022588
46.44676 508.062202899715
46.46688 450.033832431883
46.48699 462.984017892435
46.5071 480
46.52722 470.007090635836
46.54733 494.027107942374
46.56744 487.948383952984
46.58756 471.960968158376
46.60767 509.979689179045
46.62779 481.023268753415
46.6479 444
46.66801 447.02117243999
46.68813 490.99279095423
46.70824 450.976879905238
46.72835 483.92521998427
46.74847 489.987657066083
46.76858 504.003130869617
46.78869 483.008248833374
46.80881 487.009183112484
46.82892 496.984785508007
46.84904 464.95344957376
46.86915 468.055008280678
46.88926 483.022030539061
46.90938 463.990007954528
46.92949 491.002602427518
46.9496 459
46.96972 495.0331492413
46.98983 492.959043099099
47.00995 460.93620635129
47.03006 453.973840596303
47.05017 469.004174208126
47.07029 456.996418317648
47.0904 481
47.11051 476.004952434155
47.13063 488.961478168255
47.15074 432.928289989531
47.17086 445.918748506972
47.19097 484.957204843372
47.21108 495.008360771142
47.2312 469
47.25131 438.004628026406
47.27142 477.02969282957
47.29154 486.030332036599
47.31165 497.076429222567
47.33176 447.018406142836
47.35188 488.957051648422
47.37199 501.000702503998
47.39211 505.005238226006
47.41222 509.98634634756
47.43233 485.981022153198
47.45245 493.034156400911
47.47256 500.994626905917
47.49267 492.041213227436
47.51279 464.001547875305
47.5329 487
47.55302 495.99910233814
47.57313 499.021829977807
47.59324 506.951030776092
47.61336 461.059234898664
47.63347 468.955122038698
47.65358 492.994647830805
47.6737 483
47.69381 483.001257581153
47.71393 481.994547910394
47.73404 485.036055374867
47.75415 502.022085726532
47.77427 478.005437038946
47.79438 499.982809331702
47.81449 499.999709784876
47.83461 504.997699758998
47.85472 495.002870993183
47.87483 500.971813939795
47.89495 466.971438983785
47.91506 484.966517138366
47.93518 482.010793437956
47.95529 469.010637558188
47.9754 459
47.99552 505.019626326956
48.01563 484.957395548814
48.03574 476.015018329557
48.05586 485.99736814202
48.07597 481.992440298594
48.09609 491.003316390323
48.1162 468
48.13631 472.01550381664
48.15643 498.983085234926
48.17654 461.967932901864
48.19665 475.983127663886
48.21677 463.011814103263
48.23688 469.993207753103
48.257 467
48.27711 463.00083900476
48.29722 467.000631519913
48.31734 452.931724483346
48.33745 427.041230832891
48.35756 477.915064011261
48.37768 484.016621644372
48.39779 462.011804350422
48.4179 446
48.43802 453.006216349574
48.45813 456.010996960233
48.47825 456.940881754325
48.49836 424.01617355928
48.51847 446.960418762347
48.53859 457.997972326842
48.5587 466
48.57881 484.008496589353
48.59893 495.006649427234
48.61904 482.924351151473
48.63916 448.980451323191
48.65927 498.929885531973
48.67938 513.005585578706
48.6995 500
48.71961 476.991712011994
48.73972 467.992126238872
48.75984 464.018590523716
48.77995 474.028439149091
48.80006 451.999223494084
48.82018 474.987480742527
48.84029 453.023704879264
48.86041 411.99458137048
48.88052 451.084945160236
48.90063 524.008098171167
48.92075 471.889099803242
48.94086 469.977831958996
48.96097 468.017475841596
48.98109 462.992661680346
49.0012 476
49.02132 440.009677031488
49.04143 492.0488633116
49.06154 482.976147473376
49.08166 494.952213304656
49.10177 506.022558869038
49.12188 488.981486031311
49.142 529
49.16211 497.985332824705
49.18223 488.982860985812
49.20234 476.018657632427
49.22245 498.99037988064
49.24257 486.987943317929
49.26268 523.961552104211
49.28279 523.027157538762
49.30291 459.993990678932
49.32302 502.039897309573
49.34313 507.993337194283
49.36325 504.966980640474
49.38336 488.998732803084
49.40348 504.989224917938
49.42359 496.01140177911
49.4437 479
49.46382 504.035212611851
49.48393 521.976840647547
49.50404 493.99304247988
49.52416 536.852855498165
49.54427 587.020408848008
49.56439 534.013782138209
49.5845 539
49.60461 497.998942181088
49.62473 542.055454859632
49.64484 533.922722022585
49.66495 502.996625373606
49.68507 528.97222060478
49.70518 534.979852381788
49.7253 555
49.74541 508.994327945211
49.76552 534.004400601391
49.78564 509.993207531011
49.80575 544.098607382709
49.82586 563.986910990475
49.84598 559.021163857315
49.86609 541.993745556027
49.8862 596
49.90632 640.956895681103
49.92643 587.095815982559
49.94655 747.262081247781
49.96666 760.929841168086
49.98677 900.679937013463
50.00689 1105.92960119707
50.027 1228
50.04711 1494.10925516988
50.06723 1641.23836002341
50.08734 1840.35809592928
50.10746 1923.06869667019
50.12757 1790.28777592397
50.14768 1570.25154413369
50.1678 1333
50.18791 1251.98310118709
50.20802 1224.97879057298
50.22814 1196.9088412932
50.24825 1136.1533913742
50.26837 1052.21136754946
50.28848 857.207337865073
50.30859 701.0387581106
50.32871 665.97349109034
50.34882 582.93720888222
50.36893 565.004380486888
50.38905 539.806524679898
50.40916 468.959219015403
50.42927 555.93376865109
50.44939 518.025106237144
50.4695 511
50.48962 535.010986441322
50.50973 539.025647922674
50.52984 567.032489777231
50.54996 555.06831751948
50.57007 530.98051301519
50.59018 557.012095033477
50.6103 523
50.63041 572.004917419792
50.65053 523.927602210491
50.67064 508.990841896943
50.69075 502.990056646721
50.71087 521.958854167814
50.73098 541.997320633038
50.75109 528.010067822354
50.77121 504.983712855009
50.79132 474.992229892922
50.81143 503.086815622022
50.83155 544.962906340446
50.85166 489.080153013015
50.87178 496.967766082346
50.89189 513.008668585551
50.912 494
50.93212 540.987773381052
50.95223 475.949818235126
50.97234 504.072112712008
50.99246 514.989013866529
51.01257 517.029187643142
51.03269 492.996578432912
51.0528 510
51.07291 447.987187548334
51.09303 467.004677860001
51.11314 448.025839554518
51.13325 498.899358280265
51.15337 512.970402737034
51.17348 535.011732362246
51.1936 484
51.21371 459.010781043506
51.23382 501.023707647832
51.25394 467.820329013377
51.27405 397.92863742154
51.29416 493.892763868317
51.31428 468.033361704317
51.33439 473.989911573611
51.3545 477
51.37462 452.999280812007
51.39473 475.026369558617
51.41485 477.00485956242
51.43496 484.991132981349
51.45507 478.025082721626
51.47519 467.994118109588
51.4953 483
51.51541 452.001186169481
51.53553 477.986617227789
51.55564 437.982390089549
51.57576 467.971753004989
51.59587 451.013506978564
51.61598 471.966301164517
51.6361 488
51.65621 457.993060699826
51.67632 466.00530400709
51.69644 448.931374509497
51.71655 425.968318965806
51.73667 465.948330975052
51.75678 474.007091366597
51.77689 463.007481321568
51.79701 445.991686559575
51.81712 447.0337636335
51.83723 483.992601797918
51.85735 455.024069497817
51.87746 501.959986716243
51.89757 470.067639051483
51.91769 453.991454517056
51.9378 471
51.95792 431.998900747518
51.97803 472.042083732909
51.99814 467.992224290799
52.01826 462.084254061965
52.03837 424.933751629561
52.05848 510.988873979862
52.0786 444
52.09871 482.014085800779
52.11883 454.92713103246
52.13894 433.040031024311
52.15905 463.019122812666
52.17917 431.988696505389
52.19928 474.986965209524
52.21939 446.008843934031
52.23951 464.012418312767
52.25962 470.992882938799
52.27974 461.995279277948
52.29985 464.996806568476
52.31996 465.961423058612
52.34008 495.983453536655
52.36019 478.024779714122
52.3803 425
52.40042 436.044845368247
52.42053 476.004523837797
52.44064 448.963217473862
52.46076 452.002082492482
52.48087 439.010789904023
52.50099 442.000054635363
52.5211 456
52.54121 521.001188082866
52.56133 460.920347497399
52.58144 462.068637815154
52.60155 486.024033390574
52.62167 456.020856960823
52.64178 471.976715460382
52.6619 477
52.68201 456.999116769697
52.70212 478.026683493917
52.72224 488.980961172835
52.74235 474.001236889121
52.76246 485.000742709565
52.78258 473.997869766095
52.80269 487.999626825307
52.8228 469
52.84292 457.989719114532
52.86303 457.038007137746
52.88315 486.988913057398
52.90326 464.967749825552
52.92337 508.991557731133
52.94349 478.998231057105
52.9636 515
52.98371 470.990122458557
53.00383 496.036497955384
53.02394 499.011670977114
53.04406 519.952623596729
53.06417 529.016840501892
53.08428 499.041290654574
53.1044 478
53.12451 525.011022845209
53.14462 507.977046743375
53.16474 508.038244923531
53.18485 540.888674785958
53.20497 573.005450534341
53.22508 548.008829566379
53.24519 559.001470261218
53.26531 532.987935087436
53.28542 529.009991401651
53.30553 539.003143073498
53.32565 551.118410221265
53.34576 608.965990391362
53.36587 580.04397798682
53.38599 581.990207958148
53.4061 603
53.42622 621.018577735921
53.44633 629.980022518146
53.46644 595.919759534824
53.48656 582.93293056459
53.50667 634.96621018546
53.52678 623.003960565534
53.5469 635
53.56701 608.994612615867
53.58713 620.007712513473
53.60724 614.010050438528
53.62735 627.0109629222
53.64747 600.043827066433
53.66758 585.004123360816
53.68769 585.998067777628
53.70781 590.001790964344
53.72792 587.987761042018
53.74804 564.941366022885
53.76815 549.032919260264
53.78826 586.915990972155
53.80838 592.053152556828
53.82849 525.007090262821
53.8486 568
53.86872 556.957325399527
53.88883 520.98851026669
53.90894 551.111423063275
53.92906 607.912320353299
53.94917 609.087839228337
53.96929 543.001594539166
53.9894 594
54.00951 568.987598270757
54.02963 583.060163943739
54.04974 605.949527599014
54.06985 556.048616440678
54.08997 574.98390526114
54.11008 564.996538376077
54.1302 586
54.15031 571.992394204758
54.17042 571.007960718439
54.19054 583.032475953734
54.21065 593.018254452846
54.23076 583.9682944504
54.25088 621.969844117466
54.27099 608.032379957289
54.29111 554.013062169655
54.31122 627.017146721768
54.33133 582.987250025169
54.35145 626.03556536847
54.37156 581.108259171141
54.39167 562.978298120772
54.41179 581.001984565359
54.4319 561
54.45201 592.027438322778
54.47213 630.990811905082
54.49224 583.890722463373
54.51236 554.009623294828
54.53247 564.973612781775
54.55258 585.970081486003
54.5727 594
54.59281 517.985076846634
54.61292 562.074836258957
54.63304 601.96219260323
54.65315 561.005254011166
54.67327 599.96789186415
54.69338 589.996804383309
54.71349 642.952981305905
54.73361 749.047571225611
54.75372 808.017804850632
54.77383 823.081689412077
54.79395 891.030634414477
54.81406 890.802792311084
54.83417 1039.94362804627
54.85429 939.052253858711
54.8744 892
54.89452 800.93736702634
54.91463 783.984442456516
54.93474 764.993251172263
54.95486 776.00006619895
54.97497 759.021619185473
54.99508 755.005048425588
55.0152 726
55.03531 651.976582118124
55.05543 640.996389811361
55.07554 622.93959443999
55.09565 599.997461905344
55.11577 625.947157016405
55.13588 642.016574962327
55.15599 600.023178777426
55.17611 583.012963672429
55.19622 638.056159047814
55.21634 662.976167211099
55.23645 650.067920243057
55.25656 714.884150221621
55.27668 728.026608115528
55.29679 707.986097981864
55.3169 746
55.33702 651.929171455493
55.35713 639.997429966992
55.37724 630.02398322103
55.39736 664.943949101403
55.41747 662.043270265406
55.43759 651.975648514281
55.4577 708
55.47781 607.967620040114
55.49793 605.975280890383
55.51804 565.004122066323
55.53815 580.172400130679
55.55827 466.031788570686
55.57838 548.939578875588
55.5985 531
55.61861 540.008856261206
55.63872 531.958273586183
55.65884 496.035751999627
55.67895 546.963092131946
55.69906 507.088437920162
55.71918 512.93954214733
55.73929 573.000431528652
55.75941 519.982056651576
55.77952 526.004296292934
55.79963 508.978652219188
55.81975 506.98996937129
55.83986 489.058356358873
55.85997 471.975372913201
55.88009 511.984062846674
55.9002 510
55.92031 488.009241324218
55.94043 529.019950088393
55.96054 501.939500743419
55.98066 497.969637938748
56.00077 505.032035536276
56.02088 474.001197265427
56.041 499
56.06111 474.985994454973
56.08122 471.020499846758
56.10134 502.053364623235
56.12145 505.064320400639
56.14157 478.988660938247
56.16168 509.989836392135
56.18179 488.010603792339
56.20191 495.014948654197
56.22202 523.006073303226
56.24213 503.958796104537
56.26225 490.013409800651
56.28236 499.017663934568
56.30248 470.029710613125
56.32259 461.991391303973
56.3427 493
56.36282 501.984452686293
56.38293 480.99534012387
56.40304 502.056340152348
56.42316 514.022303880777
56.44327 495.006929486346
56.46338 492.036131265572
56.4835 450
56.50361 525.037273009454
56.52373 539.932848567684
56.54384 475.915988761924
56.56395 466.019480092412
56.58407 461.952462495193
56.60418 505.002789138371
56.62429 462.010135592736
56.64441 489.018015530611
56.66452 496.980498460279
56.68464 471.982364649865
56.70475 488.070440854889
56.72486 498.052487658596
56.74498 467.982987240934
56.76509 512.000119641661
56.7852 475
56.80532 521.007159119261
56.82543 472.94008773188
56.84554 484.084972756067
56.86566 504.074878586519
56.88577 447.005045360592
56.90589 498.982279226838
56.926 476
56.94611 446.006911456795
56.96623 490.057627074982
56.98634 497.974996760275
57.00645 485.008211965508
57.02657 482.032983139324
57.04668 451.010122462689
57.0668 471
57.08691 497.014696059924
57.10702 522.005157106601
57.12714 505.953448968456
57.14725 500.936968863698
57.16736 532.99394247875
57.18748 503.030979985229
57.20759 496.993285921696
57.22771 500.985605721567
57.24782 446.952390955973
57.26793 444.073926696063
57.28805 504.051987585651
57.30816 479.056084946096
57.32827 488.930128915868
57.34839 521.016569671034
57.3685 460
57.38861 522.018891702829
57.40873 497.943819326906
57.42884 483.99750706954
57.44896 490.95708787026
57.46907 508.019522960796
57.48918 467.040774935933
57.5093 462
57.52941 511.008479423975
57.54952 501.009728287363
57.56964 530.001844851083
57.58975 497.062871193988
57.60987 501.975703046754
57.62998 505.015814522371
57.65009 489.994338954953
57.67021 508.991173985101
57.69032 463.98156732913
57.71043 481.011997571613
57.73055 476.055472717655
57.75066 513.996763410584
57.77078 479.019907524548
57.79089 490.995357953084
57.811 492
57.83112 518.987893385153
57.85123 475.968289778667
57.87134 477.94896410219
57.89146 442.95030916868
57.91157 509.96724627772
57.93168 480.001318814455
57.9518 523
57.97191 492.97599404157
57.99203 470.017890024554
58.01214 497.024861823686
58.03225 492.982733174332
58.05237 498.055750341847
58.07248 442.010189747916
58.09259 485.979089805618
58.11271 488.991606139722
58.13282 469.97759175606
58.15294 461.045836952154
58.17305 503.073819160208
58.19316 498.061179612917
58.21328 468.011665333308
58.23339 485.979343516338
58.2535 518
58.27362 475.946452185331
58.29373 447.010167022254
58.31385 470.0217647039
58.33396 457.023513679367
58.35407 467.951501617756
58.37419 503.988713351073
58.3943 492
58.41441 440.996621010922
58.43453 472.027548843676
58.45464 461.991461894304
58.47475 472.003303947217
58.49487 464.972191684445
58.51498 496.998380953024
58.5351 468
58.55521 481.007041702718
58.57532 469.965412663407
58.59544 446.039677765721
58.61555 491.948457352764
58.63566 479.008108082042
58.65578 500.977730146781
58.67589 497.015640972296
58.69601 475.012684893055
58.71612 518.995543656687
58.73623 462.934499464486
58.75635 464.038100172541
58.77646 470.986998227256
58.79657 488.950217008532
58.81669 506.017432018917
58.8368 449
58.85691 493.024019539723
58.87703 489.914562527503
58.89714 450.102802332573
58.91726 537.017563714576
58.93737 451.020860480963
58.95748 518.989993185029
58.9776 458
58.99771 526.015045553541
59.01782 483.961802724763
59.03794 478.965050022144
59.05805 459.909088649192
59.07817 531.954980152244
59.09828 501.033654585084
59.11839 503.989509600156
59.13851 525.01065997999
59.15862 535.989231090772
59.17873 523.023614978085
59.19885 543.929354022629
59.21896 487.019986571851
59.23908 531.967285141315
59.25919 518.014132617246
59.2793 514
59.29942 546.005150429153
59.31953 523.973618280469
59.33964 540.095006569878
59.35976 578.022953529049
59.37987 536.020857630721
59.39998 563.974985153111
59.4201 553
59.44021 541.023907537341
59.46033 602.989962400288
59.48044 517.819156452695
59.50055 496.869860430638
59.52067 566.956979982335
59.54078 556.987349251335
59.56089 588.008362473904
59.58101 523.977963269826
59.60112 535.035030546573
59.62124 559.016810309836
59.64135 573.111892426456
59.66146 619.017108064186
59.68158 558.055595375674
59.70169 564.965160324553
59.7218 657
59.74192 694.026526179077
59.76203 731.063957780863
59.78215 773.096875956871
59.80226 812.907009047227
59.82237 897.778558352718
59.84249 1058.95158079642
59.8626 1124
59.88271 1320.061536479
59.90283 1340.01864336377
59.92294 1371.96525575634
59.94305 1293.20605186371
59.96317 1211.19907213622
59.98328 1038.14751715522
60.0034 948
60.02351 921.024096068479
60.04362 998.019060200155
60.06374 951.935546978745
60.08385 966.956694095536
60.10396 932.192904219672
60.12408 803.120439636709
60.14419 710.042258735305
60.16431 622.960590450705
60.18442 560.955074780001
60.20453 534.993915649422
60.22465 533.951542435327
60.24476 516.944447946257
60.26487 547.07915556206
60.28499 448.01096789077
60.3051 517
60.32522 497.967870642019
60.34533 482.964494004402
60.36544 460.026715393386
60.38556 494.988277209366
60.40567 466.028670941525
60.42578 483.962410112933
60.4459 503
60.46601 471.003599638423
60.48612 497.977224697959
60.50624 434.952489121374
60.52635 465.944435582156
60.54647 461.976776512169
60.56658 484.030523747576
60.58669 420.009238035265
60.60681 472.034226884501
60.62692 490.956391918274
60.64703 433.9885903999
60.66715 473.051713175065
60.68726 454.030975397179
60.70738 455.012484134653
60.72749 428.006064366831
60.7476 449
60.76772 479.995093690053
60.78783 455.995998257867
60.80794 484.055527130478
60.82806 487.03173614523
60.84817 468.018216382506
60.86828 460.016204752811
60.8884 447
60.90851 471.99733695386
60.92863 441.988007877144
60.94874 468.051334940391
60.96885 456.131496268408
60.98897 420.93318335718
61.00908 506.973915122678
61.02919 459.017537143454
61.04931 463.992888539649
61.06942 431.008278892961
61.08954 482.07010758238
61.10965 479.993444207822
61.12976 481.054827173743
61.14988 447.983096249058
61.16999 495.997832116108
61.1901 448
61.21022 460.0247078713
61.23033 467.992337457831
61.25045 471.07148009869
61.27056 520.903089506851
61.29067 532.061182523657
61.31079 470.018567244902
61.3309 469
61.35101 469.014619840942
61.37113 510.006293690491
61.39124 487.014815620064
61.41135 533.90650659379
61.43147 530.043292566727
61.45158 510.990459858859
61.4717 544
61.49181 549.98877204068
61.51192 507.949985320395
61.53204 486.063245041908
61.55215 544.916180756167
61.57226 536.033735147867
61.59238 526.022761891015
61.61249 505.990798531378
61.63261 560.02525374955
61.65272 558.93758557734
61.67283 492.998565738053
61.69295 550.099664571437
61.71306 535.066406987591
61.73317 509.044215213319
61.75329 504.969221700765
61.7734 592
61.79352 557.973386002767
61.81363 578.051193315191
61.83374 581.92320543756
61.85386 534.023047238584
61.87397 562.957704202445
61.89408 558.029520422773
61.9142 529
61.93431 536.004893566294
61.95442 530.978259744529
61.97454 509.999121134552
61.99465 542.852790474306
62.01477 588.999494087004
62.03488 556.021066176615
62.05499 568.987938789074
62.07511 579.998088396301
62.09522 565.982190779088
62.11533 578.103825950518
62.13545 653.00192294468
62.15556 592.060945826209
62.17568 628.950316081696
62.19579 645.005060546342
62.2159 630
62.23602 620.962982584366
62.25613 580.00732399346
62.27624 622.041657408087
62.29636 615.961783044785
62.31647 645.043073791892
62.33659 581.004100897812
62.3567 627
62.37681 583.993193152318
62.39693 602.962744072018
62.41704 536.944471621069
62.43715 569.907012534501
62.45727 571.029274930148
62.47738 554.006749499568
62.49749 554.00214361702
62.51761 535.985087419128
62.53772 517.013180305589
62.55784 547.020068930001
62.57795 520.895597749148
62.59806 505.930780832821
62.61818 544.027868843758
62.63829 472.012151436087
62.6584 517
62.67852 517.984189817733
62.69863 511.001556642099
62.71875 515.00685671319
62.73886 514.006107865677
62.75897 505.030524869714
62.77909 482.005490030424
62.7992 482
62.81931 461.984458441419
62.83943 443.018584355298
62.85954 477.053051713056
62.87965 488.953646554031
62.89977 503.035044001991
62.91988 461.008408886121
62.94 494
62.96011 501.004073851708
62.98022 498.952406382444
63.00034 441.006147969158
63.02045 508.838431691999
63.04056 513.093945739065
63.06068 456.03449393904
63.08079 461.983714691552
63.10091 482.992349459636
63.12102 460.02263443416
63.14113 509.003840490652
63.16125 446.819545679876
63.18136 431.887185084715
63.20147 509.947729828343
63.22159 504.98873140813
63.2417 555
63.26182 512.964144065369
63.28193 504.977580953292
63.30204 475.970176725103
63.32216 485.964383531782
63.34227 493.008387548889
63.36238 490.980451849412
63.3825 518
63.40261 486.980460002356
63.42272 468.005236414235
63.44284 494.078322403456
63.46295 521.009761568797
63.48307 495.031125450395
63.50318 495.987792235793
63.52329 506.996154083533
63.54341 505.993438811921
63.56352 498.017949991428
63.58363 536.04650344414
63.60375 536.93561905289
63.62386 505.040559742256
63.64398 498.009199011362
63.66409 479.0102628921
63.6842 467
63.70432 478.022469661461
63.72443 492.983411087054
63.74454 479.049315504328
63.76466 530.949157854884
63.78477 521.002132722032
63.80489 545.987550100748
63.825 549
63.84511 535.000388510692
63.86523 561.071126929496
63.88534 600.007159287414
63.90545 581.005125094426
63.92557 616.917131699994
63.94568 654.998128321934
63.96579 638.998436534781
63.98591 670.015162760335
64.00602 687.018786688724
64.02614 695.944133675305
64.04625 641.895628622251
64.06636 629.009470927372
64.08648 624.989730381822
64.10659 624.025654584055
64.1267 568
64.14682 646.016980292925
64.16693 588.953941138418
64.18705 620.07160984023
64.20716 595.131347215861
64.22727 535.029252653865
64.24739 553.989539536078
64.2675 560
64.28761 575.000079109341
64.30773 544.916132896603
64.32784 495.975296756381
64.34796 515.96262874822
64.36807 521.977332405424
64.38818 542.998607471275
64.4083 526
64.42841 524.989667615472
64.44852 494.998703732551
64.46864 521.028097393696
64.48875 498.114166247618
64.50886 468.972917429558
64.52898 513.961215126086
64.54909 521.006708221308
64.56921 494.979107841587
64.58932 462.004465462485
64.60943 498.049610771273
64.62955 502.96361436131
64.64966 479.062631519258
64.66977 462.968990386926
64.68989 492.006429560478
64.71 461
64.73012 522.00275003802
64.75023 461.949997656873
64.77034 484.035130582865
64.79046 464.06142029401
64.81057 456.962888141552
64.83068 484.008748988546
64.8508 456
64.87091 489.998336472722
64.89102 435.945953795981
64.91114 442.153073214297
64.93125 520.004556093902
64.95137 448.077554920058
64.97148 459.970699084409
64.99159 472.995463359632
65.01171 479.997053604052
65.03182 462.984609924864
65.05193 458.002745567827
65.07205 456.975385541638
65.09216 443.014239955317
65.11228 452.97351259901
65.13239 482.989757216824
65.1525 473
65.17262 430.01622852479
65.19273 483.020867997533
65.21284 449.974859617165
65.23296 474.975336410206
65.25307 461.00600169719
65.27319 482.986295343658
65.2933 485
65.31341 441.993189003301
65.33353 462.029922736549
65.35364 459.974790310404
65.37375 451.005757656695
65.39387 459.967176347253
65.41398 476.010663981471
65.43409 442.016402086126
65.45421 438.014231328913
65.47432 472.00850932409
65.49444 451.958278367941
65.51455 459.090897900549
65.53466 494.992837306927
65.55478 469.021139292418
65.57489 459.013246653222
65.595 439
65.61512 511.031186189244
65.63523 485.966367740695
65.65535 489.989893175421
65.67546 458.089279532195
65.69557 438.954076386426
65.71569 503.970464826024
65.7358 517
65.75591 463.978946653061
65.77603 464.066671603399
65.79614 502.961625724613
65.81626 449.024334838008
65.83637 488.960378112428
65.85648 480.997785918445
65.8766 506
65.89671 494.989012063621
65.91682 483.003901593187
65.93694 497.024803506341
65.95705 503.977417341456
65.97716 500.07927979935
65.99728 452.005348503268
66.01739 490.98302931749
66.03751 476.972103343501
66.05762 421.983291650278
66.07773 448.054460604869
66.09785 473.059215559584
66.11796 502.934607168975
66.13807 518.030727353402
66.15819 470.024479508946
66.1783 458
66.19842 511.022272911815
66.21853 494.975793701496
66.23864 487.947349463437
66.25876 455.989499212758
66.27887 491.973740429405
66.29898 474.021329447071
66.3191 479
66.33921 495.98548204569
66.35933 447.991914011111
66.37944 490.06627204446
66.39955 487.026950374206
66.41967 485.007655958869
66.43978 472.013548224947
66.45989 463.003189449166
66.48001 455.995646749138
66.50012 442.981490522509
66.52023 439.048082254418
66.54035 480.00213474652
66.56046 445.035067989492
66.58058 458.993268793242
66.60069 442.009156552587
66.6208 433
66.64092 427.017915377671
66.66103 472.084008592008
66.68114 510.011495357816
66.70126 479.115501725403
66.72137 427.033247762885
66.74149 441.98216062214
66.7616 475
66.78171 468.977154758111
66.80183 427.025351200178
66.82194 484.046603257223
66.84205 450.103001597473
66.86217 433.015956767929
66.88228 428.979012629845
66.90239 458.997912411557
66.92251 440.999118270808
66.94262 470.035835881449
66.96274 477.93745664839
66.98285 444.028631205211
67.00296 488.963672921359
67.02308 453.05743023782
67.04319 427.985220652147
67.0633 484
67.08342 467.963531766793
67.10353 441.983475178248
67.12365 461.14971859007
67.14376 511.045501670666
67.16387 430.092662363292
67.18399 442.966726860253
67.2041 492
67.22421 433.992402560946
67.24433 484.084915773309
67.26444 496.953021920715
67.28456 475.97303570609
67.30467 517.951438937852
67.32478 519.014470199669
67.3449 499
67.36501 474.00236552071
67.38512 500.015264887534
67.40524 487.951728453318
67.42535 485.901667123833
67.44546 542.938290355475
67.46558 533.022070164122
67.48569 512.017512315635
67.50581 496.025910489121
67.52592 591.063703883361
67.54603 592.973889859076
67.56615 602.097187746182
67.58626 658.883388018052
67.60637 713.907771994114
67.62649 784.964099542488
67.6466 865
67.66672 973.08115756675
67.68683 1006.99540291326
67.70694 990.969291558292
67.72706 984.008127862414
67.74717 945.158125324839
67.76728 793.143883130793
67.7874 713
67.80751 742.019149128794
67.82763 750.957716786018
67.84774 718.005374813253
67.86785 776.764255575702
67.88797 842.015525619647
67.90808 792.007562273925
67.92819 818.015640628285
67.94831 725.967950185426
67.96842 735.040210286784
67.98853 779.092295048407
68.00865 847.120163100378
68.02876 889.846811140731
68.04888 1005.88075167811
68.06899 1123.9275655642
68.0891 1245
68.10922 1173.94596629939
68.12933 1157.91314256312
68.14944 1053.85409385808
68.16956 1018.13465216745
68.18967 938.004821927562
68.20979 1022.95282113601
68.2299 1074
68.25001 1120.0343367991
68.27013 1183.02846685917
68.29024 1141.84116633619
68.31035 1046.27247365832
68.33047 926.191919480482
68.35058 805.098593620829
68.3707 738
68.39081 711.988484826355
68.41092 695.0027883179
68.43104 712.023915767116
68.45115 711.999995826461
68.47126 700.094931546474
68.49138 635.039669432906
68.51149 628.004456652541
68.5316 586
68.55172 523.982322419263
68.57183 536.993396005167
68.59195 502.930987234919
68.61206 502.973115207087
68.63217 509.012175505662
68.65229 491.008337934428
68.6724 482
68.69251 480.00346029144
68.71263 487.993983202512
68.73274 485.048025791416
68.75286 507.070613827701
68.77297 439.030263609499
68.79308 480.96207067924
68.8132 484
68.83331 490.990233892627
68.85342 448.970711114956
68.87354 455.058814719572
68.89365 476.019629573227
68.91376 459.966533158654
68.93388 496.996772286727
68.95399 470.998325497899
68.97411 500.997590810851
68.99422 456.97397350187
69.01433 472.033850780042
69.03445 473.965996719592
69.05456 456.031528377398
69.07467 454.969826622779
69.09479 477.001083894248
69.1149 460
69.13502 486.014857794492
69.15513 476.98143776352
69.17524 477.015679013325
69.19536 475.049635388856
69.21547 449.983694888681
69.23558 489.974186344718
69.2557 476
69.27581 456.009176773477
69.29593 505.074434324375
69.31604 523.971858594497
69.33615 496.05002836857
69.35627 503.948135544139
69.37638 515.0616803528
69.39649 430.00419543122
69.41661 491.011651466892
69.43672 449.974601891693
69.45683 466.005806215699
69.47695 448.00952718898
69.49706 481.943100356656
69.51718 477.031244776152
69.53729 440.014348930589
69.5574 439
69.57752 471.993815161122
69.59763 462.091082963247
69.61774 537.921223894781
69.63786 407.132710906147
69.65797 456.904069537172
69.67809 469.002152128593
69.6982 466
69.71831 438.996941500167
69.73843 460.039614164507
69.75854 482.057605431636
69.77865 508.989035396566
69.79877 487.047372646804
69.81888 464.012334025
69.839 459
69.85911 461.007135866601
69.87922 483.017301471827
69.89934 474.916345017439
69.91945 434.009010799208
69.93956 469.97508296959
69.95968 454.990908074543
69.97979 493.988648743427
69.9999 478
70.02002 460.000647773436
70.04013 479.047544794382
70.06025 497.964836333188
70.08036 470.004532863406
70.10047 498.960609313514
70.12059 490.021484821301
70.1407 446
70.16081 468.013593830632
70.18093 479.00326840038
70.20104 473.96389993262
70.22116 446.05629661645
70.24127 431.991625700284
70.26138 450.979414088594
70.2815 460
70.30161 455.004373194344
70.32172 477.020142022391
70.34184 483.994375815894
70.36195 480.992436477838
70.38207 478.040747930494
70.40218 437.025528453662
70.42229 442.987656972912
70.44241 455.991710653295
70.46252 428.999803917954
70.48263 456.026286152717
70.50275 449.981570643594
70.52286 451.999892605267
70.54297 443.020515136379
70.56309 438.992069231457
70.5832 460
70.60332 442.992428663013
70.62343 452.008395887103
70.64354 438.946242660949
70.66366 420.981013033311
70.68377 444.989501524312
70.70388 429.013439586453
70.724 428
70.74411 420.001331030507
70.76423 436.025938849311
70.78434 441.987526569208
70.80445 433.00316748182
70.82457 440.987474916888
70.84468 441.00823896019
70.86479 425.011553523951
70.88491 415.011551491494
70.90502 463.044204942228
70.92513 471.955094961242
70.94525 427.927217172528
70.96536 430.951825130993
70.98548 453.989568549691
71.00559 446.01047945477
71.0257 429
71.04582 439.004781355693
71.06593 431.986409544371
71.08604 431.015242360121
71.10616 440.989291019066
71.12627 441.994470473137
71.14639 450.995141405603
71.1665 454
71.18661 443.99818114418
71.20673 450.014068756008
71.22684 453.991883636662
71.24695 441.049607899323
71.26707 429.982104496313
71.28718 458.97433144062
71.3073 453
71.32741 397.987970663321
71.34752 420.043774823727
71.36764 457.050144100396
71.38775 462.046868586095
71.40786 440.001779536118
71.42798 457.989891734253
71.44809 445.012285506838
71.4682 436
71.48832 470.008982018801
71.50843 453.992638209679
71.52855 467.004534438281
71.54866 440.087713520771
71.56877 416.963151761044
71.58889 471.979642562293
71.609 460
71.62911 407.000790999081
71.64923 456.061354805844
71.66934 456.967492592076
71.68946 450.981683485549
71.70957 462.00804321981
71.72968 448.993559818441
71.7498 476
71.76991 470.987069948938
71.79002 451.007571856263
71.81014 466.967349758232
71.83025 439.937894446164
71.85037 506.945695391811
71.87048 485.035027192244
71.89059 469.004748458131
71.91071 461.000681216309
71.93082 472.013034117256
71.95093 464.937532491577
71.97105 421.003091004326
71.99116 469.897268349529
72.01127 494.979273980172
72.03139 506.998061489961
72.0515 494
72.07162 473.023869158429
72.09173 509.977063348416
72.11184 449.936435459131
72.13196 472.936342470678
72.15207 470.053726190949
72.17218 440.983906064326
72.1923 480
72.21241 436.983941085748
72.23253 449.052587443622
72.25264 476.016580551279
72.27275 475.969466004002
72.29287 493.00981179135
72.31298 460.03360765941
72.33309 454.98625015868
72.35321 482.996066504547
72.37332 458.012854517399
72.39344 496.996719457746
72.41355 442.870786974456
72.43366 439.923446932946
72.45378 482.981880907553
72.47389 469.012022076991
72.494 453
72.51412 447.004239673512
72.53423 463.036635625315
72.55434 479.993106597104
72.57446 455.068487052576
72.59457 432.003914659639
72.61469 445.991179000795
72.6348 444
72.65491 414.007767949039
72.67503 467.058132340314
72.69514 455.908870397149
72.71525 421.976650416778
72.73537 463.951611895745
72.75548 467.003938943522
72.7756 457
72.79571 419.005109725671
72.81582 456.996587559793
72.83594 413.976634446652
72.85605 449.927352673998
72.87616 454.964586862471
72.89628 472.034355800536
72.91639 406.013150059109
72.9365 442
72.95662 461.993842130896
72.97673 443.970960876882
72.99685 424.932845484895
73.01696 409.94933461507
73.03707 454.977232322866
73.05719 448.984670879929
73.0773 510
73.09741 479.978328643948
73.11753 466.023749460057
73.13764 499.073806072259
73.15776 507.082040935087
73.17787 449.033205409187
73.19798 471.975256214487
73.2181 469
73.23821 451.992005981618
73.25832 465.069201992566
73.27844 544.027728774449
73.29855 487.146597313805
73.31867 489.910511188763
73.33878 570.929685293758
73.35889 599.00771775233
73.37901 579.007737275188
73.39912 639.073094372771
73.41923 675.972336572971
73.43935 629.933783786825
73.45946 634.001498024924
73.47957 600.089727615344
73.49969 547.009757633914
73.5198 549
73.53992 511.972845792196
73.56003 519.050561932601
73.58014 555.041546013895
73.60026 554.024745308301
73.62037 550.974970438883
73.64048 559.039538901466
73.6606 495
73.68071 524.018356116004
73.70083 521.938513704416
73.72094 476.973665677202
73.74105 491.989627383957
73.76117 476.009473920141
73.78128 482.008805542442
73.80139 450.017986597608
73.82151 446.022640498608
73.84162 497.998144845666
73.86174 446.929730605783
73.88185 456.043690582105
73.90196 458.003909475837
73.92208 459.997833008913
73.94219 453.010814772718
73.9623 428
73.98242 437.018386797278
74.00253 442.973449294647
74.02264 414.973224310434
74.04276 434.905804596839
74.06287 461.056718657099
74.08299 394.008853266674
74.1031 432
74.12321 416.999209917383
74.14333 438.003436085612
74.16344 418.996347398727
74.18355 447.913601615699
74.20367 453.052601970394
74.22378 417.983591870376
74.2439 462
74.26401 404.980424661361
74.28412 420.035421480944
74.30424 435.979858611488
74.32435 425.943377561054
74.34446 465.982109841271
74.36458 441.013243137434
74.38469 449.003381703885
74.40481 420.990329124417
74.42492 423.006607391624
74.44503 433.043132340877
74.46515 466.016959918612
74.48526 444.046017392897
74.50537 436.006273125664
74.52549 430.001033208016
74.5456 434
74.56571 433.994057424456
74.58583 419.998931887882
74.60594 436.041701942403
74.62606 447.998477256002
74.64617 440.018162144139
74.66628 427.014988292817
74.6864 421
74.70651 450.011102818947
74.72662 449.982320973489
74.74674 430.983546769982
74.76685 446.896547685593
74.78697 483.998969100156
74.80708 454.022940967086
74.82719 452.00225402768
74.84731 445.007068634464
74.86742 471.004723388266
74.88753 439.927779396088
74.90765 415.052054104481
74.92776 454.98091972384
74.94787 425.04406886382
74.96799 423.992322933829
74.9881 438
75.00822 435.993664974449
