3.00117 19930
3.02128 18918
3.0414 18727
3.06151 18480
3.08162 17837
3.10174 17456
3.12185 16353
3.14197 16309
3.16208 15647
3.18219 15108
3.20231 14935
3.22242 14499
3.24253 14022
3.26265 13447
3.28276 12811
3.30288 12714
3.32299 12021
3.3431 11720
3.36322 11420
3.38333 10923
3.40344 10765
3.42356 10099
3.44367 9917
3.46379 9407
3.4839 9066
3.50401 8768
3.52413 8394
3.54424 8426
3.56435 7954
3.58447 7604
3.60458 7421
3.62469 7063
3.64481 6984
3.66492 6423
3.68504 6203
3.70515 6183
3.72526 5804
3.74538 5531
3.76549 5415
3.7856 5003
3.80572 4812
3.82583 4568
3.84595 4552
3.86606 4312
3.88617 4046
3.90629 3982
3.9264 3578
3.94651 3656
3.96663 3384
3.98674 3101
4.00686 3066
4.02697 3001
4.04708 2830
4.0672 2771
4.08731 2460
4.10742 2381
4.12754 2302
4.14765 2247
4.16776 2150
4.18788 1932
4.20799 1901
4.22811 1863
4.24822 1847
4.26833 1969
4.28845 1692
4.30856 1571
4.32867 1527
4.34879 1578
4.3689 1609
4.38902 1322
4.40913 1404
4.42924 1372
4.44936 1247
4.46947 1413
4.48958 1161
4.5097 1283
4.52981 1147
4.54992 1205
4.57004 1183
4.59015 1077
4.61027 1132
4.63038 1044
4.65049 1020
4.67061 1085
4.69072 886
4.71083 932
4.73095 900
4.75106 879
4.77118 901
4.79129 753
4.8114 799
4.83152 790
4.85163 778
4.87174 793
4.89186 667
4.91197 704
4.93209 743
4.9522 650
4.97231 679
4.99243 639
5.01254 615
5.03265 588
5.05277 601
5.07288 647
5.09299 594
5.11311 562
5.13322 525
5.15334 606
5.17345 543
5.19356 516
5.21368 525
5.23379 478
5.2539 471
5.27402 489
5.29413 427
5.31425 426
5.33436 421
5.35447 398
5.37459 421
5.3947 405
5.41481 400
5.43493 376
5.45504 361
5.47516 406
5.49527 349
5.51538 346
5.5355 341
5.55561 335
5.57572 328
5.59584 289
5.61595 310
5.63606 289
5.65618 348
5.67629 303
5.69641 302
5.71652 246
5.73663 246
5.75675 301
5.77686 246
5.79697 240
5.81709 204
5.8372 257
5.85732 253
5.87743 242
5.89754 264
5.91766 238
5.93777 226
5.95788 258
5.978 247
5.99811 250
6.01823 204
6.03834 216
6.05845 243
6.07857 193
6.09868 240
6.11879 201
6.13891 224
6.15902 207
6.17913 206
6.19925 203
6.21936 209
6.23948 209
6.25959 199
6.2797 207
6.29982 225
6.31993 220
6.34004 214
6.36016 193
6.38027 173
6.40039 196
6.4205 186
6.44061 199
6.46073 168
6.48084 189
6.50095 183
6.52107 181
6.54118 167
6.56129 205
6.58141 175
6.60152 172
6.62164 196
6.64175 186
6.66186 188
6.68198 185
6.70209 182
6.7222 170
6.74232 174
6.76243 189
6.78255 192
6.80266 186
6.82277 181
6.84289 165
6.863 174
6.88311 180
6.90323 178
6.92334 176
6.94346 170
6.96357 184
6.98368 159
7.0038 177
7.02391 182
7.04402 199
7.06414 171
7.08425 171
7.10436 177
7.12448 177
7.14459 173
7.16471 189
7.18482 183
7.20493 182
7.22505 195
7.24516 209
7.26527 159
7.28539 161
7.3055 195
7.32562 201
7.34573 213
7.36584 169
7.38596 188
7.40607 171
7.42618 173
7.4463 211
7.46641 197
7.48653 169
7.50664 183
7.52675 189
7.54687 209
7.56698 178
7.58709 171
7.60721 196
7.62732 220
7.64743 182
7.66755 214
7.68766 171
7.70778 173
7.72789 168
7.748 174
7.76812 215
7.78823 214
7.80834 179
7.82846 217
7.84857 180
7.86869 210
7.8888 217
7.90891 187
7.92903 207
7.94914 206
7.96925 205
7.98937 171
8.00948 177
8.0296 210
8.04971 185
8.06982 202
8.08994 194
8.11005 186
8.13016 184
8.15028 200
8.17039 212
8.1905 178
8.21062 178
8.23073 194
8.25085 176
8.27096 170
8.29107 204
8.31119 192
8.3313 203
8.35141 194
8.37153 218
8.39164 195
8.41176 208
8.43187 227
8.45198 179
8.4721 204
8.49221 217
8.51232 252
8.53244 222
8.55255 205
8.57266 229
8.59278 213
8.61289 182
8.63301 183
8.65312 213
8.67323 221
8.69335 216
8.71346 229
8.73357 207
8.75369 219
8.7738 213
8.79392 213
8.81403 221
8.83414 224
8.85426 201
8.87437 203
8.89448 226
8.9146 209
8.93471 202
8.95483 218
8.97494 211
8.99505 181
9.01517 212
9.03528 230
9.05539 195
9.07551 206
9.09562 212
9.11573 198
9.13585 228
9.15596 216
9.17608 200
9.19619 216
9.2163 241
9.23642 242
9.25653 194
9.27664 189
9.29676 204
9.31687 213
9.33699 227
9.3571 236
9.37721 209
9.39733 217
9.41744 231
9.43755 226
9.45767 229
9.47778 218
9.4979 230
9.51801 199
9.53812 212
9.55824 229
9.57835 209
9.59846 195
9.61858 215
9.63869 226
9.6588 192
9.67892 205
9.69903 224
9.71915 182
9.73926 250
9.75937 197
9.77949 211
9.7996 225
9.81971 209
9.83983 219
9.85994 198
9.88006 227
9.90017 218
9.92028 212
9.9404 214
9.96051 203
9.98062 198
10.00074 201
10.02085 200
10.04097 222
10.06108 205
10.08119 214
10.10131 224
10.12142 182
10.14153 206
10.16165 201
10.18176 199
10.20187 240
10.22199 238
10.2421 224
10.26222 198
10.28233 191
10.30244 180
10.32256 216
10.34267 198
10.36278 209
10.3829 224
10.40301 218
10.42313 188
10.44324 206
10.46335 201
10.48347 229
10.50358 183
10.52369 228
10.54381 212
10.56392 202
10.58403 216
10.60415 222
10.62426 216
10.64438 246
10.66449 219
10.6846 205
10.70472 205
10.72483 206
10.74494 223
10.76506 235
10.78517 192
10.80529 180
10.8254 179
10.84551 222
10.86563 230
10.88574 206
10.90585 225
10.92597 190
10.94608 206
10.9662 228
10.98631 190
11.00642 240
11.02654 235
11.04665 193
11.06676 223
11.08688 196
11.10699 209
11.1271 195
11.14722 195
11.16733 254
11.18745 217
11.20756 194
11.22767 216
11.24779 236
11.2679 221
11.28801 193
11.30813 220
11.32824 200
11.34836 232
11.36847 225
11.38858 186
11.4087 202
11.42881 217
11.44892 213
11.46904 219
11.48915 225
11.50927 208
11.52938 218
11.54949 224
11.56961 213
11.58972 231
11.60983 238
11.62995 210
11.65006 214
11.67017 216
11.69029 242
11.7104 206
11.73052 214
11.75063 200
11.77074 233
11.79086 201
11.81097 194
11.83108 210
11.8512 211
11.87131 213
11.89143 204
11.91154 205
11.93165 188
11.95177 192
11.97188 213
11.99199 204
12.01211 221
12.03222 224
12.05234 217
12.07245 193
12.09256 197
12.11268 204
12.13279 226
12.1529 219
12.17302 179
12.19313 204
12.21324 234
12.23336 204
12.25347 223
12.27359 204
12.2937 214
12.31381 212
12.33393 201
12.35404 210
12.37415 225
12.39427 206
12.41438 216
12.4345 208
12.45461 218
12.47472 214
12.49484 180
12.51495 224
12.53506 197
12.55518 216
12.57529 211
12.5954 204
12.61552 213
12.63563 189
12.65575 168
12.67586 207
12.69597 207
12.71609 193
12.7362 214
12.75631 211
12.77643 202
12.79654 181
12.81666 189
12.83677 205
12.85688 188
12.877 204
12.89711 193
12.91722 216
12.93734 211
12.95745 207
12.97757 213
12.99768 198
13.01779 212
13.03791 178
13.05802 200
13.07813 179
13.09825 202
13.11836 201
13.13847 178
13.15859 213
13.1787 195
13.19882 180
13.21893 170
13.23904 209
13.25916 183
13.27927 225
13.29938 205
13.3195 208
13.33961 213
13.35973 177
13.37984 208
13.39995 174
13.42007 205
13.44018 201
13.46029 233
13.48041 211
13.50052 198
13.52064 200
13.54075 195
13.56086 199
13.58098 189
13.60109 197
13.6212 217
13.64132 202
13.66143 223
13.68154 197
13.70166 182
13.72177 181
13.74189 183
13.762 209
13.78211 194
13.80223 197
13.82234 198
13.84245 188
13.86257 184
13.88268 164
13.9028 182
13.92291 195
13.94302 174
13.96314 154
13.98325 149
14.00336 155
14.02348 196
14.04359 209
14.06371 191
14.08382 181
14.10393 176
14.12405 189
14.14416 196
14.16427 204
14.18439 170
14.2045 179
14.22461 190
14.24473 198
14.26484 194
14.28496 176
14.30507 192
14.32518 188
14.3453 161
14.36541 191
14.38552 167
14.40564 204
14.42575 150
14.44587 178
14.46598 185
14.48609 168
14.50621 168
14.52632 181
14.54643 190
14.56655 135
14.58666 173
14.60677 181
14.62689 182
14.647 183
14.66712 195
14.68723 173
14.70734 164
14.72746 149
14.74757 191
14.76768 159
14.7878 216
14.80791 186
14.82803 161
14.84814 187
14.86825 166
14.88837 182
14.90848 196
14.92859 199
14.94871 166
14.96882 200
14.98894 193
15.00905 155
15.02916 161
15.04928 151
15.06939 156
15.0895 195
15.10962 194
15.12973 198
15.14984 191
15.16996 169
15.19007 173
15.21019 160
15.2303 190
15.25041 185
15.27053 192
15.29064 173
15.31075 165
15.33087 152
15.35098 205
15.3711 177
15.39121 142
15.41132 146
15.43144 174
15.45155 157
15.47166 176
15.49178 155
15.51189 169
15.53201 169
15.55212 178
15.57223 160
15.59235 176
15.61246 148
15.63257 148
15.65269 163
15.6728 130
15.69291 179
15.71303 165
15.73314 165
15.75326 160
15.77337 175
15.79348 128
15.8136 166
15.83371 147
15.85382 157
15.87394 148
15.89405 156
15.91417 142
15.93428 167
15.95439 161
15.97451 181
15.99462 141
16.01473 163
16.03485 181
16.05496 192
16.07508 163
16.09519 150
16.1153 173
16.13542 158
16.15553 192
16.17564 157
16.19576 161
16.21587 139
16.23598 168
16.2561 161
16.27621 178
16.29633 170
16.31644 183
16.33655 136
16.35667 156
16.37678 144
16.39689 152
16.41701 172
16.43712 162
16.45724 162
16.47735 176
16.49746 160
16.51758 160
16.53769 159
16.5578 139
16.57792 182
16.59803 160
16.61814 160
16.63826 144
16.65837 169
16.67849 166
16.6986 171
16.71871 153
16.73883 167
16.75894 159
16.77905 190
16.79917 166
16.81928 146
16.8394 153
16.85951 149
16.87962 147
16.89974 151
16.91985 148
16.93996 174
16.96008 180
16.98019 144
17.00031 167
17.02042 183
17.04053 171
17.06065 148
17.08076 169
17.10087 153
17.12099 159
17.1411 165
17.16121 165
17.18133 167
17.20144 133
17.22156 135
17.24167 153
17.26178 169
17.2819 136
17.30201 162
17.32212 157
17.34224 170
17.36235 174
17.38247 168
17.40258 169
17.42269 147
17.44281 150
17.46292 165
17.48303 151
17.50315 170
17.52326 137
17.54338 145
17.56349 143
17.5836 167
17.60372 139
17.62383 155
17.64394 162
17.66406 152
17.68417 159
17.70428 166
17.7244 185
17.74451 154
17.76463 173
17.78474 166
17.80485 163
17.82497 146
17.84508 173
17.86519 149
17.88531 165
17.90542 171
17.92554 138
17.94565 149
17.96576 182
17.98588 148
18.00599 154
18.0261 168
18.04622 129
18.06633 167
18.08645 141
18.10656 138
18.12667 155
18.14679 157
18.1669 145
18.18701 170
18.20713 144
18.22724 145
18.24735 127
18.26747 171
18.28758 145
18.3077 175
18.32781 161
18.34792 148
18.36804 170
18.38815 168
18.40826 151
18.42838 156
18.44849 174
18.46861 155
18.48872 151
18.50883 162
18.52895 151
18.54906 165
18.56917 180
18.58929 156
18.6094 150
18.62951 148
18.64963 150
18.66974 146
18.68986 157
18.70997 187
18.73008 160
18.7502 185
18.77031 181
18.79042 158
18.81054 162
18.83065 197
18.85077 160
18.87088 171
18.89099 174
18.91111 163
18.93122 134
18.95133 176
18.97145 202
18.99156 164
19.01168 161
19.03179 146
19.0519 144
19.07202 157
19.09213 142
19.11224 161
19.13236 167
19.15247 184
19.17258 172
19.1927 155
19.21281 159
19.23293 159
19.25304 181
19.27315 148
19.29327 171
19.31338 161
19.33349 142
19.35361 171
19.37372 166
19.39384 184
19.41395 186
19.43406 159
19.45418 141
19.47429 175
19.4944 180
19.51452 167
19.53463 151
19.55475 189
19.57486 177
19.59497 167
19.61509 183
19.6352 198
19.65531 173
19.67543 172
19.69554 197
19.71565 199
19.73577 182
19.75588 243
19.776 237
19.79611 220
19.81622 187
19.83634 224
19.85645 218
19.87656 251
19.89668 210
19.91679 220
19.93691 258
19.95702 235
19.97713 261
19.99725 241
20.01736 190
20.03747 212
20.05759 203
20.0777 214
20.09782 233
20.11793 248
20.13804 237
20.15816 261
20.17827 253
20.19838 260
20.2185 257
20.23861 293
20.25872 270
20.27884 262
20.29895 269
20.31907 295
20.33918 286
20.35929 280
20.37941 312
20.39952 306
20.41963 299
20.43975 330
20.45986 368
20.47998 357
20.50009 319
20.5202 357
20.54032 381
20.56043 383
20.58054 442
20.60066 474
20.62077 517
20.64088 603
20.661 775
20.68111 948
20.70123 1234
20.72134 1775
20.74145 2401
20.76157 3506
20.78168 4908
20.80179 6495
20.82191 7875
20.84202 8722
20.86214 8810
20.88225 7362
20.90236 5630
20.92248 3820
20.94259 2382
20.9627 1357
20.98282 864
21.00293 702
21.02305 624
21.04316 562
21.06327 503
21.08339 502
21.1035 409
21.12361 444
21.14373 350
21.16384 326
21.18395 297
21.20407 314
21.22418 258
21.2443 281
21.26441 276
21.28452 277
21.30464 245
21.32475 227
21.34486 257
21.36498 239
21.38509 219
21.40521 234
21.42532 265
21.44543 255
21.46555 214
21.48566 216
21.50577 196
21.52589 207
21.546 200
21.56612 236
21.58623 254
21.60634 230
21.62646 235
21.64657 245
21.66668 210
21.6868 218
21.70691 191
21.72702 211
21.74714 216
21.76725 196
21.78737 230
21.80748 198
21.82759 201
21.84771 212
21.86782 201
21.88793 226
21.90805 190
21.92816 214
21.94828 208
21.96839 186
21.9885 196
22.00862 244
22.02873 238
22.04884 207
22.06896 218
22.08907 205
22.10919 237
22.1293 220
22.14941 214
22.16953 204
22.18964 229
22.20975 219
22.22987 202
22.24998 200
22.27009 193
22.29021 217
22.31032 214
22.33044 222
22.35055 216
22.37066 233
22.39078 235
22.41089 231
22.431 187
22.45112 214
22.47123 199
22.49135 207
22.51146 218
22.53157 209
22.55169 215
22.5718 227
22.59191 189
22.61203 195
22.63214 226
22.65225 217
22.67237 176
22.69248 203
22.7126 177
22.73271 182
22.75282 212
22.77294 161
22.79305 166
22.81316 215
22.83328 195
22.85339 185
22.87351 182
22.89362 200
22.91373 171
22.93385 204
22.95396 227
22.97407 197
22.99419 215
23.0143 204
23.03442 231
23.05453 201
23.07464 214
23.09476 224
23.11487 187
23.13498 244
23.1551 221
23.17521 218
23.19532 222
23.21544 234
23.23555 238
23.25567 221
23.27578 231
23.29589 252
23.31601 230
23.33612 219
23.35623 198
23.37635 215
23.39646 208
23.41658 247
23.43669 240
23.4568 238
23.47692 189
23.49703 229
23.51714 237
23.53726 229
23.55737 233
23.57749 221
23.5976 254
23.61771 247
23.63783 221
23.65794 209
23.67805 216
23.69817 242
23.71828 215
23.73839 208
23.75851 231
23.77862 214
23.79874 235
23.81885 230
23.83896 220
23.85908 228
23.87919 201
23.8993 227
23.91942 230
23.93953 247
23.95965 269
23.97976 301
23.99987 283
24.01999 314
24.0401 281
24.06021 252
24.08033 201
24.10044 213
24.12056 218
24.14067 217
24.16078 220
24.1809 210
24.20101 191
24.22112 211
24.24124 184
24.26135 196
24.28146 171
24.30158 191
24.32169 201
24.34181 195
24.36192 179
24.38203 188
24.40215 199
24.42226 170
24.44237 174
24.46249 182
24.4826 162
24.50272 160
24.52283 196
24.54294 190
24.56306 213
24.58317 202
24.60328 218
24.6234 167
24.64351 231
24.66362 213
24.68374 205
24.70385 213
24.72397 205
24.74408 192
24.76419 205
24.78431 194
24.80442 196
24.82453 203
24.84465 190
24.86476 217
24.88488 201
24.90499 178
24.9251 189
24.94522 209
24.96533 185
24.98544 196
25.00556 176
25.02567 191
25.04579 205
25.0659 238
25.08601 193
25.10613 222
25.12624 176
25.14635 222
25.16647 213
25.18658 216
25.20669 209
25.22681 242
25.24692 201
25.26704 211
25.28715 210
25.30726 215
25.32738 215
25.34749 223
25.3676 213
25.38772 241
25.40783 245
25.42795 241
25.44806 222
25.46817 254
25.48829 262
25.5084 262
25.52851 278
25.54863 323
25.56874 322
25.58886 330
25.60897 332
25.62908 413
25.6492 378
25.66931 387
25.68942 399
25.70954 408
25.72965 428
25.74976 442
25.76988 404
25.78999 432
25.81011 404
25.83022 433
25.85033 459
25.87045 456
25.89056 434
25.91067 444
25.93079 488
25.9509 474
25.97102 495
25.99113 490
26.01124 513
26.03136 481
26.05147 519
26.07158 564
26.0917 617
26.11181 609
26.13193 678
26.15204 714
26.17215 718
26.19227 801
26.21238 892
26.23249 929
26.25261 1008
26.27272 1046
26.29283 1136
26.31295 1307
26.33306 1398
26.35318 1581
26.37329 1857
26.3934 2251
26.41352 2877
26.43363 3430
26.45374 4851
26.47386 6343
26.49397 8690
26.51409 12318
26.5342 16688
26.55431 22923
26.57443 29553
26.59454 35515
26.61465 39762
26.63477 39810
26.65488 34147
26.67499 26881
26.69511 20082
26.71522 14690
26.73534 9152
26.75545 5026
26.77556 2952
26.79568 2167
26.81579 1853
26.8359 1641
26.85602 1532
26.87613 1335
26.89625 1256
26.91636 1101
26.93647 1103
26.95659 933
26.9767 879
26.99681 849
27.01693 728
27.03704 744
27.05716 700
27.07727 701
27.09738 647
27.1175 548
27.13761 576
27.15772 513
27.17784 469
27.19795 491
27.21806 448
27.23818 487
27.25829 450
27.27841 448
27.29852 459
27.31863 480
27.33875 488
27.35886 508
27.37897 508
27.39909 570
27.4192 565
27.43932 614
27.45943 573
27.47954 571
27.49966 551
27.51977 532
27.53988 493
27.56 422
27.58011 377
27.60023 363
27.62034 332
27.64045 370
27.66057 344
27.68068 351
27.70079 358
27.72091 349
27.74102 310
27.76113 320
27.78125 285
27.80136 315
27.82148 318
27.84159 277
27.8617 288
27.88182 290
27.90193 296
27.92204 301
27.94216 274
27.96227 276
27.98239 287
28.0025 282
28.02261 292
28.04273 273
28.06284 281
28.08295 272
28.10307 274
28.12318 243
28.1433 280
28.16341 234
28.18352 251
28.20364 268
28.22375 270
28.24386 290
28.26398 244
28.28409 245
28.3042 224
28.32432 247
28.34443 236
28.36455 258
28.38466 262
28.40477 253
28.42489 243
28.445 233
28.46511 225
28.48523 229
28.50534 217
28.52546 240
28.54557 260
28.56568 244
28.5858 210
28.60591 237
28.62602 239
28.64614 254
28.66625 240
28.68636 227
28.70648 206
28.72659 214
28.74671 213
28.76682 242
28.78693 215
28.80705 227
28.82716 229
28.84727 219
28.86739 214
28.8875 230
28.90762 231
28.92773 195
28.94784 222
28.96796 209
28.98807 228
29.00818 227
29.0283 214
29.04841 212
29.06853 222
29.08864 219
29.10875 230
29.12887 209
29.14898 212
29.16909 201
29.18921 244
29.20932 187
29.22943 231
29.24955 246
29.26966 228
29.28978 223
29.30989 222
29.33 223
29.35012 243
29.37023 209
29.39034 216
29.41046 262
29.43057 222
29.45069 221
29.4708 251
29.49091 251
29.51103 220
29.53114 208
29.55125 222
29.57137 227
29.59148 230
29.6116 240
29.63171 223
29.65182 237
29.67194 248
29.69205 229
29.71216 238
29.73228 244
29.75239 224
29.7725 249
29.79262 223
29.81273 224
29.83285 224
29.85296 211
29.87307 244
29.89319 219
29.9133 231
29.93341 194
29.95353 249
29.97364 249
29.99376 246
30.01387 203
30.03398 220
30.0541 219
30.07421 232
30.09432 222
30.11444 217
30.13455 223
30.15467 237
30.17478 226
30.19489 215
30.21501 214
30.23512 215
30.25523 216
30.27535 183
30.29546 206
30.31557 191
30.33569 195
30.3558 224
30.37592 164
30.39603 153
30.41614 203
30.43626 185
30.45637 197
30.47648 157
30.4966 207
30.51671 211
30.53683 208
30.55694 169
30.57705 238
30.59717 186
30.61728 185
30.63739 210
30.65751 204
30.67762 215
30.69773 231
30.71785 255
30.73796 254
30.75808 232
30.77819 246
30.7983 231
30.81842 224
30.83853 241
30.85864 203
30.87876 194
30.89887 198
30.91899 195
30.9391 192
30.95921 195
30.97933 195
30.99944 178
31.01955 183
31.03967 178
31.05978 182
31.0799 175
31.10001 159
31.12012 194
31.14024 185
31.16035 146
31.18046 190
31.20058 170
31.22069 202
31.2408 180
31.26092 180
31.28103 169
31.30115 173
31.32126 169
31.34137 150
31.36149 169
31.3816 163
31.40171 139
31.42183 158
31.44194 158
31.46206 166
31.48217 181
31.50228 177
31.5224 163
31.54251 165
31.56262 177
31.58274 165
31.60285 177
31.62297 161
31.64308 164
31.66319 178
31.68331 181
31.70342 137
31.72353 141
31.74365 160
31.76376 155
31.78387 130
31.80399 156
31.8241 170
31.84422 165
31.86433 141
31.88444 139
31.90456 175
31.92467 174
31.94478 155
31.9649 180
31.98501 172
32.00513 146
32.02524 180
32.04535 166
32.06547 181
32.08558 179
32.10569 153
32.12581 169
32.14592 176
32.16604 197
32.18615 141
32.20626 172
32.22638 170
32.24649 153
32.2666 185
32.28672 153
32.30683 193
32.32694 188
32.34706 163
32.36717 165
32.38729 204
32.4074 179
32.42751 178
32.44763 178
32.46774 163
32.48785 157
32.50797 155
32.52808 138
32.5482 131
32.56831 142
32.58842 150
32.60854 163
32.62865 162
32.64876 148
32.66888 165
32.68899 138
32.7091 138
32.72922 154
32.74933 141
32.76945 136
32.78956 164
32.80967 174
32.82979 151
32.8499 156
32.87001 154
32.89013 165
32.91024 150
32.93036 145
32.95047 143
32.97058 157
32.9907 135
33.01081 147
33.03092 138
33.05104 128
33.07115 163
33.09127 134
33.11138 144
33.13149 153
33.15161 157
33.17172 131
33.19183 133
33.21195 151
33.23206 148
33.25217 139
33.27229 136
33.2924 148
33.31252 129
33.33263 141
33.35274 162
33.37286 146
33.39297 130
33.41308 134
33.4332 132
33.45331 171
33.47343 108
33.49354 167
33.51365 138
33.53377 163
33.55388 118
33.57399 138
33.59411 138
33.61422 134
33.63434 144
33.65445 133
33.67456 165
33.69468 149
33.71479 149
33.7349 146
33.75502 138
33.77513 154
33.79524 143
33.81536 129
33.83547 150
33.85559 132
33.8757 123
33.89581 145
33.91593 146
33.93604 146
33.95615 147
33.97627 151
33.99638 161
34.0165 155
34.03661 119
34.05672 146
34.07684 140
34.09695 149
34.11706 157
34.13718 154
34.15729 160
34.17741 163
34.19752 146
34.21763 158
34.23775 153
34.25786 146
34.27797 163
34.29809 147
34.3182 170
34.33831 150
34.35843 171
34.37854 175
34.39866 183
34.41877 155
34.43888 165
34.459 169
34.47911 163
34.49922 159
34.51934 175
34.53945 184
34.55957 162
34.57968 156
34.59979 161
34.61991 186
34.64002 183
34.66013 164
34.68025 171
34.70036 160
34.72047 184
34.74059 188
34.7607 204
34.78082 193
34.80093 209
34.82104 167
34.84116 173
34.86127 184
34.88138 173
34.9015 176
34.92161 179
34.94173 181
34.96184 184
34.98195 184
35.00207 154
35.02218 171
35.04229 173
35.06241 199
35.08252 165
35.10264 174
35.12275 168
35.14286 185
35.16298 186
35.18309 170
35.2032 175
35.22332 160
35.24343 158
35.26354 177
35.28366 163
35.30377 223
35.32389 156
35.344 187
35.36411 182
35.38423 170
35.40434 196
35.42445 200
35.44457 195
35.46468 211
35.4848 184
35.50491 210
35.52502 206
35.54514 196
35.56525 181
35.58536 185
35.60548 177
35.62559 184
35.64571 163
35.66582 157
35.68593 163
35.70605 172
35.72616 176
35.74627 174
35.76639 165
35.7865 163
35.80661 180
35.82673 199
35.84684 175
35.86696 181
35.88707 160
35.90718 173
35.9273 182
35.94741 153
35.96752 172
35.98764 162
36.00775 171
36.02787 178
36.04798 197
36.06809 186
36.08821 202
36.10832 211
36.12843 186
36.14855 220
36.16866 226
36.18878 211
36.20889 245
36.229 263
36.24912 275
36.26923 319
36.28934 371
36.30946 416
36.32957 455
36.34968 552
36.3698 670
36.38991 908
36.41003 1082
36.43014 1423
36.45025 1790
36.47037 2087
36.49048 2573
36.51059 2640
36.53071 2711
36.55082 2312
36.57094 2032
36.59105 1542
36.61116 1393
36.63128 1236
36.65139 898
36.6715 607
36.69162 389
36.71173 317
36.73184 251
36.75196 256
36.77207 260
36.79219 219
36.8123 223
36.83241 236
36.85253 195
36.87264 209
36.89275 178
36.91287 187
36.93298 195
36.9531 196
36.97321 187
36.99332 190
37.01344 159
37.03355 170
37.05366 163
37.07378 179
37.09389 165
37.11401 169
37.13412 178
37.15423 179
37.17435 166
37.19446 170
37.21457 149
37.23469 151
37.2548 167
37.27491 177
37.29503 147
37.31514 177
37.33526 143
37.35537 145
37.37548 163
37.3956 155
37.41571 152
37.43582 163
37.45594 122
37.47605 145
37.49617 153
37.51628 198
37.53639 159
37.55651 142
37.57662 181
37.59673 152
37.61685 148
37.63696 143
37.65708 146
37.67719 172
37.6973 162
37.71742 150
37.73753 138
37.75764 166
37.77776 145
37.79787 148
37.81798 163
37.8381 138
37.85821 154
37.87833 158
37.89844 159
37.91855 140
37.93867 160
37.95878 136
37.97889 169
37.99901 146
38.01912 162
38.03924 181
38.05935 164
38.07946 176
38.09958 151
38.11969 155
38.1398 150
38.15992 165
38.18003 175
38.20015 179
38.22026 187
38.24037 146
38.26049 138
38.2806 150
38.30071 149
38.32083 153
38.34094 149
38.36105 161
38.38117 169
38.40128 166
38.4214 160
38.44151 149
38.46162 176
38.48174 167
38.50185 180
38.52196 187
38.54208 149
38.56219 179
38.58231 177
38.60242 174
38.62253 192
38.64265 146
38.66276 174
38.68287 159
38.70299 195
38.7231 141
38.74321 132
38.76333 161
38.78344 155
38.80356 141
38.82367 158
38.84378 134
38.8639 163
38.88401 154
38.90412 177
38.92424 153
38.94435 177
38.96447 159
38.98458 177
39.00469 182
39.02481 182
39.04492 192
39.06503 207
39.08515 200
39.10526 217
39.12538 249
39.14549 269
39.1656 291
39.18572 294
39.20583 328
39.22594 416
39.24606 460
39.26617 514
39.28628 622
39.3064 829
39.32651 941
39.34663 1185
39.36674 1555
39.38685 1882
39.40697 2258
39.42708 2426
39.44719 2418
39.46731 2203
39.48742 1855
39.50754 1543
39.52765 1349
39.54776 1197
39.56788 1053
39.58799 740
39.6081 518
39.62822 337
39.64833 299
39.66845 270
39.68856 255
39.70867 232
39.72879 213
39.7489 209
39.76901 180
39.78913 195
39.80924 222
39.82935 205
39.84947 193
39.86958 199
39.8897 221
39.90981 200
39.92992 191
39.95004 195
39.97015 218
39.99026 232
40.01038 207
40.03049 268
40.05061 308
40.07072 351
40.09083 391
40.11095 439
40.13106 533
40.15117 551
40.17129 748
40.1914 907
40.21152 1022
40.23163 1193
40.25174 1225
40.27186 1267
40.29197 1185
40.31208 1010
40.3322 791
40.35231 699
40.37242 669
40.39254 618
40.41265 438
40.43277 303
40.45288 236
40.47299 250
40.49311 185
40.51322 209
40.53333 182
40.55345 189
40.57356 164
40.59368 165
40.61379 158
40.6339 176
40.65402 166
40.67413 142
40.69424 164
40.71436 159
40.73447 174
40.75458 146
40.7747 161
40.79481 166
40.81493 179
40.83504 149
40.85515 190
40.87527 142
40.89538 160
40.91549 167
40.93561 163
40.95572 165
40.97584 141
40.99595 177
41.01606 179
41.03618 157
41.05629 172
41.0764 167
41.09652 151
41.11663 152
41.13675 183
41.15686 160
41.17697 150
41.19709 151
41.2172 181
41.23731 147
41.25743 160
41.27754 157
41.29765 162
41.31777 174
41.33788 147
41.358 155
41.37811 150
41.39822 187
41.41834 152
41.43845 167
41.45856 157
41.47868 165
41.49879 143
41.51891 166
41.53902 170
41.55913 176
41.57925 172
41.59936 185
41.61947 164
41.63959 166
41.6597 187
41.67982 184
41.69993 193
41.72004 220
41.74016 194
41.76027 202
41.78038 197
41.8005 190
41.82061 197
41.84072 210
41.86084 198
41.88095 201
41.90107 180
41.92118 176
41.94129 192
41.96141 186
41.98152 171
42.00163 185
42.02175 216
42.04186 207
42.06198 182
42.08209 201
42.1022 244
42.12232 247
42.14243 238
42.16254 281
42.18266 280
42.20277 343
42.22289 404
42.243 464
42.26311 512
42.28323 630
42.30334 746
42.32345 913
42.34357 1114
42.36368 1394
42.38379 1695
42.40391 1699
42.42402 1792
42.44414 1599
42.46425 1411
42.48436 1149
42.50448 1037
42.52459 928
42.5447 889
42.56482 751
42.58493 508
42.60505 350
42.62516 304
42.64527 239
42.66539 222
42.6855 192
42.70561 205
42.72573 193
42.74584 200
42.76595 177
42.78607 190
42.80618 178
42.8263 157
42.84641 169
42.86652 164
42.88664 157
42.90675 147
42.92686 155
42.94698 135
42.96709 142
42.98721 147
43.00732 151
43.02743 131
43.04755 153
43.06766 158
43.08777 144
43.10789 136
43.128 150
43.14812 122
43.16823 139
43.18834 141
43.20846 134
43.22857 131
43.24868 133
43.2688 142
43.28891 131
43.30902 140
43.32914 120
43.34925 152
43.36937 142
43.38948 149
43.40959 147
43.42971 127
43.44982 156
43.46993 141
43.49005 165
43.51016 125
43.53028 136
43.55039 143
43.5705 148
43.59062 141
43.61073 130
43.63084 134
43.65096 154
43.67107 141
43.69119 148
43.7113 161
43.73141 166
43.75153 131
43.77164 147
43.79175 118
43.81187 123
43.83198 148
43.85209 135
43.87221 134
43.89232 163
43.91244 151
43.93255 145
43.95266 133
43.97278 145
43.99289 139
44.013 144
44.03312 141
44.05323 146
44.07335 130
44.09346 142
44.11357 136
44.13369 147
44.1538 124
44.17391 143
44.19403 150
44.21414 135
44.23426 133
44.25437 127
44.27448 167
44.2946 121
44.31471 158
44.33482 170
44.35494 134
44.37505 150
44.39516 138
44.41528 128
44.43539 140
44.45551 151
44.47562 151
44.49573 137
44.51585 128
44.53596 155
44.55607 138
44.57619 142
44.5963 125
44.61642 142
44.63653 133
44.65664 140
44.67676 128
44.69687 142
44.71698 143
44.7371 126
44.75721 130
44.77732 129
44.79744 127
44.81755 127
44.83767 142
44.85778 121
44.87789 120
44.89801 157
44.91812 156
44.93823 148
44.95835 145
44.97846 153
44.99858 162
45.01869 146
45.0388 140
45.05892 151
45.07903 139
45.09914 155
45.11926 146
45.13937 150
45.15949 138
45.1796 139
45.19971 146
45.21983 155
45.23994 176
45.26005 176
45.28017 142
45.30028 165
45.32039 171
45.34051 153
45.36062 155
45.38074 150
45.40085 172
45.42096 182
45.44108 190
45.46119 204
45.4813 212
45.50142 239
45.52153 221
45.54165 285
45.56176 298
45.58187 369
45.60199 365
45.6221 465
45.64221 540
45.66233 671
45.68244 797
45.70256 910
45.72267 1127
45.74278 1090
45.7629 1251
45.78301 1137
45.80312 983
45.82324 825
45.84335 728
45.86346 663
45.88358 661
45.90369 563
45.92381 454
45.94392 323
45.96403 265
45.98415 202
46.00426 194
46.02437 168
46.04449 170
46.0646 173
46.08472 154
46.10483 177
46.12494 193
46.14506 158
46.16517 149
46.18528 164
46.2054 163
46.22551 141
46.24563 131
46.26574 116
46.28585 142
46.30597 140
46.32608 134
46.34619 149
46.36631 136
46.38642 132
46.40653 122
46.42665 131
46.44676 128
46.46688 122
46.48699 143
46.5071 129
46.52722 141
46.54733 125
46.56744 132
46.58756 130
46.60767 127
46.62779 125
46.6479 151
46.66801 145
46.68813 141
46.70824 124
46.72835 130
46.74847 138
46.76858 126
46.78869 134
46.80881 150
46.82892 133
46.84904 122
46.86915 140
46.88926 136
46.90938 125
46.92949 145
46.9496 127
46.96972 131
46.98983 110
47.00995 138
47.03006 132
47.05017 126
47.07029 141
47.0904 148
47.11051 141
47.13063 130
47.15074 143
47.17086 139
47.19097 134
47.21108 149
47.2312 129
47.25131 141
47.27142 156
47.29154 142
47.31165 134
47.33176 138
47.35188 139
47.37199 129
47.39211 134
47.41222 150
47.43233 146
47.45245 136
47.47256 157
47.49267 144
47.51279 116
47.5329 134
47.55302 136
47.57313 121
47.59324 124
47.61336 137
47.63347 123
47.65358 127
47.6737 135
47.69381 145
47.71393 138
47.73404 135
47.75415 123
47.77427 126
47.79438 128
47.81449 126
47.83461 134
47.85472 149
47.87483 130
47.89495 128
47.91506 140
47.93518 110
47.95529 130
47.9754 126
47.99552 156
48.01563 118
48.03574 113
48.05586 113
48.07597 110
48.09609 121
48.1162 115
48.13631 125
48.15643 142
48.17654 132
48.19665 133
48.21677 127
48.23688 145
48.257 133
48.27711 155
48.29722 121
48.31734 131
48.33745 134
48.35756 129
48.37768 134
48.39779 139
48.4179 128
48.43802 126
48.45813 121
48.47825 133
48.49836 122
48.51847 150
48.53859 140
48.5587 150
48.57881 129
48.59893 143
48.61904 146
48.63916 134
48.65927 143
48.67938 139
48.6995 168
48.71961 146
48.73972 151
48.75984 139
48.77995 136
48.80006 129
48.82018 156
48.84029 158
48.86041 155
48.88052 159
48.90063 156
48.92075 134
48.94086 159
48.96097 159
48.98109 164
49.0012 171
49.02132 175
49.04143 161
49.06154 152
49.08166 135
49.10177 134
49.12188 128
49.142 130
49.16211 131
49.18223 138
49.20234 162
49.22245 146
49.24257 166
49.26268 155
49.28279 157
49.30291 168
49.32302 150
49.34313 154
49.36325 150
49.38336 161
49.40348 143
49.42359 152
49.4437 169
49.46382 187
49.48393 135
49.50404 159
49.52416 170
49.54427 206
49.56439 174
49.5845 184
49.60461 179
49.62473 198
49.64484 214
49.66495 229
49.68507 242
49.70518 244
49.7253 266
49.74541 305
49.76552 353
49.78564 350
49.80575 387
49.82586 430
49.84598 481
49.86609 583
49.8862 647
49.90632 753
49.92643 916
49.94655 1107
49.96666 1341
49.98677 1726
50.00689 2011
50.027 2527
50.04711 3054
50.06723 3442
50.08734 3801
50.10746 3888
50.12757 3666
50.14768 3171
50.1678 2456
50.18791 2148
50.20802 2050
50.22814 1943
50.24825 1880
50.26837 1542
50.28848 1183
50.30859 772
50.32871 531
50.34882 420
50.36893 344
50.38905 292
50.40916 289
50.42927 300
50.44939 292
50.4695 316
50.48962 296
50.50973 296
50.52984 308
50.54996 305
50.57007 310
50.59018 306
50.6103 274
50.63041 253
50.65053 268
50.67064 239
50.69075 232
50.71087 224
50.73098 254
50.75109 223
50.77121 171
50.79132 193
50.81143 184
50.83155 160
50.85166 204
50.87178 180
50.89189 165
50.912 160
50.93212 175
50.95223 158
50.97234 174
50.99246 133
51.01257 129
51.03269 132
51.0528 154
51.07291 153
51.09303 129
51.11314 146
51.13325 143
51.15337 129
51.17348 151
51.1936 125
51.21371 133
51.23382 126
51.25394 121
51.27405 131
51.29416 114
51.31428 137
51.33439 132
51.3545 142
51.37462 130
51.39473 145
51.41485 133
51.43496 132
51.45507 131
51.47519 140
51.4953 146
51.51541 137
51.53553 142
51.55564 125
51.57576 119
51.59587 146
51.61598 145
51.6361 126
51.65621 129
51.67632 133
51.69644 112
51.71655 124
51.73667 124
51.75678 135
51.77689 129
51.79701 122
51.81712 129
51.83723 119
51.85735 131
51.87746 110
51.89757 147
51.91769 124
51.9378 127
51.95792 118
51.97803 111
51.99814 131
52.01826 123
52.03837 118
52.05848 121
52.0786 108
52.09871 125
52.11883 127
52.13894 113
52.15905 127
52.17917 115
52.19928 119
52.21939 125
52.23951 135
52.25962 112
52.27974 143
52.29985 138
52.31996 136
52.34008 129
52.36019 120
52.3803 119
52.40042 120
52.42053 128
52.44064 138
52.46076 137
52.48087 134
52.50099 128
52.5211 110
52.54121 125
52.56133 129
52.58144 134
52.60155 119
52.62167 141
52.64178 115
52.6619 118
52.68201 128
52.70212 121
52.72224 132
52.74235 131
52.76246 124
52.78258 124
52.80269 116
52.8228 121
52.84292 106
52.86303 116
52.88315 128
52.90326 119
52.92337 149
52.94349 139
52.9636 124
52.98371 104
53.00383 130
53.02394 155
53.04406 132
53.06417 124
53.08428 117
53.1044 109
53.12451 134
53.14462 137
53.16474 160
53.18485 134
53.20497 144
53.22508 160
53.24519 132
53.26531 116
53.28542 133
53.30553 137
53.32565 137
53.34576 140
53.36587 132
53.38599 142
53.4061 129
53.42622 152
53.44633 126
53.46644 128
53.48656 146
53.50667 129
53.52678 140
53.5469 143
53.56701 131
53.58713 124
53.60724 163
53.62735 136
53.64747 148
53.66758 126
53.68769 137
53.70781 144
53.72792 144
53.74804 129
53.76815 143
53.78826 119
53.80838 128
53.82849 130
53.8486 122
53.86872 112
53.88883 121
53.90894 149
53.92906 135
53.94917 137
53.96929 125
53.9894 151
54.00951 129
54.02963 164
54.04974 140
54.06985 145
54.08997 141
54.11008 153
54.1302 162
54.15031 140
54.17042 129
54.19054 150
54.21065 132
54.23076 147
54.25088 144
54.27099 164
54.29111 159
54.31122 130
54.33133 154
54.35145 175
54.37156 168
54.39167 166
54.41179 163
54.4319 179
54.45201 174
54.47213 189
54.49224 184
54.51236 210
54.53247 221
54.55258 231
54.5727 246
54.59281 264
54.61292 296
54.63304 309
54.65315 356
54.67327 407
54.69338 493
54.71349 584
54.73361 675
54.75372 807
54.77383 890
54.79395 1035
54.81406 1124
54.83417 1188
54.85429 1176
54.8744 1000
54.89452 897
54.91463 737
54.93474 703
54.95486 690
54.97497 660
54.99508 671
55.0152 538
55.03531 469
55.05543 378
55.07554 333
55.09565 279
55.11577 297
55.13588 296
55.15599 347
55.17611 347
55.19622 429
55.21634 399
55.23645 495
55.25656 546
55.27668 593
55.29679 591
55.3169 535
55.33702 450
55.35713 402
55.37724 333
55.39736 345
55.41747 376
55.43759 336
55.4577 329
55.47781 297
55.49793 232
55.51804 232
55.53815 190
55.55827 174
55.57838 190
55.5985 139
55.61861 147
55.63872 162
55.65884 171
55.67895 160
55.69906 135
55.71918 129
55.73929 142
55.75941 134
55.77952 123
55.79963 134
55.81975 162
55.83986 164
55.85997 149
55.88009 134
55.9002 124
55.92031 113
55.94043 126
55.96054 115
55.98066 128
56.00077 124
56.02088 134
56.041 138
56.06111 151
56.08122 118
56.10134 124
56.12145 119
56.14157 116
56.16168 111
56.18179 114
56.20191 119
56.22202 109
56.24213 143
56.26225 112
56.28236 117
56.30248 123
56.32259 131
56.3427 118
56.36282 110
56.38293 122
56.40304 119
56.42316 122
56.44327 120
56.46338 128
56.4835 109
56.50361 131
56.52373 126
56.54384 119
56.56395 131
56.58407 135
56.60418 116
56.62429 138
56.64441 125
56.66452 124
56.68464 136
56.70475 138
56.72486 114
56.74498 129
56.76509 137
56.7852 114
56.80532 128
56.82543 112
56.84554 144
56.86566 139
56.88577 117
56.90589 125
56.926 136
56.94611 135
56.96623 154
56.98634 117
57.00645 106
57.02657 129
57.04668 134
57.0668 136
57.08691 147
57.10702 157
57.12714 166
57.14725 163
57.16736 180
57.18748 183
57.20759 168
57.22771 187
57.24782 168
57.26793 148
57.28805 157
57.30816 152
57.32827 149
57.34839 166
57.3685 137
57.38861 164
57.40873 118
57.42884 144
57.44896 136
57.46907 133
57.48918 113
57.5093 129
57.52941 123
57.54952 115
57.56964 116
57.58975 119
57.60987 124
57.62998 124
57.65009 126
57.67021 120
57.69032 109
57.71043 120
57.73055 124
57.75066 123
57.77078 137
57.79089 122
57.811 130
57.83112 150
57.85123 130
57.87134 141
57.89146 137
57.91157 123
57.93168 122
57.9518 133
57.97191 145
57.99203 126
58.01214 122
58.03225 123
58.05237 141
58.07248 123
58.09259 118
58.11271 118
58.13282 133
58.15294 117
58.17305 137
58.19316 131
58.21328 140
58.23339 106
58.2535 133
58.27362 114
58.29373 131
58.31385 128
58.33396 137
58.35407 116
58.37419 134
58.3943 136
58.41441 118
58.43453 128
58.45464 110
58.47475 129
58.49487 130
58.51498 122
58.5351 123
58.55521 147
58.57532 129
58.59544 134
58.61555 127
58.63566 122
58.65578 148
58.67589 135
58.69601 149
58.71612 117
58.73623 142
58.75635 149
58.77646 131
58.79657 149
58.81669 142
58.8368 154
58.85691 124
58.87703 117
58.89714 122
58.91726 128
58.93737 132
58.95748 145
58.9776 144
58.99771 139
59.01782 133
59.03794 149
59.05805 134
59.07817 145
59.09828 133
59.11839 124
59.13851 143
59.15862 154
59.17873 145
59.19885 152
59.21896 152
59.23908 138
59.25919 130
59.2793 130
59.29942 151
59.31953 155
59.33964 152
59.35976 167
59.37987 156
59.39998 162
59.4201 189
59.44021 194
59.46033 216
59.48044 197
59.50055 203
59.52067 224
59.54078 271
59.56089 278
59.58101 272
59.60112 327
59.62124 332
59.64135 358
59.66146 431
59.68158 483
59.70169 568
59.7218 650
59.74192 767
59.76203 838
59.78215 1078
59.80226 1194
59.82237 1523
59.84249 1777
59.8626 2079
59.88271 2330
59.90283 2478
59.92294 2508
59.94305 2287
59.96317 1930
59.98328 1611
60.0034 1352
60.02351 1245
60.04362 1312
60.06374 1402
60.08385 1290
60.10396 1170
60.12408 929
60.14419 667
60.16431 485
60.18442 353
60.20453 301
60.22465 255
60.24476 229
60.26487 223
60.28499 212
60.3051 221
60.32522 168
60.34533 180
60.36544 166
60.38556 173
60.40567 173
60.42578 165
60.4459 152
60.46601 147
60.48612 143
60.50624 144
60.52635 147
60.54647 150
60.56658 160
60.58669 144
60.60681 136
60.62692 128
60.64703 158
60.66715 150
60.68726 139
60.70738 138
60.72749 136
60.7476 131
60.76772 164
60.78783 133
60.80794 137
60.82806 156
60.84817 121
60.86828 138
60.8884 143
60.90851 145
60.92863 151
60.94874 148
60.96885 156
60.98897 132
61.00908 137
61.02919 149
61.04931 130
61.06942 131
61.08954 138
61.10965 135
61.12976 139
61.14988 142
61.16999 125
61.1901 122
61.21022 143
61.23033 129
61.25045 127
61.27056 112
61.29067 125
61.31079 130
61.3309 120
61.35101 139
61.37113 126
61.39124 130
61.41135 133
61.43147 121
61.45158 141
61.4717 122
61.49181 151
61.51192 143
61.53204 134
61.55215 134
61.57226 143
61.59238 129
61.61249 123
61.63261 136
61.65272 161
61.67283 144
61.69295 129
61.71306 132
61.73317 145
61.75329 137
61.7734 116
61.79352 121
61.81363 141
61.83374 127
61.85386 122
61.87397 132
61.89408 136
61.9142 155
61.93431 135
61.95442 149
61.97454 137
61.99465 127
62.01477 129
62.03488 156
62.05499 139
62.07511 113
62.09522 143
62.11533 128
62.13545 157
62.15556 140
62.17568 133
62.19579 146
62.2159 138
62.23602 144
62.25613 132
62.27624 120
62.29636 121
62.31647 117
62.33659 121
62.3567 128
62.37681 118
62.39693 128
62.41704 114
62.43715 129
62.45727 132
62.47738 141
62.49749 126
62.51761 129
62.53772 120
62.55784 152
62.57795 114
62.59806 111
62.61818 136
62.63829 107
62.6584 134
62.67852 114
62.69863 132
62.71875 118
62.73886 131
62.75897 123
62.77909 109
62.7992 130
62.81931 113
62.83943 142
62.85954 144
62.87965 133
62.89977 110
62.91988 124
62.94 122
62.96011 124
62.98022 95
63.00034 139
63.02045 113
63.04056 125
63.06068 152
63.08079 134
63.10091 131
63.12102 121
63.14113 126
63.16125 120
63.18136 139
63.20147 122
63.22159 147
63.2417 108
63.26182 115
63.28193 125
63.30204 120
63.32216 107
63.34227 119
63.36238 129
63.3825 136
63.40261 109
63.42272 137
63.44284 125
63.46295 124
63.48307 134
63.50318 132
63.52329 145
63.54341 115
63.56352 136
63.58363 131
63.60375 113
63.62386 136
63.64398 142
63.66409 159
63.6842 175
63.70432 158
63.72443 170
63.74454 172
63.76466 177
63.78477 220
63.80489 212
63.825 246
63.84511 279
63.86523 281
63.88534 344
63.90545 380
63.92557 457
63.94568 465
63.96579 505
63.98591 537
64.00602 554
64.02614 510
64.04625 391
64.06636 348
64.08648 339
64.10659 307
64.1267 297
64.14682 333
64.16693 316
64.18705 311
64.20716 295
64.22727 274
64.24739 190
64.2675 176
64.28761 138
64.30773 149
64.32784 140
64.34796 122
64.36807 128
64.38818 116
64.4083 133
64.42841 115
64.44852 120
64.46864 132
64.48875 125
64.50886 126
64.52898 105
64.54909 128
64.56921 121
64.58932 124
64.60943 110
64.62955 146
64.64966 107
64.66977 118
64.68989 120
64.71 136
64.73012 111
64.75023 130
64.77034 129
64.79046 128
64.81057 121
64.83068 145
64.8508 114
64.87091 113
64.89102 127
64.91114 139
64.93125 119
64.95137 128
64.97148 122
64.99159 104
65.01171 124
65.03182 110
65.05193 124
65.07205 152
65.09216 128
65.11228 117
65.13239 119
65.1525 136
65.17262 108
65.19273 128
65.21284 119
65.23296 129
65.25307 133
65.27319 132
65.2933 137
65.31341 127
65.33353 142
65.35364 145
65.37375 126
65.39387 124
65.41398 136
65.43409 139
65.45421 131
65.47432 150
65.49444 146
65.51455 125
65.53466 153
65.55478 148
65.57489 159
65.595 159
65.61512 183
65.63523 196
65.65535 209
65.67546 216
65.69557 212
65.71569 236
65.7358 217
65.75591 241
65.77603 209
65.79614 175
65.81626 198
65.83637 167
65.85648 177
65.8766 185
65.89671 165
65.91682 196
65.93694 172
65.95705 179
65.97716 159
65.99728 146
66.01739 151
66.03751 149
66.05762 109
66.07773 115
66.09785 137
66.11796 134
66.13807 124
66.15819 126
66.1783 136
66.19842 124
66.21853 134
66.23864 148
66.25876 119
66.27887 128
66.29898 140
66.3191 149
66.33921 139
66.35933 121
66.37944 141
66.39955 115
66.41967 158
66.43978 130
66.45989 128
66.48001 144
66.50012 125
66.52023 133
66.54035 126
66.56046 138
66.58058 142
66.60069 127
66.6208 124
66.64092 151
66.66103 150
66.68114 137
66.70126 124
66.72137 144
66.74149 155
66.7616 135
66.78171 145
66.80183 151
66.82194 136
66.84205 132
66.86217 142
66.88228 139
66.90239 141
66.92251 148
66.94262 158
66.96274 133
66.98285 157
67.00296 145
67.02308 132
67.04319 130
67.0633 159
67.08342 167
67.10353 175
67.12365 168
67.14376 146
67.16387 177
67.18399 172
67.2041 190
67.22421 169
67.24433 176
67.26444 182
67.28456 220
67.30467 197
67.32478 239
67.3449 239
67.36501 241
67.38512 254
67.40524 274
67.42535 300
67.44546 333
67.46558 348
67.48569 412
67.50581 479
67.52592 552
67.54603 633
67.56615 753
67.58626 809
67.60637 1005
67.62649 1176
67.6466 1280
67.66672 1444
67.68683 1541
67.70694 1593
67.72706 1441
67.74717 1216
67.76728 1088
67.7874 970
67.80751 892
67.82763 950
67.84774 1013
67.86785 1072
67.88797 1170
67.90808 1210
67.92819 1198
67.94831 1176
67.96842 1164
67.98853 1129
68.00865 1403
68.02876 1506
68.04888 1795
68.06899 1971
68.0891 2038
68.10922 2110
68.12933 2021
68.14944 1813
68.16956 1684
68.18967 1623
68.20979 1659
68.2299 1781
68.25001 1875
68.27013 1945
68.29024 1845
68.31035 1658
68.33047 1427
68.35058 1129
68.3707 946
68.39081 743
68.41092 731
68.43104 691
68.45115 733
68.47126 653
68.49138 663
68.51149 474
68.5316 439
68.55172 317
68.57183 266
68.59195 226
68.61206 202
68.63217 213
68.65229 189
68.6724 174
68.69251 197
68.71263 179
68.73274 178
68.75286 172
68.77297 136
68.79308 167
68.8132 160
68.83331 167
68.85342 155
68.87354 147
68.89365 143
68.91376 165
68.93388 129
68.95399 148
68.97411 155
68.99422 149
69.01433 140
69.03445 136
69.05456 133
69.07467 134
69.09479 147
69.1149 153
69.13502 144
69.15513 156
69.17524 130
69.19536 108
69.21547 141
69.23558 140
69.2557 131
69.27581 152
69.29593 158
69.31604 144
69.33615 136
69.35627 120
69.37638 129
69.39649 135
69.41661 119
69.43672 116
69.45683 120
69.47695 127
69.49706 126
69.51718 120
69.53729 128
69.5574 121
69.57752 111
69.59763 122
69.61774 122
69.63786 126
69.65797 117
69.67809 138
69.6982 135
69.71831 122
69.73843 122
69.75854 124
69.77865 125
69.79877 112
69.81888 135
69.839 116
69.85911 122
69.87922 114
69.89934 137
69.91945 115
69.93956 125
69.95968 120
69.97979 125
69.9999 111
70.02002 103
70.04013 115
70.06025 113
70.08036 118
70.10047 135
70.12059 96
70.1407 125
70.16081 130
70.18093 132
70.20104 113
70.22116 133
70.24127 122
70.26138 125
70.2815 115
70.30161 129
70.32172 98
70.34184 153
70.36195 126
70.38207 130
70.40218 116
70.42229 117
70.44241 123
70.46252 139
70.48263 123
70.50275 111
70.52286 107
70.54297 108
70.56309 109
70.5832 130
70.60332 123
70.62343 121
70.64354 119
70.66366 134
70.68377 109
70.70388 113
70.724 120
70.74411 140
70.76423 104
70.78434 142
70.80445 102
70.82457 135
70.84468 132
70.86479 125
70.88491 116
70.90502 120
70.92513 122
70.94525 117
70.96536 119
70.98548 103
71.00559 119
71.0257 120
71.04582 98
71.06593 113
71.08604 113
71.10616 121
71.12627 144
71.14639 123
71.1665 133
71.18661 102
71.20673 116
71.22684 107
71.24695 122
71.26707 106
71.28718 121
71.3073 112
71.32741 108
71.34752 95
71.36764 106
71.38775 105
71.40786 116
71.42798 97
71.44809 118
71.4682 114
71.48832 112
71.50843 115
71.52855 119
71.54866 123
71.56877 130
71.58889 114
71.609 146
71.62911 108
71.64923 124
71.66934 112
71.68946 124
71.70957 127
71.72968 142
71.7498 123
71.76991 112
71.79002 122
71.81014 116
71.83025 112
71.85037 111
71.87048 118
71.89059 114
71.91071 120
71.93082 107
71.95093 122
71.97105 104
71.99116 119
72.01127 107
72.03139 107
72.0515 110
72.07162 102
72.09173 103
72.11184 116
72.13196 125
72.15207 112
72.17218 112
72.1923 110
72.21241 113
72.23253 115
72.25264 112
72.27275 138
72.29287 97
72.31298 116
72.33309 111
72.35321 109
72.37332 119
72.39344 108
72.41355 111
72.43366 129
72.45378 116
72.47389 122
72.494 105
72.51412 128
72.53423 125
72.55434 127
72.57446 109
72.59457 111
72.61469 104
72.6348 112
72.65491 112
72.67503 124
72.69514 129
72.71525 101
72.73537 126
72.75548 120
72.7756 117
72.79571 140
72.81582 134
72.83594 110
72.85605 150
72.87616 133
72.89628 121
72.91639 140
72.9365 122
72.95662 144
72.97673 134
72.99685 151
73.01696 146
73.03707 175
73.05719 148
73.0773 157
73.09741 161
73.11753 160
73.13764 169
73.15776 202
73.17787 205
73.19798 208
73.2181 224
73.23821 248
73.25832 262
73.27844 294
73.29855 345
73.31867 392
73.33878 454
73.35889 481
73.37901 545
73.39912 587
73.41923 646
73.43935 567
73.45946 523
73.47957 449
73.49969 423
73.5198 334
73.53992 308
73.56003 317
73.58014 341
73.60026 360
73.62037 375
73.64048 362
73.6606 344
73.68071 304
73.70083 257
73.72094 205
73.74105 180
73.76117 162
73.78128 148
73.80139 146
73.82151 136
73.84162 159
73.86174 132
73.88185 128
73.90196 145
73.92208 130
73.94219 144
73.9623 127
73.98242 135
74.00253 117
74.02264 107
74.04276 130
74.06287 117
74.08299 130
74.1031 113
74.12321 98
74.14333 129
74.16344 105
74.18355 112
74.20367 110
74.22378 131
74.2439 125
74.26401 117
74.28412 101
74.30424 124
74.32435 119
74.34446 120
74.36458 117
74.38469 110
74.40481 113
74.42492 113
74.44503 120
74.46515 113
74.48526 119
74.50537 111
74.52549 120
74.5456 119
74.56571 114
74.58583 110
74.60594 117
74.62606 114
74.64617 113
74.66628 117
74.6864 116
74.70651 131
74.72662 112
74.74674 105
74.76685 126
74.78697 112
74.80708 132
74.82719 137
74.84731 118
74.86742 119
74.88753 109
74.90765 116
74.92776 139
74.94787 112
74.96799 118
74.9881 138
75.00822 135
