3.00117 20779
3.02128 20336
3.0414 19780
3.06151 19364
3.08162 18943
3.10174 18442
3.12185 17994
3.14197 17561
3.16208 17000
3.18219 16531
3.20231 15988
3.22242 15321
3.24253 15218
3.26265 14427
3.28276 14140
3.30288 13731
3.32299 12970
3.3431 12870
3.36322 12207
3.38333 12085
3.40344 11295
3.42356 11142
3.44367 10949
3.46379 10560
3.4839 10185
3.50401 9863
3.52413 9567
3.54424 9387
3.56435 8799
3.58447 8531
3.60458 8027
3.62469 8166
3.64481 7571
3.66492 7458
3.68504 7175
3.70515 6820
3.72526 6426
3.74538 6470
3.76549 5901
3.7856 5903
3.80572 5392
3.82583 5487
3.84595 5280
3.86606 4973
3.88617 4860
3.90629 4379
3.9264 4405
3.94651 4364
3.96663 3818
3.98674 3813
4.00686 3647
4.02697 3512
4.04708 3528
4.0672 3152
4.08731 3134
4.10742 2976
4.12754 2750
4.14765 2735
4.16776 2509
4.18788 2481
4.20799 2380
4.22811 2351
4.24822 2345
4.26833 2144
4.28845 2046
4.30856 1982
4.32867 1942
4.34879 1957
4.3689 1754
4.38902 1776
4.40913 1682
4.42924 1674
4.44936 1761
4.46947 1538
4.48958 1512
4.5097 1559
4.52981 1534
4.54992 1514
4.57004 1333
4.59015 1385
4.61027 1429
4.63038 1293
4.65049 1346
4.67061 1288
4.69072 1236
4.71083 1231
4.73095 1261
4.75106 1192
4.77118 1140
4.79129 1165
4.8114 1149
4.83152 1092
4.85163 1135
4.87174 1033
4.89186 1025
4.91197 1014
4.93209 949
4.9522 1034
4.97231 893
4.99243 950
5.01254 847
5.03265 906
5.05277 972
5.07288 818
5.09299 792
5.11311 861
5.13322 819
5.15334 787
5.17345 713
5.19356 763
5.21368 709
5.23379 683
5.2539 715
5.27402 690
5.29413 679
5.31425 709
5.33436 679
5.35447 635
5.37459 673
5.3947 605
5.41481 596
5.43493 636
5.45504 601
5.47516 575
5.49527 596
5.51538 594
5.5355 551
5.55561 561
5.57572 553
5.59584 521
5.61595 560
5.63606 540
5.65618 521
5.67629 502
5.69641 479
5.71652 480
5.73663 486
5.75675 455
5.77686 473
5.79697 463
5.81709 476
5.8372 484
5.85732 481
5.87743 472
5.89754 475
5.91766 434
5.93777 474
5.95788 466
5.978 451
5.99811 454
6.01823 446
6.03834 398
6.05845 408
6.07857 406
6.09868 366
6.11879 397
6.13891 433
6.15902 379
6.17913 444
6.19925 411
6.21936 412
6.23948 391
6.25959 386
6.2797 408
6.29982 367
6.31993 401
6.34004 451
6.36016 443
6.38027 357
6.40039 433
6.4205 374
6.44061 395
6.46073 370
6.48084 384
6.50095 372
6.52107 368
6.54118 377
6.56129 371
6.58141 349
6.60152 384
6.62164 381
6.64175 360
6.66186 406
6.68198 404
6.70209 380
6.7222 335
6.74232 365
6.76243 351
6.78255 371
6.80266 406
6.82277 421
6.84289 365
6.863 399
6.88311 383
6.90323 335
6.92334 359
6.94346 349
6.96357 347
6.98368 352
7.0038 401
7.02391 311
7.04402 392
7.06414 372
7.08425 404
7.10436 376
7.12448 361
7.14459 363
7.16471 359
7.18482 368
7.20493 377
7.22505 346
7.24516 355
7.26527 335
7.28539 335
7.3055 362
7.32562 356
7.34573 319
7.36584 318
7.38596 349
7.40607 309
7.42618 363
7.4463 392
7.46641 331
7.48653 346
7.50664 388
7.52675 341
7.54687 391
7.56698 343
7.58709 333
7.60721 369
7.62732 337
7.64743 362
7.66755 370
7.68766 344
7.70778 352
7.72789 340
7.748 331
7.76812 351
7.78823 330
7.80834 347
7.82846 371
7.84857 358
7.86869 371
7.8888 324
7.90891 370
7.92903 351
7.94914 316
7.96925 364
7.98937 371
8.00948 372
8.0296 385
8.04971 359
8.06982 402
8.08994 365
8.11005 371
8.13016 387
8.15028 342
8.17039 373
8.1905 328
8.21062 350
8.23073 354
8.25085 353
8.27096 331
8.29107 372
8.31119 363
8.3313 354
8.35141 344
8.37153 311
8.39164 331
8.41176 355
8.43187 327
8.45198 381
8.4721 336
8.49221 327
8.51232 342
8.53244 323
8.55255 365
8.57266 324
8.59278 388
8.61289 331
8.63301 366
8.65312 374
8.67323 366
8.69335 359
8.71346 373
8.73357 393
8.75369 370
8.7738 354
8.79392 340
8.81403 361
8.83414 339
8.85426 343
8.87437 346
8.89448 399
8.9146 362
8.93471 351
8.95483 343
8.97494 340
8.99505 327
9.01517 349
9.03528 379
9.05539 326
9.07551 360
9.09562 389
9.11573 344
9.13585 333
9.15596 370
9.17608 357
9.19619 353
9.2163 337
9.23642 330
9.25653 325
9.27664 367
9.29676 366
9.31687 358
9.33699 348
9.3571 361
9.37721 358
9.39733 362
9.41744 350
9.43755 320
9.45767 325
9.47778 354
9.4979 348
9.51801 378
9.53812 335
9.55824 336
9.57835 342
9.59846 330
9.61858 337
9.63869 349
9.6588 367
9.67892 353
9.69903 319
9.71915 339
9.73926 324
9.75937 351
9.77949 324
9.7996 338
9.81971 334
9.83983 364
9.85994 340
9.88006 306
9.90017 318
9.92028 323
9.9404 347
9.96051 323
9.98062 322
10.00074 362
10.02085 350
10.04097 352
10.06108 323
10.08119 316
10.10131 342
10.12142 359
10.14153 352
10.16165 324
10.18176 315
10.20187 333
10.22199 380
10.2421 349
10.26222 317
10.28233 360
10.30244 352
10.32256 319
10.34267 302
10.36278 350
10.3829 304
10.40301 312
10.42313 317
10.44324 388
10.46335 327
10.48347 402
10.50358 342
10.52369 366
10.54381 341
10.56392 339
10.58403 347
10.60415 324
10.62426 320
10.64438 343
10.66449 333
10.6846 351
10.70472 321
10.72483 368
10.74494 346
10.76506 349
10.78517 320
10.80529 326
10.8254 341
10.84551 363
10.86563 348
10.88574 328
10.90585 309
10.92597 366
10.94608 324
10.9662 373
10.98631 345
11.00642 338
11.02654 329
11.04665 319
11.06676 292
11.08688 349
11.10699 327
11.1271 350
11.14722 344
11.16733 367
11.18745 360
11.20756 380
11.22767 383
11.24779 347
11.2679 323
11.28801 310
11.30813 344
11.32824 354
11.34836 356
11.36847 366
11.38858 362
11.4087 340
11.42881 381
11.44892 371
11.46904 328
11.48915 378
11.50927 374
11.52938 394
11.54949 409
11.56961 328
11.58972 392
11.60983 361
11.62995 371
11.65006 375
11.67017 374
11.69029 420
11.7104 403
11.73052 393
11.75063 446
11.77074 415
11.79086 420
11.81097 423
11.83108 450
11.8512 417
11.87131 467
11.89143 464
11.91154 478
11.93165 459
11.95177 469
11.97188 540
11.99199 488
12.01211 518
12.03222 528
12.05234 562
12.07245 562
12.09256 628
12.11268 625
12.13279 726
12.1529 710
12.17302 743
12.19313 732
12.21324 825
12.23336 841
12.25347 915
12.27359 919
12.2937 867
12.31381 880
12.33393 933
12.35404 845
12.37415 838
12.39427 814
12.41438 800
12.4345 751
12.45461 641
12.47472 653
12.49484 637
12.51495 584
12.53506 502
12.55518 487
12.57529 518
12.5954 543
12.61552 444
12.63563 413
12.65575 401
12.67586 470
12.69597 372
12.71609 410
12.7362 375
12.75631 365
12.77643 380
12.79654 377
12.81666 358
12.83677 344
12.85688 348
12.877 385
12.89711 368
12.91722 346
12.93734 333
12.95745 327
12.97757 363
12.99768 350
13.01779 291
13.03791 324
13.05802 337
13.07813 310
13.09825 365
13.11836 346
13.13847 378
13.15859 348
13.1787 364
13.19882 311
13.21893 331
13.23904 340
13.25916 335
13.27927 325
13.29938 319
13.3195 302
13.33961 321
13.35973 336
13.37984 324
13.39995 304
13.42007 305
13.44018 320
13.46029 369
13.48041 297
13.50052 309
13.52064 292
13.54075 347
13.56086 311
13.58098 338
13.60109 356
13.6212 312
13.64132 334
13.66143 329
13.68154 284
13.70166 327
13.72177 339
13.74189 362
13.762 338
13.78211 332
13.80223 342
13.82234 287
13.84245 328
13.86257 296
13.88268 294
13.9028 318
13.92291 297
13.94302 312
13.96314 324
13.98325 306
14.00336 344
14.02348 310
14.04359 277
14.06371 299
14.08382 322
14.10393 318
14.12405 326
14.14416 315
14.16427 265
14.18439 272
14.2045 296
14.22461 323
14.24473 289
14.26484 310
14.28496 296
14.30507 308
14.32518 300
14.3453 303
14.36541 315
14.38552 288
14.40564 314
14.42575 288
14.44587 304
14.46598 310
14.48609 289
14.50621 304
14.52632 265
14.54643 265
14.56655 274
14.58666 307
14.60677 285
14.62689 293
14.647 320
14.66712 281
14.68723 294
14.70734 291
14.72746 286
14.74757 354
14.76768 281
14.7878 312
14.80791 291
14.82803 310
14.84814 292
14.86825 256
14.88837 322
14.90848 290
14.92859 282
14.94871 273
14.96882 273
14.98894 286
15.00905 300
15.02916 291
15.04928 298
15.06939 302
15.0895 277
15.10962 317
15.12973 300
15.14984 273
15.16996 293
15.19007 292
15.21019 310
15.2303 283
15.25041 303
15.27053 308
15.29064 299
15.31075 289
15.33087 311
15.35098 302
15.3711 289
15.39121 292
15.41132 315
15.43144 298
15.45155 284
15.47166 304
15.49178 280
15.51189 302
15.53201 312
15.55212 283
15.57223 279
15.59235 301
15.61246 249
15.63257 307
15.65269 277
15.6728 285
15.69291 260
15.71303 300
15.73314 308
15.75326 291
15.77337 285
15.79348 303
15.8136 310
15.83371 298
15.85382 307
15.87394 273
15.89405 283
15.91417 259
15.93428 305
15.95439 322
15.97451 274
15.99462 290
16.01473 296
16.03485 263
16.05496 321
16.07508 322
16.09519 288
16.1153 279
16.13542 263
16.15553 301
16.17564 298
16.19576 297
16.21587 305
16.23598 300
16.2561 312
16.27621 287
16.29633 332
16.31644 257
16.33655 272
16.35667 287
16.37678 268
16.39689 297
16.41701 291
16.43712 289
16.45724 271
16.47735 294
16.49746 258
16.51758 303
16.53769 280
16.5578 278
16.57792 293
16.59803 288
16.61814 283
16.63826 293
16.65837 288
16.67849 311
16.6986 291
16.71871 290
16.73883 275
16.75894 302
16.77905 287
16.79917 276
16.81928 293
16.8394 278
16.85951 272
16.87962 293
16.89974 290
16.91985 314
16.93996 294
16.96008 282
16.98019 271
17.00031 278
17.02042 261
17.04053 267
17.06065 293
17.08076 290
17.10087 329
17.12099 323
17.1411 312
17.16121 298
17.18133 299
17.20144 255
17.22156 359
17.24167 283
17.26178 314
17.2819 293
17.30201 294
17.32212 300
17.34224 328
17.36235 305
17.38247 318
17.40258 280
17.42269 343
17.44281 266
17.46292 275
17.48303 280
17.50315 293
17.52326 269
17.54338 270
17.56349 290
17.5836 284
17.60372 304
17.62383 327
17.64394 297
17.66406 285
17.68417 292
17.70428 333
17.7244 298
17.74451 321
17.76463 290
17.78474 324
17.80485 311
17.82497 283
17.84508 310
17.86519 311
17.88531 333
17.90542 333
17.92554 303
17.94565 315
17.96576 284
17.98588 301
18.00599 314
18.0261 311
18.04622 315
18.06633 291
18.08645 290
18.10656 328
18.12667 283
18.14679 317
18.1669 326
18.18701 312
18.20713 296
18.22724 308
18.24735 333
18.26747 330
18.28758 297
18.3077 304
18.32781 257
18.34792 308
18.36804 327
18.38815 306
18.40826 317
18.42838 283
18.44849 290
18.46861 296
18.48872 331
18.50883 327
18.52895 301
18.54906 315
18.56917 297
18.58929 315
18.6094 317
18.62951 279
18.64963 319
18.66974 333
18.68986 311
18.70997 315
18.73008 327
18.7502 337
18.77031 286
18.79042 288
18.81054 328
18.83065 349
18.85077 298
18.87088 316
18.89099 315
18.91111 307
18.93122 314
18.95133 300
18.97145 319
18.99156 295
19.01168 327
19.03179 316
19.0519 285
19.07202 276
19.09213 319
19.11224 329
19.13236 309
19.15247 327
19.17258 331
19.1927 300
19.21281 319
19.23293 294
19.25304 314
19.27315 324
19.29327 347
19.31338 365
19.33349 358
19.35361 315
19.37372 313
19.39384 299
19.41395 353
19.43406 355
19.45418 336
19.47429 340
19.4944 358
19.51452 382
19.53463 373
19.55475 388
19.57486 360
19.59497 429
19.61509 414
19.6352 418
19.65531 438
19.67543 471
19.69554 489
19.71565 541
19.73577 577
19.75588 591
19.776 654
19.79611 692
19.81622 719
19.83634 782
19.85645 768
19.87656 751
19.89668 649
19.91679 719
19.93691 681
19.95702 705
19.97713 665
19.99725 672
20.01736 626
20.03747 627
20.05759 678
20.0777 642
20.09782 678
20.11793 697
20.13804 681
20.15816 672
20.17827 655
20.19838 604
20.2185 722
20.23861 678
20.25872 643
20.27884 648
20.29895 689
20.31907 699
20.33918 684
20.35929 738
20.37941 703
20.39952 724
20.41963 705
20.43975 683
20.45986 736
20.47998 767
20.50009 761
20.5202 732
20.54032 787
20.56043 782
20.58054 842
20.60066 861
20.62077 958
20.64088 990
20.661 1189
20.68111 1340
20.70123 1672
20.72134 2141
20.74145 2688
20.76157 3392
20.78168 4073
20.80179 4475
20.82191 4793
20.84202 4599
20.86214 3842
20.88225 3229
20.90236 2360
20.92248 1769
20.94259 1336
20.9627 1018
20.98282 915
21.00293 822
21.02305 764
21.04316 717
21.06327 746
21.08339 729
21.1035 701
21.12361 723
21.14373 643
21.16384 686
21.18395 660
21.20407 625
21.22418 689
21.2443 661
21.26441 683
21.28452 682
21.30464 627
21.32475 645
21.34486 685
21.36498 634
21.38509 633
21.40521 660
21.42532 625
21.44543 648
21.46555 596
21.48566 615
21.50577 617
21.52589 586
21.546 624
21.56612 564
21.58623 602
21.60634 611
21.62646 602
21.64657 595
21.66668 532
21.6868 577
21.70691 566
21.72702 524
21.74714 545
21.76725 560
21.78737 572
21.80748 527
21.82759 522
21.84771 552
21.86782 542
21.88793 520
21.90805 523
21.92816 524
21.94828 521
21.96839 508
21.9885 520
22.00862 538
22.02873 523
22.04884 488
22.06896 459
22.08907 532
22.10919 492
22.1293 467
22.14941 527
22.16953 487
22.18964 522
22.20975 520
22.22987 503
22.24998 483
22.27009 468
22.29021 507
22.31032 517
22.33044 461
22.35055 477
22.37066 519
22.39078 449
22.41089 487
22.431 454
22.45112 431
22.47123 459
22.49135 440
22.51146 413
22.53157 434
22.55169 494
22.5718 452
22.59191 416
22.61203 424
22.63214 450
22.65225 417
22.67237 485
22.69248 471
22.7126 437
22.73271 454
22.75282 427
22.77294 467
22.79305 482
22.81316 420
22.83328 421
22.85339 451
22.87351 407
22.89362 438
22.91373 409
22.93385 436
22.95396 436
22.97407 453
22.99419 436
23.0143 451
23.03442 433
23.05453 430
23.07464 432
23.09476 432
23.11487 457
23.13498 445
23.1551 409
23.17521 463
23.19532 446
23.21544 401
23.23555 414
23.25567 437
23.27578 428
23.29589 423
23.31601 422
23.33612 423
23.35623 425
23.37635 432
23.39646 435
23.41658 403
23.43669 381
23.4568 380
23.47692 411
23.49703 399
23.51714 389
23.53726 434
23.55737 407
23.57749 395
23.5976 447
23.61771 428
23.63783 438
23.65794 419
23.67805 431
23.69817 425
23.71828 435
23.73839 451
23.75851 428
23.77862 439
23.79874 433
23.81885 431
23.83896 435
23.85908 481
23.87919 428
23.8993 433
23.91942 474
23.93953 494
23.95965 508
23.97976 497
23.99987 464
24.01999 485
24.0401 450
24.06021 450
24.08033 474
24.10044 439
24.12056 428
24.14067 431
24.16078 472
24.1809 449
24.20101 471
24.22112 476
24.24124 393
24.26135 479
24.28146 483
24.30158 467
24.32169 482
24.34181 449
24.36192 465
24.38203 475
24.40215 480
24.42226 490
24.44237 472
24.46249 523
24.4826 499
24.50272 485
24.52283 516
24.54294 533
24.56306 549
24.58317 583
24.60328 591
24.6234 602
24.64351 593
24.66362 620
24.68374 693
24.70385 637
24.72397 736
24.74408 808
24.76419 777
24.78431 799
24.80442 857
24.82453 815
24.84465 858
24.86476 804
24.88488 763
24.90499 778
24.9251 778
24.94522 699
24.96533 720
24.98544 730
25.00556 641
25.02567 590
25.04579 648
25.0659 619
25.08601 595
25.10613 590
25.12624 577
25.14635 580
25.16647 604
25.18658 581
25.20669 564
25.22681 544
25.24692 584
25.26704 603
25.28715 566
25.30726 524
25.32738 556
25.34749 521
25.3676 541
25.38772 497
25.40783 465
25.42795 487
25.44806 479
25.46817 463
25.48829 512
25.5084 461
25.52851 500
25.54863 486
25.56874 474
25.58886 487
25.60897 505
25.62908 469
25.6492 477
25.66931 504
25.68942 530
25.70954 539
25.72965 539
25.74976 599
25.76988 559
25.78999 519
25.81011 573
25.83022 541
25.85033 543
25.87045 571
25.89056 611
25.91067 557
25.93079 540
25.9509 625
25.97102 511
25.99113 583
26.01124 644
26.03136 654
26.05147 616
26.07158 641
26.0917 667
26.11181 672
26.13193 730
26.15204 771
26.17215 819
26.19227 818
26.21238 897
26.23249 961
26.25261 1050
26.27272 1084
26.29283 1238
26.31295 1349
26.33306 1387
26.35318 1527
26.37329 1880
26.3934 2280
26.41352 2864
26.43363 3577
26.45374 4598
26.47386 6136
26.49397 8145
26.51409 10425
26.5342 13554
26.55431 16463
26.57443 18646
26.59454 19529
26.61465 18941
26.63477 16665
26.65488 13827
26.67499 10317
26.69511 7456
26.71522 5029
26.73534 3191
26.75545 2151
26.77556 1647
26.79568 1467
26.81579 1235
26.8359 1083
26.85602 1015
26.87613 974
26.89625 896
26.91636 856
26.93647 758
26.95659 725
26.9767 659
26.99681 654
27.01693 629
27.03704 632
27.05716 588
27.07727 560
27.09738 511
27.1175 560
27.13761 601
27.15772 536
27.17784 549
27.19795 552
27.21806 513
27.23818 483
27.25829 510
27.27841 474
27.29852 471
27.31863 476
27.33875 506
27.35886 558
27.37897 554
27.39909 484
27.4192 539
27.43932 516
27.45943 480
27.47954 471
27.49966 496
27.51977 504
27.53988 467
27.56 433
27.58011 448
27.60023 429
27.62034 456
27.64045 471
27.66057 425
27.68068 423
27.70079 412
27.72091 412
27.74102 466
27.76113 428
27.78125 364
27.80136 411
27.82148 394
27.84159 381
27.8617 401
27.88182 421
27.90193 420
27.92204 378
27.94216 430
27.96227 420
27.98239 414
28.0025 358
28.02261 394
28.04273 378
28.06284 386
28.08295 367
28.10307 364
28.12318 399
28.1433 400
28.16341 404
28.18352 409
28.20364 404
28.22375 380
28.24386 392
28.26398 389
28.28409 357
28.3042 374
28.32432 380
28.34443 375
28.36455 413
28.38466 356
28.40477 385
28.42489 382
28.445 343
28.46511 337
28.48523 360
28.50534 349
28.52546 345
28.54557 361
28.56568 365
28.5858 364
28.60591 348
28.62602 322
28.64614 351
28.66625 346
28.68636 365
28.70648 359
28.72659 364
28.74671 372
28.76682 356
28.78693 378
28.80705 330
28.82716 354
28.84727 337
28.86739 369
28.8875 384
28.90762 327
28.92773 348
28.94784 349
28.96796 365
28.98807 391
29.00818 363
29.0283 384
29.04841 371
29.06853 348
29.08864 364
29.10875 349
29.12887 351
29.14898 359
29.16909 340
29.18921 353
29.20932 338
29.22943 346
29.24955 378
29.26966 352
29.28978 353
29.30989 338
29.33 372
29.35012 330
29.37023 359
29.39034 364
29.41046 375
29.43057 365
29.45069 353
29.4708 327
29.49091 361
29.51103 284
29.53114 342
29.55125 330
29.57137 324
29.59148 303
29.6116 338
29.63171 319
29.65182 304
29.67194 332
29.69205 373
29.71216 344
29.73228 345
29.75239 348
29.7725 345
29.79262 312
29.81273 378
29.83285 371
29.85296 326
29.87307 326
29.89319 323
29.9133 377
29.93341 339
29.95353 349
29.97364 326
29.99376 331
30.01387 328
30.03398 310
30.0541 319
30.07421 346
30.09432 349
30.11444 354
30.13455 360
30.15467 323
30.17478 344
30.19489 340
30.21501 343
30.23512 327
30.25523 348
30.27535 328
30.29546 358
30.31557 345
30.33569 329
30.3558 378
30.37592 342
30.39603 315
30.41614 296
30.43626 331
30.45637 297
30.47648 352
30.4966 287
30.51671 323
30.53683 303
30.55694 327
30.57705 335
30.59717 314
30.61728 342
30.63739 341
30.65751 330
30.67762 366
30.69773 351
30.71785 311
30.73796 315
30.75808 316
30.77819 352
30.7983 336
30.81842 312
30.83853 304
30.85864 329
30.87876 307
30.89887 307
30.91899 312
30.9391 322
30.95921 304
30.97933 331
30.99944 333
31.01955 315
31.03967 297
31.05978 338
31.0799 300
31.10001 326
31.12012 334
31.14024 308
31.16035 316
31.18046 329
31.20058 317
31.22069 299
31.2408 321
31.26092 291
31.28103 302
31.30115 316
31.32126 281
31.34137 308
31.36149 317
31.3816 340
31.40171 319
31.42183 328
31.44194 322
31.46206 324
31.48217 326
31.50228 318
31.5224 280
31.54251 299
31.56262 325
31.58274 305
31.60285 297
31.62297 334
31.64308 308
31.66319 307
31.68331 303
31.70342 308
31.72353 326
31.74365 279
31.76376 313
31.78387 293
31.80399 324
31.8241 289
31.84422 300
31.86433 272
31.88444 317
31.90456 303
31.92467 325
31.94478 300
31.9649 309
31.98501 304
32.00513 318
32.02524 312
32.04535 297
32.06547 297
32.08558 353
32.10569 339
32.12581 311
32.14592 312
32.16604 343
32.18615 322
32.20626 344
32.22638 309
32.24649 311
32.2666 323
32.28672 308
32.30683 312
32.32694 282
32.34706 312
32.36717 294
32.38729 358
32.4074 340
32.42751 348
32.44763 302
32.46774 287
32.48785 322
32.50797 325
32.52808 314
32.5482 287
32.56831 332
32.58842 313
32.60854 329
32.62865 319
32.64876 328
32.66888 351
32.68899 322
32.7091 323
32.72922 314
32.74933 325
32.76945 371
32.78956 317
32.80967 343
32.82979 295
32.8499 350
32.87001 336
32.89013 381
32.91024 356
32.93036 330
32.95047 395
32.97058 400
32.9907 382
33.01081 364
33.03092 345
33.05104 430
33.07115 379
33.09127 392
33.11138 370
33.13149 391
33.15161 331
33.17172 393
33.19183 358
33.21195 383
33.23206 351
33.25217 345
33.27229 337
33.2924 380
33.31252 367
33.33263 362
33.35274 347
33.37286 365
33.39297 369
33.41308 355
33.4332 340
33.45331 341
33.47343 349
33.49354 353
33.51365 360
33.53377 339
33.55388 322
33.57399 340
33.59411 318
33.61422 342
33.63434 344
33.65445 328
33.67456 337
33.69468 356
33.71479 343
33.7349 334
33.75502 311
33.77513 316
33.79524 339
33.81536 344
33.83547 307
33.85559 319
33.8757 313
33.89581 328
33.91593 290
33.93604 337
33.95615 306
33.97627 330
33.99638 298
34.0165 326
34.03661 308
34.05672 333
34.07684 318
34.09695 331
34.11706 357
34.13718 333
34.15729 324
34.17741 315
34.19752 339
34.21763 321
34.23775 293
34.25786 344
34.27797 303
34.29809 325
34.3182 357
34.33831 342
34.35843 298
34.37854 328
34.39866 332
34.41877 327
34.43888 370
34.459 342
34.47911 332
34.49922 341
34.51934 327
34.53945 340
34.55957 355
34.57968 387
34.59979 362
34.61991 357
34.64002 383
34.66013 389
34.68025 373
34.70036 411
34.72047 436
34.74059 491
34.7607 431
34.78082 465
34.80093 518
34.82104 514
34.84116 496
34.86127 508
34.88138 533
34.9015 552
34.92161 551
34.94173 540
34.96184 514
34.98195 523
35.00207 566
35.02218 559
35.04229 448
35.06241 461
35.08252 480
35.10264 441
35.12275 488
35.14286 449
35.16298 452
35.18309 462
35.2032 460
35.22332 413
35.24343 469
35.26354 453
35.28366 466
35.30377 472
35.32389 478
35.344 533
35.36411 444
35.38423 475
35.40434 457
35.42445 525
35.44457 484
35.46468 491
35.4848 529
35.50491 473
35.52502 531
35.54514 502
35.56525 504
35.58536 502
35.60548 517
35.62559 502
35.64571 480
35.66582 520
35.68593 491
35.70605 595
35.72616 469
35.74627 517
35.76639 552
35.7865 572
35.80661 581
35.82673 547
35.84684 564
35.86696 552
35.88707 559
35.90718 551
35.9273 545
35.94741 486
35.96752 521
35.98764 526
36.00775 465
36.02787 504
36.04798 485
36.06809 520
36.08821 455
36.10832 455
36.12843 475
36.14855 479
36.16866 484
36.18878 463
36.20889 473
36.229 507
36.24912 494
36.26923 530
36.28934 577
36.30946 613
36.32957 643
36.34968 739
36.3698 842
36.38991 985
36.41003 1100
36.43014 1345
36.45025 1473
36.47037 1511
36.49048 1587
36.51059 1516
36.53071 1387
36.55082 1225
36.57094 1100
36.59105 944
36.61116 799
36.63128 733
36.65139 644
36.6715 560
36.69162 500
36.71173 452
36.73184 451
36.75196 401
36.77207 394
36.79219 416
36.8123 487
36.83241 423
36.85253 412
36.87264 458
36.89275 414
36.91287 374
36.93298 417
36.9531 424
36.97321 400
36.99332 426
37.01344 432
37.03355 392
37.05366 434
37.07378 382
37.09389 363
37.11401 456
37.13412 403
37.15423 422
37.17435 388
37.19446 403
37.21457 387
37.23469 399
37.2548 378
37.27491 391
37.29503 399
37.31514 406
37.33526 387
37.35537 391
37.37548 398
37.3956 392
37.41571 398
37.43582 365
37.45594 369
37.47605 358
37.49617 381
37.51628 368
37.53639 385
37.55651 416
37.57662 408
37.59673 397
37.61685 398
37.63696 422
37.65708 393
37.67719 407
37.6973 410
37.71742 381
37.73753 397
37.75764 430
37.77776 384
37.79787 398
37.81798 411
37.8381 353
37.85821 383
37.87833 407
37.89844 414
37.91855 419
37.93867 365
37.95878 421
37.97889 429
37.99901 403
38.01912 410
38.03924 395
38.05935 430
38.07946 437
38.09958 444
38.11969 415
38.1398 459
38.15992 435
38.18003 476
38.20015 452
38.22026 506
38.24037 490
38.26049 558
38.2806 518
38.30071 546
38.32083 547
38.34094 548
38.36105 526
38.38117 536
38.40128 599
38.4214 562
38.44151 499
38.46162 501
38.48174 576
38.50185 512
38.52196 546
38.54208 471
38.56219 487
38.58231 493
38.60242 434
38.62253 424
38.64265 468
38.66276 460
38.68287 421
38.70299 434
38.7231 427
38.74321 439
38.76333 396
38.78344 422
38.80356 406
38.82367 374
38.84378 410
38.8639 400
38.88401 416
38.90412 418
38.92424 432
38.94435 456
38.96447 413
38.98458 418
39.00469 450
39.02481 479
39.04492 462
39.06503 466
39.08515 479
39.10526 492
39.12538 466
39.14549 505
39.1656 518
39.18572 564
39.20583 594
39.22594 640
39.24606 657
39.26617 707
39.28628 759
39.3064 841
39.32651 1047
39.34663 1161
39.36674 1375
39.38685 1414
39.40697 1513
39.42708 1453
39.44719 1261
39.46731 1210
39.48742 1051
39.50754 919
39.52765 861
39.54776 770
39.56788 662
39.58799 537
39.6081 431
39.62822 356
39.64833 390
39.66845 357
39.68856 399
39.70867 354
39.72879 355
39.7489 368
39.76901 375
39.78913 345
39.80924 370
39.82935 348
39.84947 343
39.86958 362
39.8897 342
39.90981 385
39.92992 356
39.95004 412
39.97015 379
39.99026 379
40.01038 393
40.03049 436
40.05061 457
40.07072 490
40.09083 470
40.11095 525
40.13106 621
40.15117 631
40.17129 740
40.1914 832
40.21152 862
40.23163 853
40.25174 806
40.27186 815
40.29197 737
40.31208 688
40.3322 614
40.35231 582
40.37242 510
40.39254 485
40.41265 443
40.43277 432
40.45288 382
40.47299 373
40.49311 348
40.51322 358
40.53333 351
40.55345 381
40.57356 338
40.59368 316
40.61379 336
40.6339 353
40.65402 320
40.67413 356
40.69424 362
40.71436 309
40.73447 368
40.75458 376
40.7747 353
40.79481 363
40.81493 360
40.83504 361
40.85515 354
40.87527 348
40.89538 373
40.91549 374
40.93561 325
40.95572 331
40.97584 355
40.99595 346
41.01606 318
41.03618 338
41.05629 348
41.0764 364
41.09652 349
41.11663 355
41.13675 333
41.15686 342
41.17697 360
41.19709 335
41.2172 317
41.23731 369
41.25743 323
41.27754 329
41.29765 309
41.31777 334
41.33788 334
41.358 350
41.37811 305
41.39822 344
41.41834 309
41.43845 351
41.45856 301
41.47868 318
41.49879 305
41.51891 334
41.53902 327
41.55913 321
41.57925 316
41.59936 299
41.61947 327
41.63959 330
41.6597 330
41.67982 327
41.69993 345
41.72004 313
41.74016 315
41.76027 326
41.78038 334
41.8005 317
41.82061 315
41.84072 329
41.86084 319
41.88095 304
41.90107 330
41.92118 353
41.94129 325
41.96141 344
41.98152 321
42.00163 348
42.02175 312
42.04186 339
42.06198 303
42.08209 314
42.1022 387
42.12232 353
42.14243 389
42.16254 425
42.18266 401
42.20277 429
42.22289 515
42.243 474
42.26311 583
42.28323 663
42.30334 751
42.32345 919
42.34357 986
42.36368 1079
42.38379 1122
42.40391 1096
42.42402 1017
42.44414 949
42.46425 843
42.48436 764
42.50448 677
42.52459 672
42.5447 537
42.56482 456
42.58493 397
42.60505 374
42.62516 358
42.64527 324
42.66539 366
42.6855 310
42.70561 294
42.72573 312
42.74584 303
42.76595 294
42.78607 308
42.80618 282
42.8263 289
42.84641 302
42.86652 302
42.88664 283
42.90675 290
42.92686 275
42.94698 282
42.96709 284
42.98721 286
43.00732 311
43.02743 275
43.04755 281
43.06766 285
43.08777 296
43.10789 252
43.128 282
43.14812 296
43.16823 294
43.18834 276
43.20846 269
43.22857 303
43.24868 286
43.2688 282
43.28891 290
43.30902 291
43.32914 278
43.34925 281
43.36937 263
43.38948 248
43.40959 297
43.42971 287
43.44982 302
43.46993 288
43.49005 258
43.51016 298
43.53028 276
43.55039 271
43.5705 287
43.59062 288
43.61073 281
43.63084 282
43.65096 268
43.67107 269
43.69119 286
43.7113 292
43.73141 268
43.75153 276
43.77164 308
43.79175 281
43.81187 281
43.83198 282
43.85209 302
43.87221 283
43.89232 274
43.91244 267
43.93255 261
43.95266 285
43.97278 270
43.99289 262
44.013 284
44.03312 278
44.05323 268
44.07335 264
44.09346 283
44.11357 262
44.13369 263
44.1538 242
44.17391 292
44.19403 300
44.21414 275
44.23426 286
44.25437 290
44.27448 292
44.2946 259
44.31471 224
44.33482 291
44.35494 294
44.37505 258
44.39516 261
44.41528 271
44.43539 276
44.45551 296
44.47562 230
44.49573 296
44.51585 242
44.53596 266
44.55607 314
44.57619 268
44.5963 271
44.61642 275
44.63653 284
44.65664 293
44.67676 269
44.69687 284
44.71698 267
44.7371 289
44.75721 282
44.77732 277
44.79744 303
44.81755 261
44.83767 302
44.85778 284
44.87789 294
44.89801 284
44.91812 299
44.93823 294
44.95835 322
44.97846 285
44.99858 300
45.01869 274
45.0388 302
45.05892 321
45.07903 322
45.09914 296
45.11926 300
45.13937 309
45.15949 295
45.1796 323
45.19971 307
45.21983 325
45.23994 323
45.26005 307
45.28017 327
45.30028 336
45.32039 337
45.34051 357
45.36062 351
45.38074 350
45.40085 402
45.42096 368
45.44108 382
45.46119 391
45.4813 398
45.50142 404
45.52153 384
45.54165 392
45.56176 464
45.58187 495
45.60199 508
45.6221 579
45.64221 582
45.66233 663
45.68244 742
45.70256 789
45.72267 847
45.74278 813
45.7629 772
45.78301 710
45.80312 683
45.82324 539
45.84335 589
45.86346 565
45.88358 471
45.90369 454
45.92381 366
45.94392 356
45.96403 338
45.98415 361
46.00426 339
46.02437 341
46.04449 295
46.0646 329
46.08472 295
46.10483 356
46.12494 318
46.14506 316
46.16517 292
46.18528 263
46.2054 284
46.22551 286
46.24563 284
46.26574 316
46.28585 296
46.30597 295
46.32608 300
46.34619 309
46.36631 295
46.38642 332
46.40653 316
46.42665 323
46.44676 292
46.46688 317
46.48699 294
46.5071 314
46.52722 275
46.54733 292
46.56744 305
46.58756 312
46.60767 302
46.62779 322
46.6479 295
46.66801 290
46.68813 271
46.70824 313
46.72835 265
46.74847 283
46.76858 289
46.78869 294
46.80881 291
46.82892 280
46.84904 312
46.86915 302
46.88926 265
46.90938 298
46.92949 306
46.9496 313
46.96972 295
46.98983 286
47.00995 272
47.03006 288
47.05017 292
47.07029 288
47.0904 306
47.11051 293
47.13063 320
47.15074 303
47.17086 299
47.19097 281
47.21108 255
47.2312 314
47.25131 277
47.27142 256
47.29154 289
47.31165 283
47.33176 323
47.35188 279
47.37199 267
47.39211 288
47.41222 279
47.43233 256
47.45245 288
47.47256 308
47.49267 333
47.51279 287
47.5329 245
47.55302 296
47.57313 264
47.59324 286
47.61336 284
47.63347 264
47.65358 309
47.6737 306
47.69381 324
47.71393 270
47.73404 304
47.75415 313
47.77427 301
47.79438 296
47.81449 265
47.83461 272
47.85472 278
47.87483 344
47.89495 316
47.91506 307
47.93518 322
47.95529 319
47.9754 314
47.99552 329
48.01563 297
48.03574 315
48.05586 301
48.07597 314
48.09609 287
48.1162 300
48.13631 284
48.15643 317
48.17654 312
48.19665 295
48.21677 313
48.23688 303
48.257 290
48.27711 276
48.29722 292
48.31734 300
48.33745 310
48.35756 260
48.37768 285
48.39779 287
48.4179 269
48.43802 288
48.45813 300
48.47825 269
48.49836 285
48.51847 277
48.53859 297
48.5587 305
48.57881 281
48.59893 293
48.61904 293
48.63916 302
48.65927 295
48.67938 306
48.6995 287
48.71961 304
48.73972 256
48.75984 299
48.77995 281
48.80006 294
48.82018 317
48.84029 274
48.86041 279
48.88052 296
48.90063 319
48.92075 296
48.94086 303
48.96097 295
48.98109 246
49.0012 331
49.02132 314
49.04143 285
49.06154 310
49.08166 327
49.10177 262
49.12188 321
49.142 292
49.16211 284
49.18223 306
49.20234 307
49.22245 302
49.24257 326
49.26268 312
49.28279 326
49.30291 317
49.32302 316
49.34313 336
49.36325 310
49.38336 340
49.40348 336
49.42359 307
49.4437 367
49.46382 297
49.48393 326
49.50404 346
49.52416 344
49.54427 314
49.56439 343
49.5845 295
49.60461 347
49.62473 361
49.64484 330
49.66495 406
49.68507 393
49.70518 379
49.7253 395
49.74541 400
49.76552 435
49.78564 452
49.80575 439
49.82586 517
49.84598 551
49.86609 588
49.8862 660
49.90632 778
49.92643 852
49.94655 1012
49.96666 1200
49.98677 1345
50.00689 1632
50.027 1881
50.04711 2069
50.06723 2086
50.08734 2147
50.10746 1967
50.12757 1727
50.14768 1526
50.1678 1345
50.18791 1284
50.20802 1221
50.22814 1093
50.24825 923
50.26837 750
50.28848 607
50.30859 511
50.32871 444
50.34882 384
50.36893 409
50.38905 397
50.40916 348
50.42927 320
50.44939 355
50.4695 362
50.48962 342
50.50973 367
50.52984 348
50.54996 362
50.57007 357
50.59018 330
50.6103 326
50.63041 317
50.65053 341
50.67064 289
50.69075 313
50.71087 318
50.73098 315
50.75109 316
50.77121 316
50.79132 313
50.81143 321
50.83155 301
50.85166 306
50.87178 308
50.89189 299
50.912 304
50.93212 293
50.95223 297
50.97234 319
50.99246 297
51.01257 281
51.03269 288
51.0528 301
51.07291 290
51.09303 277
51.11314 291
51.13325 284
51.15337 281
51.17348 285
51.1936 240
51.21371 285
51.23382 275
51.25394 263
51.27405 268
51.29416 274
51.31428 265
51.33439 284
51.3545 271
51.37462 252
51.39473 225
51.41485 243
51.43496 264
51.45507 267
51.47519 254
51.4953 252
51.51541 290
51.53553 236
51.55564 257
51.57576 286
51.59587 274
51.61598 243
51.6361 263
51.65621 248
51.67632 266
51.69644 245
51.71655 265
51.73667 270
51.75678 255
51.77689 260
51.79701 265
51.81712 253
51.83723 258
51.85735 263
51.87746 243
51.89757 254
51.91769 239
51.9378 294
51.95792 263
51.97803 229
51.99814 280
52.01826 266
52.03837 262
52.05848 267
52.0786 263
52.09871 255
52.11883 273
52.13894 268
52.15905 258
52.17917 234
52.19928 240
52.21939 264
52.23951 293
52.25962 272
52.27974 263
52.29985 280
52.31996 261
52.34008 272
52.36019 250
52.3803 277
52.40042 288
52.42053 266
52.44064 243
52.46076 276
52.48087 244
52.50099 267
52.5211 275
52.54121 265
52.56133 255
52.58144 259
52.60155 256
52.62167 273
52.64178 264
52.6619 287
52.68201 278
52.70212 248
52.72224 273
52.74235 251
52.76246 234
52.78258 257
52.80269 270
52.8228 262
52.84292 276
52.86303 291
52.88315 241
52.90326 257
52.92337 238
52.94349 280
52.9636 261
52.98371 245
53.00383 247
53.02394 271
53.04406 262
53.06417 283
53.08428 285
53.1044 273
53.12451 277
53.14462 246
53.16474 265
53.18485 256
53.20497 278
53.22508 297
53.24519 315
53.26531 291
53.28542 275
53.30553 285
53.32565 302
53.34576 301
53.36587 301
53.38599 268
53.4061 306
53.42622 321
53.44633 261
53.46644 298
53.48656 313
53.50667 308
53.52678 294
53.5469 273
53.56701 287
53.58713 314
53.60724 346
53.62735 317
53.64747 316
53.66758 307
53.68769 318
53.70781 322
53.72792 337
53.74804 325
53.76815 313
53.78826 313
53.80838 346
53.82849 353
53.8486 356
53.86872 323
53.88883 348
53.90894 329
53.92906 342
53.94917 344
53.96929 305
53.9894 328
54.00951 358
54.02963 332
54.04974 332
54.06985 310
54.08997 360
54.11008 323
54.1302 360
54.15031 344
54.17042 339
54.19054 384
54.21065 379
54.23076 343
54.25088 393
54.27099 376
54.29111 369
54.31122 382
54.33133 365
54.35145 394
54.37156 375
54.39167 379
54.41179 356
54.4319 366
54.45201 369
54.47213 411
54.49224 353
54.51236 410
54.53247 430
54.55258 415
54.5727 458
54.59281 426
54.61292 449
54.63304 465
54.65315 538
54.67327 542
54.69338 592
54.71349 617
54.73361 746
54.75372 737
54.77383 838
54.79395 850
54.81406 866
54.83417 804
54.85429 765
54.8744 711
54.89452 659
54.91463 666
54.93474 647
54.95486 592
54.97497 587
54.99508 574
55.0152 514
55.03531 529
55.05543 477
55.07554 450
55.09565 470
55.11577 427
55.13588 478
55.15599 482
55.17611 458
55.19622 557
55.21634 520
55.23645 546
55.25656 592
55.27668 570
55.29679 538
55.3169 502
55.33702 482
55.35713 483
55.37724 487
55.39736 453
55.41747 461
55.43759 474
55.4577 391
55.47781 387
55.49793 397
55.51804 324
55.53815 343
55.55827 328
55.57838 326
55.5985 356
55.61861 351
55.63872 343
55.65884 339
55.67895 299
55.69906 348
55.71918 289
55.73929 359
55.75941 282
55.77952 315
55.79963 316
55.81975 298
55.83986 295
55.85997 332
55.88009 326
55.9002 295
55.92031 284
55.94043 289
55.96054 320
55.98066 327
56.00077 311
56.02088 316
56.041 312
56.06111 307
56.08122 312
56.10134 290
56.12145 270
56.14157 281
56.16168 279
56.18179 260
56.20191 325
56.22202 295
56.24213 273
56.26225 288
56.28236 272
56.30248 302
56.32259 278
56.3427 282
56.36282 296
56.38293 293
56.40304 283
56.42316 297
56.44327 291
56.46338 306
56.4835 280
56.50361 278
56.52373 323
56.54384 305
56.56395 296
56.58407 286
56.60418 307
56.62429 326
56.64441 312
56.66452 268
56.68464 300
56.70475 316
56.72486 317
56.74498 281
56.76509 297
56.7852 291
56.80532 305
56.82543 278
56.84554 299
56.86566 307
56.88577 298
56.90589 274
56.926 276
56.94611 323
56.96623 275
56.98634 274
57.00645 316
57.02657 270
57.04668 282
57.0668 293
57.08691 305
57.10702 317
57.12714 303
57.14725 328
57.16736 301
57.18748 305
57.20759 298
57.22771 284
57.24782 319
57.26793 290
57.28805 298
57.30816 286
57.32827 282
57.34839 304
57.3685 285
57.38861 293
57.40873 306
57.42884 307
57.44896 289
57.46907 263
57.48918 270
57.5093 280
57.52941 279
57.54952 278
57.56964 237
57.58975 264
57.60987 288
57.62998 299
57.65009 249
57.67021 279
57.69032 292
57.71043 277
57.73055 296
57.75066 265
57.77078 276
57.79089 265
57.811 278
57.83112 256
57.85123 282
57.87134 319
57.89146 241
57.91157 269
57.93168 294
57.9518 267
57.97191 273
57.99203 298
58.01214 273
58.03225 280
58.05237 260
58.07248 246
58.09259 235
58.11271 299
58.13282 272
58.15294 275
58.17305 275
58.19316 272
58.21328 268
58.23339 269
58.2535 288
58.27362 255
58.29373 274
58.31385 280
58.33396 255
58.35407 260
58.37419 267
58.3943 252
58.41441 315
58.43453 281
58.45464 250
58.47475 250
58.49487 286
58.51498 278
58.5351 264
58.55521 256
58.57532 251
58.59544 257
58.61555 263
58.63566 294
58.65578 256
58.67589 276
58.69601 264
58.71612 281
58.73623 281
58.75635 281
58.77646 279
58.79657 258
58.81669 293
58.8368 264
58.85691 266
58.87703 265
58.89714 286
58.91726 263
58.93737 279
58.95748 274
58.9776 252
58.99771 260
59.01782 289
59.03794 290
59.05805 269
59.07817 285
59.09828 261
59.11839 314
59.13851 280
59.15862 287
59.17873 270
59.19885 307
59.21896 295
59.23908 263
59.25919 265
59.2793 302
59.29942 282
59.31953 280
59.33964 284
59.35976 320
59.37987 309
59.39998 315
59.4201 327
59.44021 342
59.46033 320
59.48044 350
59.50055 313
59.52067 367
59.54078 394
59.56089 392
59.58101 368
59.60112 414
59.62124 465
59.64135 469
59.66146 477
59.68158 535
59.70169 592
59.7218 594
59.74192 713
59.76203 870
59.78215 888
59.80226 1024
59.82237 1171
59.84249 1284
59.8626 1347
59.88271 1356
59.90283 1351
59.92294 1302
59.94305 1078
59.96317 977
59.98328 938
60.0034 898
60.02351 843
60.04362 869
60.06374 791
60.08385 660
60.10396 603
60.12408 524
60.14419 440
60.16431 396
60.18442 362
60.20453 354
60.22465 360
60.24476 312
60.26487 334
60.28499 310
60.3051 272
60.32522 331
60.34533 306
60.36544 276
60.38556 299
60.40567 286
60.42578 269
60.4459 265
60.46601 267
60.48612 295
60.50624 292
60.52635 284
60.54647 280
60.56658 275
60.58669 269
60.60681 282
60.62692 269
60.64703 275
60.66715 246
60.68726 290
60.70738 281
60.72749 261
60.7476 292
60.76772 285
60.78783 271
60.80794 283
60.82806 252
60.84817 273
60.86828 263
60.8884 269
60.90851 291
60.92863 258
60.94874 266
60.96885 249
60.98897 266
61.00908 258
61.02919 268
61.04931 263
61.06942 253
61.08954 274
61.10965 287
61.12976 251
61.14988 264
61.16999 251
61.1901 270
61.21022 254
61.23033 271
61.25045 254
61.27056 262
61.29067 273
61.31079 256
61.3309 241
61.35101 262
61.37113 263
61.39124 255
61.41135 269
61.43147 242
61.45158 255
61.4717 276
61.49181 240
61.51192 270
61.53204 269
61.55215 260
61.57226 274
61.59238 291
61.61249 269
61.63261 276
61.65272 286
61.67283 282
61.69295 284
61.71306 266
61.73317 290
61.75329 321
61.7734 280
61.79352 288
61.81363 316
61.83374 291
61.85386 283
61.87397 325
61.89408 296
61.9142 303
61.93431 330
61.95442 352
61.97454 342
61.99465 336
62.01477 395
62.03488 363
62.05499 389
62.07511 391
62.09522 408
62.11533 413
62.13545 440
62.15556 430
62.17568 460
62.19579 416
62.2159 443
62.23602 425
62.25613 446
62.27624 411
62.29636 447
62.31647 414
62.33659 400
62.3567 407
62.37681 352
62.39693 370
62.41704 348
62.43715 367
62.45727 343
62.47738 350
62.49749 315
62.51761 339
62.53772 312
62.55784 310
62.57795 298
62.59806 326
62.61818 320
62.63829 310
62.6584 282
62.67852 262
62.69863 300
62.71875 302
62.73886 312
62.75897 269
62.77909 270
62.7992 286
62.81931 260
62.83943 264
62.85954 290
62.87965 255
62.89977 264
62.91988 303
62.94 266
62.96011 260
62.98022 283
63.00034 296
63.02045 267
63.04056 288
63.06068 279
63.08079 270
63.10091 271
63.12102 270
63.14113 260
63.16125 321
63.18136 278
63.20147 254
63.22159 256
63.2417 298
63.26182 262
63.28193 282
63.30204 287
63.32216 279
63.34227 276
63.36238 284
63.3825 294
63.40261 266
63.42272 290
63.44284 302
63.46295 275
63.48307 262
63.50318 279
63.52329 287
63.54341 273
63.56352 287
63.58363 300
63.60375 268
63.62386 294
63.64398 278
63.66409 312
63.6842 313
63.70432 310
63.72443 312
63.74454 343
63.76466 319
63.78477 322
63.80489 352
63.825 358
63.84511 361
63.86523 376
63.88534 423
63.90545 419
63.92557 446
63.94568 480
63.96579 483
63.98591 495
64.00602 426
64.02614 434
64.04625 379
64.06636 409
64.08648 335
64.10659 338
64.1267 372
64.14682 365
64.16693 355
64.18705 357
64.20716 299
64.22727 308
64.24739 311
64.2675 261
64.28761 332
64.30773 269
64.32784 252
64.34796 267
64.36807 255
64.38818 287
64.4083 284
64.42841 258
64.44852 254
64.46864 280
64.48875 265
64.50886 234
64.52898 272
64.54909 230
64.56921 252
64.58932 260
64.60943 236
64.62955 238
64.64966 258
64.66977 261
64.68989 236
64.71 252
64.73012 273
64.75023 252
64.77034 269
64.79046 259
64.81057 257
64.83068 273
64.8508 244
64.87091 256
64.89102 272
64.91114 267
64.93125 258
64.95137 263
64.97148 257
64.99159 247
65.01171 271
65.03182 273
65.05193 299
65.07205 258
65.09216 239
65.11228 269
65.13239 245
65.1525 242
65.17262 241
65.19273 271
65.21284 261
65.23296 249
65.25307 281
65.27319 251
65.2933 234
65.31341 242
65.33353 287
65.35364 241
65.37375 270
65.39387 283
65.41398 252
65.43409 248
65.45421 233
65.47432 267
65.49444 286
65.51455 248
65.53466 274
65.55478 257
65.57489 289
65.595 292
65.61512 302
65.63523 325
65.65535 277
65.67546 278
65.69557 264
65.71569 273
65.7358 291
65.75591 250
65.77603 265
65.79614 242
65.81626 283
65.83637 273
65.85648 258
65.8766 295
65.89671 299
65.91682 272
65.93694 232
65.95705 253
65.97716 233
65.99728 259
66.01739 244
66.03751 237
66.05762 244
66.07773 267
66.09785 235
66.11796 214
66.13807 250
66.15819 270
66.1783 254
66.19842 267
66.21853 254
66.23864 241
66.25876 251
66.27887 238
66.29898 234
66.3191 245
66.33921 257
66.35933 282
66.37944 253
66.39955 240
66.41967 269
66.43978 231
66.45989 257
66.48001 257
66.50012 251
66.52023 238
66.54035 210
66.56046 252
66.58058 245
66.60069 250
66.6208 256
66.64092 226
66.66103 241
66.68114 233
66.70126 234
66.72137 213
66.74149 266
66.7616 259
66.78171 270
66.80183 264
66.82194 241
66.84205 230
66.86217 230
66.88228 264
66.90239 245
66.92251 253
66.94262 256
66.96274 260
66.98285 302
67.00296 264
67.02308 283
67.04319 246
67.0633 252
67.08342 269
67.10353 278
67.12365 262
67.14376 284
67.16387 314
67.18399 286
67.2041 273
67.22421 264
67.24433 288
67.26444 311
67.28456 301
67.30467 310
67.32478 303
67.3449 334
67.36501 334
67.38512 339
67.40524 352
67.42535 359
67.44546 399
67.46558 428
67.48569 447
67.50581 466
67.52592 519
67.54603 606
67.56615 623
67.58626 671
67.60637 752
67.62649 836
67.6466 827
67.66672 844
67.68683 854
67.70694 802
67.72706 743
67.74717 690
67.76728 677
67.7874 683
67.80751 689
67.82763 705
67.84774 737
67.86785 744
67.88797 737
67.90808 701
67.92819 763
67.94831 797
67.96842 839
67.98853 944
68.00865 946
68.02876 996
68.04888 1126
68.06899 1146
68.0891 1139
68.10922 1085
68.12933 1076
68.14944 1017
68.16956 977
68.18967 1017
68.20979 1068
68.2299 1019
68.25001 1028
68.27013 1011
68.29024 911
68.31035 809
68.33047 688
68.35058 631
68.3707 550
68.39081 493
68.41092 523
68.43104 511
68.45115 507
68.47126 492
68.49138 378
68.51149 383
68.5316 297
68.55172 292
68.57183 303
68.59195 303
68.61206 288
68.63217 295
68.65229 297
68.6724 261
68.69251 294
68.71263 286
68.73274 264
68.75286 250
68.77297 276
68.79308 245
68.8132 261
68.83331 290
68.85342 262
68.87354 258
68.89365 254
68.91376 253
68.93388 266
68.95399 248
68.97411 235
68.99422 286
69.01433 262
69.03445 213
69.05456 252
69.07467 256
69.09479 256
69.1149 266
69.13502 243
69.15513 262
69.17524 244
69.19536 261
69.21547 243
69.23558 263
69.2557 252
69.27581 249
69.29593 273
69.31604 257
69.33615 228
69.35627 243
69.37638 262
69.39649 236
69.41661 232
69.43672 239
69.45683 227
69.47695 240
69.49706 259
69.51718 250
69.53729 230
69.5574 234
69.57752 219
69.59763 237
69.61774 229
69.63786 223
69.65797 238
69.67809 213
69.6982 265
69.71831 237
69.73843 238
69.75854 259
69.77865 249
69.79877 251
69.81888 230
69.839 239
69.85911 245
69.87922 232
69.89934 227
69.91945 211
69.93956 241
69.95968 246
69.97979 257
69.9999 223
70.02002 259
70.04013 237
70.06025 243
70.08036 226
70.10047 282
70.12059 243
70.1407 213
70.16081 249
70.18093 237
70.20104 269
70.22116 220
70.24127 213
70.26138 238
70.2815 205
70.30161 240
70.32172 228
70.34184 232
70.36195 247
70.38207 253
70.40218 253
70.42229 228
70.44241 265
70.46252 238
70.48263 219
70.50275 231
70.52286 220
70.54297 229
70.56309 228
70.5832 238
70.60332 223
70.62343 222
70.64354 244
70.66366 224
70.68377 248
70.70388 240
70.724 235
70.74411 214
70.76423 255
70.78434 223
70.80445 205
70.82457 241
70.84468 227
70.86479 238
70.88491 216
70.90502 220
70.92513 242
70.94525 225
70.96536 219
70.98548 216
71.00559 229
71.0257 242
71.04582 236
71.06593 244
71.08604 213
71.10616 200
71.12627 227
71.14639 202
71.1665 200
71.18661 226
71.20673 229
71.22684 219
71.24695 223
71.26707 221
71.28718 241
71.3073 268
71.32741 236
71.34752 234
71.36764 228
71.38775 221
71.40786 232
71.42798 226
71.44809 220
71.4682 246
71.48832 216
71.50843 208
71.52855 236
71.54866 235
71.56877 243
71.58889 232
71.609 220
71.62911 241
71.64923 229
71.66934 233
71.68946 228
71.70957 221
71.72968 243
71.7498 253
71.76991 217
71.79002 217
71.81014 256
71.83025 245
71.85037 250
71.87048 227
71.89059 222
71.91071 230
71.93082 237
71.95093 235
71.97105 246
71.99116 245
72.01127 239
72.03139 283
72.0515 214
72.07162 232
72.09173 256
72.11184 218
72.13196 230
72.15207 240
72.17218 244
72.1923 224
72.21241 233
72.23253 241
72.25264 243
72.27275 247
72.29287 241
72.31298 236
72.33309 218
72.35321 248
72.37332 226
72.39344 243
72.41355 244
72.43366 239
72.45378 235
72.47389 248
72.494 236
72.51412 266
72.53423 229
72.55434 249
72.57446 218
72.59457 209
72.61469 246
72.6348 232
72.65491 239
72.67503 239
72.69514 227
72.71525 235
72.73537 231
72.75548 221
72.7756 244
72.79571 204
72.81582 237
72.83594 234
72.85605 212
72.87616 245
72.89628 262
72.91639 240
72.9365 258
72.95662 245
72.97673 246
72.99685 227
73.01696 256
73.03707 284
73.05719 275
73.0773 264
73.09741 282
73.11753 260
73.13764 265
73.15776 267
73.17787 274
73.19798 301
73.2181 286
73.23821 322
73.25832 345
73.27844 317
73.29855 349
73.31867 397
73.33878 435
73.35889 443
73.37901 458
73.39912 453
73.41923 417
73.43935 405
73.45946 379
73.47957 336
73.49969 360
73.5198 354
73.53992 345
73.56003 317
73.58014 360
73.60026 394
73.62037 324
73.64048 316
73.6606 330
73.68071 324
73.70083 295
73.72094 288
73.74105 258
73.76117 282
73.78128 226
73.80139 243
73.82151 267
73.84162 282
73.86174 222
73.88185 233
73.90196 262
73.92208 221
73.94219 228
73.9623 226
73.98242 240
74.00253 259
74.02264 238
74.04276 261
74.06287 269
74.08299 265
74.1031 247
74.12321 242
74.14333 245
74.16344 226
74.18355 245
74.20367 249
74.22378 232
74.2439 219
74.26401 203
74.28412 223
74.30424 229
74.32435 225
74.34446 233
74.36458 222
74.38469 238
74.40481 234
74.42492 237
74.44503 271
74.46515 240
74.48526 225
74.50537 222
74.52549 215
74.5456 231
74.56571 231
74.58583 210
74.60594 246
74.62606 258
74.64617 230
74.66628 213
74.6864 232
74.70651 231
74.72662 238
74.74674 214
74.76685 234
74.78697 249
74.80708 231
74.82719 235
74.84731 217
74.86742 230
74.88753 200
74.90765 216
74.92776 243
74.94787 240
74.96799 260
74.9881 230
75.00822 243
