3.00117 20797
3.02128 20282
3.0414 19742
3.06151 19298
3.08162 18653
3.10174 18240
3.12185 17547
3.14197 16879
3.16208 16620
3.18219 15985
3.20231 15732
3.22242 15271
3.24253 14438
3.26265 14460
3.28276 13741
3.30288 13229
3.32299 13038
3.3431 12702
3.36322 12334
3.38333 11608
3.40344 11393
3.42356 11266
3.44367 10530
3.46379 10510
3.4839 9739
3.50401 9696
3.52413 9251
3.54424 8914
3.56435 8648
3.58447 8078
3.60458 7864
3.62469 7729
3.64481 7265
3.66492 7096
3.68504 6682
3.70515 6555
3.72526 6242
3.74538 5942
3.76549 5635
3.7856 5547
3.80572 5366
3.82583 5235
3.84595 4712
3.86606 4763
3.88617 4412
3.90629 4246
3.9264 4195
3.94651 3727
3.96663 3715
3.98674 3486
4.00686 3419
4.02697 3378
4.04708 2931
4.0672 2973
4.08731 2819
4.10742 2796
4.12754 2592
4.14765 2424
4.16776 2455
4.18788 2154
4.20799 2161
4.22811 2183
4.24822 1931
4.26833 1896
4.28845 1815
4.30856 1742
4.32867 1866
4.34879 1522
4.3689 1562
4.38902 1520
4.40913 1481
4.42924 1623
4.44936 1431
4.46947 1364
4.48958 1339
4.5097 1290
4.52981 1395
4.54992 1221
4.57004 1340
4.59015 1180
4.61027 1114
4.63038 1168
4.65049 1097
4.67061 1038
4.69072 1019
4.71083 1062
4.73095 1037
4.75106 957
4.77118 966
4.79129 949
4.8114 1042
4.83152 887
4.85163 883
4.87174 891
4.89186 847
4.91197 840
4.93209 779
4.9522 769
4.97231 847
4.99243 779
5.01254 761
5.03265 696
5.05277 663
5.07288 701
5.09299 670
5.11311 660
5.13322 660
5.15334 642
5.17345 604
5.19356 620
5.21368 622
5.23379 610
5.2539 546
5.27402 569
5.29413 568
5.31425 523
5.33436 540
5.35447 518
5.37459 495
5.3947 521
5.41481 539
5.43493 482
5.45504 438
5.47516 425
5.49527 466
5.51538 468
5.5355 379
5.55561 392
5.57572 402
5.59584 426
5.61595 378
5.63606 393
5.65618 349
5.67629 381
5.69641 345
5.71652 370
5.73663 339
5.75675 382
5.77686 346
5.79697 372
5.81709 350
5.8372 337
5.85732 323
5.87743 336
5.89754 360
5.91766 319
5.93777 325
5.95788 314
5.978 300
5.99811 301
6.01823 310
6.03834 317
6.05845 303
6.07857 322
6.09868 271
6.11879 281
6.13891 317
6.15902 302
6.17913 293
6.19925 287
6.21936 264
6.23948 293
6.25959 276
6.2797 300
6.29982 309
6.31993 303
6.34004 281
6.36016 280
6.38027 266
6.40039 256
6.4205 294
6.44061 242
6.46073 241
6.48084 280
6.50095 263
6.52107 291
6.54118 282
6.56129 277
6.58141 265
6.60152 283
6.62164 277
6.64175 309
6.66186 263
6.68198 275
6.70209 274
6.7222 260
6.74232 254
6.76243 302
6.78255 250
6.80266 293
6.82277 235
6.84289 275
6.863 240
6.88311 278
6.90323 282
6.92334 235
6.94346 260
6.96357 294
6.98368 257
7.0038 267
7.02391 286
7.04402 259
7.06414 257
7.08425 278
7.10436 212
7.12448 279
7.14459 257
7.16471 251
7.18482 261
7.20493 287
7.22505 232
7.24516 259
7.26527 304
7.28539 275
7.3055 295
7.32562 266
7.34573 247
7.36584 261
7.38596 268
7.40607 250
7.42618 299
7.4463 295
7.46641 241
7.48653 263
7.50664 238
7.52675 281
7.54687 285
7.56698 283
7.58709 270
7.60721 233
7.62732 288
7.64743 261
7.66755 288
7.68766 253
7.70778 290
7.72789 272
7.748 280
7.76812 244
7.78823 245
7.80834 279
7.82846 260
7.84857 270
7.86869 268
7.8888 301
7.90891 273
7.92903 287
7.94914 256
7.96925 296
7.98937 305
8.00948 300
8.0296 274
8.04971 264
8.06982 275
8.08994 291
8.11005 271
8.13016 265
8.15028 286
8.17039 245
8.1905 274
8.21062 287
8.23073 287
8.25085 281
8.27096 276
8.29107 297
8.31119 282
8.3313 315
8.35141 277
8.37153 292
8.39164 260
8.41176 230
8.43187 287
8.45198 288
8.4721 282
8.49221 276
8.51232 321
8.53244 267
8.55255 262
8.57266 263
8.59278 278
8.61289 302
8.63301 282
8.65312 263
8.67323 292
8.69335 299
8.71346 280
8.73357 279
8.75369 300
8.7738 298
8.79392 306
8.81403 306
8.83414 304
8.85426 282
8.87437 282
8.89448 293
8.9146 299
8.93471 286
8.95483 305
8.97494 301
8.99505 289
9.01517 306
9.03528 307
9.05539 266
9.07551 284
9.09562 276
9.11573 286
9.13585 302
9.15596 259
9.17608 263
9.19619 279
9.2163 257
9.23642 322
9.25653 290
9.27664 303
9.29676 288
9.31687 328
9.33699 301
9.3571 322
9.37721 261
9.39733 275
9.41744 279
9.43755 286
9.45767 302
9.47778 265
9.4979 283
9.51801 274
9.53812 283
9.55824 276
9.57835 265
9.59846 270
9.61858 279
9.63869 300
9.6588 307
9.67892 297
9.69903 304
9.71915 320
9.73926 259
9.75937 309
9.77949 262
9.7996 279
9.81971 277
9.83983 287
9.85994 274
9.88006 279
9.90017 285
9.92028 271
9.9404 286
9.96051 304
9.98062 277
10.00074 266
10.02085 256
10.04097 298
10.06108 299
10.08119 295
10.10131 287
10.12142 297
10.14153 272
10.16165 292
10.18176 299
10.20187 289
10.22199 296
10.2421 291
10.26222 297
10.28233 267
10.30244 307
10.32256 289
10.34267 294
10.36278 274
10.3829 272
10.40301 333
10.42313 290
10.44324 292
10.46335 294
10.48347 290
10.50358 285
10.52369 326
10.54381 261
10.56392 294
10.58403 287
10.60415 287
10.62426 314
10.64438 297
10.66449 290
10.6846 299
10.70472 303
10.72483 266
10.74494 301
10.76506 297
10.78517 286
10.80529 303
10.8254 301
10.84551 287
10.86563 307
10.88574 285
10.90585 305
10.92597 321
10.94608 286
10.9662 313
10.98631 278
11.00642 320
11.02654 314
11.04665 310
11.06676 294
11.08688 311
11.10699 293
11.1271 283
11.14722 287
11.16733 253
11.18745 279
11.20756 281
11.22767 304
11.24779 298
11.2679 298
11.28801 288
11.30813 279
11.32824 303
11.34836 301
11.36847 292
11.38858 318
11.4087 289
11.42881 284
11.44892 313
11.46904 304
11.48915 320
11.50927 335
11.52938 282
11.54949 304
11.56961 259
11.58972 288
11.60983 266
11.62995 284
11.65006 328
11.67017 294
11.69029 277
11.7104 311
11.73052 326
11.75063 334
11.77074 350
11.79086 300
11.81097 324
11.83108 368
11.8512 354
11.87131 338
11.89143 345
11.91154 322
11.93165 360
11.95177 379
11.97188 379
11.99199 369
12.01211 401
12.03222 386
12.05234 372
12.07245 414
12.09256 392
12.11268 441
12.13279 407
12.1529 390
12.17302 475
12.19313 472
12.21324 489
12.23336 494
12.25347 508
12.27359 555
12.2937 551
12.31381 606
12.33393 580
12.35404 596
12.37415 604
12.39427 564
12.41438 527
12.4345 475
12.45461 508
12.47472 481
12.49484 448
12.51495 402
12.53506 396
12.55518 393
12.57529 424
12.5954 411
12.61552 366
12.63563 360
12.65575 326
12.67586 356
12.69597 356
12.71609 334
12.7362 330
12.75631 337
12.77643 334
12.79654 307
12.81666 332
12.83677 284
12.85688 279
12.877 268
12.89711 291
12.91722 281
12.93734 273
12.95745 263
12.97757 284
12.99768 283
13.01779 283
13.03791 299
13.05802 283
13.07813 296
13.09825 290
13.11836 282
13.13847 277
13.15859 277
13.1787 264
13.19882 224
13.21893 279
13.23904 259
13.25916 269
13.27927 263
13.29938 269
13.3195 245
13.33961 246
13.35973 248
13.37984 260
13.39995 251
13.42007 250
13.44018 270
13.46029 290
13.48041 268
13.50052 286
13.52064 256
13.54075 265
13.56086 281
13.58098 260
13.60109 257
13.6212 247
13.64132 269
13.66143 242
13.68154 269
13.70166 300
13.72177 247
13.74189 274
13.762 251
13.78211 249
13.80223 276
13.82234 255
13.84245 277
13.86257 262
13.88268 257
13.9028 273
13.92291 255
13.94302 262
13.96314 244
13.98325 255
14.00336 265
14.02348 238
14.04359 272
14.06371 243
14.08382 268
14.10393 291
14.12405 239
14.14416 222
14.16427 268
14.18439 291
14.2045 252
14.22461 247
14.24473 254
14.26484 242
14.28496 290
14.30507 245
14.32518 262
14.3453 262
14.36541 276
14.38552 270
14.40564 280
14.42575 245
14.44587 243
14.46598 221
14.48609 267
14.50621 258
14.52632 260
14.54643 244
14.56655 213
14.58666 240
14.60677 259
14.62689 258
14.647 262
14.66712 244
14.68723 236
14.70734 244
14.72746 206
14.74757 245
14.76768 260
14.7878 232
14.80791 254
14.82803 241
14.84814 231
14.86825 249
14.88837 242
14.90848 254
14.92859 262
14.94871 242
14.96882 252
14.98894 264
15.00905 228
15.02916 263
15.04928 255
15.06939 253
15.0895 250
15.10962 236
15.12973 252
15.14984 252
15.16996 251
15.19007 241
15.21019 242
15.2303 219
15.25041 226
15.27053 240
15.29064 241
15.31075 260
15.33087 237
15.35098 282
15.3711 255
15.39121 239
15.41132 235
15.43144 259
15.45155 258
15.47166 269
15.49178 263
15.51189 226
15.53201 260
15.55212 257
15.57223 250
15.59235 238
15.61246 263
15.63257 226
15.65269 245
15.6728 244
15.69291 242
15.71303 256
15.73314 229
15.75326 240
15.77337 222
15.79348 248
15.8136 237
15.83371 250
15.85382 246
15.87394 245
15.89405 266
15.91417 229
15.93428 224
15.95439 253
15.97451 249
15.99462 262
16.01473 251
16.03485 278
16.05496 234
16.07508 210
16.09519 247
16.1153 246
16.13542 239
16.15553 242
16.17564 261
16.19576 241
16.21587 232
16.23598 234
16.2561 231
16.27621 249
16.29633 264
16.31644 225
16.33655 218
16.35667 232
16.37678 252
16.39689 209
16.41701 232
16.43712 244
16.45724 243
16.47735 235
16.49746 207
16.51758 249
16.53769 240
16.5578 216
16.57792 238
16.59803 226
16.61814 239
16.63826 225
16.65837 263
16.67849 244
16.6986 271
16.71871 236
16.73883 231
16.75894 223
16.77905 239
16.79917 224
16.81928 246
16.8394 231
16.85951 245
16.87962 218
16.89974 213
16.91985 239
16.93996 218
16.96008 232
16.98019 231
17.00031 227
17.02042 218
17.04053 244
17.06065 255
17.08076 214
17.10087 263
17.12099 225
17.1411 237
17.16121 222
17.18133 230
17.20144 246
17.22156 259
17.24167 226
17.26178 246
17.2819 266
17.30201 249
17.32212 259
17.34224 247
17.36235 233
17.38247 283
17.40258 226
17.42269 234
17.44281 226
17.46292 258
17.48303 238
17.50315 255
17.52326 267
17.54338 248
17.56349 278
17.5836 233
17.60372 217
17.62383 273
17.64394 258
17.66406 266
17.68417 238
17.70428 257
17.7244 235
17.74451 285
17.76463 238
17.78474 251
17.80485 259
17.82497 257
17.84508 280
17.86519 296
17.88531 264
17.90542 241
17.92554 241
17.94565 237
17.96576 254
17.98588 238
18.00599 241
18.0261 236
18.04622 235
18.06633 251
18.08645 254
18.10656 217
18.12667 257
18.14679 247
18.1669 247
18.18701 228
18.20713 226
18.22724 242
18.24735 224
18.26747 228
18.28758 252
18.3077 272
18.32781 242
18.34792 268
18.36804 255
18.38815 223
18.40826 244
18.42838 210
18.44849 248
18.46861 280
18.48872 236
18.50883 233
18.52895 240
18.54906 243
18.56917 240
18.58929 269
18.6094 248
18.62951 283
18.64963 219
18.66974 245
18.68986 258
18.70997 247
18.73008 265
18.7502 230
18.77031 254
18.79042 254
18.81054 237
18.83065 249
18.85077 240
18.87088 271
18.89099 262
18.91111 240
18.93122 233
18.95133 264
18.97145 243
18.99156 251
19.01168 238
19.03179 236
19.0519 249
19.07202 245
19.09213 235
19.11224 227
19.13236 219
19.15247 243
19.17258 258
19.1927 257
19.21281 253
19.23293 220
19.25304 254
19.27315 238
19.29327 262
19.31338 240
19.33349 249
19.35361 225
19.37372 236
19.39384 255
19.41395 247
19.43406 240
19.45418 255
19.47429 269
19.4944 272
19.51452 279
19.53463 277
19.55475 280
19.57486 267
19.59497 267
19.61509 292
19.6352 273
19.65531 285
19.67543 298
19.69554 302
19.71565 316
19.73577 344
19.75588 362
19.776 379
19.79611 353
19.81622 439
19.83634 410
19.85645 463
19.87656 455
19.89668 442
19.91679 505
19.93691 462
19.95702 451
19.97713 461
19.99725 453
20.01736 471
20.03747 425
20.05759 412
20.0777 442
20.09782 425
20.11793 417
20.13804 467
20.15816 467
20.17827 439
20.19838 382
20.2185 453
20.23861 469
20.25872 474
20.27884 471
20.29895 418
20.31907 442
20.33918 481
20.35929 455
20.37941 506
20.39952 466
20.41963 454
20.43975 523
20.45986 560
20.47998 499
20.50009 522
20.5202 538
20.54032 515
20.56043 557
20.58054 493
20.60066 531
20.62077 617
20.64088 617
20.661 705
20.68111 744
20.70123 909
20.72134 1038
20.74145 1402
20.76157 1857
20.78168 2537
20.80179 3547
20.82191 4790
20.84202 5773
20.86214 7016
20.88225 7003
20.90236 6169
20.92248 4679
20.94259 3343
20.9627 2257
20.98282 1383
21.00293 968
21.02305 743
21.04316 730
21.06327 658
21.08339 586
21.1035 638
21.12361 598
21.14373 554
21.16384 572
21.18395 562
21.20407 550
21.22418 533
21.2443 516
21.26441 564
21.28452 528
21.30464 521
21.32475 574
21.34486 498
21.36498 530
21.38509 556
21.40521 553
21.42532 480
21.44543 522
21.46555 494
21.48566 451
21.50577 468
21.52589 486
21.546 394
21.56612 410
21.58623 394
21.60634 450
21.62646 402
21.64657 425
21.66668 410
21.6868 413
21.70691 391
21.72702 417
21.74714 380
21.76725 363
21.78737 402
21.80748 348
21.82759 382
21.84771 357
21.86782 364
21.88793 406
21.90805 355
21.92816 369
21.94828 376
21.96839 338
21.9885 352
22.00862 375
22.02873 396
22.04884 396
22.06896 345
22.08907 319
22.10919 364
22.1293 316
22.14941 329
22.16953 340
22.18964 350
22.20975 357
22.22987 290
22.24998 356
22.27009 326
22.29021 323
22.31032 334
22.33044 345
22.35055 353
22.37066 339
22.39078 298
22.41089 353
22.431 311
22.45112 314
22.47123 356
22.49135 325
22.51146 369
22.53157 334
22.55169 340
22.5718 324
22.59191 297
22.61203 317
22.63214 313
22.65225 327
22.67237 276
22.69248 371
22.7126 331
22.73271 316
22.75282 341
22.77294 334
22.79305 349
22.81316 319
22.83328 299
22.85339 322
22.87351 321
22.89362 336
22.91373 311
22.93385 326
22.95396 309
22.97407 326
22.99419 313
23.0143 328
23.03442 332
23.05453 317
23.07464 347
23.09476 315
23.11487 314
23.13498 326
23.1551 348
23.17521 306
23.19532 331
23.21544 350
23.23555 293
23.25567 349
23.27578 337
23.29589 316
23.31601 306
23.33612 284
23.35623 318
23.37635 295
23.39646 299
23.41658 316
23.43669 335
23.4568 284
23.47692 324
23.49703 289
23.51714 311
23.53726 312
23.55737 312
23.57749 285
23.5976 324
23.61771 302
23.63783 303
23.65794 305
23.67805 296
23.69817 297
23.71828 338
23.73839 354
23.75851 309
23.77862 308
23.79874 299
23.81885 326
23.83896 313
23.85908 312
23.87919 344
23.8993 315
23.91942 339
23.93953 348
23.95965 358
23.97976 405
23.99987 364
24.01999 419
24.0401 380
24.06021 379
24.08033 344
24.10044 361
24.12056 341
24.14067 363
24.16078 367
24.1809 331
24.20101 362
24.22112 332
24.24124 337
24.26135 360
24.28146 321
24.30158 339
24.32169 311
24.34181 366
24.36192 351
24.38203 339
24.40215 339
24.42226 354
24.44237 322
24.46249 328
24.4826 331
24.50272 330
24.52283 367
24.54294 353
24.56306 383
24.58317 370
24.60328 387
24.6234 382
24.64351 398
24.66362 417
24.68374 374
24.70385 432
24.72397 448
24.74408 432
24.76419 425
24.78431 483
24.80442 556
24.82453 459
24.84465 529
24.86476 507
24.88488 503
24.90499 452
24.9251 543
24.94522 500
24.96533 502
24.98544 469
25.00556 431
25.02567 476
25.04579 491
25.0659 462
25.08601 405
25.10613 419
25.12624 392
25.14635 444
25.16647 400
25.18658 398
25.20669 391
25.22681 401
25.24692 407
25.26704 404
25.28715 393
25.30726 336
25.32738 370
25.34749 384
25.3676 380
25.38772 354
25.40783 367
25.42795 331
25.44806 327
25.46817 369
25.48829 344
25.5084 344
25.52851 374
25.54863 349
25.56874 356
25.58886 363
25.60897 354
25.62908 370
25.6492 417
25.66931 380
25.68942 440
25.70954 418
25.72965 491
25.74976 474
25.76988 440
25.78999 490
25.81011 473
25.83022 485
25.85033 475
25.87045 503
25.89056 447
25.91067 480
25.93079 460
25.9509 526
25.97102 548
25.99113 459
26.01124 521
26.03136 541
26.05147 594
26.07158 539
26.0917 550
26.11181 565
26.13193 557
26.15204 621
26.17215 659
26.19227 701
26.21238 748
26.23249 794
26.25261 758
26.27272 826
26.29283 909
26.31295 966
26.33306 1001
26.35318 1100
26.37329 1281
26.3934 1399
26.41352 1617
26.43363 1888
26.45374 2431
26.47386 3061
26.49397 4150
26.51409 5627
26.5342 8014
26.55431 11271
26.57443 15447
26.59454 20768
26.61465 26094
26.63477 30825
26.65488 31631
26.67499 28309
26.69511 22338
26.71522 17015
26.73534 12653
26.75545 8023
26.77556 4273
26.79568 2643
26.81579 1795
26.8359 1557
26.85602 1356
26.87613 1220
26.89625 1129
26.91636 1060
26.93647 933
26.95659 840
26.9767 819
26.99681 752
27.01693 702
27.03704 644
27.05716 612
27.07727 594
27.09738 532
27.1175 563
27.13761 498
27.15772 509
27.17784 500
27.19795 515
27.21806 455
27.23818 500
27.25829 429
27.27841 429
27.29852 474
27.31863 453
27.33875 456
27.35886 490
27.37897 478
27.39909 441
27.4192 461
27.43932 494
27.45943 458
27.47954 441
27.49966 474
27.51977 455
27.53988 418
27.56 419
27.58011 408
27.60023 363
27.62034 362
27.64045 380
27.66057 377
27.68068 367
27.70079 381
27.72091 397
27.74102 387
27.76113 357
27.78125 350
27.80136 410
27.82148 366
27.84159 377
27.8617 388
27.88182 347
27.90193 376
27.92204 348
27.94216 376
27.96227 393
27.98239 351
28.0025 354
28.02261 351
28.04273 350
28.06284 353
28.08295 321
28.10307 358
28.12318 308
28.1433 323
28.16341 345
28.18352 315
28.20364 340
28.22375 359
28.24386 325
28.26398 336
28.28409 322
28.3042 322
28.32432 315
28.34443 325
28.36455 291
28.38466 324
28.40477 332
28.42489 324
28.445 282
28.46511 322
28.48523 321
28.50534 299
28.52546 350
28.54557 320
28.56568 330
28.5858 351
28.60591 371
28.62602 287
28.64614 296
28.66625 329
28.68636 320
28.70648 286
28.72659 279
28.74671 308
28.76682 301
28.78693 309
28.80705 329
28.82716 311
28.84727 320
28.86739 309
28.8875 304
28.90762 300
28.92773 295
28.94784 299
28.96796 320
28.98807 300
29.00818 334
29.0283 287
29.04841 312
29.06853 309
29.08864 332
29.10875 301
29.12887 301
29.14898 314
29.16909 308
29.18921 272
29.20932 320
29.22943 303
29.24955 295
29.26966 326
29.28978 299
29.30989 310
29.33 269
29.35012 283
29.37023 307
29.39034 318
29.41046 295
29.43057 267
29.45069 332
29.4708 288
29.49091 323
29.51103 283
29.53114 307
29.55125 320
29.57137 322
29.59148 334
29.6116 317
29.63171 326
29.65182 303
29.67194 316
29.69205 341
29.71216 308
29.73228 291
29.75239 276
29.7725 284
29.79262 288
29.81273 278
29.83285 288
29.85296 290
29.87307 284
29.89319 257
29.9133 288
29.93341 290
29.95353 303
29.97364 268
29.99376 279
30.01387 251
30.03398 280
30.0541 311
30.07421 297
30.09432 305
30.11444 268
30.13455 294
30.15467 277
30.17478 307
30.19489 282
30.21501 260
30.23512 287
30.25523 315
30.27535 310
30.29546 299
30.31557 262
30.33569 285
30.3558 276
30.37592 300
30.39603 262
30.41614 294
30.43626 263
30.45637 261
30.47648 300
30.4966 303
30.51671 260
30.53683 273
30.55694 276
30.57705 275
30.59717 273
30.61728 264
30.63739 309
30.65751 310
30.67762 261
30.69773 287
30.71785 285
30.73796 283
30.75808 269
30.77819 282
30.7983 269
30.81842 257
30.83853 288
30.85864 290
30.87876 261
30.89887 269
30.91899 288
30.9391 293
30.95921 267
30.97933 277
30.99944 271
31.01955 279
31.03967 282
31.05978 307
31.0799 271
31.10001 269
31.12012 278
31.14024 258
31.16035 254
31.18046 284
31.20058 261
31.22069 274
31.2408 277
31.26092 237
31.28103 281
31.30115 288
31.32126 256
31.34137 252
31.36149 289
31.3816 270
31.40171 247
31.42183 259
31.44194 264
31.46206 265
31.48217 262
31.50228 266
31.5224 281
31.54251 246
31.56262 302
31.58274 247
31.60285 289
31.62297 298
31.64308 287
31.66319 280
31.68331 247
31.70342 245
31.72353 243
31.74365 264
31.76376 274
31.78387 258
31.80399 263
31.8241 265
31.84422 255
31.86433 224
31.88444 260
31.90456 251
31.92467 253
31.94478 273
31.9649 288
31.98501 260
32.00513 256
32.02524 267
32.04535 245
32.06547 250
32.08558 260
32.10569 246
32.12581 264
32.14592 264
32.16604 267
32.18615 255
32.20626 266
32.22638 251
32.24649 306
32.2666 306
32.28672 251
32.30683 323
32.32694 267
32.34706 275
32.36717 268
32.38729 320
32.4074 264
32.42751 311
32.44763 295
32.46774 294
32.48785 299
32.50797 313
32.52808 307
32.5482 293
32.56831 289
32.58842 267
32.60854 289
32.62865 282
32.64876 276
32.66888 284
32.68899 281
32.7091 295
32.72922 290
32.74933 252
32.76945 278
32.78956 266
32.80967 288
32.82979 311
32.8499 292
32.87001 286
32.89013 308
32.91024 293
32.93036 295
32.95047 287
32.97058 301
32.9907 293
33.01081 316
33.03092 310
33.05104 308
33.07115 308
33.09127 336
33.11138 344
33.13149 285
33.15161 330
33.17172 314
33.19183 334
33.21195 361
33.23206 347
33.25217 322
33.27229 355
33.2924 358
33.31252 349
33.33263 322
33.35274 343
33.37286 328
33.39297 347
33.41308 361
33.4332 316
33.45331 292
33.47343 300
33.49354 313
33.51365 322
33.53377 321
33.55388 331
33.57399 294
33.59411 289
33.61422 283
33.63434 328
33.65445 318
33.67456 273
33.69468 262
33.71479 267
33.7349 286
33.75502 274
33.77513 286
33.79524 264
33.81536 282
33.83547 251
33.85559 284
33.8757 272
33.89581 277
33.91593 271
33.93604 265
33.95615 253
33.97627 243
33.99638 241
34.0165 247
34.03661 240
34.05672 249
34.07684 241
34.09695 252
34.11706 264
34.13718 232
34.15729 267
34.17741 240
34.19752 262
34.21763 281
34.23775 293
34.25786 246
34.27797 263
34.29809 248
34.3182 279
34.33831 269
34.35843 248
34.37854 224
34.39866 246
34.41877 268
34.43888 269
34.459 264
34.47911 274
34.49922 287
34.51934 260
34.53945 254
34.55957 285
34.57968 293
34.59979 317
34.61991 296
34.64002 272
34.66013 296
34.68025 298
34.70036 331
34.72047 309
34.74059 281
34.7607 321
34.78082 332
34.80093 357
34.82104 351
34.84116 378
34.86127 353
34.88138 407
34.9015 366
34.92161 367
34.94173 405
34.96184 389
34.98195 385
35.00207 402
35.02218 407
35.04229 356
35.06241 379
35.08252 365
35.10264 370
35.12275 421
35.14286 397
35.16298 372
35.18309 347
35.2032 348
35.22332 353
35.24343 320
35.26354 355
35.28366 379
35.30377 362
35.32389 342
35.344 321
35.36411 386
35.38423 364
35.40434 321
35.42445 368
35.44457 342
35.46468 345
35.4848 350
35.50491 374
35.52502 358
35.54514 355
35.56525 366
35.58536 404
35.60548 334
35.62559 375
35.64571 365
35.66582 368
35.68593 425
35.70605 378
35.72616 393
35.74627 422
35.76639 424
35.7865 404
35.80661 392
35.82673 426
35.84684 408
35.86696 416
35.88707 377
35.90718 382
35.9273 416
35.94741 386
35.96752 368
35.98764 401
36.00775 410
36.02787 398
36.04798 388
36.06809 358
36.08821 346
36.10832 299
36.12843 349
36.14855 342
36.16866 357
36.18878 372
36.20889 364
36.229 344
36.24912 341
36.26923 400
36.28934 382
36.30946 426
36.32957 469
36.34968 482
36.3698 538
36.38991 597
36.41003 743
36.43014 926
36.45025 1142
36.47037 1394
36.49048 1664
36.51059 1972
36.53071 2196
36.55082 2293
36.57094 2047
36.59105 1722
36.61116 1482
36.63128 1317
36.65139 1171
36.6715 907
36.69162 678
36.71173 550
36.73184 425
36.75196 418
36.77207 418
36.79219 378
36.8123 375
36.83241 440
36.85253 393
36.87264 357
36.89275 376
36.91287 388
36.93298 399
36.9531 342
36.97321 346
36.99332 345
37.01344 343
37.03355 326
37.05366 341
37.07378 342
37.09389 302
37.11401 334
37.13412 302
37.15423 305
37.17435 280
37.19446 292
37.21457 288
37.23469 303
37.2548 293
37.27491 323
37.29503 295
37.31514 299
37.33526 305
37.35537 296
37.37548 347
37.3956 281
37.41571 342
37.43582 375
37.45594 314
37.47605 345
37.49617 334
37.51628 309
37.53639 318
37.55651 291
37.57662 327
37.59673 294
37.61685 319
37.63696 282
37.65708 333
37.67719 301
37.6973 280
37.71742 284
37.73753 336
37.75764 333
37.77776 297
37.79787 320
37.81798 312
37.8381 326
37.85821 323
37.87833 311
37.89844 306
37.91855 324
37.93867 299
37.95878 302
37.97889 330
37.99901 294
38.01912 325
38.03924 305
38.05935 331
38.07946 338
38.09958 363
38.11969 326
38.1398 331
38.15992 345
38.18003 375
38.20015 345
38.22026 343
38.24037 350
38.26049 398
38.2806 361
38.30071 377
38.32083 349
38.34094 383
38.36105 372
38.38117 388
38.40128 405
38.4214 374
38.44151 366
38.46162 370
38.48174 392
38.50185 355
38.52196 374
38.54208 356
38.56219 365
38.58231 341
38.60242 360
38.62253 316
38.64265 327
38.66276 342
38.68287 327
38.70299 317
38.7231 318
38.74321 338
38.76333 333
38.78344 340
38.80356 315
38.82367 328
38.84378 325
38.8639 312
38.88401 314
38.90412 309
38.92424 313
38.94435 323
38.96447 309
38.98458 323
39.00469 343
39.02481 337
39.04492 368
39.06503 363
39.08515 354
39.10526 366
39.12538 356
39.14549 377
39.1656 402
39.18572 387
39.20583 435
39.22594 402
39.24606 462
39.26617 522
39.28628 569
39.3064 623
39.32651 710
39.34663 813
39.36674 951
39.38685 1239
39.40697 1508
39.42708 1779
39.44719 2061
39.46731 2178
39.48742 2009
39.50754 1579
39.52765 1336
39.54776 1211
39.56788 1130
39.58799 999
39.6081 792
39.62822 552
39.64833 453
39.66845 391
39.68856 368
39.70867 369
39.72879 312
39.7489 325
39.76901 341
39.78913 313
39.80924 304
39.82935 303
39.84947 298
39.86958 305
39.8897 312
39.90981 273
39.92992 300
39.95004 306
39.97015 294
39.99026 308
40.01038 294
40.03049 305
40.05061 413
40.07072 370
40.09083 348
40.11095 391
40.13106 449
40.15117 496
40.17129 539
40.1914 660
40.21152 770
40.23163 898
40.25174 1021
40.27186 1119
40.29197 1121
40.31208 1149
40.3322 892
40.35231 774
40.37242 745
40.39254 711
40.41265 633
40.43277 515
40.45288 429
40.47299 369
40.49311 348
40.51322 326
40.53333 325
40.55345 285
40.57356 303
40.59368 274
40.61379 287
40.6339 276
40.65402 298
40.67413 281
40.69424 286
40.71436 273
40.73447 299
40.75458 282
40.7747 293
40.79481 290
40.81493 279
40.83504 254
40.85515 303
40.87527 295
40.89538 284
40.91549 287
40.93561 284
40.95572 253
40.97584 299
40.99595 303
41.01606 276
41.03618 262
41.05629 281
41.0764 273
41.09652 298
41.11663 279
41.13675 287
41.15686 302
41.17697 290
41.19709 252
41.2172 298
41.23731 277
41.25743 304
41.27754 254
41.29765 302
41.31777 287
41.33788 273
41.358 292
41.37811 270
41.39822 283
41.41834 273
41.43845 286
41.45856 275
41.47868 279
41.49879 286
41.51891 271
41.53902 275
41.55913 254
41.57925 281
41.59936 269
41.61947 250
41.63959 253
41.6597 241
41.67982 259
41.69993 289
41.72004 269
41.74016 266
41.76027 256
41.78038 272
41.8005 283
41.82061 242
41.84072 268
41.86084 261
41.88095 256
41.90107 269
41.92118 279
41.94129 288
41.96141 264
41.98152 259
42.00163 263
42.02175 267
42.04186 289
42.06198 273
42.08209 277
42.1022 278
42.12232 293
42.14243 300
42.16254 321
42.18266 295
42.20277 324
42.22289 340
42.243 368
42.26311 414
42.28323 485
42.30334 530
42.32345 660
42.34357 771
42.36368 896
42.38379 1091
42.40391 1245
42.42402 1406
42.44414 1502
42.46425 1426
42.48436 1215
42.50448 999
42.52459 888
42.5447 875
42.56482 812
42.58493 701
42.60505 547
42.62516 378
42.64527 353
42.66539 318
42.6855 278
42.70561 268
42.72573 252
42.74584 281
42.76595 255
42.78607 281
42.80618 271
42.8263 245
42.84641 248
42.86652 261
42.88664 217
42.90675 254
42.92686 276
42.94698 221
42.96709 224
42.98721 283
43.00732 241
43.02743 244
43.04755 223
43.06766 249
43.08777 224
43.10789 239
43.128 225
43.14812 223
43.16823 226
43.18834 241
43.20846 240
43.22857 232
43.24868 239
43.2688 210
43.28891 240
43.30902 224
43.32914 237
43.34925 256
43.36937 247
43.38948 244
43.40959 233
43.42971 251
43.44982 250
43.46993 249
43.49005 252
43.51016 245
43.53028 227
43.55039 226
43.5705 249
43.59062 231
43.61073 225
43.63084 232
43.65096 243
43.67107 222
43.69119 224
43.7113 235
43.73141 223
43.75153 250
43.77164 228
43.79175 231
43.81187 235
43.83198 227
43.85209 233
43.87221 220
43.89232 221
43.91244 220
43.93255 243
43.95266 246
43.97278 206
43.99289 233
44.013 215
44.03312 217
44.05323 218
44.07335 216
44.09346 234
44.11357 243
44.13369 226
44.1538 229
44.17391 225
44.19403 215
44.21414 226
44.23426 215
44.25437 237
44.27448 227
44.2946 209
44.31471 220
44.33482 252
44.35494 216
44.37505 229
44.39516 221
44.41528 216
44.43539 247
44.45551 220
44.47562 224
44.49573 244
44.51585 227
44.53596 213
44.55607 215
44.57619 219
44.5963 209
44.61642 222
44.63653 213
44.65664 201
44.67676 235
44.69687 214
44.71698 235
44.7371 257
44.75721 220
44.77732 248
44.79744 232
44.81755 211
44.83767 241
44.85778 247
44.87789 229
44.89801 206
44.91812 242
44.93823 223
44.95835 225
44.97846 249
44.99858 248
45.01869 272
45.0388 229
45.05892 284
45.07903 233
45.09914 200
45.11926 215
45.13937 226
45.15949 232
45.1796 227
45.19971 294
45.21983 276
45.23994 261
45.26005 235
45.28017 259
45.30028 238
45.32039 243
45.34051 264
45.36062 261
45.38074 295
45.40085 297
45.42096 266
45.44108 262
45.46119 279
45.4813 304
45.50142 283
45.52153 310
45.54165 329
45.56176 355
45.58187 354
45.60199 385
45.6221 413
45.64221 470
45.66233 531
45.68244 616
45.70256 688
45.72267 818
45.74278 886
45.7629 1041
45.78301 1082
45.80312 1053
45.82324 914
45.84335 737
45.86346 689
45.88358 688
45.90369 623
45.92381 592
45.94392 481
45.96403 423
45.98415 337
46.00426 282
46.02437 291
46.04449 301
46.0646 264
46.08472 271
46.10483 261
46.12494 262
46.14506 239
46.16517 250
46.18528 245
46.2054 235
46.22551 234
46.24563 254
46.26574 251
46.28585 240
46.30597 252
46.32608 204
46.34619 226
46.36631 243
46.38642 224
46.40653 230
46.42665 224
46.44676 227
46.46688 244
46.48699 202
46.5071 254
46.52722 253
46.54733 212
46.56744 226
46.58756 249
46.60767 259
46.62779 235
46.6479 239
46.66801 223
46.68813 237
46.70824 224
46.72835 252
46.74847 223
46.76858 257
46.78869 215
46.80881 244
46.82892 243
46.84904 224
46.86915 253
46.88926 229
46.90938 231
46.92949 222
46.9496 266
46.96972 230
46.98983 227
47.00995 239
47.03006 235
47.05017 213
47.07029 242
47.0904 230
47.11051 249
47.13063 221
47.15074 234
47.17086 233
47.19097 241
47.21108 211
47.2312 213
47.25131 221
47.27142 213
47.29154 232
47.31165 238
47.33176 242
47.35188 215
47.37199 228
47.39211 218
47.41222 247
47.43233 219
47.45245 232
47.47256 255
47.49267 244
47.51279 221
47.5329 228
47.55302 234
47.57313 262
47.59324 223
47.61336 213
47.63347 215
47.65358 231
47.6737 240
47.69381 221
47.71393 222
47.73404 218
47.75415 239
47.77427 229
47.79438 240
47.81449 231
47.83461 211
47.85472 252
47.87483 242
47.89495 201
47.91506 234
47.93518 222
47.95529 252
47.9754 235
47.99552 246
48.01563 242
48.03574 246
48.05586 208
48.07597 247
48.09609 234
48.1162 205
48.13631 243
48.15643 254
48.17654 220
48.19665 241
48.21677 227
48.23688 225
48.257 245
48.27711 257
48.29722 242
48.31734 252
48.33745 229
48.35756 270
48.37768 228
48.39779 238
48.4179 256
48.43802 205
48.45813 222
48.47825 273
48.49836 225
48.51847 260
48.53859 243
48.5587 245
48.57881 229
48.59893 229
48.61904 223
48.63916 240
48.65927 253
48.67938 241
48.6995 241
48.71961 259
48.73972 259
48.75984 231
48.77995 225
48.80006 202
48.82018 253
48.84029 227
48.86041 254
48.88052 255
48.90063 249
48.92075 218
48.94086 231
48.96097 239
48.98109 228
49.0012 262
49.02132 258
49.04143 212
49.06154 263
49.08166 256
49.10177 240
49.12188 230
49.142 262
49.16211 251
49.18223 236
49.20234 272
49.22245 262
49.24257 265
49.26268 231
49.28279 245
49.30291 240
49.32302 243
49.34313 280
49.36325 261
49.38336 263
49.40348 251
49.42359 295
49.4437 262
49.46382 277
49.48393 291
49.50404 262
49.52416 243
49.54427 247
49.56439 247
49.5845 276
49.60461 274
49.62473 296
49.64484 263
49.66495 322
49.68507 323
49.70518 304
49.7253 323
49.74541 313
49.76552 351
49.78564 355
49.80575 311
49.82586 392
49.84598 413
49.86609 491
49.8862 529
49.90632 557
49.92643 603
49.94655 694
49.96666 909
49.98677 1001
50.00689 1237
50.027 1585
50.04711 1857
50.06723 2321
50.08734 2618
50.10746 2976
50.12757 3028
50.14768 2963
50.1678 2488
50.18791 1911
50.20802 1667
50.22814 1608
50.24825 1638
50.26837 1616
50.28848 1412
50.30859 1001
50.32871 693
50.34882 526
50.36893 422
50.38905 410
50.40916 343
50.42927 354
50.44939 351
50.4695 345
50.48962 331
50.50973 335
50.52984 281
50.54996 333
50.57007 334
50.59018 317
50.6103 331
50.63041 332
50.65053 288
50.67064 299
50.69075 286
50.71087 263
50.73098 309
50.75109 297
50.77121 293
50.79132 240
50.81143 284
50.83155 278
50.85166 272
50.87178 258
50.89189 261
50.912 236
50.93212 268
50.95223 234
50.97234 256
50.99246 260
51.01257 260
51.03269 221
51.0528 233
51.07291 245
51.09303 256
51.11314 247
51.13325 241
51.15337 237
51.17348 223
51.1936 230
51.21371 225
51.23382 224
51.25394 241
51.27405 231
51.29416 236
51.31428 200
51.33439 221
51.3545 230
51.37462 247
51.39473 221
51.41485 211
51.43496 225
51.45507 232
51.47519 206
51.4953 243
51.51541 226
51.53553 242
51.55564 217
51.57576 232
51.59587 207
51.61598 222
51.6361 219
51.65621 239
51.67632 235
51.69644 211
51.71655 211
51.73667 203
51.75678 232
51.77689 222
51.79701 217
51.81712 213
51.83723 192
51.85735 216
51.87746 244
51.89757 231
51.91769 237
51.9378 242
51.95792 225
51.97803 208
51.99814 219
52.01826 212
52.03837 226
52.05848 213
52.0786 197
52.09871 208
52.11883 196
52.13894 219
52.15905 239
52.17917 210
52.19928 229
52.21939 219
52.23951 220
52.25962 224
52.27974 207
52.29985 218
52.31996 213
52.34008 233
52.36019 191
52.3803 212
52.40042 231
52.42053 205
52.44064 223
52.46076 202
52.48087 208
52.50099 238
52.5211 199
52.54121 228
52.56133 225
52.58144 229
52.60155 215
52.62167 220
52.64178 214
52.6619 206
52.68201 220
52.70212 222
52.72224 232
52.74235 217
52.76246 227
52.78258 203
52.80269 192
52.8228 239
52.84292 216
52.86303 230
52.88315 192
52.90326 223
52.92337 207
52.94349 220
52.9636 239
52.98371 238
53.00383 237
53.02394 248
53.04406 233
53.06417 242
53.08428 229
53.1044 249
53.12451 221
53.14462 250
53.16474 224
53.18485 238
53.20497 259
53.22508 242
53.24519 233
53.26531 245
53.28542 253
53.30553 268
53.32565 237
53.34576 262
53.36587 246
53.38599 224
53.4061 246
53.42622 240
53.44633 255
53.46644 247
53.48656 254
53.50667 253
53.52678 253
53.5469 269
53.56701 273
53.58713 235
53.60724 262
53.62735 243
53.64747 258
53.66758 262
53.68769 279
53.70781 226
53.72792 268
53.74804 257
53.76815 243
53.78826 259
53.80838 272
53.82849 297
53.8486 253
53.86872 263
53.88883 254
53.90894 242
53.92906 261
53.94917 271
53.96929 268
53.9894 280
54.00951 251
54.02963 259
54.04974 272
54.06985 248
54.08997 249
54.11008 285
54.1302 306
54.15031 279
54.17042 264
54.19054 267
54.21065 280
54.23076 271
54.25088 273
54.27099 278
54.29111 269
54.31122 268
54.33133 287
54.35145 290
54.37156 283
54.39167 289
54.41179 285
54.4319 289
54.45201 299
54.47213 281
54.49224 302
54.51236 313
54.53247 300
54.55258 297
54.5727 331
54.59281 330
54.61292 349
54.63304 366
54.65315 396
54.67327 384
54.69338 475
54.71349 488
54.73361 570
54.75372 613
54.77383 694
54.79395 793
54.81406 970
54.83417 978
54.85429 1039
54.8744 981
54.89452 950
54.91463 824
54.93474 730
54.95486 646
54.97497 656
54.99508 674
55.0152 650
55.03531 647
55.05543 549
55.07554 423
55.09565 430
55.11577 347
55.13588 390
55.15599 360
55.17611 414
55.19622 423
55.21634 461
55.23645 461
55.25656 562
55.27668 586
55.29679 604
55.3169 590
55.33702 645
55.35713 507
55.37724 504
55.39736 421
55.41747 404
55.43759 438
55.4577 446
55.47781 370
55.49793 363
55.51804 367
55.53815 305
55.55827 268
55.57838 282
55.5985 281
55.61861 248
55.63872 263
55.65884 282
55.67895 268
55.69906 253
55.71918 256
55.73929 272
55.75941 252
55.77952 238
55.79963 239
55.81975 249
55.83986 229
55.85997 211
55.88009 236
55.9002 226
55.92031 247
55.94043 255
55.96054 258
55.98066 247
56.00077 260
56.02088 244
56.041 231
56.06111 242
56.08122 240
56.10134 219
56.12145 220
56.14157 220
56.16168 238
56.18179 209
56.20191 251
56.22202 222
56.24213 228
56.26225 260
56.28236 242
56.30248 230
56.32259 216
56.3427 228
56.36282 252
56.38293 266
56.40304 231
56.42316 269
56.44327 249
56.46338 247
56.4835 217
56.50361 223
56.52373 237
56.54384 237
56.56395 239
56.58407 221
56.60418 223
56.62429 256
56.64441 248
56.66452 191
56.68464 249
56.70475 216
56.72486 229
56.74498 240
56.76509 205
56.7852 235
56.80532 246
56.82543 225
56.84554 224
56.86566 196
56.88577 196
56.90589 252
56.926 231
56.94611 243
56.96623 240
56.98634 234
57.00645 208
57.02657 228
57.04668 216
57.0668 250
57.08691 258
57.10702 227
57.12714 263
57.14725 227
57.16736 293
57.18748 264
57.20759 272
57.22771 275
57.24782 277
57.26793 232
57.28805 281
57.30816 267
57.32827 247
57.34839 250
57.3685 248
57.38861 244
57.40873 242
57.42884 220
57.44896 199
57.46907 261
57.48918 223
57.5093 230
57.52941 211
57.54952 217
57.56964 244
57.58975 241
57.60987 203
57.62998 252
57.65009 238
57.67021 244
57.69032 213
57.71043 245
57.73055 232
57.75066 223
57.77078 227
57.79089 231
57.811 192
57.83112 197
57.85123 233
57.87134 214
57.89146 245
57.91157 245
57.93168 213
57.9518 185
57.97191 222
57.99203 227
58.01214 203
58.03225 216
58.05237 230
58.07248 223
58.09259 243
58.11271 208
58.13282 238
58.15294 244
58.17305 223
58.19316 233
58.21328 209
58.23339 246
58.2535 228
58.27362 202
58.29373 176
58.31385 222
58.33396 223
58.35407 216
58.37419 219
58.3943 201
58.41441 215
58.43453 228
58.45464 219
58.47475 237
58.49487 228
58.51498 231
58.5351 215
58.55521 206
58.57532 221
58.59544 200
58.61555 211
58.63566 217
58.65578 191
58.67589 234
58.69601 212
58.71612 231
58.73623 211
58.75635 221
58.77646 215
58.79657 215
58.81669 213
58.8368 230
58.85691 236
58.87703 201
58.89714 196
58.91726 220
58.93737 212
58.95748 214
58.9776 231
58.99771 223
59.01782 201
59.03794 226
59.05805 225
59.07817 192
59.09828 228
59.11839 216
59.13851 223
59.15862 234
59.17873 230
59.19885 223
59.21896 219
59.23908 240
59.25919 251
59.2793 252
59.29942 233
59.31953 231
59.33964 230
59.35976 274
59.37987 244
59.39998 246
59.4201 236
59.44021 222
59.46033 260
59.48044 266
59.50055 283
59.52067 268
59.54078 299
59.56089 294
59.58101 326
59.60112 301
59.62124 353
59.64135 345
59.66146 398
59.68158 388
59.70169 422
59.7218 492
59.74192 558
59.76203 646
59.78215 723
59.80226 815
59.82237 964
59.84249 1162
59.8626 1378
59.88271 1587
59.90283 1767
59.92294 1866
59.94305 1923
59.96317 1756
59.98328 1563
60.0034 1242
60.02351 1061
60.04362 1037
60.06374 1048
60.08385 1030
60.10396 1051
60.12408 1035
60.14419 802
60.16431 635
60.18442 482
60.20453 430
60.22465 332
60.24476 308
60.26487 297
60.28499 300
60.3051 277
60.32522 245
60.34533 259
60.36544 262
60.38556 289
60.40567 242
60.42578 245
60.4459 218
60.46601 239
60.48612 243
60.50624 217
60.52635 231
60.54647 249
60.56658 234
60.58669 234
60.60681 230
60.62692 216
60.64703 225
60.66715 219
60.68726 197
60.70738 225
60.72749 226
60.7476 239
60.76772 222
60.78783 240
60.80794 233
60.82806 182
60.84817 179
60.86828 227
60.8884 216
60.90851 216
60.92863 234
60.94874 228
60.96885 227
60.98897 250
61.00908 225
61.02919 206
61.04931 221
61.06942 222
61.08954 260
61.10965 200
61.12976 225
61.14988 224
61.16999 213
61.1901 217
61.21022 218
61.23033 238
61.25045 222
61.27056 216
61.29067 220
61.31079 225
61.3309 215
61.35101 211
61.37113 232
61.39124 210
61.41135 242
61.43147 221
61.45158 215
61.4717 211
61.49181 224
61.51192 224
61.53204 230
61.55215 213
61.57226 250
61.59238 191
61.61249 239
61.63261 209
61.65272 229
61.67283 236
61.69295 242
61.71306 222
61.73317 246
61.75329 243
61.7734 237
61.79352 251
61.81363 256
61.83374 233
61.85386 262
61.87397 249
61.89408 274
61.9142 247
61.93431 248
61.95442 240
61.97454 226
61.99465 248
62.01477 274
62.03488 246
62.05499 272
62.07511 243
62.09522 278
62.11533 297
62.13545 280
62.15556 317
62.17568 293
62.19579 306
62.2159 280
62.23602 285
62.25613 275
62.27624 307
62.29636 303
62.31647 302
62.33659 272
62.3567 292
62.37681 295
62.39693 281
62.41704 287
62.43715 278
62.45727 253
62.47738 258
62.49749 241
62.51761 245
62.53772 249
62.55784 255
62.57795 228
62.59806 239
62.61818 227
62.63829 231
62.6584 208
62.67852 250
62.69863 237
62.71875 242
62.73886 234
62.75897 233
62.77909 225
62.7992 235
62.81931 228
62.83943 222
62.85954 219
62.87965 217
62.89977 221
62.91988 227
62.94 247
62.96011 229
62.98022 242
63.00034 230
63.02045 209
63.04056 229
63.06068 215
63.08079 227
63.10091 218
63.12102 222
63.14113 222
63.16125 240
63.18136 209
63.20147 229
63.22159 228
63.2417 208
63.26182 242
63.28193 236
63.30204 204
63.32216 207
63.34227 200
63.36238 215
63.3825 206
63.40261 222
63.42272 235
63.44284 198
63.46295 238
63.48307 222
63.50318 228
63.52329 210
63.54341 221
63.56352 254
63.58363 228
63.60375 229
63.62386 231
63.64398 243
63.66409 240
63.6842 231
63.70432 253
63.72443 241
63.74454 264
63.76466 272
63.78477 260
63.80489 276
63.825 296
63.84511 332
63.86523 317
63.88534 355
63.90545 360
63.92557 391
63.94568 460
63.96579 501
63.98591 489
64.00602 498
64.02614 506
64.04625 492
64.06636 421
64.08648 396
64.10659 346
64.1267 378
64.14682 357
64.16693 368
64.18705 356
64.20716 360
64.22727 359
64.24739 305
64.2675 281
64.28761 248
64.30773 259
64.32784 228
64.34796 271
64.36807 255
64.38818 241
64.4083 213
64.42841 192
64.44852 232
64.46864 231
64.48875 215
64.50886 202
64.52898 216
64.54909 210
64.56921 204
64.58932 210
64.60943 218
64.62955 202
64.64966 217
64.66977 199
64.68989 224
64.71 222
64.73012 225
64.75023 234
64.77034 218
64.79046 194
64.81057 178
64.83068 217
64.8508 220
64.87091 194
64.89102 190
64.91114 212
64.93125 220
64.95137 214
64.97148 188
64.99159 207
65.01171 221
65.03182 183
65.05193 210
65.07205 226
65.09216 234
65.11228 209
65.13239 204
65.1525 199
65.17262 217
65.19273 211
65.21284 188
65.23296 191
65.25307 183
65.27319 224
65.2933 182
65.31341 204
65.33353 225
65.35364 215
65.37375 215
65.39387 197
65.41398 213
65.43409 211
65.45421 187
65.47432 231
65.49444 224
65.51455 237
65.53466 231
65.55478 240
65.57489 236
65.595 220
65.61512 242
65.63523 249
65.65535 243
65.67546 288
65.69557 255
65.71569 288
65.7358 282
65.75591 286
65.77603 276
65.79614 287
65.81626 249
65.83637 276
65.85648 232
65.8766 244
65.89671 256
65.91682 264
65.93694 220
65.95705 251
65.97716 252
65.99728 220
66.01739 219
66.03751 246
66.05762 255
66.07773 210
66.09785 238
66.11796 203
66.13807 233
66.15819 213
66.1783 198
66.19842 222
66.21853 202
66.23864 214
66.25876 227
66.27887 199
66.29898 222
66.3191 211
66.33921 206
66.35933 198
66.37944 197
66.39955 196
66.41967 201
66.43978 211
66.45989 214
66.48001 208
66.50012 214
66.52023 192
66.54035 209
66.56046 205
66.58058 216
66.60069 188
66.6208 204
66.64092 189
66.66103 236
66.68114 235
66.70126 208
66.72137 225
66.74149 216
66.7616 238
66.78171 211
66.80183 186
66.82194 228
66.84205 228
66.86217 207
66.88228 219
66.90239 235
66.92251 236
66.94262 262
66.96274 229
66.98285 224
67.00296 209
67.02308 228
67.04319 267
67.0633 239
67.08342 233
67.10353 245
67.12365 204
67.14376 275
67.16387 230
67.18399 254
67.2041 266
67.22421 244
67.24433 268
67.26444 255
67.28456 268
67.30467 240
67.32478 263
67.3449 251
67.36501 271
67.38512 279
67.40524 288
67.42535 314
67.44546 335
67.46558 380
67.48569 379
67.50581 386
67.52592 394
67.54603 500
67.56615 536
67.58626 563
67.60637 688
67.62649 824
67.6466 923
67.66672 1042
67.68683 1108
67.70694 1186
67.72706 1125
67.74717 1050
67.76728 981
67.7874 845
67.80751 744
67.82763 667
67.84774 764
67.86785 803
67.88797 820
67.90808 919
67.92819 898
67.94831 856
67.96842 874
67.98853 832
68.00865 919
68.02876 961
68.04888 1198
68.06899 1356
68.0891 1441
68.10922 1495
68.12933 1468
68.14944 1518
68.16956 1377
68.18967 1217
68.20979 1250
68.2299 1261
68.25001 1273
68.27013 1361
68.29024 1433
68.31035 1375
68.33047 1293
68.35058 1146
68.3707 879
68.39081 747
68.41092 682
68.43104 600
68.45115 605
68.47126 560
68.49138 571
68.51149 521
68.5316 474
68.55172 387
68.57183 326
68.59195 296
68.61206 255
68.63217 277
68.65229 231
68.6724 244
68.69251 274
68.71263 242
68.73274 202
68.75286 222
68.77297 236
68.79308 217
68.8132 229
68.83331 243
68.85342 206
68.87354 244
68.89365 228
68.91376 239
68.93388 222
68.95399 223
68.97411 215
68.99422 216
69.01433 217
69.03445 220
69.05456 203
69.07467 231
69.09479 217
69.1149 208
69.13502 199
69.15513 195
69.17524 206
69.19536 215
69.21547 199
69.23558 203
69.2557 202
69.27581 217
69.29593 220
69.31604 211
69.33615 187
69.35627 193
69.37638 217
69.39649 207
69.41661 220
69.43672 214
69.45683 212
69.47695 209
69.49706 182
69.51718 201
69.53729 205
69.5574 219
69.57752 188
69.59763 219
69.61774 168
69.63786 190
69.65797 212
69.67809 212
69.6982 180
69.71831 221
69.73843 203
69.75854 193
69.77865 201
69.79877 197
69.81888 191
69.839 202
69.85911 205
69.87922 188
69.89934 171
69.91945 199
69.93956 206
69.95968 220
69.97979 198
69.9999 230
70.02002 195
70.04013 187
70.06025 197
70.08036 205
70.10047 208
70.12059 204
70.1407 215
70.16081 182
70.18093 193
70.20104 209
70.22116 209
70.24127 192
70.26138 233
70.2815 202
70.30161 190
70.32172 224
70.34184 197
70.36195 194
70.38207 195
70.40218 176
70.42229 182
70.44241 209
70.46252 178
70.48263 176
70.50275 216
70.52286 206
70.54297 193
70.56309 206
70.5832 190
70.60332 190
70.62343 189
70.64354 176
70.66366 178
70.68377 193
70.70388 186
70.724 187
70.74411 182
70.76423 198
70.78434 193
70.80445 193
70.82457 198
70.84468 200
70.86479 193
70.88491 192
70.90502 175
70.92513 211
70.94525 182
70.96536 184
70.98548 182
71.00559 181
71.0257 196
71.04582 199
71.06593 187
71.08604 180
71.10616 205
71.12627 198
71.14639 175
71.1665 202
71.18661 188
71.20673 172
71.22684 186
71.24695 194
71.26707 203
71.28718 184
71.3073 190
71.32741 221
71.34752 186
71.36764 183
71.38775 189
71.40786 205
71.42798 183
71.44809 182
71.4682 196
71.48832 174
71.50843 201
71.52855 188
71.54866 191
71.56877 181
71.58889 185
71.609 187
71.62911 185
71.64923 189
71.66934 162
71.68946 195
71.70957 177
71.72968 180
71.7498 187
71.76991 197
71.79002 191
71.81014 185
71.83025 205
71.85037 204
71.87048 199
71.89059 198
71.91071 194
71.93082 197
71.95093 198
71.97105 199
71.99116 201
72.01127 219
72.03139 204
72.0515 196
72.07162 202
72.09173 198
72.11184 209
72.13196 194
72.15207 205
72.17218 193
72.1923 209
72.21241 205
72.23253 191
72.25264 200
72.27275 193
72.29287 196
72.31298 207
72.33309 196
72.35321 222
72.37332 203
72.39344 190
72.41355 188
72.43366 203
72.45378 212
72.47389 164
72.494 197
72.51412 198
72.53423 193
72.55434 194
72.57446 176
72.59457 175
72.61469 200
72.6348 167
72.65491 188
72.67503 190
72.69514 178
72.71525 182
72.73537 185
72.75548 189
72.7756 206
72.79571 198
72.81582 200
72.83594 187
72.85605 203
72.87616 206
72.89628 197
72.91639 193
72.9365 185
72.95662 219
72.97673 221
72.99685 190
73.01696 237
73.03707 212
73.05719 203
73.0773 208
73.09741 210
73.11753 221
73.13764 242
73.15776 210
73.17787 242
73.19798 215
73.2181 221
73.23821 267
73.25832 261
73.27844 296
73.29855 320
73.31867 323
73.33878 401
73.35889 399
73.37901 467
73.39912 468
73.41923 438
73.43935 538
73.45946 538
73.47957 478
73.49969 450
73.5198 352
73.53992 321
73.56003 352
73.58014 326
73.60026 360
73.62037 390
73.64048 385
73.6606 334
73.68071 347
73.70083 338
73.72094 297
73.74105 261
73.76117 218
73.78128 218
73.80139 200
73.82151 215
73.84162 197
73.86174 210
73.88185 187
73.90196 194
73.92208 206
73.94219 210
73.9623 213
73.98242 202
74.00253 206
74.02264 204
74.04276 187
74.06287 203
74.08299 192
74.1031 201
74.12321 184
74.14333 186
74.16344 216
74.18355 182
74.20367 177
74.22378 190
74.2439 183
74.26401 176
74.28412 192
74.30424 207
74.32435 201
74.34446 197
74.36458 205
74.38469 170
74.40481 206
74.42492 208
74.44503 198
74.46515 182
74.48526 182
74.50537 189
74.52549 191
74.5456 189
74.56571 209
74.58583 197
74.60594 196
74.62606 195
74.64617 184
74.66628 177
74.6864 195
74.70651 184
74.72662 184
74.74674 198
74.76685 204
74.78697 214
74.80708 180
74.82719 183
74.84731 202
74.86742 199
74.88753 168
74.90765 197
74.92776 192
74.94787 184
74.96799 190
74.9881 186
75.00822 186
