3.00117 19634
3.02128 18356
3.0414 18328
3.06151 17986
3.08162 17106
3.10174 16845
3.12185 16470
3.14197 15917
3.16208 15316
3.18219 15040
3.20231 14766
3.22242 14211
3.24253 13787
3.26265 13700
3.28276 12675
3.30288 12387
3.32299 12072
3.3431 11775
3.36322 11294
3.38333 10793
3.40344 10663
3.42356 10028
3.44367 9930
3.46379 9284
3.4839 9113
3.50401 9081
3.52413 8438
3.54424 8147
3.56435 7823
3.58447 7571
3.60458 7323
3.62469 6725
3.64481 6889
3.66492 6500
3.68504 6083
3.70515 6157
3.72526 5559
3.74538 5451
3.76549 5167
3.7856 4986
3.80572 4995
3.82583 4615
3.84595 4352
3.86606 4313
3.88617 3968
3.90629 3957
3.9264 3828
3.94651 3659
3.96663 3449
3.98674 3307
4.00686 3166
4.02697 2917
4.04708 3041
4.0672 2914
4.08731 2805
4.10742 2648
4.12754 2367
4.14765 2369
4.16776 2203
4.18788 2141
4.20799 2155
4.22811 1880
4.24822 1928
4.26833 1853
4.28845 1846
4.30856 1906
4.32867 1602
4.34879 1663
4.3689 1658
4.38902 1643
4.40913 1628
4.42924 1509
4.44936 1463
4.46947 1464
4.48958 1368
4.5097 1418
4.52981 1316
4.54992 1336
4.57004 1297
4.59015 1205
4.61027 1226
4.63038 1149
4.65049 1177
4.67061 1146
4.69072 1092
4.71083 1074
4.73095 1050
4.75106 1038
4.77118 1075
4.79129 1020
4.8114 980
4.83152 861
4.85163 852
4.87174 966
4.89186 843
4.91197 862
4.93209 906
4.9522 873
4.97231 835
4.99243 837
5.01254 760
5.03265 761
5.05277 771
5.07288 760
5.09299 735
5.11311 693
5.13322 710
5.15334 671
5.17345 709
5.19356 682
5.21368 653
5.23379 585
5.2539 601
5.27402 595
5.29413 574
5.31425 607
5.33436 590
5.35447 519
5.37459 568
5.3947 548
5.41481 479
5.43493 576
5.45504 501
5.47516 493
5.49527 531
5.51538 500
5.5355 508
5.55561 451
5.57572 459
5.59584 416
5.61595 443
5.63606 435
5.65618 427
5.67629 428
5.69641 420
5.71652 416
5.73663 397
5.75675 457
5.77686 429
5.79697 366
5.81709 384
5.8372 382
5.85732 354
5.87743 370
5.89754 394
5.91766 348
5.93777 352
5.95788 398
5.978 382
5.99811 363
6.01823 365
6.03834 315
6.05845 359
6.07857 364
6.09868 318
6.11879 302
6.13891 348
6.15902 335
6.17913 363
6.19925 297
6.21936 347
6.23948 344
6.25959 334
6.2797 347
6.29982 301
6.31993 323
6.34004 336
6.36016 343
6.38027 325
6.40039 341
6.4205 338
6.44061 317
6.46073 318
6.48084 329
6.50095 302
6.52107 345
6.54118 309
6.56129 279
6.58141 349
6.60152 309
6.62164 283
6.64175 321
6.66186 312
6.68198 309
6.70209 335
6.7222 301
6.74232 286
6.76243 295
6.78255 311
6.80266 269
6.82277 294
6.84289 305
6.863 266
6.88311 291
6.90323 297
6.92334 281
6.94346 297
6.96357 314
6.98368 286
7.0038 308
7.02391 304
7.04402 284
7.06414 278
7.08425 282
7.10436 283
7.12448 285
7.14459 313
7.16471 295
7.18482 344
7.20493 311
7.22505 273
7.24516 286
7.26527 297
7.28539 292
7.3055 317
7.32562 293
7.34573 289
7.36584 316
7.38596 282
7.40607 293
7.42618 302
7.4463 296
7.46641 261
7.48653 326
7.50664 308
7.52675 303
7.54687 296
7.56698 309
7.58709 282
7.60721 268
7.62732 289
7.64743 316
7.66755 279
7.68766 309
7.70778 271
7.72789 314
7.748 263
7.76812 261
7.78823 296
7.80834 300
7.82846 294
7.84857 316
7.86869 300
7.8888 304
7.90891 268
7.92903 269
7.94914 297
7.96925 315
7.98937 297
8.00948 325
8.0296 280
8.04971 292
8.06982 302
8.08994 304
8.11005 313
8.13016 289
8.15028 272
8.17039 292
8.1905 310
8.21062 324
8.23073 319
8.25085 289
8.27096 314
8.29107 312
8.31119 268
8.3313 295
8.35141 299
8.37153 302
8.39164 332
8.41176 314
8.43187 306
8.45198 326
8.4721 289
8.49221 322
8.51232 313
8.53244 279
8.55255 329
8.57266 300
8.59278 261
8.61289 313
8.63301 313
8.65312 261
8.67323 309
8.69335 303
8.71346 318
8.73357 286
8.75369 295
8.7738 255
8.79392 304
8.81403 304
8.83414 318
8.85426 308
8.87437 280
8.89448 316
8.9146 303
8.93471 279
8.95483 316
8.97494 281
8.99505 286
9.01517 316
9.03528 315
9.05539 257
9.07551 268
9.09562 290
9.11573 346
9.13585 294
9.15596 302
9.17608 268
9.19619 313
9.2163 315
9.23642 280
9.25653 313
9.27664 348
9.29676 283
9.31687 339
9.33699 269
9.3571 303
9.37721 274
9.39733 322
9.41744 308
9.43755 310
9.45767 314
9.47778 327
9.4979 296
9.51801 309
9.53812 307
9.55824 323
9.57835 296
9.59846 320
9.61858 302
9.63869 275
9.6588 290
9.67892 331
9.69903 319
9.71915 311
9.73926 321
9.75937 300
9.77949 318
9.7996 296
9.81971 329
9.83983 321
9.85994 331
9.88006 319
9.90017 294
9.92028 310
9.9404 329
9.96051 307
9.98062 261
10.00074 268
10.02085 305
10.04097 334
10.06108 315
10.08119 307
10.10131 299
10.12142 325
10.14153 301
10.16165 298
10.18176 301
10.20187 289
10.22199 322
10.2421 271
10.26222 291
10.28233 311
10.30244 319
10.32256 323
10.34267 294
10.36278 320
10.3829 276
10.40301 327
10.42313 276
10.44324 315
10.46335 315
10.48347 316
10.50358 317
10.52369 290
10.54381 302
10.56392 313
10.58403 297
10.60415 270
10.62426 318
10.64438 317
10.66449 290
10.6846 305
10.70472 330
10.72483 299
10.74494 306
10.76506 282
10.78517 314
10.80529 321
10.8254 311
10.84551 321
10.86563 330
10.88574 314
10.90585 338
10.92597 333
10.94608 317
10.9662 315
10.98631 310
11.00642 333
11.02654 311
11.04665 306
11.06676 266
11.08688 343
11.10699 301
11.1271 328
11.14722 292
11.16733 333
11.18745 309
11.20756 327
11.22767 299
11.24779 341
11.2679 301
11.28801 282
11.30813 341
11.32824 351
11.34836 295
11.36847 329
11.38858 313
11.4087 301
11.42881 316
11.44892 362
11.46904 337
11.48915 340
11.50927 327
11.52938 312
11.54949 324
11.56961 310
11.58972 354
11.60983 311
11.62995 363
11.65006 328
11.67017 350
11.69029 332
11.7104 353
11.73052 368
11.75063 356
11.77074 320
11.79086 373
11.81097 333
11.83108 355
11.8512 370
11.87131 421
11.89143 378
11.91154 387
11.93165 431
11.95177 493
11.97188 451
11.99199 481
12.01211 471
12.03222 476
12.05234 456
12.07245 511
12.09256 526
12.11268 528
12.13279 584
12.1529 623
12.17302 620
12.19313 645
12.21324 636
12.23336 661
12.25347 702
12.27359 626
12.2937 701
12.31381 653
12.33393 649
12.35404 642
12.37415 594
12.39427 583
12.41438 594
12.4345 538
12.45461 560
12.47472 536
12.49484 467
12.51495 498
12.53506 518
12.55518 436
12.57529 433
12.5954 410
12.61552 416
12.63563 382
12.65575 355
12.67586 362
12.69597 366
12.71609 364
12.7362 314
12.75631 338
12.77643 326
12.79654 319
12.81666 333
12.83677 319
12.85688 349
12.877 306
12.89711 313
12.91722 316
12.93734 318
12.95745 286
12.97757 278
12.99768 261
13.01779 331
13.03791 288
13.05802 300
13.07813 294
13.09825 283
13.11836 285
13.13847 274
13.15859 275
13.1787 358
13.19882 288
13.21893 295
13.23904 265
13.25916 299
13.27927 266
13.29938 291
13.3195 310
13.33961 289
13.35973 263
13.37984 292
13.39995 281
13.42007 331
13.44018 288
13.46029 290
13.48041 275
13.50052 268
13.52064 313
13.54075 302
13.56086 268
13.58098 296
13.60109 263
13.6212 289
13.64132 299
13.66143 306
13.68154 264
13.70166 282
13.72177 277
13.74189 292
13.762 264
13.78211 289
13.80223 301
13.82234 264
13.84245 248
13.86257 305
13.88268 267
13.9028 277
13.92291 259
13.94302 296
13.96314 301
13.98325 250
14.00336 273
14.02348 279
14.04359 252
14.06371 250
14.08382 268
14.10393 265
14.12405 268
14.14416 268
14.16427 279
14.18439 278
14.2045 267
14.22461 268
14.24473 243
14.26484 299
14.28496 291
14.30507 288
14.32518 280
14.3453 294
14.36541 249
14.38552 247
14.40564 245
14.42575 260
14.44587 281
14.46598 259
14.48609 269
14.50621 266
14.52632 258
14.54643 269
14.56655 259
14.58666 261
14.60677 254
14.62689 238
14.647 271
14.66712 277
14.68723 237
14.70734 249
14.72746 298
14.74757 260
14.76768 259
14.7878 264
14.80791 253
14.82803 259
14.84814 231
14.86825 231
14.88837 256
14.90848 255
14.92859 262
14.94871 249
14.96882 298
14.98894 261
15.00905 286
15.02916 261
15.04928 268
15.06939 263
15.0895 274
15.10962 301
15.12973 279
15.14984 274
15.16996 244
15.19007 258
15.21019 244
15.2303 269
15.25041 237
15.27053 288
15.29064 232
15.31075 254
15.33087 236
15.35098 265
15.3711 251
15.39121 285
15.41132 243
15.43144 255
15.45155 268
15.47166 238
15.49178 263
15.51189 223
15.53201 242
15.55212 286
15.57223 246
15.59235 273
15.61246 243
15.63257 273
15.65269 220
15.6728 264
15.69291 247
15.71303 252
15.73314 250
15.75326 257
15.77337 244
15.79348 306
15.8136 224
15.83371 203
15.85382 256
15.87394 261
15.89405 266
15.91417 258
15.93428 246
15.95439 263
15.97451 253
15.99462 248
16.01473 250
16.03485 254
16.05496 232
16.07508 274
16.09519 257
16.1153 267
16.13542 268
16.15553 259
16.17564 272
16.19576 256
16.21587 250
16.23598 222
16.2561 269
16.27621 247
16.29633 258
16.31644 258
16.33655 215
16.35667 275
16.37678 251
16.39689 252
16.41701 267
16.43712 255
16.45724 270
16.47735 219
16.49746 264
16.51758 248
16.53769 254
16.5578 274
16.57792 246
16.59803 260
16.61814 228
16.63826 259
16.65837 286
16.67849 268
16.6986 244
16.71871 254
16.73883 222
16.75894 245
16.77905 246
16.79917 270
16.81928 245
16.8394 248
16.85951 273
16.87962 273
16.89974 256
16.91985 292
16.93996 248
16.96008 243
16.98019 258
17.00031 243
17.02042 264
17.04053 262
17.06065 274
17.08076 256
17.10087 249
17.12099 238
17.1411 245
17.16121 244
17.18133 250
17.20144 234
17.22156 244
17.24167 251
17.26178 259
17.2819 257
17.30201 243
17.32212 267
17.34224 243
17.36235 248
17.38247 251
17.40258 254
17.42269 285
17.44281 248
17.46292 256
17.48303 237
17.50315 258
17.52326 241
17.54338 247
17.56349 252
17.5836 264
17.60372 238
17.62383 283
17.64394 278
17.66406 281
17.68417 284
17.70428 263
17.7244 280
17.74451 242
17.76463 268
17.78474 265
17.80485 247
17.82497 271
17.84508 263
17.86519 271
17.88531 282
17.90542 292
17.92554 276
17.94565 277
17.96576 310
17.98588 251
18.00599 270
18.0261 272
18.04622 311
18.06633 295
18.08645 330
18.10656 317
18.12667 341
18.14679 392
18.1669 374
18.18701 415
18.20713 435
18.22724 487
18.24735 512
18.26747 490
18.28758 539
18.3077 541
18.32781 476
18.34792 456
18.36804 413
18.38815 354
18.40826 348
18.42838 341
18.44849 329
18.46861 304
18.48872 312
18.50883 305
18.52895 306
18.54906 273
18.56917 269
18.58929 293
18.6094 262
18.62951 296
18.64963 289
18.66974 258
18.68986 271
18.70997 257
18.73008 267
18.7502 268
18.77031 277
18.79042 280
18.81054 261
18.83065 251
18.85077 270
18.87088 270
18.89099 252
18.91111 272
18.93122 285
18.95133 283
18.97145 236
18.99156 275
19.01168 247
19.03179 285
19.0519 238
19.07202 267
19.09213 276
19.11224 263
19.13236 259
19.15247 290
19.17258 254
19.1927 277
19.21281 273
19.23293 246
19.25304 295
19.27315 270
19.29327 280
19.31338 285
19.33349 266
19.35361 298
19.37372 262
19.39384 283
19.41395 290
19.43406 260
19.45418 281
19.47429 275
19.4944 321
19.51452 318
19.53463 282
19.55475 268
19.57486 356
19.59497 326
19.61509 345
19.6352 368
19.65531 383
19.67543 349
19.69554 403
19.71565 417
19.73577 410
19.75588 494
19.776 461
19.79611 524
19.81622 535
19.83634 513
19.85645 592
19.87656 521
19.89668 554
19.91679 505
19.93691 600
19.95702 577
19.97713 539
19.99725 560
20.01736 586
20.03747 509
20.05759 588
20.0777 541
20.09782 606
20.11793 529
20.13804 572
20.15816 577
20.17827 530
20.19838 572
20.2185 606
20.23861 650
20.25872 634
20.27884 630
20.29895 650
20.31907 602
20.33918 666
20.35929 607
20.37941 598
20.39952 646
20.41963 583
20.43975 581
20.45986 633
20.47998 609
20.50009 665
20.5202 698
20.54032 692
20.56043 787
20.58054 785
20.60066 841
20.62077 949
20.64088 1080
20.661 1322
20.68111 1566
20.70123 1916
20.72134 2442
20.74145 2829
20.76157 3506
20.78168 3926
20.80179 4577
20.82191 4699
20.84202 4618
20.86214 4212
20.88225 3405
20.90236 2641
20.92248 2101
20.94259 1532
20.9627 1166
20.98282 866
21.00293 758
21.02305 678
21.04316 607
21.06327 619
21.08339 558
21.1035 568
21.12361 601
21.14373 557
21.16384 550
21.18395 574
21.20407 598
21.22418 528
21.2443 561
21.26441 556
21.28452 532
21.30464 536
21.32475 552
21.34486 501
21.36498 544
21.38509 535
21.40521 533
21.42532 538
21.44543 536
21.46555 543
21.48566 535
21.50577 504
21.52589 513
21.546 467
21.56612 495
21.58623 467
21.60634 478
21.62646 469
21.64657 452
21.66668 422
21.6868 421
21.70691 472
21.72702 438
21.74714 454
21.76725 423
21.78737 413
21.80748 418
21.82759 411
21.84771 405
21.86782 386
21.88793 429
21.90805 394
21.92816 385
21.94828 381
21.96839 401
21.9885 434
22.00862 405
22.02873 448
22.04884 420
22.06896 385
22.08907 378
22.10919 371
22.1293 419
22.14941 376
22.16953 382
22.18964 349
22.20975 382
22.22987 341
22.24998 400
22.27009 407
22.29021 349
22.31032 370
22.33044 343
22.35055 351
22.37066 368
22.39078 377
22.41089 365
22.431 341
22.45112 393
22.47123 376
22.49135 365
22.51146 394
22.53157 368
22.55169 370
22.5718 337
22.59191 377
22.61203 395
22.63214 356
22.65225 372
22.67237 334
22.69248 371
22.7126 363
22.73271 342
22.75282 341
22.77294 354
22.79305 336
22.81316 354
22.83328 356
22.85339 310
22.87351 352
22.89362 319
22.91373 322
22.93385 326
22.95396 358
22.97407 369
22.99419 332
23.0143 376
23.03442 309
23.05453 366
23.07464 358
23.09476 295
23.11487 351
23.13498 316
23.1551 299
23.17521 340
23.19532 351
23.21544 332
23.23555 349
23.25567 304
23.27578 313
23.29589 343
23.31601 332
23.33612 372
23.35623 315
23.37635 357
23.39646 333
23.41658 325
23.43669 312
23.4568 314
23.47692 311
23.49703 317
23.51714 315
23.53726 338
23.55737 318
23.57749 374
23.5976 332
23.61771 335
23.63783 353
23.65794 346
23.67805 324
23.69817 352
23.71828 345
23.73839 381
23.75851 372
23.77862 356
23.79874 323
23.81885 363
23.83896 371
23.85908 369
23.87919 337
23.8993 389
23.91942 387
23.93953 385
23.95965 425
23.97976 384
23.99987 400
24.01999 371
24.0401 352
24.06021 404
24.08033 360
24.10044 351
24.12056 359
24.14067 365
24.16078 377
24.1809 395
24.20101 350
24.22112 337
24.24124 390
24.26135 397
24.28146 388
24.30158 418
24.32169 368
24.34181 395
24.36192 378
24.38203 402
24.40215 416
24.42226 372
24.44237 417
24.46249 376
24.4826 435
24.50272 442
24.52283 447
24.54294 465
24.56306 432
24.58317 452
24.60328 476
24.6234 512
24.64351 526
24.66362 457
24.68374 589
24.70385 508
24.72397 538
24.74408 560
24.76419 546
24.78431 559
24.80442 622
24.82453 599
24.84465 577
24.86476 628
24.88488 605
24.90499 583
24.9251 599
24.94522 608
24.96533 508
24.98544 524
25.00556 512
25.02567 471
25.04579 505
25.0659 537
25.08601 496
25.10613 460
25.12624 476
25.14635 472
25.16647 485
25.18658 458
25.20669 464
25.22681 500
25.24692 491
25.26704 440
25.28715 433
25.30726 449
25.32738 441
25.34749 368
25.3676 382
25.38772 442
25.40783 402
25.42795 366
25.44806 394
25.46817 391
25.48829 397
25.5084 395
25.52851 364
25.54863 421
25.56874 384
25.58886 368
25.60897 428
25.62908 408
25.6492 401
25.66931 452
25.68942 472
25.70954 485
25.72965 478
25.74976 468
25.76988 476
25.78999 461
25.81011 459
25.83022 459
25.85033 471
25.87045 540
25.89056 509
25.91067 532
25.93079 490
25.9509 556
25.97102 548
25.99113 487
26.01124 520
26.03136 552
26.05147 581
26.07158 637
26.0917 636
26.11181 659
26.13193 700
26.15204 743
26.17215 735
26.19227 800
26.21238 912
26.23249 951
26.25261 1063
26.27272 1152
26.29283 1383
26.31295 1463
26.33306 1749
26.35318 2093
26.37329 2532
26.3934 3119
26.41352 3958
26.43363 4881
26.45374 6339
26.47386 8049
26.49397 10238
26.51409 12975
26.5342 15667
26.55431 17821
26.57443 19491
26.59454 20301
26.61465 19741
26.63477 17991
26.65488 14907
26.67499 11641
26.69511 8651
26.71522 6445
26.73534 4347
26.75545 2991
26.77556 2038
26.79568 1638
26.81579 1274
26.8359 1134
26.85602 1084
26.87613 970
26.89625 881
26.91636 814
26.93647 781
26.95659 770
26.9767 636
26.99681 654
27.01693 589
27.03704 551
27.05716 538
27.07727 497
27.09738 524
27.1175 490
27.13761 443
27.15772 443
27.17784 426
27.19795 476
27.21806 424
27.23818 448
27.25829 416
27.27841 452
27.29852 434
27.31863 416
27.33875 426
27.35886 401
27.37897 440
27.39909 392
27.4192 395
27.43932 425
27.45943 395
27.47954 425
27.49966 354
27.51977 406
27.53988 399
27.56 376
27.58011 391
27.60023 415
27.62034 366
27.64045 375
27.66057 323
27.68068 382
27.70079 369
27.72091 364
27.74102 392
27.76113 362
27.78125 361
27.80136 378
27.82148 362
27.84159 380
27.8617 382
27.88182 340
27.90193 369
27.92204 355
27.94216 349
27.96227 353
27.98239 366
28.0025 366
28.02261 340
28.04273 390
28.06284 325
28.08295 367
28.10307 385
28.12318 351
28.1433 330
28.16341 359
28.18352 368
28.20364 353
28.22375 332
28.24386 332
28.26398 350
28.28409 310
28.3042 312
28.32432 326
28.34443 289
28.36455 309
28.38466 308
28.40477 331
28.42489 318
28.445 320
28.46511 311
28.48523 317
28.50534 315
28.52546 311
28.54557 304
28.56568 327
28.5858 312
28.60591 331
28.62602 318
28.64614 293
28.66625 296
28.68636 326
28.70648 361
28.72659 315
28.74671 317
28.76682 337
28.78693 362
28.80705 351
28.82716 291
28.84727 274
28.86739 312
28.8875 297
28.90762 316
28.92773 309
28.94784 291
28.96796 299
28.98807 309
29.00818 304
29.0283 317
29.04841 303
29.06853 288
29.08864 304
29.10875 298
29.12887 289
29.14898 319
29.16909 330
29.18921 305
29.20932 271
29.22943 296
29.24955 293
29.26966 301
29.28978 315
29.30989 297
29.33 308
29.35012 280
29.37023 271
29.39034 304
29.41046 286
29.43057 291
29.45069 267
29.4708 311
29.49091 295
29.51103 288
29.53114 287
29.55125 300
29.57137 291
29.59148 269
29.6116 301
29.63171 297
29.65182 293
29.67194 271
29.69205 298
29.71216 301
29.73228 294
29.75239 306
29.7725 296
29.79262 297
29.81273 278
29.83285 293
29.85296 296
29.87307 283
29.89319 274
29.9133 299
29.93341 271
29.95353 303
29.97364 294
29.99376 269
30.01387 297
30.03398 286
30.0541 286
30.07421 308
30.09432 317
30.11444 300
30.13455 314
30.15467 298
30.17478 301
30.19489 313
30.21501 264
30.23512 269
30.25523 329
30.27535 327
30.29546 303
30.31557 288
30.33569 278
30.3558 303
30.37592 275
30.39603 286
30.41614 280
30.43626 300
30.45637 293
30.47648 283
30.4966 290
30.51671 292
30.53683 297
30.55694 267
30.57705 271
30.59717 283
30.61728 248
30.63739 300
30.65751 290
30.67762 295
30.69773 269
30.71785 293
30.73796 307
30.75808 268
30.77819 281
30.7983 282
30.81842 303
30.83853 284
30.85864 275
30.87876 315
30.89887 292
30.91899 271
30.9391 268
30.95921 271
30.97933 269
30.99944 282
31.01955 289
31.03967 273
31.05978 297
31.0799 301
31.10001 285
31.12012 270
31.14024 314
31.16035 309
31.18046 260
31.20058 256
31.22069 286
31.2408 273
31.26092 285
31.28103 280
31.30115 283
31.32126 277
31.34137 239
31.36149 291
31.3816 277
31.40171 266
31.42183 279
31.44194 262
31.46206 267
31.48217 251
31.50228 279
31.5224 281
31.54251 259
31.56262 266
31.58274 293
31.60285 281
31.62297 289
31.64308 286
31.66319 275
31.68331 264
31.70342 261
31.72353 266
31.74365 241
31.76376 301
31.78387 282
31.80399 287
31.8241 270
31.84422 285
31.86433 247
31.88444 274
31.90456 266
31.92467 249
31.94478 284
31.9649 284
31.98501 258
32.00513 302
32.02524 273
32.04535 270
32.06547 279
32.08558 289
32.10569 268
32.12581 281
32.14592 250
32.16604 254
32.18615 288
32.20626 283
32.22638 249
32.24649 271
32.2666 316
32.28672 273
32.30683 275
32.32694 254
32.34706 257
32.36717 279
32.38729 285
32.4074 283
32.42751 303
32.44763 312
32.46774 289
32.48785 299
32.50797 276
32.52808 303
32.5482 296
32.56831 305
32.58842 310
32.60854 314
32.62865 327
32.64876 322
32.66888 305
32.68899 279
32.7091 290
32.72922 328
32.74933 278
32.76945 312
32.78956 293
32.80967 299
32.82979 303
32.8499 337
32.87001 326
32.89013 281
32.91024 315
32.93036 347
32.95047 322
32.97058 358
32.9907 370
33.01081 341
33.03092 348
33.05104 322
33.07115 343
33.09127 351
33.11138 333
33.13149 370
33.15161 350
33.17172 343
33.19183 341
33.21195 352
33.23206 371
33.25217 340
33.27229 349
33.2924 344
33.31252 349
33.33263 338
33.35274 335
33.37286 348
33.39297 300
33.41308 317
33.4332 335
33.45331 329
33.47343 321
33.49354 323
33.51365 305
33.53377 328
33.55388 309
33.57399 300
33.59411 321
33.61422 301
33.63434 314
33.65445 327
33.67456 303
33.69468 314
33.71479 310
33.7349 308
33.75502 313
33.77513 295
33.79524 278
33.81536 310
33.83547 313
33.85559 290
33.8757 302
33.89581 268
33.91593 283
33.93604 303
33.95615 302
33.97627 274
33.99638 282
34.0165 327
34.03661 287
34.05672 278
34.07684 297
34.09695 292
34.11706 278
34.13718 284
34.15729 243
34.17741 287
34.19752 308
34.21763 263
34.23775 267
34.25786 263
34.27797 268
34.29809 272
34.3182 248
34.33831 245
34.35843 217
34.37854 277
34.39866 289
34.41877 294
34.43888 294
34.459 280
34.47911 305
34.49922 289
34.51934 297
34.53945 286
34.55957 307
34.57968 311
34.59979 323
34.61991 314
34.64002 333
34.66013 340
34.68025 329
34.70036 316
34.72047 339
34.74059 366
34.7607 350
34.78082 378
34.80093 383
34.82104 343
34.84116 416
34.86127 436
34.88138 405
34.9015 410
34.92161 383
34.94173 442
34.96184 419
34.98195 429
35.00207 375
35.02218 406
35.04229 405
35.06241 411
35.08252 425
35.10264 426
35.12275 368
35.14286 384
35.16298 344
35.18309 359
35.2032 371
35.22332 373
35.24343 399
35.26354 366
35.28366 395
35.30377 372
35.32389 385
35.344 418
35.36411 396
35.38423 449
35.40434 413
35.42445 413
35.44457 425
35.46468 452
35.4848 438
35.50491 413
35.52502 432
35.54514 440
35.56525 479
35.58536 463
35.60548 504
35.62559 491
35.64571 480
35.66582 504
35.68593 456
35.70605 461
35.72616 447
35.74627 472
35.76639 454
35.7865 505
35.80661 463
35.82673 482
35.84684 470
35.86696 479
35.88707 504
35.90718 433
35.9273 385
35.94741 463
35.96752 421
35.98764 451
36.00775 422
36.02787 416
36.04798 400
36.06809 415
36.08821 418
36.10832 394
36.12843 410
36.14855 415
36.16866 403
36.18878 456
36.20889 450
36.229 533
36.24912 525
36.26923 542
36.28934 611
36.30946 668
36.32957 736
36.34968 852
36.3698 922
36.38991 1128
36.41003 1305
36.43014 1429
36.45025 1508
36.47037 1559
36.49048 1609
36.51059 1619
36.53071 1554
36.55082 1361
36.57094 1225
36.59105 1013
36.61116 859
36.63128 756
36.65139 657
36.6715 522
36.69162 473
36.71173 393
36.73184 435
36.75196 410
36.77207 381
36.79219 362
36.8123 388
36.83241 324
36.85253 370
36.87264 328
36.89275 352
36.91287 339
36.93298 337
36.9531 369
36.97321 374
36.99332 357
37.01344 329
37.03355 336
37.05366 361
37.07378 382
37.09389 363
37.11401 373
37.13412 347
37.15423 369
37.17435 367
37.19446 351
37.21457 383
37.23469 339
37.2548 387
37.27491 355
37.29503 360
37.31514 325
37.33526 340
37.35537 340
37.37548 387
37.3956 355
37.41571 373
37.43582 356
37.45594 384
37.47605 378
37.49617 396
37.51628 393
37.53639 395
37.55651 387
37.57662 372
37.59673 375
37.61685 404
37.63696 403
37.65708 371
37.67719 370
37.6973 377
37.71742 375
37.73753 351
37.75764 410
37.77776 370
37.79787 357
37.81798 330
37.8381 328
37.85821 351
37.87833 395
37.89844 349
37.91855 358
37.93867 333
37.95878 355
37.97889 337
37.99901 364
38.01912 334
38.03924 381
38.05935 354
38.07946 382
38.09958 364
38.11969 367
38.1398 374
38.15992 390
38.18003 419
38.20015 418
38.22026 410
38.24037 400
38.26049 413
38.2806 419
38.30071 423
38.32083 405
38.34094 432
38.36105 417
38.38117 459
38.40128 437
38.4214 456
38.44151 389
38.46162 443
38.48174 420
38.50185 404
38.52196 389
38.54208 440
38.56219 395
38.58231 387
38.60242 372
38.62253 398
38.64265 387
38.66276 366
38.68287 377
38.70299 324
38.7231 350
38.74321 365
38.76333 391
38.78344 335
38.80356 336
38.82367 389
38.84378 352
38.8639 380
38.88401 376
38.90412 393
38.92424 385
38.94435 408
38.96447 374
38.98458 422
39.00469 403
39.02481 389
39.04492 370
39.06503 400
39.08515 422
39.10526 417
39.12538 520
39.14549 509
39.1656 486
39.18572 519
39.20583 602
39.22594 591
39.24606 696
39.26617 833
39.28628 918
39.3064 1034
39.32651 1156
39.34663 1211
39.36674 1408
39.38685 1495
39.40697 1471
39.42708 1459
39.44719 1415
39.46731 1317
39.48742 1165
39.50754 939
39.52765 882
39.54776 761
39.56788 674
39.58799 542
39.6081 451
39.62822 386
39.64833 373
39.66845 340
39.68856 366
39.70867 330
39.72879 343
39.7489 353
39.76901 308
39.78913 306
39.80924 278
39.82935 350
39.84947 309
39.86958 324
39.8897 338
39.90981 332
39.92992 333
39.95004 371
39.97015 370
39.99026 357
40.01038 410
40.03049 410
40.05061 468
40.07072 478
40.09083 530
40.11095 571
40.13106 611
40.15117 678
40.17129 742
40.1914 825
40.21152 833
40.23163 857
40.25174 851
40.27186 831
40.29197 732
40.31208 666
40.3322 575
40.35231 596
40.37242 519
40.39254 445
40.41265 401
40.43277 374
40.45288 319
40.47299 351
40.49311 379
40.51322 296
40.53333 341
40.55345 277
40.57356 293
40.59368 330
40.61379 308
40.6339 318
40.65402 353
40.67413 284
40.69424 327
40.71436 323
40.73447 305
40.75458 339
40.7747 284
40.79481 323
40.81493 315
40.83504 291
40.85515 276
40.87527 312
40.89538 324
40.91549 311
40.93561 304
40.95572 305
40.97584 282
40.99595 323
41.01606 319
41.03618 306
41.05629 320
41.0764 361
41.09652 297
41.11663 320
41.13675 344
41.15686 264
41.17697 336
41.19709 303
41.2172 314
41.23731 315
41.25743 303
41.27754 313
41.29765 332
41.31777 304
41.33788 307
41.358 316
41.37811 284
41.39822 274
41.41834 327
41.43845 315
41.45856 311
41.47868 304
41.49879 292
41.51891 313
41.53902 309
41.55913 300
41.57925 302
41.59936 318
41.61947 312
41.63959 298
41.6597 306
41.67982 313
41.69993 310
41.72004 270
41.74016 311
41.76027 284
41.78038 289
41.8005 292
41.82061 282
41.84072 308
41.86084 278
41.88095 280
41.90107 284
41.92118 278
41.94129 275
41.96141 304
41.98152 306
42.00163 300
42.02175 297
42.04186 309
42.06198 354
42.08209 359
42.1022 335
42.12232 337
42.14243 412
42.16254 419
42.18266 426
42.20277 503
42.22289 544
42.243 584
42.26311 617
42.28323 772
42.30334 833
42.32345 914
42.34357 1002
42.36368 1086
42.38379 1131
42.40391 1042
42.42402 1068
42.44414 996
42.46425 926
42.48436 786
42.50448 650
42.52459 621
42.5447 578
42.56482 476
42.58493 400
42.60505 338
42.62516 304
42.64527 271
42.66539 298
42.6855 283
42.70561 290
42.72573 274
42.74584 238
42.76595 261
42.78607 256
42.80618 240
42.8263 273
42.84641 257
42.86652 275
42.88664 273
42.90675 257
42.92686 251
42.94698 292
42.96709 279
42.98721 262
43.00732 270
43.02743 252
43.04755 259
43.06766 214
43.08777 260
43.10789 249
43.128 257
43.14812 260
43.16823 249
43.18834 262
43.20846 249
43.22857 262
43.24868 265
43.2688 247
43.28891 258
43.30902 252
43.32914 232
43.34925 262
43.36937 247
43.38948 259
43.40959 266
43.42971 245
43.44982 249
43.46993 237
43.49005 245
43.51016 260
43.53028 289
43.55039 271
43.5705 279
43.59062 250
43.61073 255
43.63084 250
43.65096 272
43.67107 263
43.69119 259
43.7113 259
43.73141 247
43.75153 253
43.77164 269
43.79175 283
43.81187 258
43.83198 263
43.85209 262
43.87221 248
43.89232 269
43.91244 253
43.93255 266
43.95266 242
43.97278 254
43.99289 242
44.013 281
44.03312 265
44.05323 289
44.07335 284
44.09346 264
44.11357 249
44.13369 288
44.1538 264
44.17391 273
44.19403 271
44.21414 310
44.23426 271
44.25437 246
44.27448 292
44.2946 272
44.31471 287
44.33482 269
44.35494 263
44.37505 263
44.39516 271
44.41528 265
44.43539 256
44.45551 253
44.47562 258
44.49573 238
44.51585 263
44.53596 243
44.55607 241
44.57619 265
44.5963 233
44.61642 273
44.63653 254
44.65664 269
44.67676 221
44.69687 284
44.71698 234
44.7371 257
44.75721 252
44.77732 253
44.79744 272
44.81755 252
44.83767 295
44.85778 244
44.87789 278
44.89801 243
44.91812 274
44.93823 267
44.95835 283
44.97846 284
44.99858 265
45.01869 254
45.0388 295
45.05892 287
45.07903 293
45.09914 278
45.11926 288
45.13937 260
45.15949 260
45.1796 282
45.19971 307
45.21983 280
45.23994 296
45.26005 281
45.28017 334
45.30028 353
45.32039 314
45.34051 327
45.36062 356
45.38074 318
45.40085 316
45.42096 355
45.44108 344
45.46119 366
45.4813 371
45.50142 375
45.52153 448
45.54165 409
45.56176 490
45.58187 542
45.60199 575
45.6221 635
45.64221 599
45.66233 732
45.68244 753
45.70256 867
45.72267 825
45.74278 792
45.7629 797
45.78301 740
45.80312 699
45.82324 636
45.84335 548
45.86346 576
45.88358 476
45.90369 482
45.92381 403
45.94392 364
45.96403 337
45.98415 270
46.00426 280
46.02437 266
46.04449 302
46.0646 260
46.08472 309
46.10483 324
46.12494 246
46.14506 260
46.16517 303
46.18528 294
46.2054 269
46.22551 288
46.24563 265
46.26574 286
46.28585 282
46.30597 285
46.32608 262
46.34619 264
46.36631 277
46.38642 255
46.40653 263
46.42665 231
46.44676 231
46.46688 233
46.48699 269
46.5071 279
46.52722 249
46.54733 263
46.56744 256
46.58756 278
46.60767 281
46.62779 279
46.6479 256
46.66801 244
46.68813 279
46.70824 280
46.72835 285
46.74847 249
46.76858 274
46.78869 284
46.80881 272
46.82892 278
46.84904 247
46.86915 245
46.88926 288
46.90938 276
46.92949 250
46.9496 242
46.96972 248
46.98983 230
47.00995 274
47.03006 248
47.05017 239
47.07029 267
47.0904 234
47.11051 243
47.13063 272
47.15074 281
47.17086 257
47.19097 263
47.21108 299
47.2312 240
47.25131 263
47.27142 262
47.29154 279
47.31165 284
47.33176 278
47.35188 285
47.37199 265
47.39211 261
47.41222 269
47.43233 256
47.45245 249
47.47256 264
47.49267 253
47.51279 256
47.5329 248
47.55302 248
47.57313 267
47.59324 246
47.61336 244
47.63347 266
47.65358 263
47.6737 258
47.69381 269
47.71393 281
47.73404 278
47.75415 276
47.77427 279
47.79438 263
47.81449 252
47.83461 266
47.85472 282
47.87483 283
47.89495 276
47.91506 273
47.93518 266
47.95529 259
47.9754 270
47.99552 266
48.01563 253
48.03574 273
48.05586 293
48.07597 271
48.09609 233
48.1162 254
48.13631 259
48.15643 252
48.17654 261
48.19665 243
48.21677 266
48.23688 263
48.257 256
48.27711 248
48.29722 245
48.31734 258
48.33745 223
48.35756 266
48.37768 230
48.39779 272
48.4179 283
48.43802 276
48.45813 259
48.47825 250
48.49836 272
48.51847 279
48.53859 275
48.5587 277
48.57881 265
48.59893 268
48.61904 250
48.63916 275
48.65927 262
48.67938 275
48.6995 294
48.71961 255
48.73972 276
48.75984 251
48.77995 292
48.80006 244
48.82018 293
48.84029 260
48.86041 253
48.88052 253
48.90063 267
48.92075 258
48.94086 260
48.96097 247
48.98109 266
49.0012 282
49.02132 280
49.04143 297
49.06154 266
49.08166 241
49.10177 260
49.12188 307
49.142 283
49.16211 260
49.18223 297
49.20234 245
49.22245 275
49.24257 298
49.26268 284
49.28279 301
49.30291 266
49.32302 293
49.34313 304
49.36325 308
49.38336 315
49.40348 318
49.42359 283
49.4437 314
49.46382 321
49.48393 334
49.50404 312
49.52416 313
49.54427 329
49.56439 342
49.5845 344
49.60461 368
49.62473 345
49.64484 341
49.66495 374
49.68507 394
49.70518 380
49.7253 431
49.74541 454
49.76552 503
49.78564 524
49.80575 525
49.82586 586
49.84598 722
49.86609 770
49.8862 915
49.90632 983
49.92643 1122
49.94655 1312
49.96666 1479
49.98677 1588
50.00689 1884
50.027 2031
50.04711 2259
50.06723 2294
50.08734 2282
50.10746 2132
50.12757 1892
50.14768 1707
50.1678 1517
50.18791 1370
50.20802 1269
50.22814 1165
50.24825 968
50.26837 773
50.28848 670
50.30859 592
50.32871 467
50.34882 402
50.36893 363
50.38905 392
50.40916 335
50.42927 344
50.44939 361
50.4695 346
50.48962 326
50.50973 361
50.52984 331
50.54996 359
50.57007 329
50.59018 392
50.6103 343
50.63041 344
50.65053 324
50.67064 310
50.69075 307
50.71087 301
50.73098 304
50.75109 277
50.77121 288
50.79132 267
50.81143 300
50.83155 302
50.85166 269
50.87178 253
50.89189 284
50.912 253
50.93212 271
50.95223 284
50.97234 262
50.99246 258
51.01257 285
51.03269 264
51.0528 282
51.07291 284
51.09303 263
51.11314 276
51.13325 237
51.15337 255
51.17348 268
51.1936 285
51.21371 243
51.23382 232
51.25394 258
51.27405 268
51.29416 255
51.31428 217
51.33439 275
51.3545 260
51.37462 246
51.39473 223
51.41485 275
51.43496 262
51.45507 233
51.47519 250
51.4953 267
51.51541 242
51.53553 257
51.55564 264
51.57576 250
51.59587 248
51.61598 238
51.6361 250
51.65621 259
51.67632 243
51.69644 220
51.71655 228
51.73667 257
51.75678 245
51.77689 224
51.79701 244
51.81712 212
51.83723 268
51.85735 233
51.87746 246
51.89757 255
51.91769 260
51.9378 260
51.95792 269
51.97803 262
51.99814 264
52.01826 257
52.03837 257
52.05848 257
52.0786 264
52.09871 307
52.11883 242
52.13894 246
52.15905 257
52.17917 275
52.19928 247
52.21939 258
52.23951 260
52.25962 255
52.27974 243
52.29985 254
52.31996 253
52.34008 267
52.36019 238
52.3803 243
52.40042 240
52.42053 240
52.44064 254
52.46076 245
52.48087 245
52.50099 242
52.5211 247
52.54121 237
52.56133 233
52.58144 237
52.60155 249
52.62167 250
52.64178 246
52.6619 248
52.68201 247
52.70212 252
52.72224 248
52.74235 242
52.76246 241
52.78258 265
52.80269 235
52.8228 261
52.84292 235
52.86303 245
52.88315 247
52.90326 257
52.92337 253
52.94349 268
52.9636 276
52.98371 253
53.00383 268
53.02394 238
53.04406 254
53.06417 230
53.08428 255
53.1044 245
53.12451 265
53.14462 244
53.16474 249
53.18485 264
53.20497 268
53.22508 246
53.24519 243
53.26531 300
53.28542 273
53.30553 247
53.32565 288
53.34576 282
53.36587 288
53.38599 275
53.4061 272
53.42622 268
53.44633 268
53.46644 253
53.48656 303
53.50667 278
53.52678 273
53.5469 287
53.56701 284
53.58713 296
53.60724 313
53.62735 305
53.64747 297
53.66758 301
53.68769 303
53.70781 302
53.72792 318
53.74804 332
53.76815 341
53.78826 309
53.80838 336
53.82849 293
53.8486 301
53.86872 340
53.88883 337
53.90894 333
53.92906 316
53.94917 341
53.96929 345
53.9894 343
54.00951 335
54.02963 358
54.04974 323
54.06985 338
54.08997 380
54.11008 338
54.1302 371
54.15031 349
54.17042 345
54.19054 351
54.21065 381
54.23076 372
54.25088 364
54.27099 394
54.29111 357
54.31122 371
54.33133 366
54.35145 385
54.37156 354
54.39167 368
54.41179 390
54.4319 385
54.45201 376
54.47213 367
54.49224 420
54.51236 407
54.53247 394
54.55258 431
54.5727 425
54.59281 452
54.61292 501
54.63304 559
54.65315 525
54.67327 622
54.69338 614
54.71349 673
54.73361 740
54.75372 819
54.77383 870
54.79395 897
54.81406 846
54.83417 906
54.85429 762
54.8744 724
54.89452 715
54.91463 693
54.93474 678
54.95486 656
54.97497 630
54.99508 592
55.0152 520
55.03531 536
55.05543 483
55.07554 451
55.09565 464
55.11577 475
55.13588 480
55.15599 501
55.17611 502
55.19622 509
55.21634 503
55.23645 571
55.25656 572
55.27668 554
55.29679 503
55.3169 506
55.33702 481
55.35713 463
55.37724 454
55.39736 444
55.41747 428
55.43759 400
55.4577 369
55.47781 388
55.49793 378
55.51804 339
55.53815 332
55.55827 315
55.57838 276
55.5985 290
55.61861 294
55.63872 300
55.65884 271
55.67895 258
55.69906 295
55.71918 299
55.73929 266
55.75941 291
55.77952 303
55.79963 281
55.81975 299
55.83986 261
55.85997 272
55.88009 262
55.9002 270
55.92031 261
55.94043 287
55.96054 299
55.98066 266
56.00077 284
56.02088 284
56.041 274
56.06111 277
56.08122 278
56.10134 285
56.12145 303
56.14157 263
56.16168 288
56.18179 255
56.20191 288
56.22202 296
56.24213 262
56.26225 282
56.28236 277
56.30248 270
56.32259 271
56.3427 267
56.36282 281
56.38293 277
56.40304 295
56.42316 284
56.44327 259
56.46338 242
56.4835 264
56.50361 292
56.52373 259
56.54384 286
56.56395 278
56.58407 271
56.60418 278
56.62429 281
56.64441 311
56.66452 270
56.68464 275
56.70475 275
56.72486 287
56.74498 283
56.76509 267
56.7852 266
56.80532 288
56.82543 269
56.84554 269
56.86566 246
56.88577 281
56.90589 269
56.926 261
56.94611 278
56.96623 267
56.98634 256
57.00645 263
57.02657 269
57.04668 274
57.0668 238
57.08691 291
57.10702 300
57.12714 288
57.14725 277
57.16736 288
57.18748 278
57.20759 300
57.22771 266
57.24782 275
57.26793 285
57.28805 255
57.30816 270
57.32827 286
57.34839 269
57.3685 275
57.38861 255
57.40873 251
57.42884 278
57.44896 277
57.46907 240
57.48918 254
57.5093 269
57.52941 257
57.54952 248
57.56964 261
57.58975 265
57.60987 250
57.62998 246
57.65009 269
57.67021 259
57.69032 257
57.71043 260
57.73055 259
57.75066 257
57.77078 231
57.79089 286
57.811 264
57.83112 256
57.85123 261
57.87134 246
57.89146 264
57.91157 257
57.93168 262
57.9518 267
57.97191 279
57.99203 267
58.01214 253
58.03225 250
58.05237 273
58.07248 254
58.09259 261
58.11271 254
58.13282 274
58.15294 268
58.17305 257
58.19316 285
58.21328 235
58.23339 252
58.2535 270
58.27362 247
58.29373 266
58.31385 277
58.33396 274
58.35407 239
58.37419 262
58.3943 271
58.41441 233
58.43453 258
58.45464 251
58.47475 257
58.49487 261
58.51498 245
58.5351 222
58.55521 238
58.57532 274
58.59544 261
58.61555 273
58.63566 220
58.65578 243
58.67589 257
58.69601 247
58.71612 251
58.73623 241
58.75635 259
58.77646 262
58.79657 251
58.81669 245
58.8368 263
58.85691 260
58.87703 280
58.89714 264
58.91726 261
58.93737 260
58.95748 242
58.9776 264
58.99771 239
59.01782 282
59.03794 223
59.05805 261
59.07817 249
59.09828 253
59.11839 270
59.13851 254
59.15862 266
59.17873 261
59.19885 248
59.21896 278
59.23908 279
59.25919 269
59.2793 293
59.29942 283
59.31953 312
59.33964 287
59.35976 272
59.37987 302
59.39998 294
59.4201 293
59.44021 306
59.46033 316
59.48044 332
59.50055 350
59.52067 367
59.54078 410
59.56089 441
59.58101 432
59.60112 462
59.62124 499
59.64135 521
59.66146 574
59.68158 662
59.70169 726
59.7218 762
59.74192 850
59.76203 975
59.78215 1105
59.80226 1206
59.82237 1327
59.84249 1376
59.8626 1588
59.88271 1604
59.90283 1532
59.92294 1442
59.94305 1278
59.96317 1137
59.98328 1028
60.0034 970
60.02351 919
60.04362 898
60.06374 867
60.08385 748
60.10396 664
60.12408 530
60.14419 496
60.16431 458
60.18442 345
60.20453 352
60.22465 337
60.24476 309
60.26487 313
60.28499 313
60.3051 273
60.32522 299
60.34533 290
60.36544 282
60.38556 274
60.40567 291
60.42578 288
60.4459 266
60.46601 263
60.48612 249
60.50624 252
60.52635 293
60.54647 241
60.56658 263
60.58669 212
60.60681 264
60.62692 244
60.64703 253
60.66715 264
60.68726 241
60.70738 225
60.72749 281
60.7476 240
60.76772 262
60.78783 250
60.80794 252
60.82806 260
60.84817 261
60.86828 250
60.8884 256
60.90851 250
60.92863 250
60.94874 230
60.96885 261
60.98897 227
61.00908 242
61.02919 252
61.04931 251
61.06942 252
61.08954 248
61.10965 261
61.12976 232
61.14988 267
61.16999 224
61.1901 229
61.21022 267
61.23033 231
61.25045 267
61.27056 266
61.29067 247
61.31079 261
61.3309 250
61.35101 246
61.37113 290
61.39124 270
61.41135 246
61.43147 257
61.45158 242
61.4717 242
61.49181 261
61.51192 245
61.53204 239
61.55215 269
61.57226 266
61.59238 254
61.61249 263
61.63261 249
61.65272 265
61.67283 288
61.69295 278
61.71306 281
61.73317 287
61.75329 312
61.7734 287
61.79352 271
61.81363 282
61.83374 269
61.85386 313
61.87397 293
61.89408 284
61.9142 310
61.93431 287
61.95442 291
61.97454 325
61.99465 328
62.01477 319
62.03488 343
62.05499 361
62.07511 362
62.09522 362
62.11533 390
62.13545 375
62.15556 391
62.17568 369
62.19579 389
62.2159 386
62.23602 390
62.25613 359
62.27624 404
62.29636 357
62.31647 366
62.33659 385
62.3567 357
62.37681 344
62.39693 359
62.41704 316
62.43715 355
62.45727 351
62.47738 321
62.49749 340
62.51761 301
62.53772 318
62.55784 312
62.57795 272
62.59806 311
62.61818 272
62.63829 270
62.6584 290
62.67852 286
62.69863 286
62.71875 308
62.73886 310
62.75897 298
62.77909 278
62.7992 265
62.81931 299
62.83943 235
62.85954 270
62.87965 266
62.89977 252
62.91988 252
62.94 266
62.96011 232
62.98022 275
63.00034 286
63.02045 286
63.04056 292
63.06068 277
63.08079 253
63.10091 268
63.12102 261
63.14113 261
63.16125 290
63.18136 249
63.20147 275
63.22159 250
63.2417 248
63.26182 262
63.28193 308
63.30204 282
63.32216 262
63.34227 285
63.36238 265
63.3825 277
63.40261 250
63.42272 290
63.44284 259
63.46295 285
63.48307 285
63.50318 289
63.52329 271
63.54341 304
63.56352 280
63.58363 303
63.60375 289
63.62386 314
63.64398 292
63.66409 296
63.6842 323
63.70432 367
63.72443 325
63.74454 380
63.76466 358
63.78477 352
63.80489 360
63.825 405
63.84511 371
63.86523 436
63.88534 469
63.90545 481
63.92557 480
63.94568 507
63.96579 510
63.98591 505
64.00602 478
64.02614 444
64.04625 399
64.06636 406
64.08648 375
64.10659 386
64.1267 372
64.14682 376
64.16693 370
64.18705 353
64.20716 378
64.22727 316
64.24739 314
64.2675 316
64.28761 277
64.30773 280
64.32784 244
64.34796 288
64.36807 269
64.38818 282
64.4083 277
64.42841 253
64.44852 252
64.46864 269
64.48875 280
64.50886 243
64.52898 260
64.54909 250
64.56921 281
64.58932 285
64.60943 273
64.62955 253
64.64966 236
64.66977 269
64.68989 249
64.71 260
64.73012 240
64.75023 248
64.77034 211
64.79046 225
64.81057 238
64.83068 236
64.8508 252
64.87091 256
64.89102 214
64.91114 229
64.93125 265
64.95137 256
64.97148 272
64.99159 256
65.01171 262
65.03182 231
65.05193 229
65.07205 237
65.09216 234
65.11228 275
65.13239 272
65.1525 259
65.17262 242
65.19273 252
65.21284 254
65.23296 240
65.25307 241
65.27319 241
65.2933 245
65.31341 232
65.33353 233
65.35364 234
65.37375 252
65.39387 246
65.41398 229
65.43409 259
65.45421 269
65.47432 270
65.49444 272
65.51455 253
65.53466 259
65.55478 283
65.57489 282
65.595 317
65.61512 324
65.63523 269
65.65535 272
65.67546 286
65.69557 273
65.71569 272
65.7358 301
65.75591 283
65.77603 289
65.79614 276
65.81626 287
65.83637 244
65.85648 293
65.8766 282
65.89671 269
65.91682 276
65.93694 277
65.95705 286
65.97716 274
65.99728 250
66.01739 251
66.03751 249
66.05762 258
66.07773 255
66.09785 259
66.11796 254
66.13807 290
66.15819 251
66.1783 255
66.19842 262
66.21853 266
66.23864 241
66.25876 259
66.27887 253
66.29898 232
66.3191 228
66.33921 231
66.35933 227
66.37944 249
66.39955 247
66.41967 275
66.43978 244
66.45989 257
66.48001 241
66.50012 231
66.52023 259
66.54035 245
66.56046 273
66.58058 268
66.60069 261
66.6208 245
66.64092 270
66.66103 264
66.68114 218
66.70126 249
66.72137 264
66.74149 246
66.7616 260
66.78171 253
66.80183 238
66.82194 257
66.84205 272
66.86217 264
66.88228 248
66.90239 262
66.92251 254
66.94262 270
66.96274 253
66.98285 281
67.00296 254
67.02308 248
67.04319 238
67.0633 260
67.08342 277
67.10353 289
67.12365 272
67.14376 238
67.16387 302
67.18399 306
67.2041 283
67.22421 286
67.24433 296
67.26444 313
67.28456 334
67.30467 321
67.32478 324
67.3449 358
67.36501 377
67.38512 397
67.40524 388
67.42535 463
67.44546 479
67.46558 469
67.48569 522
67.50581 568
67.52592 620
67.54603 718
67.56615 727
67.58626 846
67.60637 896
67.62649 967
67.6466 1066
67.66672 1055
67.68683 1001
67.70694 944
67.72706 895
67.74717 878
67.76728 824
67.7874 813
67.80751 789
67.82763 870
67.84774 875
67.86785 916
67.88797 927
67.90808 950
67.92819 922
67.94831 998
67.96842 1034
67.98853 1106
68.00865 1129
68.02876 1276
68.04888 1372
68.06899 1437
68.0891 1268
68.10922 1308
68.12933 1359
68.14944 1216
68.16956 1205
68.18967 1239
68.20979 1201
68.2299 1271
68.25001 1239
68.27013 1117
68.29024 1114
68.31035 944
68.33047 861
68.35058 711
68.3707 648
68.39081 621
68.41092 601
68.43104 626
68.45115 529
68.47126 507
68.49138 437
68.51149 379
68.5316 356
68.55172 342
68.57183 299
68.59195 289
68.61206 325
68.63217 283
68.65229 293
68.6724 278
68.69251 285
68.71263 287
68.73274 289
68.75286 251
68.77297 266
68.79308 259
68.8132 271
68.83331 250
68.85342 234
68.87354 304
68.89365 278
68.91376 266
68.93388 273
68.95399 253
68.97411 274
68.99422 237
69.01433 274
69.03445 261
69.05456 237
69.07467 226
69.09479 249
69.1149 260
69.13502 228
69.15513 242
69.17524 238
69.19536 269
69.21547 217
69.23558 248
69.2557 249
69.27581 250
69.29593 245
69.31604 227
69.33615 208
69.35627 240
69.37638 243
69.39649 245
69.41661 233
69.43672 248
69.45683 231
69.47695 234
69.49706 241
69.51718 228
69.53729 233
69.5574 230
69.57752 213
69.59763 216
69.61774 254
69.63786 220
69.65797 238
69.67809 224
69.6982 241
69.71831 257
69.73843 257
69.75854 228
69.77865 241
69.79877 234
69.81888 217
69.839 242
69.85911 240
69.87922 231
69.89934 228
69.91945 254
69.93956 233
69.95968 227
69.97979 233
69.9999 222
70.02002 255
70.04013 242
70.06025 237
70.08036 273
70.10047 225
70.12059 262
70.1407 217
70.16081 242
70.18093 230
70.20104 242
70.22116 216
70.24127 228
70.26138 259
70.2815 219
70.30161 223
70.32172 221
70.34184 235
70.36195 232
70.38207 249
70.40218 239
70.42229 227
70.44241 256
70.46252 235
70.48263 227
70.50275 261
70.52286 248
70.54297 238
70.56309 256
70.5832 222
70.60332 209
70.62343 263
70.64354 265
70.66366 261
70.68377 233
70.70388 240
70.724 240
70.74411 235
70.76423 240
70.78434 222
70.80445 245
70.82457 223
70.84468 215
70.86479 214
70.88491 233
70.90502 266
70.92513 229
70.94525 231
70.96536 235
70.98548 213
71.00559 223
71.0257 211
71.04582 231
71.06593 236
71.08604 246
71.10616 232
71.12627 224
71.14639 251
71.1665 227
71.18661 245
71.20673 215
71.22684 253
71.24695 248
71.26707 216
71.28718 267
71.3073 237
71.32741 254
71.34752 230
71.36764 211
71.38775 206
71.40786 245
71.42798 206
71.44809 229
71.4682 235
71.48832 206
71.50843 229
71.52855 245
71.54866 221
71.56877 209
71.58889 234
71.609 239
71.62911 225
71.64923 232
71.66934 242
71.68946 218
71.70957 194
71.72968 218
71.7498 237
71.76991 250
71.79002 245
71.81014 261
71.83025 253
71.85037 270
71.87048 222
71.89059 222
71.91071 246
71.93082 240
71.95093 248
71.97105 243
71.99116 217
72.01127 242
72.03139 230
72.0515 249
72.07162 254
72.09173 215
72.11184 252
72.13196 236
72.15207 263
72.17218 245
72.1923 228
72.21241 210
72.23253 237
72.25264 268
72.27275 262
72.29287 229
72.31298 255
72.33309 228
72.35321 227
72.37332 222
72.39344 233
72.41355 212
72.43366 226
72.45378 247
72.47389 232
72.494 246
72.51412 226
72.53423 245
72.55434 224
72.57446 217
72.59457 243
72.61469 229
72.6348 241
72.65491 253
72.67503 234
72.69514 269
72.71525 224
72.73537 239
72.75548 257
72.7756 235
72.79571 242
72.81582 235
72.83594 231
72.85605 248
72.87616 236
72.89628 243
72.91639 251
72.9365 234
72.95662 264
72.97673 239
72.99685 260
73.01696 251
73.03707 291
73.05719 280
73.0773 276
73.09741 272
73.11753 315
73.13764 305
73.15776 302
73.17787 306
73.19798 324
73.2181 345
73.23821 381
73.25832 388
73.27844 422
73.29855 426
73.31867 474
73.33878 507
73.35889 528
73.37901 503
73.39912 531
73.41923 499
73.43935 487
73.45946 436
73.47957 390
73.49969 370
73.5198 328
73.53992 361
73.56003 346
73.58014 410
73.60026 381
73.62037 351
73.64048 343
73.6606 338
73.68071 283
73.70083 303
73.72094 253
73.74105 263
73.76117 240
73.78128 244
73.80139 270
73.82151 250
73.84162 245
73.86174 247
73.88185 237
73.90196 231
73.92208 237
73.94219 254
73.9623 238
73.98242 229
74.00253 225
74.02264 218
74.04276 254
74.06287 274
74.08299 243
74.1031 226
74.12321 231
74.14333 223
74.16344 217
74.18355 256
74.20367 233
74.22378 218
74.2439 199
74.26401 241
74.28412 221
74.30424 245
74.32435 245
74.34446 225
74.36458 251
74.38469 230
74.40481 192
74.42492 216
74.44503 228
74.46515 218
74.48526 250
74.50537 222
74.52549 219
74.5456 246
74.56571 196
74.58583 248
74.60594 217
74.62606 219
74.64617 238
74.66628 228
74.6864 220
74.70651 202
74.72662 270
74.74674 239
74.76685 256
74.78697 211
74.80708 216
74.82719 239
74.84731 234
74.86742 242
74.88753 211
74.90765 244
74.92776 240
74.94787 221
74.96799 252
74.9881 240
75.00822 251
