3.00117 21761
3.02128 21417
3.0414 20482
3.06151 20506
3.08162 19377
3.10174 18973
3.12185 18431
3.14197 17932
3.16208 17639
3.18219 16863
3.20231 16804
3.22242 16325
3.24253 15606
3.26265 15389
3.28276 14618
3.30288 14171
3.32299 14094
3.3431 13312
3.36322 13274
3.38333 12541
3.40344 12102
3.42356 11847
3.44367 11260
3.46379 11180
3.4839 10589
3.50401 10522
3.52413 10242
3.54424 9553
3.56435 9580
3.58447 8735
3.60458 8827
3.62469 8339
3.64481 8120
3.66492 7955
3.68504 7439
3.70515 7329
3.72526 6895
3.74538 6611
3.76549 6712
3.7856 6133
3.80572 5991
3.82583 5824
3.84595 5501
3.86606 5402
3.88617 4919
3.90629 4941
3.9264 4697
3.94651 4449
3.96663 4393
3.98674 4037
4.00686 3975
4.02697 3865
4.04708 3625
4.0672 3619
4.08731 3347
4.10742 3220
4.12754 3236
4.14765 2986
4.16776 2913
4.18788 2745
4.20799 2735
4.22811 2647
4.24822 2534
4.26833 2468
4.28845 2272
4.30856 2277
4.32867 2240
4.34879 2195
4.3689 2185
4.38902 1932
4.40913 1981
4.42924 1973
4.44936 1867
4.46947 1871
4.48958 1727
4.5097 1757
4.52981 1718
4.54992 1784
4.57004 1682
4.59015 1518
4.61027 1585
4.63038 1638
4.65049 1506
4.67061 1588
4.69072 1475
4.71083 1443
4.73095 1482
4.75106 1368
4.77118 1395
4.79129 1351
4.8114 1281
4.83152 1281
4.85163 1307
4.87174 1159
4.89186 1229
4.91197 1144
4.93209 1264
4.9522 1187
4.97231 1115
4.99243 1072
5.01254 999
5.03265 1073
5.05277 1094
5.07288 1031
5.09299 1005
5.11311 1002
5.13322 995
5.15334 940
5.17345 914
5.19356 945
5.21368 933
5.23379 835
5.2539 910
5.27402 806
5.29413 825
5.31425 818
5.33436 823
5.35447 807
5.37459 781
5.3947 864
5.41481 784
5.43493 738
5.45504 770
5.47516 745
5.49527 736
5.51538 755
5.5355 710
5.55561 762
5.57572 753
5.59584 698
5.61595 631
5.63606 663
5.65618 688
5.67629 672
5.69641 679
5.71652 650
5.73663 643
5.75675 669
5.77686 638
5.79697 599
5.81709 638
5.8372 634
5.85732 606
5.87743 569
5.89754 609
5.91766 624
5.93777 607
5.95788 573
5.978 605
5.99811 583
6.01823 558
6.03834 608
6.05845 632
6.07857 571
6.09868 532
6.11879 572
6.13891 557
6.15902 564
6.17913 579
6.19925 588
6.21936 560
6.23948 573
6.25959 557
6.2797 538
6.29982 539
6.31993 538
6.34004 544
6.36016 571
6.38027 543
6.40039 545
6.4205 540
6.44061 474
6.46073 460
6.48084 548
6.50095 525
6.52107 558
6.54118 527
6.56129 514
6.58141 520
6.60152 554
6.62164 495
6.64175 550
6.66186 516
6.68198 534
6.70209 518
6.7222 496
6.74232 527
6.76243 510
6.78255 490
6.80266 531
6.82277 482
6.84289 517
6.863 470
6.88311 492
6.90323 456
6.92334 480
6.94346 489
6.96357 482
6.98368 472
7.0038 516
7.02391 466
7.04402 515
7.06414 481
7.08425 454
7.10436 463
7.12448 471
7.14459 489
7.16471 431
7.18482 484
7.20493 504
7.22505 476
7.24516 479
7.26527 494
7.28539 464
7.3055 458
7.32562 484
7.34573 466
7.36584 471
7.38596 486
7.40607 466
7.42618 469
7.4463 477
7.46641 474
7.48653 468
7.50664 488
7.52675 487
7.54687 499
7.56698 474
7.58709 440
7.60721 463
7.62732 428
7.64743 467
7.66755 493
7.68766 463
7.70778 443
7.72789 459
7.748 439
7.76812 464
7.78823 510
7.80834 453
7.82846 448
7.84857 497
7.86869 461
7.8888 494
7.90891 448
7.92903 462
7.94914 478
7.96925 472
7.98937 470
8.00948 408
8.0296 486
8.04971 468
8.06982 496
8.08994 456
8.11005 416
8.13016 438
8.15028 455
8.17039 462
8.1905 448
8.21062 463
8.23073 403
8.25085 444
8.27096 446
8.29107 431
8.31119 505
8.3313 461
8.35141 492
8.37153 408
8.39164 430
8.41176 448
8.43187 527
8.45198 479
8.4721 494
8.49221 446
8.51232 465
8.53244 438
8.55255 438
8.57266 482
8.59278 458
8.61289 450
8.63301 472
8.65312 444
8.67323 470
8.69335 461
8.71346 466
8.73357 407
8.75369 457
8.7738 451
8.79392 397
8.81403 448
8.83414 430
8.85426 425
8.87437 485
8.89448 431
8.9146 498
8.93471 460
8.95483 459
8.97494 443
8.99505 438
9.01517 413
9.03528 470
9.05539 431
9.07551 468
9.09562 466
9.11573 475
9.13585 427
9.15596 394
9.17608 477
9.19619 432
9.2163 446
9.23642 453
9.25653 445
9.27664 405
9.29676 461
9.31687 428
9.33699 471
9.3571 444
9.37721 433
9.39733 444
9.41744 435
9.43755 418
9.45767 462
9.47778 401
9.4979 412
9.51801 434
9.53812 452
9.55824 404
9.57835 450
9.59846 437
9.61858 411
9.63869 445
9.6588 452
9.67892 453
9.69903 476
9.71915 447
9.73926 386
9.75937 450
9.77949 433
9.7996 412
9.81971 466
9.83983 399
9.85994 452
9.88006 423
9.90017 432
9.92028 466
9.9404 428
9.96051 459
9.98062 389
10.00074 442
10.02085 447
10.04097 429
10.06108 443
10.08119 423
10.10131 427
10.12142 444
10.14153 440
10.16165 414
10.18176 420
10.20187 403
10.22199 429
10.2421 414
10.26222 431
10.28233 377
10.30244 453
10.32256 435
10.34267 423
10.36278 405
10.3829 418
10.40301 410
10.42313 465
10.44324 445
10.46335 423
10.48347 438
10.50358 472
10.52369 450
10.54381 430
10.56392 439
10.58403 420
10.60415 425
10.62426 442
10.64438 451
10.66449 387
10.6846 413
10.70472 456
10.72483 465
10.74494 461
10.76506 431
10.78517 409
10.80529 480
10.8254 435
10.84551 468
10.86563 416
10.88574 406
10.90585 441
10.92597 425
10.94608 431
10.9662 428
10.98631 427
11.00642 447
11.02654 492
11.04665 445
11.06676 409
11.08688 429
11.10699 453
11.1271 424
11.14722 415
11.16733 441
11.18745 462
11.20756 463
11.22767 450
11.24779 415
11.2679 466
11.28801 453
11.30813 486
11.32824 463
11.34836 410
11.36847 507
11.38858 442
11.4087 411
11.42881 452
11.44892 427
11.46904 437
11.48915 449
11.50927 482
11.52938 520
11.54949 493
11.56961 485
11.58972 529
11.60983 535
11.62995 481
11.65006 490
11.67017 504
11.69029 494
11.7104 502
11.73052 438
11.75063 507
11.77074 501
11.79086 533
11.81097 500
11.83108 516
11.8512 540
11.87131 460
11.89143 514
11.91154 549
11.93165 533
11.95177 559
11.97188 560
11.99199 546
12.01211 532
12.03222 585
12.05234 551
12.07245 533
12.09256 553
12.11268 586
12.13279 607
12.1529 594
12.17302 602
12.19313 537
12.21324 590
12.23336 588
12.25347 556
12.27359 596
12.2937 574
12.31381 620
12.33393 583
12.35404 600
12.37415 574
12.39427 524
12.41438 500
12.4345 557
12.45461 508
12.47472 517
12.49484 556
12.51495 532
12.53506 472
12.55518 441
12.57529 438
12.5954 470
12.61552 416
12.63563 466
12.65575 443
12.67586 435
12.69597 472
12.71609 402
12.7362 469
12.75631 442
12.77643 456
12.79654 466
12.81666 446
12.83677 407
12.85688 382
12.877 402
12.89711 417
12.91722 402
12.93734 378
12.95745 389
12.97757 385
12.99768 417
13.01779 379
13.03791 417
13.05802 396
13.07813 389
13.09825 402
13.11836 364
13.13847 378
13.15859 396
13.1787 391
13.19882 356
13.21893 391
13.23904 413
13.25916 405
13.27927 383
13.29938 373
13.3195 383
13.33961 384
13.35973 372
13.37984 366
13.39995 378
13.42007 360
13.44018 368
13.46029 403
13.48041 346
13.50052 377
13.52064 433
13.54075 384
13.56086 381
13.58098 386
13.60109 387
13.6212 372
13.64132 347
13.66143 387
13.68154 373
13.70166 389
13.72177 372
13.74189 350
13.762 398
13.78211 359
13.80223 367
13.82234 374
13.84245 334
13.86257 373
13.88268 331
13.9028 374
13.92291 387
13.94302 333
13.96314 367
13.98325 363
14.00336 369
14.02348 367
14.04359 345
14.06371 365
14.08382 383
14.10393 351
14.12405 367
14.14416 348
14.16427 379
14.18439 381
14.2045 347
14.22461 362
14.24473 334
14.26484 390
14.28496 347
14.30507 350
14.32518 368
14.3453 359
14.36541 336
14.38552 355
14.40564 362
14.42575 366
14.44587 387
14.46598 377
14.48609 364
14.50621 316
14.52632 368
14.54643 349
14.56655 386
14.58666 312
14.60677 336
14.62689 395
14.647 337
14.66712 365
14.68723 370
14.70734 389
14.72746 380
14.74757 342
14.76768 383
14.7878 385
14.80791 350
14.82803 371
14.84814 350
14.86825 380
14.88837 394
14.90848 366
14.92859 373
14.94871 372
14.96882 343
14.98894 352
15.00905 363
15.02916 377
15.04928 365
15.06939 366
15.0895 337
15.10962 388
15.12973 376
15.14984 339
15.16996 354
15.19007 317
15.21019 354
15.2303 342
15.25041 361
15.27053 379
15.29064 364
15.31075 326
15.33087 353
15.35098 363
15.3711 356
15.39121 327
15.41132 314
15.43144 418
15.45155 355
15.47166 350
15.49178 359
15.51189 355
15.53201 363
15.55212 341
15.57223 379
15.59235 321
15.61246 302
15.63257 373
15.65269 351
15.6728 319
15.69291 380
15.71303 347
15.73314 349
15.75326 352
15.77337 316
15.79348 338
15.8136 334
15.83371 351
15.85382 336
15.87394 325
15.89405 342
15.91417 360
15.93428 357
15.95439 358
15.97451 346
15.99462 357
16.01473 326
16.03485 318
16.05496 336
16.07508 359
16.09519 342
16.1153 351
16.13542 363
16.15553 354
16.17564 346
16.19576 371
16.21587 383
16.23598 364
16.2561 338
16.27621 356
16.29633 368
16.31644 345
16.33655 349
16.35667 356
16.37678 350
16.39689 371
16.41701 350
16.43712 371
16.45724 314
16.47735 346
16.49746 332
16.51758 341
16.53769 337
16.5578 356
16.57792 355
16.59803 298
16.61814 338
16.63826 346
16.65837 337
16.67849 311
16.6986 339
16.71871 374
16.73883 334
16.75894 348
16.77905 342
16.79917 338
16.81928 371
16.8394 383
16.85951 365
16.87962 358
16.89974 359
16.91985 382
16.93996 347
16.96008 365
16.98019 344
17.00031 351
17.02042 388
17.04053 349
17.06065 401
17.08076 347
17.10087 373
17.12099 364
17.1411 372
17.16121 338
17.18133 363
17.20144 354
17.22156 358
17.24167 351
17.26178 347
17.2819 369
17.30201 334
17.32212 396
17.34224 360
17.36235 356
17.38247 345
17.40258 351
17.42269 357
17.44281 392
17.46292 378
17.48303 375
17.50315 345
17.52326 330
17.54338 385
17.56349 387
17.5836 350
17.60372 370
17.62383 351
17.64394 364
17.66406 374
17.68417 377
17.70428 347
17.7244 388
17.74451 382
17.76463 362
17.78474 404
17.80485 368
17.82497 395
17.84508 354
17.86519 369
17.88531 341
17.90542 415
17.92554 396
17.94565 361
17.96576 377
17.98588 390
18.00599 390
18.0261 390
18.04622 343
18.06633 359
18.08645 365
18.10656 385
18.12667 407
18.14679 378
18.1669 349
18.18701 359
18.20713 354
18.22724 369
18.24735 406
18.26747 377
18.28758 406
18.3077 366
18.32781 347
18.34792 346
18.36804 364
18.38815 373
18.40826 378
18.42838 363
18.44849 351
18.46861 387
18.48872 351
18.50883 359
18.52895 390
18.54906 365
18.56917 352
18.58929 385
18.6094 367
18.62951 401
18.64963 400
18.66974 381
18.68986 353
18.70997 334
18.73008 410
18.7502 365
18.77031 401
18.79042 410
18.81054 404
18.83065 414
18.85077 399
18.87088 388
18.89099 395
18.91111 383
18.93122 393
18.95133 368
18.97145 384
18.99156 381
19.01168 396
19.03179 371
19.0519 382
19.07202 389
19.09213 378
19.11224 422
19.13236 370
19.15247 388
19.17258 387
19.1927 372
19.21281 418
19.23293 376
19.25304 401
19.27315 415
19.29327 404
19.31338 426
19.33349 408
19.35361 413
19.37372 433
19.39384 449
19.41395 449
19.43406 425
19.45418 471
19.47429 472
19.4944 487
19.51452 479
19.53463 527
19.55475 509
19.57486 500
19.59497 533
19.61509 583
19.6352 614
19.65531 634
19.67543 667
19.69554 716
19.71565 775
19.73577 743
19.75588 840
19.776 775
19.79611 876
19.81622 927
19.83634 848
19.85645 906
19.87656 840
19.89668 915
19.91679 908
19.93691 846
19.95702 859
19.97713 819
19.99725 757
20.01736 837
20.03747 802
20.05759 791
20.0777 749
20.09782 780
20.11793 792
20.13804 712
20.15816 790
20.17827 780
20.19838 696
20.2185 785
20.23861 810
20.25872 795
20.27884 761
20.29895 790
20.31907 713
20.33918 755
20.35929 724
20.37941 791
20.39952 842
20.41963 745
20.43975 708
20.45986 752
20.47998 722
20.50009 775
20.5202 758
20.54032 788
20.56043 767
20.58054 845
20.60066 839
20.62077 887
20.64088 938
20.661 1034
20.68111 1186
20.70123 1452
20.72134 1774
20.74145 2144
20.76157 2592
20.78168 3155
20.80179 3465
20.82191 3535
20.84202 3354
20.86214 2962
20.88225 2410
20.90236 1782
20.92248 1293
20.94259 1142
20.9627 943
20.98282 787
21.00293 780
21.02305 761
21.04316 745
21.06327 731
21.08339 741
21.1035 691
21.12361 741
21.14373 721
21.16384 672
21.18395 711
21.20407 705
21.22418 668
21.2443 683
21.26441 657
21.28452 681
21.30464 663
21.32475 667
21.34486 661
21.36498 683
21.38509 669
21.40521 640
21.42532 625
21.44543 670
21.46555 669
21.48566 648
21.50577 618
21.52589 646
21.546 681
21.56612 636
21.58623 621
21.60634 638
21.62646 615
21.64657 584
21.66668 615
21.6868 594
21.70691 611
21.72702 587
21.74714 567
21.76725 545
21.78737 583
21.80748 609
21.82759 582
21.84771 563
21.86782 540
21.88793 598
21.90805 576
21.92816 541
21.94828 585
21.96839 591
21.9885 559
22.00862 551
22.02873 528
22.04884 530
22.06896 561
22.08907 574
22.10919 561
22.1293 548
22.14941 504
22.16953 513
22.18964 544
22.20975 562
22.22987 550
22.24998 533
22.27009 568
22.29021 554
22.31032 536
22.33044 524
22.35055 527
22.37066 506
22.39078 576
22.41089 510
22.431 494
22.45112 511
22.47123 526
22.49135 544
22.51146 515
22.53157 507
22.55169 522
22.5718 504
22.59191 505
22.61203 499
22.63214 543
22.65225 475
22.67237 535
22.69248 498
22.7126 514
22.73271 517
22.75282 507
22.77294 490
22.79305 498
22.81316 508
22.83328 494
22.85339 534
22.87351 524
22.89362 517
22.91373 506
22.93385 470
22.95396 491
22.97407 459
22.99419 515
23.0143 510
23.03442 496
23.05453 477
23.07464 541
23.09476 463
23.11487 493
23.13498 493
23.1551 477
23.17521 450
23.19532 545
23.21544 520
23.23555 487
23.25567 499
23.27578 485
23.29589 521
23.31601 463
23.33612 525
23.35623 516
23.37635 461
23.39646 543
23.41658 483
23.43669 478
23.4568 499
23.47692 536
23.49703 500
23.51714 521
23.53726 527
23.55737 512
23.57749 509
23.5976 525
23.61771 483
23.63783 520
23.65794 450
23.67805 487
23.69817 546
23.71828 500
23.73839 458
23.75851 527
23.77862 484
23.79874 537
23.81885 528
23.83896 519
23.85908 502
23.87919 482
23.8993 507
23.91942 545
23.93953 519
23.95965 550
23.97976 555
23.99987 510
24.01999 547
24.0401 498
24.06021 521
24.08033 509
24.10044 506
24.12056 541
24.14067 565
24.16078 530
24.1809 554
24.20101 524
24.22112 548
24.24124 520
24.26135 551
24.28146 538
24.30158 534
24.32169 467
24.34181 516
24.36192 572
24.38203 546
24.40215 563
24.42226 552
24.44237 597
24.46249 572
24.4826 536
24.50272 560
24.52283 560
24.54294 549
24.56306 533
24.58317 531
24.60328 584
24.6234 565
24.64351 553
24.66362 557
24.68374 578
24.70385 604
24.72397 614
24.74408 568
24.76419 597
24.78431 644
24.80442 634
24.82453 643
24.84465 680
24.86476 675
24.88488 684
24.90499 615
24.9251 617
24.94522 657
24.96533 668
24.98544 688
25.00556 644
25.02567 631
25.04579 595
25.0659 579
25.08601 655
25.10613 678
25.12624 690
25.14635 648
25.16647 724
25.18658 701
25.20669 681
25.22681 721
25.24692 705
25.26704 686
25.28715 662
25.30726 637
25.32738 670
25.34749 618
25.3676 599
25.38772 675
25.40783 601
25.42795 618
25.44806 582
25.46817 567
25.48829 558
25.5084 580
25.52851 610
25.54863 577
25.56874 599
25.58886 552
25.60897 583
25.62908 570
25.6492 562
25.66931 600
25.68942 625
25.70954 582
25.72965 586
25.74976 624
25.76988 593
25.78999 621
25.81011 617
25.83022 593
25.85033 622
25.87045 626
25.89056 580
25.91067 626
25.93079 609
25.9509 608
25.97102 636
25.99113 652
26.01124 643
26.03136 639
26.05147 660
26.07158 683
26.0917 670
26.11181 730
26.13193 743
26.15204 740
26.17215 732
26.19227 801
26.21238 827
26.23249 848
26.25261 883
26.27272 955
26.29283 975
26.31295 1066
26.33306 1130
26.35318 1284
26.37329 1432
26.3934 1709
26.41352 2125
26.43363 2635
26.45374 3513
26.47386 4641
26.49397 6094
26.51409 8211
26.5342 10161
26.55431 12253
26.57443 13889
26.59454 14371
26.61465 13476
26.63477 11821
26.65488 9526
26.67499 7156
26.69511 5352
26.71522 3685
26.73534 2441
26.75545 1714
26.77556 1329
26.79568 1149
26.81579 1037
26.8359 1023
26.85602 905
26.87613 864
26.89625 849
26.91636 796
26.93647 725
26.95659 689
26.9767 679
26.99681 641
27.01693 592
27.03704 607
27.05716 628
27.07727 623
27.09738 552
27.1175 566
27.13761 552
27.15772 572
27.17784 580
27.19795 586
27.21806 582
27.23818 568
27.25829 594
27.27841 580
27.29852 549
27.31863 569
27.33875 582
27.35886 609
27.37897 604
27.39909 622
27.4192 628
27.43932 603
27.45943 577
27.47954 576
27.49966 519
27.51977 521
27.53988 503
27.56 497
27.58011 460
27.60023 488
27.62034 495
27.64045 479
27.66057 495
27.68068 491
27.70079 514
27.72091 477
27.74102 499
27.76113 471
27.78125 493
27.80136 497
27.82148 465
27.84159 441
27.8617 437
27.88182 454
27.90193 483
27.92204 490
27.94216 483
27.96227 461
27.98239 447
28.0025 500
28.02261 465
28.04273 486
28.06284 432
28.08295 438
28.10307 445
28.12318 448
28.1433 428
28.16341 436
28.18352 462
28.20364 440
28.22375 415
28.24386 433
28.26398 414
28.28409 433
28.3042 433
28.32432 478
28.34443 408
28.36455 429
28.38466 418
28.40477 434
28.42489 437
28.445 447
28.46511 423
28.48523 437
28.50534 421
28.52546 457
28.54557 432
28.56568 456
28.5858 375
28.60591 435
28.62602 423
28.64614 451
28.66625 417
28.68636 440
28.70648 462
28.72659 400
28.74671 442
28.76682 410
28.78693 426
28.80705 410
28.82716 430
28.84727 424
28.86739 401
28.8875 365
28.90762 407
28.92773 433
28.94784 440
28.96796 400
28.98807 432
29.00818 407
29.0283 409
29.04841 384
29.06853 414
29.08864 371
29.10875 382
29.12887 390
29.14898 397
29.16909 420
29.18921 405
29.20932 453
29.22943 384
29.24955 416
29.26966 408
29.28978 426
29.30989 411
29.33 425
29.35012 409
29.37023 395
29.39034 428
29.41046 429
29.43057 407
29.45069 387
29.4708 440
29.49091 419
29.51103 454
29.53114 392
29.55125 423
29.57137 443
29.59148 419
29.6116 397
29.63171 418
29.65182 431
29.67194 436
29.69205 400
29.71216 390
29.73228 402
29.75239 411
29.7725 416
29.79262 429
29.81273 416
29.83285 426
29.85296 416
29.87307 444
29.89319 430
29.9133 406
29.93341 408
29.95353 426
29.97364 395
29.99376 416
30.01387 396
30.03398 419
30.0541 438
30.07421 378
30.09432 386
30.11444 402
30.13455 398
30.15467 434
30.17478 434
30.19489 410
30.21501 404
30.23512 399
30.25523 394
30.27535 413
30.29546 405
30.31557 423
30.33569 403
30.3558 392
30.37592 385
30.39603 397
30.41614 389
30.43626 420
30.45637 408
30.47648 391
30.4966 374
30.51671 405
30.53683 368
30.55694 388
30.57705 363
30.59717 384
30.61728 402
30.63739 420
30.65751 365
30.67762 427
30.69773 405
30.71785 383
30.73796 399
30.75808 430
30.77819 399
30.7983 362
30.81842 410
30.83853 370
30.85864 403
30.87876 409
30.89887 430
30.91899 398
30.9391 373
30.95921 331
30.97933 378
30.99944 369
31.01955 373
31.03967 439
31.05978 366
31.0799 407
31.10001 379
31.12012 417
31.14024 410
31.16035 401
31.18046 356
31.20058 372
31.22069 370
31.2408 354
31.26092 382
31.28103 368
31.30115 395
31.32126 388
31.34137 377
31.36149 335
31.3816 390
31.40171 401
31.42183 387
31.44194 367
31.46206 365
31.48217 376
31.50228 359
31.5224 359
31.54251 334
31.56262 358
31.58274 385
31.60285 378
31.62297 410
31.64308 380
31.66319 401
31.68331 379
31.70342 391
31.72353 383
31.74365 355
31.76376 391
31.78387 375
31.80399 380
31.8241 352
31.84422 379
31.86433 385
31.88444 366
31.90456 371
31.92467 401
31.94478 371
31.9649 404
31.98501 341
32.00513 405
32.02524 369
32.04535 367
32.06547 363
32.08558 414
32.10569 378
32.12581 382
32.14592 355
32.16604 379
32.18615 349
32.20626 397
32.22638 385
32.24649 412
32.2666 401
32.28672 380
32.30683 398
32.32694 380
32.34706 391
32.36717 382
32.38729 388
32.4074 397
32.42751 394
32.44763 413
32.46774 415
32.48785 377
32.50797 415
32.52808 398
32.5482 432
32.56831 404
32.58842 380
32.60854 416
32.62865 376
32.64876 375
32.66888 415
32.68899 429
32.7091 398
32.72922 394
32.74933 407
32.76945 417
32.78956 408
32.80967 419
32.82979 422
32.8499 424
32.87001 463
32.89013 381
32.91024 402
32.93036 434
32.95047 436
32.97058 434
32.9907 468
33.01081 430
33.03092 454
33.05104 468
33.07115 430
33.09127 458
33.11138 466
33.13149 475
33.15161 431
33.17172 460
33.19183 429
33.21195 441
33.23206 442
33.25217 413
33.27229 398
33.2924 445
33.31252 409
33.33263 393
33.35274 454
33.37286 411
33.39297 421
33.41308 392
33.4332 416
33.45331 408
33.47343 398
33.49354 401
33.51365 418
33.53377 394
33.55388 436
33.57399 444
33.59411 404
33.61422 400
33.63434 381
33.65445 416
33.67456 393
33.69468 376
33.71479 417
33.7349 424
33.75502 423
33.77513 388
33.79524 384
33.81536 415
33.83547 397
33.85559 411
33.8757 415
33.89581 387
33.91593 354
33.93604 381
33.95615 408
33.97627 389
33.99638 411
34.0165 399
34.03661 417
34.05672 395
34.07684 405
34.09695 402
34.11706 382
34.13718 434
34.15729 420
34.17741 395
34.19752 450
34.21763 388
34.23775 384
34.25786 414
34.27797 428
34.29809 415
34.3182 386
34.33831 439
34.35843 437
34.37854 393
34.39866 465
34.41877 452
34.43888 439
34.459 459
34.47911 466
34.49922 455
34.51934 485
34.53945 460
34.55957 494
34.57968 483
34.59979 478
34.61991 493
34.64002 515
34.66013 510
34.68025 550
34.70036 528
34.72047 538
34.74059 546
34.7607 543
34.78082 550
34.80093 607
34.82104 627
34.84116 568
34.86127 550
34.88138 567
34.9015 611
34.92161 599
34.94173 615
34.96184 612
34.98195 543
35.00207 607
35.02218 576
35.04229 623
35.06241 495
35.08252 545
35.10264 572
35.12275 576
35.14286 564
35.16298 559
35.18309 549
35.2032 585
35.22332 520
35.24343 530
35.26354 528
35.28366 532
35.30377 497
35.32389 575
35.344 603
35.36411 580
35.38423 542
35.40434 591
35.42445 586
35.44457 585
35.46468 575
35.4848 620
35.50491 588
35.52502 604
35.54514 578
35.56525 630
35.58536 633
35.60548 585
35.62559 631
35.64571 581
35.66582 611
35.68593 565
35.70605 626
35.72616 569
35.74627 655
35.76639 592
35.7865 614
35.80661 622
35.82673 681
35.84684 557
35.86696 626
35.88707 541
35.90718 607
35.9273 576
35.94741 573
35.96752 569
35.98764 598
36.00775 568
36.02787 561
36.04798 562
36.06809 571
36.08821 593
36.10832 546
36.12843 552
36.14855 529
36.16866 558
36.18878 540
36.20889 547
36.229 577
36.24912 574
36.26923 627
36.28934 619
36.30946 672
36.32957 727
36.34968 735
36.3698 790
36.38991 924
36.41003 1065
36.43014 1128
36.45025 1277
36.47037 1375
36.49048 1329
36.51059 1265
36.53071 1231
36.55082 1127
36.57094 992
36.59105 877
36.61116 834
36.63128 673
36.65139 679
36.6715 616
36.69162 613
36.71173 571
36.73184 496
36.75196 549
36.77207 516
36.79219 515
36.8123 529
36.83241 513
36.85253 514
36.87264 522
36.89275 490
36.91287 529
36.93298 494
36.9531 519
36.97321 507
36.99332 514
37.01344 490
37.03355 479
37.05366 502
37.07378 489
37.09389 483
37.11401 484
37.13412 552
37.15423 499
37.17435 471
37.19446 508
37.21457 510
37.23469 509
37.2548 510
37.27491 501
37.29503 490
37.31514 496
37.33526 426
37.35537 493
37.37548 481
37.3956 505
37.41571 514
37.43582 467
37.45594 535
37.47605 482
37.49617 481
37.51628 440
37.53639 483
37.55651 485
37.57662 518
37.59673 508
37.61685 535
37.63696 519
37.65708 518
37.67719 518
37.6973 499
37.71742 491
37.73753 492
37.75764 547
37.77776 530
37.79787 519
37.81798 470
37.8381 484
37.85821 481
37.87833 516
37.89844 472
37.91855 460
37.93867 488
37.95878 508
37.97889 482
37.99901 463
38.01912 505
38.03924 532
38.05935 455
38.07946 484
38.09958 514
38.11969 539
38.1398 516
38.15992 471
38.18003 470
38.20015 479
38.22026 506
38.24037 501
38.26049 519
38.2806 505
38.30071 485
38.32083 516
38.34094 485
38.36105 482
38.38117 442
38.40128 558
38.4214 493
38.44151 518
38.46162 484
38.48174 521
38.50185 499
38.52196 477
38.54208 483
38.56219 485
38.58231 507
38.60242 485
38.62253 459
38.64265 408
38.66276 459
38.68287 480
38.70299 435
38.7231 469
38.74321 468
38.76333 470
38.78344 498
38.80356 448
38.82367 501
38.84378 414
38.8639 476
38.88401 472
38.90412 460
38.92424 443
38.94435 447
38.96447 446
38.98458 494
39.00469 444
39.02481 468
39.04492 461
39.06503 499
39.08515 486
39.10526 462
39.12538 480
39.14549 453
39.1656 490
39.18572 530
39.20583 515
39.22594 564
39.24606 584
39.26617 675
39.28628 741
39.3064 792
39.32651 896
39.34663 997
39.36674 1220
39.38685 1184
39.40697 1207
39.42708 1198
39.44719 1098
39.46731 962
39.48742 910
39.50754 892
39.52765 775
39.54776 620
39.56788 550
39.58799 489
39.6081 506
39.62822 470
39.64833 459
39.66845 444
39.68856 448
39.70867 427
39.72879 409
39.7489 387
39.76901 428
39.78913 422
39.80924 435
39.82935 409
39.84947 420
39.86958 409
39.8897 461
39.90981 469
39.92992 433
39.95004 441
39.97015 424
39.99026 458
40.01038 421
40.03049 435
40.05061 462
40.07072 492
40.09083 478
40.11095 569
40.13106 618
40.15117 671
40.17129 690
40.1914 772
40.21152 780
40.23163 733
40.25174 735
40.27186 705
40.29197 684
40.31208 628
40.3322 603
40.35231 589
40.37242 524
40.39254 547
40.41265 505
40.43277 485
40.45288 426
40.47299 442
40.49311 425
40.51322 448
40.53333 395
40.55345 389
40.57356 406
40.59368 437
40.61379 427
40.6339 387
40.65402 376
40.67413 436
40.69424 425
40.71436 422
40.73447 431
40.75458 415
40.7747 444
40.79481 447
40.81493 434
40.83504 444
40.85515 427
40.87527 407
40.89538 423
40.91549 419
40.93561 422
40.95572 419
40.97584 436
40.99595 405
41.01606 413
41.03618 453
41.05629 404
41.0764 448
41.09652 399
41.11663 411
41.13675 422
41.15686 401
41.17697 390
41.19709 447
41.2172 404
41.23731 452
41.25743 412
41.27754 415
41.29765 422
41.31777 423
41.33788 428
41.358 408
41.37811 399
41.39822 364
41.41834 381
41.43845 393
41.45856 389
41.47868 380
41.49879 433
41.51891 423
41.53902 369
41.55913 348
41.57925 360
41.59936 410
41.61947 387
41.63959 381
41.6597 371
41.67982 376
41.69993 372
41.72004 386
41.74016 390
41.76027 381
41.78038 406
41.8005 380
41.82061 368
41.84072 387
41.86084 403
41.88095 371
41.90107 390
41.92118 374
41.94129 404
41.96141 367
41.98152 369
42.00163 375
42.02175 402
42.04186 397
42.06198 385
42.08209 390
42.1022 410
42.12232 385
42.14243 396
42.16254 422
42.18266 437
42.20277 448
42.22289 444
42.243 514
42.26311 598
42.28323 587
42.30334 737
42.32345 756
42.34357 871
42.36368 919
42.38379 877
42.40391 874
42.42402 858
42.44414 795
42.46425 747
42.48436 674
42.50448 629
42.52459 585
42.5447 571
42.56482 477
42.58493 409
42.60505 408
42.62516 389
42.64527 366
42.66539 368
42.6855 368
42.70561 370
42.72573 352
42.74584 375
42.76595 366
42.78607 353
42.80618 385
42.8263 406
42.84641 356
42.86652 379
42.88664 362
42.90675 334
42.92686 363
42.94698 353
42.96709 336
42.98721 325
43.00732 364
43.02743 320
43.04755 351
43.06766 354
43.08777 372
43.10789 342
43.128 362
43.14812 362
43.16823 349
43.18834 351
43.20846 333
43.22857 371
43.24868 359
43.2688 356
43.28891 379
43.30902 338
43.32914 359
43.34925 342
43.36937 342
43.38948 382
43.40959 385
43.42971 363
43.44982 365
43.46993 330
43.49005 351
43.51016 378
43.53028 347
43.55039 364
43.5705 310
43.59062 384
43.61073 349
43.63084 355
43.65096 397
43.67107 340
43.69119 365
43.7113 351
43.73141 352
43.75153 369
43.77164 350
43.79175 332
43.81187 334
43.83198 320
43.85209 356
43.87221 356
43.89232 360
43.91244 345
43.93255 319
43.95266 342
43.97278 350
43.99289 336
44.013 353
44.03312 336
44.05323 353
44.07335 327
44.09346 373
44.11357 373
44.13369 351
44.1538 329
44.17391 324
44.19403 354
44.21414 354
44.23426 331
44.25437 351
44.27448 316
44.2946 378
44.31471 359
44.33482 370
44.35494 390
44.37505 377
44.39516 335
44.41528 370
44.43539 336
44.45551 330
44.47562 319
44.49573 307
44.51585 345
44.53596 343
44.55607 332
44.57619 358
44.5963 390
44.61642 359
44.63653 337
44.65664 360
44.67676 317
44.69687 373
44.71698 295
44.7371 361
44.75721 335
44.77732 383
44.79744 352
44.81755 330
44.83767 364
44.85778 350
44.87789 361
44.89801 345
44.91812 365
44.93823 411
44.95835 350
44.97846 405
44.99858 344
45.01869 333
45.0388 378
45.05892 337
45.07903 323
45.09914 368
45.11926 372
45.13937 367
45.15949 377
45.1796 351
45.19971 350
45.21983 390
45.23994 383
45.26005 396
45.28017 365
45.30028 367
45.32039 410
45.34051 385
45.36062 375
45.38074 394
45.40085 385
45.42096 394
45.44108 375
45.46119 416
45.4813 422
45.50142 426
45.52153 449
45.54165 443
45.56176 437
45.58187 473
45.60199 503
45.6221 511
45.64221 529
45.66233 598
45.68244 671
45.70256 695
45.72267 714
45.74278 699
45.7629 669
45.78301 615
45.80312 601
45.82324 579
45.84335 533
45.86346 524
45.88358 454
45.90369 471
45.92381 424
45.94392 437
45.96403 381
45.98415 383
46.00426 366
46.02437 376
46.04449 373
46.0646 371
46.08472 398
46.10483 378
46.12494 382
46.14506 364
46.16517 382
46.18528 344
46.2054 335
46.22551 368
46.24563 319
46.26574 360
46.28585 325
46.30597 403
46.32608 339
46.34619 359
46.36631 328
46.38642 373
46.40653 351
46.42665 367
46.44676 342
46.46688 361
46.48699 330
46.5071 352
46.52722 383
46.54733 342
46.56744 342
46.58756 354
46.60767 333
46.62779 357
46.6479 358
46.66801 360
46.68813 319
46.70824 360
46.72835 361
46.74847 389
46.76858 345
46.78869 347
46.80881 377
46.82892 347
46.84904 342
46.86915 352
46.88926 346
46.90938 348
46.92949 342
46.9496 371
46.96972 340
46.98983 349
47.00995 365
47.03006 345
47.05017 346
47.07029 338
47.0904 360
47.11051 312
47.13063 355
47.15074 343
47.17086 338
47.19097 369
47.21108 347
47.2312 327
47.25131 345
47.27142 344
47.29154 349
47.31165 353
47.33176 366
47.35188 403
47.37199 325
47.39211 359
47.41222 325
47.43233 348
47.45245 349
47.47256 359
47.49267 359
47.51279 378
47.5329 354
47.55302 321
47.57313 352
47.59324 335
47.61336 361
47.63347 380
47.65358 357
47.6737 341
47.69381 402
47.71393 365
47.73404 369
47.75415 340
47.77427 363
47.79438 388
47.81449 351
47.83461 350
47.85472 360
47.87483 371
47.89495 385
47.91506 383
47.93518 325
47.95529 356
47.9754 325
47.99552 371
48.01563 342
48.03574 380
48.05586 379
48.07597 338
48.09609 333
48.1162 362
48.13631 325
48.15643 368
48.17654 348
48.19665 340
48.21677 345
48.23688 341
48.257 355
48.27711 355
48.29722 331
48.31734 337
48.33745 342
48.35756 352
48.37768 382
48.39779 347
48.4179 345
48.43802 353
48.45813 326
48.47825 350
48.49836 339
48.51847 318
48.53859 370
48.5587 367
48.57881 335
48.59893 325
48.61904 350
48.63916 342
48.65927 373
48.67938 341
48.6995 341
48.71961 351
48.73972 351
48.75984 308
48.77995 338
48.80006 352
48.82018 357
48.84029 348
48.86041 378
48.88052 341
48.90063 349
48.92075 353
48.94086 344
48.96097 333
48.98109 319
49.0012 358
49.02132 358
49.04143 341
49.06154 392
49.08166 349
49.10177 352
49.12188 363
49.142 344
49.16211 342
49.18223 361
49.20234 366
49.22245 355
49.24257 364
49.26268 332
49.28279 358
49.30291 377
49.32302 359
49.34313 347
49.36325 388
49.38336 385
49.40348 371
49.42359 326
49.4437 331
49.46382 357
49.48393 372
49.50404 357
49.52416 366
49.54427 351
49.56439 339
49.5845 386
49.60461 387
49.62473 386
49.64484 372
49.66495 384
49.68507 405
49.70518 373
49.7253 432
49.74541 419
49.76552 424
49.78564 419
49.80575 473
49.82586 489
49.84598 525
49.86609 568
49.8862 614
49.90632 686
49.92643 782
49.94655 879
49.96666 1014
49.98677 1124
50.00689 1325
50.027 1471
50.04711 1564
50.06723 1664
50.08734 1529
50.10746 1543
50.12757 1315
50.14768 1176
50.1678 1048
50.18791 1059
50.20802 998
50.22814 786
50.24825 782
50.26837 684
50.28848 536
50.30859 486
50.32871 447
50.34882 432
50.36893 413
50.38905 437
50.40916 379
50.42927 402
50.44939 379
50.4695 385
50.48962 398
50.50973 358
50.52984 380
50.54996 348
50.57007 399
50.59018 354
50.6103 361
50.63041 356
50.65053 354
50.67064 371
50.69075 344
50.71087 348
50.73098 323
50.75109 355
50.77121 322
50.79132 301
50.81143 340
50.83155 329
50.85166 348
50.87178 334
50.89189 364
50.912 337
50.93212 378
50.95223 338
50.97234 373
50.99246 349
51.01257 323
51.03269 317
51.0528 346
51.07291 328
51.09303 303
51.11314 315
51.13325 316
51.15337 317
51.17348 351
51.1936 342
51.21371 319
51.23382 323
51.25394 342
51.27405 297
51.29416 320
51.31428 345
51.33439 332
51.3545 327
51.37462 319
51.39473 326
51.41485 327
51.43496 315
51.45507 305
51.47519 306
51.4953 323
51.51541 315
51.53553 298
51.55564 330
51.57576 323
51.59587 299
51.61598 377
51.6361 316
51.65621 324
51.67632 322
51.69644 329
51.71655 316
51.73667 332
51.75678 305
51.77689 318
51.79701 267
51.81712 308
51.83723 304
51.85735 329
51.87746 304
51.89757 348
51.91769 294
51.9378 313
51.95792 297
51.97803 280
51.99814 340
52.01826 307
52.03837 313
52.05848 284
52.0786 305
52.09871 337
52.11883 310
52.13894 286
52.15905 339
52.17917 345
52.19928 311
52.21939 302
52.23951 317
52.25962 327
52.27974 298
52.29985 307
52.31996 328
52.34008 308
52.36019 307
52.3803 299
52.40042 302
52.42053 308
52.44064 364
52.46076 333
52.48087 300
52.50099 318
52.5211 332
52.54121 337
52.56133 322
52.58144 342
52.60155 320
52.62167 322
52.64178 301
52.6619 334
52.68201 336
52.70212 310
52.72224 336
52.74235 300
52.76246 334
52.78258 345
52.80269 307
52.8228 336
52.84292 311
52.86303 309
52.88315 325
52.90326 322
52.92337 327
52.94349 318
52.9636 337
52.98371 343
53.00383 355
53.02394 294
53.04406 334
53.06417 318
53.08428 317
53.1044 355
53.12451 340
53.14462 333
53.16474 354
53.18485 324
53.20497 349
53.22508 324
53.24519 360
53.26531 325
53.28542 369
53.30553 351
53.32565 379
53.34576 363
53.36587 344
53.38599 345
53.4061 348
53.42622 398
53.44633 358
53.46644 354
53.48656 351
53.50667 406
53.52678 378
53.5469 414
53.56701 381
53.58713 401
53.60724 403
53.62735 392
53.64747 383
53.66758 427
53.68769 427
53.70781 382
53.72792 379
53.74804 401
53.76815 391
53.78826 407
53.80838 414
53.82849 426
53.8486 392
53.86872 389
53.88883 417
53.90894 443
53.92906 404
53.94917 435
53.96929 431
53.9894 415
54.00951 403
54.02963 442
54.04974 410
54.06985 457
54.08997 415
54.11008 444
54.1302 469
54.15031 450
54.17042 460
54.19054 451
54.21065 466
54.23076 469
54.25088 484
54.27099 454
54.29111 489
54.31122 455
54.33133 417
54.35145 455
54.37156 438
54.39167 439
54.41179 405
54.4319 395
54.45201 449
54.47213 447
54.49224 443
54.51236 472
54.53247 450
54.55258 420
54.5727 466
54.59281 484
54.61292 482
54.63304 459
54.65315 519
54.67327 536
54.69338 557
54.71349 630
54.73361 638
54.75372 687
54.77383 787
54.79395 812
54.81406 813
54.83417 704
54.85429 684
54.8744 624
54.89452 617
54.91463 587
54.93474 616
54.95486 603
54.97497 560
54.99508 563
55.0152 463
55.03531 491
55.05543 437
55.07554 466
55.09565 447
55.11577 468
55.13588 434
55.15599 483
55.17611 488
55.19622 555
55.21634 531
55.23645 570
55.25656 573
55.27668 529
55.29679 535
55.3169 512
55.33702 496
55.35713 469
55.37724 436
55.39736 446
55.41747 465
55.43759 437
55.4577 431
55.47781 456
55.49793 393
55.51804 393
55.53815 411
55.55827 390
55.57838 366
55.5985 408
55.61861 358
55.63872 406
55.65884 356
55.67895 388
55.69906 381
55.71918 377
55.73929 349
55.75941 342
55.77952 382
55.79963 400
55.81975 382
55.83986 357
55.85997 371
55.88009 378
55.9002 336
55.92031 357
55.94043 349
55.96054 361
55.98066 391
56.00077 336
56.02088 379
56.041 347
56.06111 351
56.08122 327
56.10134 373
56.12145 381
56.14157 344
56.16168 381
56.18179 327
56.20191 361
56.22202 340
56.24213 344
56.26225 315
56.28236 375
56.30248 383
56.32259 332
56.3427 356
56.36282 339
56.38293 335
56.40304 333
56.42316 353
56.44327 368
56.46338 352
56.4835 346
56.50361 314
56.52373 394
56.54384 339
56.56395 358
56.58407 313
56.60418 337
56.62429 357
56.64441 348
56.66452 370
56.68464 317
56.70475 358
56.72486 361
56.74498 356
56.76509 329
56.7852 346
56.80532 332
56.82543 350
56.84554 341
56.86566 346
56.88577 358
56.90589 369
56.926 315
56.94611 331
56.96623 312
56.98634 383
57.00645 351
57.02657 315
57.04668 360
57.0668 345
57.08691 349
57.10702 332
57.12714 331
57.14725 405
57.16736 346
57.18748 379
57.20759 372
57.22771 335
57.24782 336
57.26793 372
57.28805 369
57.30816 356
57.32827 337
57.34839 361
57.3685 374
57.38861 351
57.40873 381
57.42884 331
57.44896 353
57.46907 344
57.48918 340
57.5093 348
57.52941 305
57.54952 298
57.56964 326
57.58975 290
57.60987 360
57.62998 359
57.65009 337
57.67021 375
57.69032 350
57.71043 312
57.73055 345
57.75066 338
57.77078 343
57.79089 354
57.811 314
57.83112 337
57.85123 298
57.87134 337
57.89146 303
57.91157 319
57.93168 364
57.9518 267
57.97191 360
57.99203 298
58.01214 315
58.03225 331
58.05237 343
58.07248 314
58.09259 304
58.11271 293
58.13282 323
58.15294 327
58.17305 349
58.19316 328
58.21328 362
58.23339 329
58.2535 327
58.27362 321
58.29373 308
58.31385 315
58.33396 327
58.35407 337
58.37419 313
58.3943 356
58.41441 315
58.43453 318
58.45464 327
58.47475 310
58.49487 343
58.51498 318
58.5351 296
58.55521 326
58.57532 336
58.59544 333
58.61555 297
58.63566 332
58.65578 318
58.67589 338
58.69601 307
58.71612 317
58.73623 324
58.75635 313
58.77646 340
58.79657 330
58.81669 328
58.8368 319
58.85691 279
58.87703 318
58.89714 308
58.91726 318
58.93737 317
58.95748 325
58.9776 343
58.99771 329
59.01782 318
59.03794 329
59.05805 324
59.07817 340
59.09828 314
59.11839 290
59.13851 318
59.15862 353
59.17873 324
59.19885 304
59.21896 335
59.23908 324
59.25919 315
59.2793 374
59.29942 339
59.31953 386
59.33964 338
59.35976 328
59.37987 335
59.39998 337
59.4201 380
59.44021 366
59.46033 390
59.48044 319
59.50055 354
59.52067 386
59.54078 383
59.56089 404
59.58101 415
59.60112 440
59.62124 426
59.64135 455
59.66146 467
59.68158 494
59.70169 541
59.7218 574
59.74192 642
59.76203 673
59.78215 774
59.80226 928
59.82237 983
59.84249 1045
59.8626 1078
59.88271 1102
59.90283 1047
59.92294 998
59.94305 864
59.96317 824
59.98328 787
60.0034 779
60.02351 711
60.04362 705
60.06374 691
60.08385 633
60.10396 535
60.12408 495
60.14419 493
60.16431 420
60.18442 387
60.20453 381
60.22465 367
60.24476 345
60.26487 327
60.28499 335
60.3051 326
60.32522 328
60.34533 358
60.36544 319
60.38556 324
60.40567 333
60.42578 322
60.4459 338
60.46601 301
60.48612 337
60.50624 359
60.52635 321
60.54647 353
60.56658 317
60.58669 305
60.60681 338
60.62692 307
60.64703 327
60.66715 323
60.68726 321
60.70738 353
60.72749 329
60.7476 307
60.76772 299
60.78783 380
60.80794 322
60.82806 339
60.84817 326
60.86828 289
60.8884 313
60.90851 319
60.92863 296
60.94874 309
60.96885 309
60.98897 311
61.00908 345
61.02919 320
61.04931 312
61.06942 327
61.08954 328
61.10965 316
61.12976 349
61.14988 320
61.16999 313
61.1901 320
61.21022 365
61.23033 318
61.25045 303
61.27056 358
61.29067 354
61.31079 329
61.3309 378
61.35101 326
61.37113 358
61.39124 342
61.41135 376
61.43147 348
61.45158 321
61.4717 372
61.49181 357
61.51192 340
61.53204 391
61.55215 394
61.57226 383
61.59238 356
61.61249 352
61.63261 377
61.65272 368
61.67283 376
61.69295 395
61.71306 375
61.73317 411
61.75329 373
61.7734 393
61.79352 396
61.81363 418
61.83374 410
61.85386 421
61.87397 425
61.89408 401
61.9142 411
61.93431 420
61.95442 444
61.97454 451
61.99465 410
62.01477 427
62.03488 484
62.05499 456
62.07511 438
62.09522 436
62.11533 484
62.13545 442
62.15556 456
62.17568 415
62.19579 462
62.2159 460
62.23602 481
62.25613 464
62.27624 464
62.29636 441
62.31647 418
62.33659 432
62.3567 431
62.37681 416
62.39693 376
62.41704 397
62.43715 412
62.45727 441
62.47738 366
62.49749 409
62.51761 407
62.53772 380
62.55784 398
62.57795 408
62.59806 389
62.61818 371
62.63829 381
62.6584 374
62.67852 367
62.69863 365
62.71875 360
62.73886 349
62.75897 369
62.77909 332
62.7992 365
62.81931 386
62.83943 323
62.85954 340
62.87965 332
62.89977 344
62.91988 329
62.94 343
62.96011 368
62.98022 335
63.00034 352
63.02045 354
63.04056 346
63.06068 336
63.08079 340
63.10091 337
63.12102 322
63.14113 327
63.16125 297
63.18136 346
63.20147 362
63.22159 356
63.2417 344
63.26182 353
63.28193 343
63.30204 329
63.32216 321
63.34227 328
63.36238 349
63.3825 336
63.40261 337
63.42272 355
63.44284 370
63.46295 318
63.48307 348
63.50318 287
63.52329 319
63.54341 308
63.56352 362
63.58363 341
63.60375 361
63.62386 390
63.64398 398
63.66409 348
63.6842 329
63.70432 372
63.72443 360
63.74454 359
63.76466 363
63.78477 390
63.80489 365
63.825 414
63.84511 396
63.86523 419
63.88534 418
63.90545 427
63.92557 456
63.94568 472
63.96579 474
63.98591 435
64.00602 471
64.02614 428
64.04625 389
64.06636 402
64.08648 380
64.10659 386
64.1267 410
64.14682 367
64.16693 379
64.18705 388
64.20716 369
64.22727 317
64.24739 303
64.2675 349
64.28761 317
64.30773 321
64.32784 308
64.34796 297
64.36807 335
64.38818 329
64.4083 302
64.42841 291
64.44852 308
64.46864 330
64.48875 326
64.50886 326
64.52898 321
64.54909 319
64.56921 325
64.58932 301
64.60943 331
64.62955 323
64.64966 338
64.66977 284
64.68989 282
64.71 324
64.73012 310
64.75023 324
64.77034 284
64.79046 329
64.81057 314
64.83068 303
64.8508 294
64.87091 290
64.89102 306
64.91114 300
64.93125 305
64.95137 297
64.97148 313
64.99159 312
65.01171 337
65.03182 287
65.05193 297
65.07205 315
65.09216 307
65.11228 291
65.13239 318
65.1525 305
65.17262 314
65.19273 312
65.21284 317
65.23296 294
65.25307 309
65.27319 301
65.2933 295
65.31341 289
65.33353 260
65.35364 295
65.37375 291
65.39387 278
65.41398 308
65.43409 295
65.45421 295
65.47432 319
65.49444 316
65.51455 279
65.53466 308
65.55478 333
65.57489 294
65.595 299
65.61512 327
65.63523 326
65.65535 366
65.67546 336
65.69557 331
65.71569 339
65.7358 323
65.75591 357
65.77603 326
65.79614 286
65.81626 316
65.83637 297
65.85648 318
65.8766 322
65.89671 290
65.91682 284
65.93694 304
65.95705 298
65.97716 289
65.99728 302
66.01739 301
66.03751 316
66.05762 287
66.07773 275
66.09785 265
66.11796 311
66.13807 269
66.15819 296
66.1783 325
66.19842 282
66.21853 305
66.23864 283
66.25876 293
66.27887 305
66.29898 306
66.3191 295
66.33921 281
66.35933 286
66.37944 297
66.39955 265
66.41967 290
66.43978 303
66.45989 261
66.48001 284
66.50012 303
66.52023 315
66.54035 273
66.56046 295
66.58058 287
66.60069 288
66.6208 329
66.64092 289
66.66103 311
66.68114 307
66.70126 290
66.72137 323
66.74149 301
66.7616 280
66.78171 301
66.80183 289
66.82194 302
66.84205 279
66.86217 302
66.88228 291
66.90239 301
66.92251 293
66.94262 299
66.96274 283
66.98285 298
67.00296 313
67.02308 306
67.04319 311
67.0633 312
67.08342 297
67.10353 314
67.12365 304
67.14376 298
67.16387 323
67.18399 308
67.2041 357
67.22421 309
67.24433 325
67.26444 295
67.28456 349
67.30467 334
67.32478 338
67.3449 344
67.36501 338
67.38512 360
67.40524 369
67.42535 355
67.44546 430
67.46558 416
67.48569 437
67.50581 449
67.52592 453
67.54603 534
67.56615 576
67.58626 661
67.60637 679
67.62649 728
67.6466 782
67.66672 801
67.68683 743
67.70694 692
67.72706 646
67.74717 614
67.76728 625
67.7874 576
67.80751 589
67.82763 630
67.84774 636
67.86785 620
67.88797 670
67.90808 631
67.92819 678
67.94831 713
67.96842 759
67.98853 757
68.00865 804
68.02876 848
68.04888 927
68.06899 893
68.0891 919
68.10922 920
68.12933 913
68.14944 892
68.16956 863
68.18967 877
68.20979 875
68.2299 888
68.25001 868
68.27013 798
68.29024 733
68.31035 642
68.33047 664
68.35058 570
68.3707 518
68.39081 495
68.41092 512
68.43104 511
68.45115 463
68.47126 463
68.49138 434
68.51149 392
68.5316 366
68.55172 336
68.57183 349
68.59195 331
68.61206 339
68.63217 331
68.65229 358
68.6724 294
68.69251 317
68.71263 298
68.73274 302
68.75286 310
68.77297 324
68.79308 319
68.8132 312
68.83331 305
68.85342 305
68.87354 285
68.89365 280
68.91376 318
68.93388 279
68.95399 313
68.97411 320
68.99422 295
69.01433 310
69.03445 300
69.05456 296
69.07467 267
69.09479 297
69.1149 307
69.13502 314
69.15513 295
69.17524 286
69.19536 296
69.21547 294
69.23558 290
69.2557 297
69.27581 278
69.29593 287
69.31604 305
69.33615 263
69.35627 297
69.37638 298
69.39649 317
69.41661 307
69.43672 270
69.45683 251
69.47695 288
69.49706 289
69.51718 277
69.53729 302
69.5574 259
69.57752 284
69.59763 274
69.61774 290
69.63786 281
69.65797 303
69.67809 306
69.6982 294
69.71831 286
69.73843 273
69.75854 277
69.77865 280
69.79877 288
69.81888 286
69.839 298
69.85911 296
69.87922 284
69.89934 269
69.91945 282
69.93956 278
69.95968 275
69.97979 289
69.9999 271
70.02002 251
70.04013 274
70.06025 280
70.08036 271
70.10047 293
70.12059 285
70.1407 281
70.16081 286
70.18093 308
70.20104 302
70.22116 280
70.24127 299
70.26138 277
70.2815 302
70.30161 274
70.32172 298
70.34184 308
70.36195 277
70.38207 286
70.40218 254
70.42229 269
70.44241 292
70.46252 265
70.48263 299
70.50275 264
70.52286 300
70.54297 257
70.56309 286
70.5832 283
70.60332 297
70.62343 258
70.64354 297
70.66366 291
70.68377 259
70.70388 280
70.724 281
70.74411 283
70.76423 284
70.78434 253
70.80445 276
70.82457 271
70.84468 272
70.86479 269
70.88491 264
70.90502 255
70.92513 279
70.94525 271
70.96536 262
70.98548 244
71.00559 279
71.0257 287
71.04582 288
71.06593 286
71.08604 267
71.10616 266
71.12627 265
71.14639 282
71.1665 272
71.18661 273
71.20673 273
71.22684 261
71.24695 263
71.26707 281
71.28718 272
71.3073 253
71.32741 296
71.34752 272
71.36764 312
71.38775 280
71.40786 295
71.42798 256
71.44809 279
71.4682 291
71.48832 286
71.50843 280
71.52855 270
71.54866 288
71.56877 273
71.58889 286
71.609 272
71.62911 259
71.64923 266
71.66934 264
71.68946 303
71.70957 277
71.72968 283
71.7498 277
71.76991 273
71.79002 243
71.81014 251
71.83025 287
71.85037 303
71.87048 298
71.89059 275
71.91071 264
71.93082 265
71.95093 279
71.97105 267
71.99116 290
72.01127 290
72.03139 306
72.0515 271
72.07162 287
72.09173 268
72.11184 280
72.13196 284
72.15207 281
72.17218 288
72.1923 307
72.21241 285
72.23253 301
72.25264 276
72.27275 257
72.29287 291
72.31298 301
72.33309 287
72.35321 295
72.37332 303
72.39344 305
72.41355 247
72.43366 290
72.45378 311
72.47389 293
72.494 296
72.51412 289
72.53423 245
72.55434 290
72.57446 273
72.59457 269
72.61469 283
72.6348 294
72.65491 297
72.67503 249
72.69514 294
72.71525 298
72.73537 283
72.75548 291
72.7756 280
72.79571 280
72.81582 307
72.83594 259
72.85605 297
72.87616 303
72.89628 300
72.91639 297
72.9365 291
72.95662 313
72.97673 296
72.99685 318
73.01696 311
73.03707 321
73.05719 299
73.0773 282
73.09741 259
73.11753 296
73.13764 319
73.15776 318
73.17787 331
73.19798 317
73.2181 375
73.23821 366
73.25832 358
73.27844 351
73.29855 375
73.31867 391
73.33878 420
73.35889 449
73.37901 438
73.39912 453
73.41923 424
73.43935 421
73.45946 369
73.47957 365
73.49969 372
73.5198 357
73.53992 352
73.56003 385
73.58014 340
73.60026 380
73.62037 366
73.64048 326
73.6606 344
73.68071 333
73.70083 291
73.72094 290
73.74105 323
73.76117 288
73.78128 299
73.80139 288
73.82151 296
73.84162 268
73.86174 288
73.88185 281
73.90196 275
73.92208 283
73.94219 258
73.9623 305
73.98242 286
74.00253 276
74.02264 268
74.04276 295
74.06287 298
74.08299 273
74.1031 286
74.12321 272
74.14333 279
74.16344 299
74.18355 292
74.20367 271
74.22378 261
74.2439 297
74.26401 282
74.28412 284
74.30424 259
74.32435 279
74.34446 282
74.36458 283
74.38469 286
74.40481 277
74.42492 313
74.44503 256
74.46515 303
74.48526 305
74.50537 268
74.52549 294
74.5456 278
74.56571 302
74.58583 299
74.60594 296
74.62606 261
74.64617 282
74.66628 284
74.6864 273
74.70651 294
74.72662 292
74.74674 291
74.76685 270
74.78697 277
74.80708 285
74.82719 277
74.84731 259
74.86742 263
74.88753 279
74.90765 292
74.92776 316
74.94787 278
74.96799 285
74.9881 292
75.00822 293
