3.00117 21561
3.02128 20882
3.0414 20164
3.06151 20054
3.08162 19138
3.10174 18714
3.12185 18179
3.14197 17683
3.16208 17368
3.18219 16693
3.20231 16439
3.22242 15641
3.24253 14991
3.26265 14962
3.28276 14236
3.30288 13911
3.32299 13380
3.3431 13140
3.36322 12752
3.38333 12156
3.40344 11918
3.42356 11601
3.44367 11116
3.46379 10881
3.4839 10164
3.50401 10126
3.52413 9578
3.54424 9222
3.56435 9141
3.58447 8581
3.60458 8508
3.62469 8093
3.64481 7701
3.66492 7567
3.68504 7019
3.70515 6942
3.72526 6567
3.74538 6432
3.76549 6238
3.7856 5855
3.80572 5650
3.82583 5531
3.84595 5216
3.86606 5049
3.88617 4595
3.90629 4518
3.9264 4416
3.94651 4242
3.96663 4145
3.98674 3801
4.00686 3768
4.02697 3494
4.04708 3449
4.0672 3469
4.08731 2887
4.10742 2881
4.12754 2741
4.14765 2658
4.16776 2574
4.18788 2254
4.20799 2434
4.22811 2367
4.24822 2124
4.26833 2200
4.28845 1970
4.30856 1837
4.32867 1880
4.34879 1821
4.3689 1790
4.38902 1612
4.40913 1606
4.42924 1670
4.44936 1524
4.46947 1598
4.48958 1431
4.5097 1520
4.52981 1447
4.54992 1370
4.57004 1425
4.59015 1292
4.61027 1193
4.63038 1296
4.65049 1214
4.67061 1196
4.69072 1043
4.71083 1170
4.73095 1084
4.75106 1016
4.77118 1065
4.79129 961
4.8114 948
4.83152 1027
4.85163 943
4.87174 933
4.89186 924
4.91197 898
4.93209 854
4.9522 869
4.97231 812
4.99243 851
5.01254 825
5.03265 793
5.05277 790
5.07288 759
5.09299 741
5.11311 668
5.13322 669
5.15334 640
5.17345 656
5.19356 637
5.21368 585
5.23379 628
5.2539 585
5.27402 568
5.29413 538
5.31425 509
5.33436 561
5.35447 534
5.37459 575
5.3947 532
5.41481 504
5.43493 548
5.45504 525
5.47516 500
5.49527 461
5.51538 470
5.5355 488
5.55561 423
5.57572 433
5.59584 427
5.61595 378
5.63606 390
5.65618 387
5.67629 390
5.69641 387
5.71652 365
5.73663 377
5.75675 377
5.77686 365
5.79697 323
5.81709 392
5.8372 378
5.85732 371
5.87743 335
5.89754 315
5.91766 358
5.93777 319
5.95788 298
5.978 303
5.99811 293
6.01823 329
6.03834 331
6.05845 337
6.07857 355
6.09868 280
6.11879 318
6.13891 328
6.15902 347
6.17913 371
6.19925 314
6.21936 277
6.23948 266
6.25959 310
6.2797 295
6.29982 290
6.31993 272
6.34004 312
6.36016 273
6.38027 312
6.40039 292
6.4205 319
6.44061 255
6.46073 259
6.48084 265
6.50095 260
6.52107 251
6.54118 281
6.56129 289
6.58141 329
6.60152 289
6.62164 258
6.64175 292
6.66186 242
6.68198 272
6.70209 278
6.7222 244
6.74232 275
6.76243 237
6.78255 263
6.80266 279
6.82277 245
6.84289 243
6.863 274
6.88311 271
6.90323 239
6.92334 303
6.94346 253
6.96357 243
6.98368 265
7.0038 285
7.02391 261
7.04402 275
7.06414 274
7.08425 240
7.10436 272
7.12448 289
7.14459 233
7.16471 261
7.18482 285
7.20493 249
7.22505 248
7.24516 255
7.26527 256
7.28539 273
7.3055 266
7.32562 246
7.34573 271
7.36584 279
7.38596 238
7.40607 285
7.42618 293
7.4463 278
7.46641 254
7.48653 246
7.50664 251
7.52675 260
7.54687 238
7.56698 279
7.58709 245
7.60721 293
7.62732 271
7.64743 291
7.66755 272
7.68766 284
7.70778 262
7.72789 280
7.748 261
7.76812 261
7.78823 269
7.80834 286
7.82846 240
7.84857 283
7.86869 295
7.8888 230
7.90891 276
7.92903 279
7.94914 281
7.96925 284
7.98937 283
8.00948 262
8.0296 263
8.04971 314
8.06982 272
8.08994 281
8.11005 282
8.13016 289
8.15028 278
8.17039 284
8.1905 284
8.21062 312
8.23073 267
8.25085 277
8.27096 286
8.29107 324
8.31119 255
8.3313 290
8.35141 283
8.37153 281
8.39164 259
8.41176 282
8.43187 323
8.45198 297
8.4721 305
8.49221 306
8.51232 324
8.53244 306
8.55255 313
8.57266 305
8.59278 314
8.61289 345
8.63301 293
8.65312 317
8.67323 321
8.69335 321
8.71346 314
8.73357 323
8.75369 339
8.7738 332
8.79392 373
8.81403 399
8.83414 369
8.85426 346
8.87437 422
8.89448 394
8.9146 379
8.93471 346
8.95483 347
8.97494 363
8.99505 282
9.01517 294
9.03528 288
9.05539 272
9.07551 263
9.09562 288
9.11573 279
9.13585 288
9.15596 307
9.17608 271
9.19619 263
9.2163 278
9.23642 302
9.25653 274
9.27664 276
9.29676 254
9.31687 279
9.33699 269
9.3571 288
9.37721 228
9.39733 271
9.41744 256
9.43755 309
9.45767 258
9.47778 271
9.4979 221
9.51801 284
9.53812 276
9.55824 247
9.57835 258
9.59846 258
9.61858 272
9.63869 245
9.6588 241
9.67892 245
9.69903 259
9.71915 249
9.73926 204
9.75937 236
9.77949 258
9.7996 256
9.81971 258
9.83983 276
9.85994 269
9.88006 248
9.90017 244
9.92028 275
9.9404 252
9.96051 250
9.98062 242
10.00074 255
10.02085 243
10.04097 217
10.06108 264
10.08119 266
10.10131 259
10.12142 227
10.14153 265
10.16165 217
10.18176 246
10.20187 296
10.22199 241
10.2421 225
10.26222 250
10.28233 254
10.30244 285
10.32256 272
10.34267 225
10.36278 246
10.3829 241
10.40301 269
10.42313 315
10.44324 239
10.46335 241
10.48347 257
10.50358 285
10.52369 273
10.54381 245
10.56392 284
10.58403 266
10.60415 256
10.62426 252
10.64438 253
10.66449 270
10.6846 235
10.70472 256
10.72483 241
10.74494 270
10.76506 255
10.78517 260
10.80529 235
10.8254 298
10.84551 236
10.86563 276
10.88574 251
10.90585 241
10.92597 216
10.94608 262
10.9662 281
10.98631 251
11.00642 245
11.02654 266
11.04665 267
11.06676 232
11.08688 229
11.10699 251
11.1271 241
11.14722 249
11.16733 289
11.18745 237
11.20756 234
11.22767 265
11.24779 245
11.2679 253
11.28801 258
11.30813 259
11.32824 249
11.34836 264
11.36847 230
11.38858 266
11.4087 280
11.42881 237
11.44892 289
11.46904 253
11.48915 283
11.50927 250
11.52938 244
11.54949 250
11.56961 273
11.58972 239
11.60983 285
11.62995 279
11.65006 294
11.67017 272
11.69029 245
11.7104 290
11.73052 273
11.75063 259
11.77074 244
11.79086 273
11.81097 258
11.83108 263
11.8512 248
11.87131 266
11.89143 262
11.91154 270
11.93165 253
11.95177 279
11.97188 256
11.99199 272
12.01211 262
12.03222 272
12.05234 259
12.07245 276
12.09256 280
12.11268 269
12.13279 289
12.1529 267
12.17302 290
12.19313 310
12.21324 292
12.23336 281
12.25347 280
12.27359 274
12.2937 289
12.31381 277
12.33393 288
12.35404 300
12.37415 270
12.39427 270
12.41438 270
12.4345 289
12.45461 253
12.47472 258
12.49484 236
12.51495 250
12.53506 229
12.55518 245
12.57529 269
12.5954 259
12.61552 282
12.63563 256
12.65575 246
12.67586 249
12.69597 239
12.71609 246
12.7362 245
12.75631 256
12.77643 238
12.79654 241
12.81666 249
12.83677 222
12.85688 220
12.877 200
12.89711 219
12.91722 229
12.93734 221
12.95745 233
12.97757 232
12.99768 241
13.01779 234
13.03791 234
13.05802 200
13.07813 225
13.09825 226
13.11836 223
13.13847 243
13.15859 227
13.1787 292
13.19882 248
13.21893 223
13.23904 237
13.25916 209
13.27927 214
13.29938 224
13.3195 261
13.33961 242
13.35973 223
13.37984 226
13.39995 232
13.42007 222
13.44018 204
13.46029 202
13.48041 222
13.50052 204
13.52064 230
13.54075 230
13.56086 206
13.58098 220
13.60109 209
13.6212 208
13.64132 196
13.66143 230
13.68154 187
13.70166 245
13.72177 233
13.74189 206
13.762 228
13.78211 210
13.80223 230
13.82234 225
13.84245 222
13.86257 205
13.88268 215
13.9028 240
13.92291 233
13.94302 247
13.96314 209
13.98325 212
14.00336 221
14.02348 224
14.04359 216
14.06371 235
14.08382 217
14.10393 197
14.12405 230
14.14416 200
14.16427 209
14.18439 192
14.2045 217
14.22461 202
14.24473 198
14.26484 198
14.28496 242
14.30507 243
14.32518 235
14.3453 230
14.36541 206
14.38552 221
14.40564 204
14.42575 203
14.44587 226
14.46598 192
14.48609 203
14.50621 192
14.52632 222
14.54643 191
14.56655 201
14.58666 208
14.60677 194
14.62689 209
14.647 231
14.66712 178
14.68723 252
14.70734 206
14.72746 225
14.74757 215
14.76768 226
14.7878 178
14.80791 179
14.82803 208
14.84814 215
14.86825 201
14.88837 216
14.90848 229
14.92859 196
14.94871 192
14.96882 219
14.98894 221
15.00905 180
15.02916 193
15.04928 201
15.06939 215
15.0895 200
15.10962 219
15.12973 200
15.14984 217
15.16996 221
15.19007 230
15.21019 211
15.2303 200
15.25041 214
15.27053 210
15.29064 200
15.31075 194
15.33087 192
15.35098 229
15.3711 193
15.39121 201
15.41132 195
15.43144 192
15.45155 203
15.47166 237
15.49178 241
15.51189 219
15.53201 225
15.55212 205
15.57223 242
15.59235 193
15.61246 210
15.63257 184
15.65269 201
15.6728 195
15.69291 221
15.71303 186
15.73314 207
15.75326 207
15.77337 226
15.79348 205
15.8136 215
15.83371 195
15.85382 204
15.87394 204
15.89405 198
15.91417 194
15.93428 207
15.95439 196
15.97451 195
15.99462 175
16.01473 199
16.03485 205
16.05496 183
16.07508 196
16.09519 197
16.1153 229
16.13542 201
16.15553 211
16.17564 226
16.19576 217
16.21587 186
16.23598 203
16.2561 228
16.27621 211
16.29633 181
16.31644 188
16.33655 186
16.35667 174
16.37678 206
16.39689 215
16.41701 179
16.43712 177
16.45724 189
16.47735 193
16.49746 210
16.51758 206
16.53769 194
16.5578 171
16.57792 195
16.59803 215
16.61814 192
16.63826 191
16.65837 202
16.67849 187
16.6986 219
16.71871 192
16.73883 208
16.75894 185
16.77905 190
16.79917 199
16.81928 218
16.8394 199
16.85951 193
16.87962 181
16.89974 193
16.91985 186
16.93996 197
16.96008 191
16.98019 166
17.00031 200
17.02042 209
17.04053 168
17.06065 193
17.08076 192
17.10087 221
17.12099 189
17.1411 176
17.16121 201
17.18133 212
17.20144 217
17.22156 197
17.24167 188
17.26178 217
17.2819 202
17.30201 192
17.32212 190
17.34224 196
17.36235 196
17.38247 195
17.40258 201
17.42269 201
17.44281 220
17.46292 181
17.48303 198
17.50315 218
17.52326 235
17.54338 228
17.56349 228
17.5836 206
17.60372 244
17.62383 206
17.64394 193
17.66406 236
17.68417 248
17.70428 255
17.7244 250
17.74451 251
17.76463 254
17.78474 256
17.80485 248
17.82497 237
17.84508 218
17.86519 248
17.88531 209
17.90542 202
17.92554 206
17.94565 223
17.96576 210
17.98588 210
18.00599 209
18.0261 199
18.04622 239
18.06633 219
18.08645 212
18.10656 213
18.12667 252
18.14679 202
18.1669 217
18.18701 206
18.20713 220
18.22724 218
18.24735 191
18.26747 226
18.28758 217
18.3077 186
18.32781 209
18.34792 178
18.36804 183
18.38815 208
18.40826 213
18.42838 199
18.44849 199
18.46861 190
18.48872 246
18.50883 201
18.52895 212
18.54906 207
18.56917 198
18.58929 211
18.6094 215
18.62951 186
18.64963 204
18.66974 205
18.68986 210
18.70997 208
18.73008 212
18.7502 198
18.77031 197
18.79042 224
18.81054 185
18.83065 196
18.85077 204
18.87088 196
18.89099 202
18.91111 206
18.93122 187
18.95133 195
18.97145 182
18.99156 205
19.01168 179
19.03179 187
19.0519 197
19.07202 192
19.09213 208
19.11224 218
19.13236 213
19.15247 202
19.17258 233
19.1927 216
19.21281 200
19.23293 206
19.25304 246
19.27315 200
19.29327 230
19.31338 190
19.33349 222
19.35361 197
19.37372 256
19.39384 204
19.41395 234
19.43406 233
19.45418 237
19.47429 274
19.4944 257
19.51452 267
19.53463 326
19.55475 303
19.57486 380
19.59497 398
19.61509 398
19.6352 451
19.65531 468
19.67543 580
19.69554 570
19.71565 578
19.73577 567
19.75588 619
19.776 605
19.79611 559
19.81622 587
19.83634 604
19.85645 544
19.87656 523
19.89668 509
19.91679 478
19.93691 476
19.95702 416
19.97713 448
19.99725 424
20.01736 394
20.03747 390
20.05759 376
20.0777 417
20.09782 383
20.11793 354
20.13804 406
20.15816 390
20.17827 402
20.19838 390
20.2185 414
20.23861 426
20.25872 402
20.27884 409
20.29895 380
20.31907 424
20.33918 379
20.35929 387
20.37941 392
20.39952 384
20.41963 442
20.43975 440
20.45986 437
20.47998 476
20.50009 477
20.5202 521
20.54032 511
20.56043 552
20.58054 619
20.60066 667
20.62077 722
20.64088 912
20.661 1041
20.68111 1312
20.70123 1654
20.72134 2256
20.74145 2908
20.76157 3583
20.78168 4307
20.80179 5068
20.82191 5453
20.84202 5529
20.86214 5246
20.88225 4472
20.90236 3447
20.92248 2424
20.94259 1653
20.9627 1122
20.98282 787
21.00293 603
21.02305 548
21.04316 486
21.06327 491
21.08339 480
21.1035 434
21.12361 401
21.14373 413
21.16384 410
21.18395 362
21.20407 389
21.22418 367
21.2443 368
21.26441 368
21.28452 362
21.30464 355
21.32475 303
21.34486 375
21.36498 334
21.38509 315
21.40521 370
21.42532 338
21.44543 312
21.46555 349
21.48566 313
21.50577 323
21.52589 315
21.546 317
21.56612 333
21.58623 311
21.60634 284
21.62646 325
21.64657 322
21.66668 287
21.6868 314
21.70691 315
21.72702 291
21.74714 291
21.76725 299
21.78737 296
21.80748 313
21.82759 294
21.84771 312
21.86782 319
21.88793 269
21.90805 307
21.92816 334
21.94828 318
21.96839 361
21.9885 358
22.00862 396
22.02873 365
22.04884 330
22.06896 279
22.08907 313
22.10919 301
22.1293 279
22.14941 307
22.16953 285
22.18964 277
22.20975 299
22.22987 318
22.24998 290
22.27009 275
22.29021 274
22.31032 294
22.33044 303
22.35055 299
22.37066 275
22.39078 284
22.41089 265
22.431 243
22.45112 266
22.47123 255
22.49135 275
22.51146 239
22.53157 240
22.55169 272
22.5718 277
22.59191 277
22.61203 282
22.63214 284
22.65225 275
22.67237 292
22.69248 285
22.7126 281
22.73271 301
22.75282 297
22.77294 288
22.79305 336
22.81316 271
22.83328 351
22.85339 347
22.87351 309
22.89362 319
22.91373 299
22.93385 348
22.95396 316
22.97407 257
22.99419 301
23.0143 277
23.03442 290
23.05453 276
23.07464 254
23.09476 276
23.11487 294
23.13498 299
23.1551 256
23.17521 271
23.19532 303
23.21544 264
23.23555 267
23.25567 248
23.27578 268
23.29589 274
23.31601 267
23.33612 268
23.35623 277
23.37635 261
23.39646 308
23.41658 254
23.43669 294
23.4568 289
23.47692 314
23.49703 306
23.51714 281
23.53726 290
23.55737 295
23.57749 303
23.5976 278
23.61771 316
23.63783 315
23.65794 298
23.67805 297
23.69817 305
23.71828 314
23.73839 304
23.75851 305
23.77862 289
23.79874 328
23.81885 308
23.83896 321
23.85908 310
23.87919 318
23.8993 336
23.91942 317
23.93953 362
23.95965 335
23.97976 362
23.99987 340
24.01999 334
24.0401 340
24.06021 327
24.08033 290
24.10044 314
24.12056 324
24.14067 343
24.16078 341
24.1809 352
24.20101 378
24.22112 389
24.24124 358
24.26135 348
24.28146 376
24.30158 351
24.32169 309
24.34181 360
24.36192 328
24.38203 347
24.40215 344
24.42226 327
24.44237 301
24.46249 294
24.4826 303
24.50272 289
24.52283 295
24.54294 286
24.56306 270
24.58317 280
24.60328 305
24.6234 333
24.64351 284
24.66362 287
24.68374 303
24.70385 288
24.72397 306
24.74408 308
24.76419 289
24.78431 297
24.80442 283
24.82453 319
24.84465 296
24.86476 264
24.88488 287
24.90499 288
24.9251 313
24.94522 322
24.96533 318
24.98544 294
25.00556 309
25.02567 305
25.04579 300
25.0659 324
25.08601 321
25.10613 319
25.12624 335
25.14635 318
25.16647 351
25.18658 384
25.20669 339
25.22681 356
25.24692 360
25.26704 308
25.28715 368
25.30726 368
25.32738 427
25.34749 388
25.3676 387
25.38772 368
25.40783 353
25.42795 371
25.44806 371
25.46817 385
25.48829 379
25.5084 371
25.52851 377
25.54863 392
25.56874 367
25.58886 392
25.60897 365
25.62908 404
25.6492 397
25.66931 414
25.68942 423
25.70954 402
25.72965 418
25.74976 445
25.76988 456
25.78999 474
25.81011 489
25.83022 453
25.85033 453
25.87045 480
25.89056 438
25.91067 528
25.93079 488
25.9509 503
25.97102 530
25.99113 548
26.01124 565
26.03136 550
26.05147 546
26.07158 637
26.0917 643
26.11181 659
26.13193 758
26.15204 740
26.17215 773
26.19227 837
26.21238 840
26.23249 987
26.25261 1085
26.27272 1105
26.29283 1275
26.31295 1413
26.33306 1719
26.35318 1965
26.37329 2403
26.3934 3015
26.41352 3702
26.43363 4663
26.45374 6103
26.47386 8076
26.49397 10331
26.51409 13566
26.5342 16674
26.55431 20135
26.57443 23298
26.59454 25437
26.61465 25605
26.63477 24392
26.65488 21128
26.67499 16502
26.69511 12529
26.71522 9207
26.73534 6138
26.75545 3890
26.77556 2552
26.79568 1948
26.81579 1605
26.8359 1458
26.85602 1310
26.87613 1173
26.89625 1122
26.91636 926
26.93647 865
26.95659 800
26.9767 719
26.99681 706
27.01693 692
27.03704 610
27.05716 548
27.07727 584
27.09738 538
27.1175 553
27.13761 495
27.15772 491
27.17784 477
27.19795 473
27.21806 464
27.23818 448
27.25829 421
27.27841 426
27.29852 418
27.31863 423
27.33875 439
27.35886 408
27.37897 387
27.39909 423
27.4192 421
27.43932 443
27.45943 389
27.47954 407
27.49966 429
27.51977 381
27.53988 394
27.56 410
27.58011 411
27.60023 392
27.62034 411
27.64045 411
27.66057 403
27.68068 407
27.70079 497
27.72091 425
27.74102 455
27.76113 450
27.78125 429
27.80136 433
27.82148 474
27.84159 494
27.8617 483
27.88182 474
27.90193 474
27.92204 487
27.94216 426
27.96227 454
27.98239 423
28.0025 379
28.02261 392
28.04273 357
28.06284 373
28.08295 376
28.10307 346
28.12318 346
28.1433 366
28.16341 347
28.18352 363
28.20364 329
28.22375 367
28.24386 358
28.26398 303
28.28409 308
28.3042 312
28.32432 349
28.34443 344
28.36455 329
28.38466 269
28.40477 312
28.42489 270
28.445 291
28.46511 302
28.48523 319
28.50534 274
28.52546 284
28.54557 317
28.56568 294
28.5858 319
28.60591 255
28.62602 295
28.64614 276
28.66625 308
28.68636 330
28.70648 319
28.72659 282
28.74671 299
28.76682 292
28.78693 303
28.80705 290
28.82716 292
28.84727 312
28.86739 281
28.8875 286
28.90762 294
28.92773 310
28.94784 304
28.96796 309
28.98807 336
29.00818 315
29.0283 294
29.04841 307
29.06853 328
29.08864 321
29.10875 335
29.12887 299
29.14898 300
29.16909 299
29.18921 283
29.20932 277
29.22943 268
29.24955 266
29.26966 264
29.28978 295
29.30989 267
29.33 262
29.35012 282
29.37023 266
29.39034 276
29.41046 292
29.43057 269
29.45069 255
29.4708 251
29.49091 283
29.51103 282
29.53114 289
29.55125 270
29.57137 260
29.59148 273
29.6116 280
29.63171 272
29.65182 287
29.67194 291
29.69205 288
29.71216 296
29.73228 287
29.75239 275
29.7725 310
29.79262 305
29.81273 315
29.83285 302
29.85296 321
29.87307 322
29.89319 290
29.9133 296
29.93341 296
29.95353 317
29.97364 307
29.99376 301
30.01387 303
30.03398 274
30.0541 284
30.07421 283
30.09432 272
30.11444 266
30.13455 298
30.15467 300
30.17478 293
30.19489 271
30.21501 249
30.23512 264
30.25523 277
30.27535 251
30.29546 272
30.31557 256
30.33569 272
30.3558 257
30.37592 264
30.39603 270
30.41614 274
30.43626 280
30.45637 295
30.47648 288
30.4966 264
30.51671 253
30.53683 234
30.55694 276
30.57705 272
30.59717 275
30.61728 239
30.63739 263
30.65751 266
30.67762 262
30.69773 266
30.71785 261
30.73796 268
30.75808 284
30.77819 293
30.7983 296
30.81842 268
30.83853 263
30.85864 276
30.87876 249
30.89887 286
30.91899 257
30.9391 221
30.95921 279
30.97933 277
30.99944 252
31.01955 252
31.03967 257
31.05978 246
31.0799 265
31.10001 285
31.12012 281
31.14024 266
31.16035 269
31.18046 262
31.20058 283
31.22069 258
31.2408 268
31.26092 265
31.28103 283
31.30115 290
31.32126 240
31.34137 240
31.36149 251
31.3816 242
31.40171 246
31.42183 263
31.44194 252
31.46206 234
31.48217 247
31.50228 258
31.5224 228
31.54251 253
31.56262 243
31.58274 226
31.60285 225
31.62297 213
31.64308 232
31.66319 215
31.68331 246
31.70342 275
31.72353 250
31.74365 272
31.76376 222
31.78387 228
31.80399 224
31.8241 218
31.84422 251
31.86433 236
31.88444 258
31.90456 246
31.92467 243
31.94478 223
31.9649 278
31.98501 249
32.00513 266
32.02524 236
32.04535 239
32.06547 260
32.08558 252
32.10569 262
32.12581 248
32.14592 198
32.16604 227
32.18615 222
32.20626 227
32.22638 213
32.24649 207
32.2666 210
32.28672 214
32.30683 220
32.32694 228
32.34706 220
32.36717 223
32.38729 203
32.4074 216
32.42751 190
32.44763 215
32.46774 220
32.48785 201
32.50797 234
32.52808 216
32.5482 223
32.56831 220
32.58842 197
32.60854 211
32.62865 156
32.64876 195
32.66888 220
32.68899 216
32.7091 217
32.72922 219
32.74933 211
32.76945 239
32.78956 196
32.80967 229
32.82979 239
32.8499 198
32.87001 216
32.89013 234
32.91024 218
32.93036 221
32.95047 254
32.97058 224
32.9907 239
33.01081 237
33.03092 219
33.05104 221
33.07115 204
33.09127 219
33.11138 238
33.13149 239
33.15161 228
33.17172 218
33.19183 234
33.21195 211
33.23206 226
33.25217 226
33.27229 230
33.2924 228
33.31252 217
33.33263 224
33.35274 205
33.37286 214
33.39297 243
33.41308 210
33.4332 222
33.45331 193
33.47343 256
33.49354 228
33.51365 241
33.53377 204
33.55388 196
33.57399 209
33.59411 234
33.61422 204
33.63434 244
33.65445 226
33.67456 203
33.69468 237
33.71479 186
33.7349 214
33.75502 192
33.77513 222
33.79524 201
33.81536 184
33.83547 201
33.85559 189
33.8757 190
33.89581 202
33.91593 205
33.93604 211
33.95615 187
33.97627 194
33.99638 205
34.0165 215
34.03661 221
34.05672 197
34.07684 226
34.09695 185
34.11706 243
34.13718 215
34.15729 213
34.17741 222
34.19752 234
34.21763 241
34.23775 219
34.25786 246
34.27797 242
34.29809 271
34.3182 292
34.33831 290
34.35843 290
34.37854 320
34.39866 317
34.41877 334
34.43888 354
34.459 383
34.47911 379
34.49922 430
34.51934 385
34.53945 381
34.55957 390
34.57968 410
34.59979 375
34.61991 386
34.64002 389
34.66013 347
34.68025 449
34.70036 459
34.72047 482
34.74059 458
34.7607 489
34.78082 486
34.80093 513
34.82104 515
34.84116 485
34.86127 593
34.88138 483
34.9015 503
34.92161 506
34.94173 478
34.96184 443
34.98195 436
35.00207 443
35.02218 385
35.04229 404
35.06241 355
35.08252 334
35.10264 331
35.12275 324
35.14286 293
35.16298 307
35.18309 329
35.2032 282
35.22332 257
35.24343 285
35.26354 290
35.28366 292
35.30377 291
35.32389 272
35.344 292
35.36411 295
35.38423 268
35.40434 285
35.42445 291
35.44457 285
35.46468 303
35.4848 268
35.50491 277
35.52502 268
35.54514 298
35.56525 297
35.58536 295
35.60548 269
35.62559 278
35.64571 276
35.66582 281
35.68593 277
35.70605 254
35.72616 264
35.74627 274
35.76639 286
35.7865 292
35.80661 289
35.82673 292
35.84684 287
35.86696 278
35.88707 294
35.90718 309
35.9273 276
35.94741 296
35.96752 283
35.98764 266
36.00775 264
36.02787 305
36.04798 289
36.06809 304
36.08821 294
36.10832 302
36.12843 322
36.14855 357
36.16866 359
36.18878 322
36.20889 367
36.229 402
36.24912 440
36.26923 473
36.28934 481
36.30946 528
36.32957 677
36.34968 751
36.3698 861
36.38991 992
36.41003 1245
36.43014 1324
36.45025 1529
36.47037 1734
36.49048 1730
36.51059 1811
36.53071 1733
36.55082 1596
36.57094 1378
36.59105 1152
36.61116 948
36.63128 828
36.65139 692
36.6715 501
36.69162 472
36.71173 376
36.73184 313
36.75196 352
36.77207 340
36.79219 274
36.8123 314
36.83241 316
36.85253 242
36.87264 270
36.89275 283
36.91287 230
36.93298 251
36.9531 265
36.97321 241
36.99332 255
37.01344 259
37.03355 254
37.05366 240
37.07378 267
37.09389 244
37.11401 272
37.13412 262
37.15423 250
37.17435 263
37.19446 242
37.21457 254
37.23469 254
37.2548 272
37.27491 268
37.29503 276
37.31514 292
37.33526 266
37.35537 313
37.37548 308
37.3956 298
37.41571 337
37.43582 306
37.45594 284
37.47605 267
37.49617 280
37.51628 284
37.53639 250
37.55651 308
37.57662 254
37.59673 292
37.61685 306
37.63696 313
37.65708 286
37.67719 304
37.6973 283
37.71742 289
37.73753 277
37.75764 291
37.77776 265
37.79787 314
37.81798 282
37.8381 256
37.85821 255
37.87833 243
37.89844 265
37.91855 276
37.93867 253
37.95878 222
37.97889 260
37.99901 257
38.01912 256
38.03924 243
38.05935 249
38.07946 246
38.09958 237
38.11969 259
38.1398 213
38.15992 251
38.18003 228
38.20015 234
38.22026 233
38.24037 246
38.26049 231
38.2806 229
38.30071 238
38.32083 237
38.34094 236
38.36105 272
38.38117 257
38.40128 244
38.4214 250
38.44151 226
38.46162 265
38.48174 236
38.50185 224
38.52196 252
38.54208 267
38.56219 260
38.58231 246
38.60242 266
38.62253 233
38.64265 231
38.66276 213
38.68287 242
38.70299 238
38.7231 226
38.74321 238
38.76333 248
38.78344 224
38.80356 253
38.82367 212
38.84378 248
38.8639 228
38.88401 219
38.90412 231
38.92424 234
38.94435 236
38.96447 240
38.98458 225
39.00469 254
39.02481 250
39.04492 250
39.06503 295
39.08515 302
39.10526 300
39.12538 305
39.14549 337
39.1656 342
39.18572 412
39.20583 460
39.22594 469
39.24606 612
39.26617 651
39.28628 792
39.3064 880
39.32651 1041
39.34663 1248
39.36674 1424
39.38685 1599
39.40697 1619
39.42708 1726
39.44719 1613
39.46731 1574
39.48742 1323
39.50754 1088
39.52765 931
39.54776 849
39.56788 706
39.58799 590
39.6081 480
39.62822 381
39.64833 373
39.66845 298
39.68856 296
39.70867 321
39.72879 272
39.7489 307
39.76901 268
39.78913 286
39.80924 265
39.82935 292
39.84947 312
39.86958 272
39.8897 281
39.90981 276
39.92992 332
39.95004 311
39.97015 313
39.99026 313
40.01038 342
40.03049 399
40.05061 394
40.07072 441
40.09083 450
40.11095 568
40.13106 595
40.15117 660
40.17129 714
40.1914 849
40.21152 940
40.23163 903
40.25174 894
40.27186 881
40.29197 854
40.31208 691
40.3322 616
40.35231 613
40.37242 472
40.39254 477
40.41265 387
40.43277 304
40.45288 289
40.47299 277
40.49311 261
40.51322 264
40.53333 265
40.55345 258
40.57356 276
40.59368 251
40.61379 238
40.6339 244
40.65402 242
40.67413 261
40.69424 244
40.71436 233
40.73447 247
40.75458 242
40.7747 243
40.79481 249
40.81493 250
40.83504 247
40.85515 255
40.87527 263
40.89538 235
40.91549 235
40.93561 235
40.95572 230
40.97584 253
40.99595 244
41.01606 232
41.03618 237
41.05629 220
41.0764 227
41.09652 229
41.11663 231
41.13675 235
41.15686 230
41.17697 214
41.19709 230
41.2172 243
41.23731 229
41.25743 234
41.27754 220
41.29765 258
41.31777 205
41.33788 243
41.358 233
41.37811 225
41.39822 235
41.41834 221
41.43845 231
41.45856 206
41.47868 200
41.49879 201
41.51891 227
41.53902 207
41.55913 217
41.57925 236
41.59936 218
41.61947 246
41.63959 195
41.6597 240
41.67982 223
41.69993 230
41.72004 239
41.74016 238
41.76027 223
41.78038 289
41.8005 246
41.82061 237
41.84072 223
41.86084 253
41.88095 250
41.90107 283
41.92118 286
41.94129 253
41.96141 291
41.98152 274
42.00163 276
42.02175 282
42.04186 282
42.06198 329
42.08209 314
42.1022 325
42.12232 347
42.14243 411
42.16254 377
42.18266 403
42.20277 460
42.22289 506
42.243 604
42.26311 664
42.28323 741
42.30334 875
42.32345 1003
42.34357 1074
42.36368 1172
42.38379 1314
42.40391 1243
42.42402 1204
42.44414 1143
42.46425 1020
42.48436 873
42.50448 783
42.52459 711
42.5447 602
42.56482 530
42.58493 427
42.60505 351
42.62516 280
42.64527 268
42.66539 274
42.6855 266
42.70561 222
42.72573 248
42.74584 212
42.76595 241
42.78607 238
42.80618 236
42.8263 218
42.84641 216
42.86652 219
42.88664 218
42.90675 211
42.92686 195
42.94698 212
42.96709 227
42.98721 212
43.00732 192
43.02743 200
43.04755 215
43.06766 197
43.08777 196
43.10789 181
43.128 186
43.14812 216
43.16823 208
43.18834 207
43.20846 178
43.22857 210
43.24868 211
43.2688 192
43.28891 194
43.30902 221
43.32914 191
43.34925 215
43.36937 212
43.38948 218
43.40959 209
43.42971 191
43.44982 199
43.46993 196
43.49005 203
43.51016 192
43.53028 201
43.55039 186
43.5705 216
43.59062 202
43.61073 194
43.63084 218
43.65096 212
43.67107 202
43.69119 186
43.7113 215
43.73141 190
43.75153 190
43.77164 182
43.79175 218
43.81187 198
43.83198 178
43.85209 203
43.87221 193
43.89232 211
43.91244 188
43.93255 215
43.95266 196
43.97278 186
43.99289 208
44.013 216
44.03312 213
44.05323 202
44.07335 231
44.09346 208
44.11357 205
44.13369 199
44.1538 187
44.17391 214
44.19403 199
44.21414 202
44.23426 187
44.25437 189
44.27448 182
44.2946 192
44.31471 204
44.33482 193
44.35494 194
44.37505 184
44.39516 202
44.41528 205
44.43539 196
44.45551 180
44.47562 192
44.49573 183
44.51585 202
44.53596 191
44.55607 215
44.57619 173
44.5963 212
44.61642 199
44.63653 187
44.65664 200
44.67676 183
44.69687 183
44.71698 198
44.7371 185
44.75721 189
44.77732 201
44.79744 184
44.81755 198
44.83767 219
44.85778 203
44.87789 200
44.89801 201
44.91812 216
44.93823 206
44.95835 190
44.97846 196
44.99858 190
45.01869 227
45.0388 226
45.05892 221
45.07903 210
45.09914 209
45.11926 221
45.13937 219
45.15949 221
45.1796 198
45.19971 211
45.21983 213
45.23994 220
45.26005 263
45.28017 259
45.30028 242
45.32039 238
45.34051 249
45.36062 281
45.38074 263
45.40085 289
45.42096 291
45.44108 278
45.46119 281
45.4813 301
45.50142 341
45.52153 361
45.54165 354
45.56176 395
45.58187 455
45.60199 514
45.6221 529
45.64221 613
45.66233 659
45.68244 740
45.70256 792
45.72267 835
45.74278 879
45.7629 794
45.78301 790
45.80312 747
45.82324 676
45.84335 581
45.86346 535
45.88358 491
45.90369 434
45.92381 371
45.94392 321
45.96403 290
45.98415 245
46.00426 260
46.02437 201
46.04449 222
46.0646 198
46.08472 221
46.10483 227
46.12494 202
46.14506 240
46.16517 198
46.18528 191
46.2054 232
46.22551 216
46.24563 182
46.26574 180
46.28585 185
46.30597 202
46.32608 185
46.34619 198
46.36631 190
46.38642 194
46.40653 199
46.42665 196
46.44676 188
46.46688 198
46.48699 195
46.5071 190
46.52722 170
46.54733 185
46.56744 217
46.58756 196
46.60767 198
46.62779 203
46.6479 176
46.66801 170
46.68813 184
46.70824 181
46.72835 194
46.74847 189
46.76858 173
46.78869 199
46.80881 171
46.82892 190
46.84904 182
46.86915 159
46.88926 141
46.90938 170
46.92949 181
46.9496 175
46.96972 156
46.98983 171
47.00995 180
47.03006 172
47.05017 188
47.07029 178
47.0904 167
47.11051 169
47.13063 147
47.15074 196
47.17086 181
47.19097 159
47.21108 185
47.2312 165
47.25131 146
47.27142 150
47.29154 182
47.31165 171
47.33176 176
47.35188 152
47.37199 175
47.39211 171
47.41222 164
47.43233 167
47.45245 184
47.47256 157
47.49267 161
47.51279 161
47.5329 168
47.55302 174
47.57313 192
47.59324 186
47.61336 190
47.63347 157
47.65358 165
47.6737 183
47.69381 165
47.71393 170
47.73404 188
47.75415 181
47.77427 214
47.79438 174
47.81449 201
47.83461 174
47.85472 185
47.87483 181
47.89495 188
47.91506 201
47.93518 164
47.95529 191
47.9754 181
47.99552 185
48.01563 190
48.03574 217
48.05586 198
48.07597 188
48.09609 178
48.1162 183
48.13631 184
48.15643 188
48.17654 193
48.19665 179
48.21677 197
48.23688 166
48.257 220
48.27711 204
48.29722 177
48.31734 188
48.33745 177
48.35756 189
48.37768 168
48.39779 170
48.4179 203
48.43802 197
48.45813 183
48.47825 185
48.49836 196
48.51847 208
48.53859 186
48.5587 191
48.57881 192
48.59893 206
48.61904 189
48.63916 204
48.65927 211
48.67938 205
48.6995 199
48.71961 175
48.73972 183
48.75984 175
48.77995 188
48.80006 188
48.82018 180
48.84029 212
48.86041 196
48.88052 206
48.90063 175
48.92075 171
48.94086 163
48.96097 177
48.98109 179
49.0012 188
49.02132 178
49.04143 189
49.06154 201
49.08166 182
49.10177 194
49.12188 180
49.142 209
49.16211 188
49.18223 186
49.20234 204
49.22245 200
49.24257 226
49.26268 173
49.28279 204
49.30291 204
49.32302 225
49.34313 193
49.36325 182
49.38336 222
49.40348 232
49.42359 205
49.4437 212
49.46382 223
49.48393 209
49.50404 213
49.52416 243
49.54427 229
49.56439 235
49.5845 244
49.60461 216
49.62473 263
49.64484 268
49.66495 296
49.68507 269
49.70518 336
49.7253 348
49.74541 349
49.76552 418
49.78564 432
49.80575 530
49.82586 553
49.84598 581
49.86609 714
49.8862 804
49.90632 923
49.92643 1062
49.94655 1157
49.96666 1445
49.98677 1644
50.00689 1877
50.027 2209
50.04711 2361
50.06723 2437
50.08734 2454
50.10746 2507
50.12757 2203
50.14768 1983
50.1678 1793
50.18791 1586
50.20802 1428
50.22814 1279
50.24825 1139
50.26837 998
50.28848 767
50.30859 577
50.32871 431
50.34882 400
50.36893 340
50.38905 284
50.40916 266
50.42927 311
50.44939 300
50.4695 291
50.48962 275
50.50973 305
50.52984 272
50.54996 299
50.57007 265
50.59018 270
50.6103 291
50.63041 240
50.65053 251
50.67064 233
50.69075 219
50.71087 229
50.73098 232
50.75109 218
50.77121 194
50.79132 177
50.81143 189
50.83155 221
50.85166 179
50.87178 183
50.89189 146
50.912 192
50.93212 196
50.95223 181
50.97234 187
50.99246 185
51.01257 173
51.03269 170
51.0528 192
51.07291 176
51.09303 202
51.11314 179
51.13325 170
51.15337 169
51.17348 184
51.1936 176
51.21371 176
51.23382 152
51.25394 162
51.27405 151
51.29416 174
51.31428 181
51.33439 149
51.3545 191
51.37462 176
51.39473 175
51.41485 164
51.43496 163
51.45507 172
51.47519 185
51.4953 170
51.51541 166
51.53553 153
51.55564 175
51.57576 172
51.59587 151
51.61598 155
51.6361 164
51.65621 151
51.67632 157
51.69644 181
51.71655 141
51.73667 148
51.75678 151
51.77689 167
51.79701 170
51.81712 169
51.83723 169
51.85735 159
51.87746 177
51.89757 171
51.91769 179
51.9378 169
51.95792 180
51.97803 171
51.99814 177
52.01826 169
52.03837 168
52.05848 178
52.0786 183
52.09871 164
52.11883 146
52.13894 195
52.15905 166
52.17917 167
52.19928 198
52.21939 147
52.23951 174
52.25962 166
52.27974 173
52.29985 162
52.31996 153
52.34008 195
52.36019 165
52.3803 152
52.40042 167
52.42053 158
52.44064 170
52.46076 169
52.48087 170
52.50099 187
52.5211 161
52.54121 173
52.56133 190
52.58144 165
52.60155 188
52.62167 163
52.64178 161
52.6619 176
52.68201 160
52.70212 158
52.72224 170
52.74235 196
52.76246 171
52.78258 187
52.80269 156
52.8228 173
52.84292 183
52.86303 187
52.88315 193
52.90326 201
52.92337 198
52.94349 177
52.9636 174
52.98371 173
53.00383 205
53.02394 198
53.04406 193
53.06417 177
53.08428 182
53.1044 176
53.12451 180
53.14462 205
53.16474 192
53.18485 166
53.20497 201
53.22508 199
53.24519 196
53.26531 218
53.28542 170
53.30553 212
53.32565 192
53.34576 188
53.36587 177
53.38599 212
53.4061 196
53.42622 189
53.44633 211
53.46644 174
53.48656 177
53.50667 207
53.52678 188
53.5469 202
53.56701 181
53.58713 196
53.60724 217
53.62735 226
53.64747 199
53.66758 219
53.68769 197
53.70781 181
53.72792 222
53.74804 195
53.76815 182
53.78826 203
53.80838 212
53.82849 234
53.8486 228
53.86872 187
53.88883 229
53.90894 198
53.92906 202
53.94917 205
53.96929 207
53.9894 212
54.00951 226
54.02963 200
54.04974 218
54.06985 194
54.08997 236
54.11008 245
54.1302 242
54.15031 217
54.17042 232
54.19054 217
54.21065 205
54.23076 225
54.25088 224
54.27099 218
54.29111 211
54.31122 244
54.33133 240
54.35145 226
54.37156 224
54.39167 231
54.41179 248
54.4319 244
54.45201 265
54.47213 257
54.49224 269
54.51236 241
54.53247 319
54.55258 344
54.5727 325
54.59281 348
54.61292 395
54.63304 463
54.65315 443
54.67327 540
54.69338 540
54.71349 667
54.73361 733
54.75372 759
54.77383 840
54.79395 869
54.81406 863
54.83417 854
54.85429 787
54.8744 781
54.89452 671
54.91463 623
54.93474 636
54.95486 606
54.97497 517
54.99508 476
55.0152 503
55.03531 438
55.05543 408
55.07554 338
55.09565 399
55.11577 360
55.13588 398
55.15599 406
55.17611 423
55.19622 488
55.21634 471
55.23645 500
55.25656 545
55.27668 520
55.29679 458
55.3169 465
55.33702 437
55.35713 414
55.37724 406
55.39736 369
55.41747 369
55.43759 321
55.4577 341
55.47781 314
55.49793 295
55.51804 269
55.53815 238
55.55827 251
55.57838 229
55.5985 238
55.61861 243
55.63872 253
55.65884 254
55.67895 250
55.69906 233
55.71918 241
55.73929 242
55.75941 223
55.77952 229
55.79963 228
55.81975 222
55.83986 214
55.85997 217
55.88009 215
55.9002 207
55.92031 230
55.94043 233
55.96054 224
55.98066 195
56.00077 217
56.02088 190
56.041 230
56.06111 199
56.08122 227
56.10134 210
56.12145 250
56.14157 194
56.16168 213
56.18179 214
56.20191 224
56.22202 192
56.24213 213
56.26225 197
56.28236 207
56.30248 189
56.32259 189
56.3427 196
56.36282 213
56.38293 205
56.40304 199
56.42316 217
56.44327 159
56.46338 204
56.4835 195
56.50361 192
56.52373 207
56.54384 193
56.56395 182
56.58407 176
56.60418 191
56.62429 198
56.64441 168
56.66452 195
56.68464 196
56.70475 191
56.72486 201
56.74498 174
56.76509 182
56.7852 219
56.80532 184
56.82543 185
56.84554 194
56.86566 180
56.88577 182
56.90589 182
56.926 204
56.94611 192
56.96623 196
56.98634 188
57.00645 203
57.02657 182
57.04668 205
57.0668 196
57.08691 189
57.10702 218
57.12714 193
57.14725 205
57.16736 185
57.18748 226
57.20759 187
57.22771 205
57.24782 198
57.26793 216
57.28805 215
57.30816 224
57.32827 195
57.34839 200
57.3685 195
57.38861 193
57.40873 168
57.42884 188
57.44896 176
57.46907 170
57.48918 174
57.5093 191
57.52941 181
57.54952 193
57.56964 172
57.58975 181
57.60987 193
57.62998 172
57.65009 187
57.67021 171
57.69032 189
57.71043 199
57.73055 185
57.75066 160
57.77078 178
57.79089 180
57.811 188
57.83112 193
57.85123 165
57.87134 192
57.89146 193
57.91157 188
57.93168 176
57.9518 153
57.97191 168
57.99203 196
58.01214 168
58.03225 188
58.05237 180
58.07248 172
58.09259 187
58.11271 168
58.13282 180
58.15294 188
58.17305 171
58.19316 177
58.21328 151
58.23339 177
58.2535 171
58.27362 184
58.29373 174
58.31385 170
58.33396 179
58.35407 191
58.37419 156
58.3943 171
58.41441 158
58.43453 159
58.45464 171
58.47475 193
58.49487 193
58.51498 174
58.5351 184
58.55521 186
58.57532 186
58.59544 170
58.61555 162
58.63566 164
58.65578 186
58.67589 190
58.69601 177
58.71612 194
58.73623 185
58.75635 163
58.77646 174
58.79657 188
58.81669 168
58.8368 166
58.85691 197
58.87703 193
58.89714 178
58.91726 183
58.93737 197
58.95748 171
58.9776 171
58.99771 185
59.01782 175
59.03794 170
59.05805 159
59.07817 173
59.09828 187
59.11839 181
59.13851 183
59.15862 184
59.17873 208
59.19885 186
59.21896 171
59.23908 193
59.25919 162
59.2793 201
59.29942 214
59.31953 221
59.33964 223
59.35976 219
59.37987 217
59.39998 227
59.4201 222
59.44021 228
59.46033 236
59.48044 254
59.50055 271
59.52067 291
59.54078 310
59.56089 341
59.58101 306
59.60112 384
59.62124 414
59.64135 504
59.66146 503
59.68158 555
59.70169 642
59.7218 755
59.74192 817
59.76203 941
59.78215 1034
59.80226 1215
59.82237 1304
59.84249 1367
59.8626 1569
59.88271 1563
59.90283 1505
59.92294 1514
59.94305 1384
59.96317 1217
59.98328 1020
60.0034 1040
60.02351 943
60.04362 989
60.06374 872
60.08385 734
60.10396 656
60.12408 575
60.14419 462
60.16431 406
60.18442 327
60.20453 302
60.22465 308
60.24476 246
60.26487 216
60.28499 250
60.3051 229
60.32522 220
60.34533 228
60.36544 215
60.38556 197
60.40567 191
60.42578 218
60.4459 177
60.46601 188
60.48612 189
60.50624 190
60.52635 172
60.54647 209
60.56658 207
60.58669 199
60.60681 208
60.62692 184
60.64703 205
60.66715 185
60.68726 197
60.70738 189
60.72749 184
60.7476 179
60.76772 170
60.78783 193
60.80794 190
60.82806 197
60.84817 201
60.86828 192
60.8884 183
60.90851 165
60.92863 182
60.94874 177
60.96885 156
60.98897 194
61.00908 182
61.02919 169
61.04931 204
61.06942 188
61.08954 196
61.10965 165
61.12976 176
61.14988 196
61.16999 171
61.1901 182
61.21022 193
61.23033 191
61.25045 203
61.27056 215
61.29067 225
61.31079 217
61.3309 212
61.35101 228
61.37113 203
61.39124 220
61.41135 250
61.43147 245
61.45158 254
61.4717 245
61.49181 293
61.51192 275
61.53204 280
61.55215 293
61.57226 281
61.59238 283
61.61249 279
61.63261 261
61.65272 262
61.67283 234
61.69295 274
61.71306 216
61.73317 264
61.75329 240
61.7734 220
61.79352 205
61.81363 242
61.83374 210
61.85386 228
61.87397 246
61.89408 206
61.9142 220
61.93431 180
61.95442 197
61.97454 203
61.99465 196
62.01477 193
62.03488 193
62.05499 171
62.07511 200
62.09522 209
62.11533 181
62.13545 183
62.15556 235
62.17568 205
62.19579 205
62.2159 187
62.23602 222
62.25613 176
62.27624 194
62.29636 198
62.31647 184
62.33659 189
62.3567 204
62.37681 195
62.39693 196
62.41704 209
62.43715 171
62.45727 215
62.47738 182
62.49749 193
62.51761 174
62.53772 199
62.55784 181
62.57795 180
62.59806 189
62.61818 186
62.63829 182
62.6584 176
62.67852 201
62.69863 170
62.71875 196
62.73886 184
62.75897 202
62.77909 175
62.7992 188
62.81931 167
62.83943 171
62.85954 191
62.87965 177
62.89977 193
62.91988 195
62.94 171
62.96011 149
62.98022 166
63.00034 169
63.02045 132
63.04056 158
63.06068 185
63.08079 164
63.10091 160
63.12102 175
63.14113 159
63.16125 165
63.18136 169
63.20147 172
63.22159 182
63.2417 158
63.26182 169
63.28193 172
63.30204 160
63.32216 185
63.34227 151
63.36238 138
63.3825 159
63.40261 183
63.42272 175
63.44284 171
63.46295 176
63.48307 184
63.50318 176
63.52329 193
63.54341 183
63.56352 173
63.58363 192
63.60375 202
63.62386 180
63.64398 237
63.66409 185
63.6842 229
63.70432 232
63.72443 220
63.74454 223
63.76466 262
63.78477 243
63.80489 258
63.825 315
63.84511 307
63.86523 328
63.88534 382
63.90545 385
63.92557 420
63.94568 391
63.96579 411
63.98591 432
64.00602 401
64.02614 335
64.04625 334
64.06636 358
64.08648 294
64.10659 247
64.1267 276
64.14682 259
64.16693 256
64.18705 272
64.20716 238
64.22727 191
64.24739 215
64.2675 222
64.28761 174
64.30773 183
64.32784 187
64.34796 183
64.36807 166
64.38818 157
64.4083 157
64.42841 153
64.44852 155
64.46864 175
64.48875 156
64.50886 161
64.52898 155
64.54909 159
64.56921 177
64.58932 145
64.60943 143
64.62955 174
64.64966 171
64.66977 149
64.68989 155
64.71 173
64.73012 149
64.75023 158
64.77034 169
64.79046 156
64.81057 167
64.83068 159
64.8508 171
64.87091 147
64.89102 171
64.91114 159
64.93125 156
64.95137 187
64.97148 147
64.99159 162
65.01171 170
65.03182 163
65.05193 154
65.07205 164
65.09216 166
65.11228 167
65.13239 166
65.1525 165
65.17262 178
65.19273 180
65.21284 163
65.23296 169
65.25307 183
65.27319 169
65.2933 179
65.31341 171
65.33353 148
65.35364 168
65.37375 179
65.39387 187
65.41398 168
65.43409 164
65.45421 170
65.47432 176
65.49444 180
65.51455 156
65.53466 194
65.55478 197
65.57489 176
65.595 201
65.61512 205
65.63523 191
65.65535 232
65.67546 221
65.69557 224
65.71569 217
65.7358 204
65.75591 225
65.77603 187
65.79614 189
65.81626 192
65.83637 174
65.85648 185
65.8766 180
65.89671 199
65.91682 199
65.93694 216
65.95705 177
65.97716 172
65.99728 176
66.01739 179
66.03751 176
66.05762 158
66.07773 162
66.09785 168
66.11796 171
66.13807 159
66.15819 163
66.1783 145
66.19842 164
66.21853 153
66.23864 164
66.25876 153
66.27887 160
66.29898 160
66.3191 164
66.33921 157
66.35933 154
66.37944 178
66.39955 158
66.41967 160
66.43978 157
66.45989 146
66.48001 160
66.50012 152
66.52023 178
66.54035 157
66.56046 155
66.58058 164
66.60069 145
66.6208 159
66.64092 156
66.66103 157
66.68114 170
66.70126 170
66.72137 187
66.74149 178
66.7616 144
66.78171 144
66.80183 161
66.82194 140
66.84205 169
66.86217 177
66.88228 173
66.90239 176
66.92251 180
66.94262 191
66.96274 148
66.98285 179
67.00296 194
67.02308 170
67.04319 177
67.0633 155
67.08342 181
67.10353 170
67.12365 193
67.14376 224
67.16387 224
67.18399 186
67.2041 183
67.22421 223
67.24433 224
67.26444 257
67.28456 250
67.30467 263
67.32478 284
67.3449 304
67.36501 297
67.38512 317
67.40524 332
67.42535 350
67.44546 395
67.46558 446
67.48569 444
67.50581 543
67.52592 557
67.54603 715
67.56615 725
67.58626 811
67.60637 870
67.62649 966
67.6466 971
67.66672 1004
67.68683 1005
67.70694 981
67.72706 895
67.74717 895
67.76728 742
67.7874 790
67.80751 763
67.82763 820
67.84774 796
67.86785 839
67.88797 892
67.90808 898
67.92819 968
67.94831 999
67.96842 1015
67.98853 1107
68.00865 1209
68.02876 1284
68.04888 1305
68.06899 1349
68.0891 1317
68.10922 1355
68.12933 1333
68.14944 1287
68.16956 1276
68.18967 1165
68.20979 1186
68.2299 1203
68.25001 1194
68.27013 1154
68.29024 1088
68.31035 951
68.33047 822
68.35058 712
68.3707 673
68.39081 652
68.41092 559
68.43104 539
68.45115 479
68.47126 438
68.49138 392
68.51149 334
68.5316 343
68.55172 268
68.57183 238
68.59195 246
68.61206 248
68.63217 214
68.65229 226
68.6724 229
68.69251 196
68.71263 187
68.73274 211
68.75286 184
68.77297 203
68.79308 161
68.8132 178
68.83331 190
68.85342 200
68.87354 161
68.89365 177
68.91376 182
68.93388 163
68.95399 195
68.97411 193
68.99422 179
69.01433 187
69.03445 162
69.05456 165
69.07467 150
69.09479 176
69.1149 173
69.13502 156
69.15513 160
69.17524 160
69.19536 162
69.21547 184
69.23558 172
69.2557 154
69.27581 177
69.29593 164
69.31604 166
69.33615 157
69.35627 186
69.37638 193
69.39649 178
69.41661 187
69.43672 190
69.45683 164
69.47695 178
69.49706 166
69.51718 176
69.53729 179
69.5574 169
69.57752 178
69.59763 171
69.61774 148
69.63786 129
69.65797 150
69.67809 167
69.6982 167
69.71831 152
69.73843 184
69.75854 163
69.77865 175
69.79877 174
69.81888 167
69.839 163
69.85911 173
69.87922 183
69.89934 165
69.91945 133
69.93956 169
69.95968 169
69.97979 174
69.9999 159
70.02002 152
70.04013 163
70.06025 141
70.08036 143
70.10047 170
70.12059 167
70.1407 161
70.16081 153
70.18093 153
70.20104 161
70.22116 164
70.24127 149
70.26138 184
70.2815 146
70.30161 162
70.32172 123
70.34184 162
70.36195 150
70.38207 140
70.40218 153
70.42229 150
70.44241 161
70.46252 140
70.48263 189
70.50275 146
70.52286 149
70.54297 122
70.56309 149
70.5832 143
70.60332 132
70.62343 152
70.64354 157
70.66366 152
70.68377 147
70.70388 166
70.724 150
70.74411 143
70.76423 146
70.78434 142
70.80445 153
70.82457 150
70.84468 134
70.86479 157
70.88491 136
70.90502 143
70.92513 173
70.94525 159
70.96536 149
70.98548 152
71.00559 161
71.0257 150
71.04582 152
71.06593 152
71.08604 148
71.10616 118
71.12627 135
71.14639 154
71.1665 144
71.18661 149
71.20673 135
71.22684 142
71.24695 154
71.26707 143
71.28718 142
71.3073 154
71.32741 158
71.34752 160
71.36764 134
71.38775 155
71.40786 144
71.42798 169
71.44809 140
71.4682 146
71.48832 156
71.50843 157
71.52855 145
71.54866 137
71.56877 162
71.58889 134
71.609 154
71.62911 149
71.64923 139
71.66934 136
71.68946 131
71.70957 155
71.72968 131
71.7498 159
71.76991 161
71.79002 153
71.81014 162
71.83025 145
71.85037 133
71.87048 138
71.89059 133
71.91071 160
71.93082 143
71.95093 133
71.97105 134
71.99116 130
72.01127 144
72.03139 168
72.0515 161
72.07162 144
72.09173 159
72.11184 147
72.13196 146
72.15207 146
72.17218 152
72.1923 143
72.21241 153
72.23253 176
72.25264 152
72.27275 164
72.29287 177
72.31298 170
72.33309 176
72.35321 186
72.37332 180
72.39344 160
72.41355 169
72.43366 171
72.45378 165
72.47389 162
72.494 192
72.51412 178
72.53423 159
72.55434 187
72.57446 193
72.59457 193
72.61469 179
72.6348 178
72.65491 178
72.67503 180
72.69514 160
72.71525 181
72.73537 190
72.75548 170
72.7756 164
72.79571 183
72.81582 186
72.83594 170
72.85605 188
72.87616 175
72.89628 171
72.91639 160
72.9365 184
72.95662 191
72.97673 194
72.99685 184
73.01696 179
73.03707 182
73.05719 188
73.0773 179
73.09741 201
73.11753 198
73.13764 211
73.15776 209
73.17787 236
73.19798 228
73.2181 249
73.23821 284
73.25832 304
73.27844 352
73.29855 330
73.31867 360
73.33878 398
73.35889 380
73.37901 411
73.39912 411
73.41923 411
73.43935 366
73.45946 359
73.47957 345
73.49969 335
73.5198 297
73.53992 276
73.56003 291
73.58014 292
73.60026 320
73.62037 300
73.64048 277
73.6606 267
73.68071 226
73.70083 203
73.72094 214
73.74105 186
73.76117 188
73.78128 183
73.80139 181
73.82151 153
73.84162 164
73.86174 179
73.88185 146
73.90196 158
73.92208 132
73.94219 175
73.9623 168
73.98242 159
74.00253 165
74.02264 157
74.04276 160
74.06287 167
74.08299 154
74.1031 163
74.12321 143
74.14333 141
74.16344 179
74.18355 137
74.20367 158
74.22378 173
74.2439 144
74.26401 141
74.28412 171
74.30424 162
74.32435 160
74.34446 164
74.36458 152
74.38469 133
74.40481 172
74.42492 167
74.44503 156
74.46515 141
74.48526 149
74.50537 156
74.52549 137
74.5456 134
74.56571 146
74.58583 157
74.60594 137
74.62606 160
74.64617 155
74.66628 162
74.6864 147
74.70651 156
74.72662 171
74.74674 152
74.76685 135
74.78697 150
74.80708 139
74.82719 141
74.84731 158
74.86742 163
74.88753 138
74.90765 156
74.92776 152
74.94787 143
74.96799 131
74.9881 144
75.00822 160
