3.00117 21985
3.02128 21528
3.0414 20511
3.06151 20395
3.08162 19858
3.10174 19408
3.12185 18654
3.14197 17825
3.16208 17615
3.18219 17010
3.20231 16692
3.22242 16103
3.24253 15381
3.26265 15355
3.28276 14481
3.30288 14142
3.32299 13841
3.3431 13251
3.36322 12910
3.38333 12363
3.40344 12099
3.42356 11968
3.44367 11103
3.46379 10846
3.4839 10469
3.50401 10232
3.52413 9932
3.54424 9334
3.56435 9152
3.58447 8512
3.60458 8444
3.62469 8003
3.64481 7636
3.66492 7512
3.68504 6941
3.70515 6917
3.72526 6652
3.74538 6072
3.76549 6041
3.7856 5792
3.80572 5596
3.82583 5418
3.84595 5045
3.86606 4882
3.88617 4503
3.90629 4422
3.9264 4245
3.94651 4017
3.96663 3909
3.98674 3690
4.00686 3580
4.02697 3410
4.04708 3068
4.0672 3119
4.08731 2876
4.10742 2799
4.12754 2721
4.14765 2498
4.16776 2330
4.18788 2353
4.20799 2297
4.22811 2227
4.24822 1847
4.26833 1959
4.28845 1836
4.30856 1786
4.32867 1906
4.34879 1680
4.3689 1583
4.38902 1558
4.40913 1567
4.42924 1582
4.44936 1378
4.46947 1377
4.48958 1482
4.5097 1403
4.52981 1468
4.54992 1200
4.57004 1186
4.59015 1198
4.61027 1165
4.63038 1237
4.65049 1078
4.67061 1122
4.69072 1032
4.71083 1055
4.73095 1050
4.75106 979
4.77118 930
4.79129 957
4.8114 939
4.83152 937
4.85163 923
4.87174 826
4.89186 904
4.91197 766
4.93209 852
4.9522 730
4.97231 784
4.99243 753
5.01254 740
5.03265 702
5.05277 686
5.07288 687
5.09299 665
5.11311 669
5.13322 612
5.15334 563
5.17345 562
5.19356 590
5.21368 585
5.23379 532
5.2539 495
5.27402 501
5.29413 517
5.31425 530
5.33436 493
5.35447 488
5.37459 470
5.3947 498
5.41481 422
5.43493 453
5.45504 449
5.47516 400
5.49527 423
5.51538 384
5.5355 356
5.55561 378
5.57572 357
5.59584 390
5.61595 385
5.63606 316
5.65618 299
5.67629 329
5.69641 297
5.71652 320
5.73663 283
5.75675 290
5.77686 325
5.79697 286
5.81709 285
5.8372 268
5.85732 277
5.87743 262
5.89754 260
5.91766 250
5.93777 258
5.95788 286
5.978 262
5.99811 250
6.01823 239
6.03834 275
6.05845 233
6.07857 235
6.09868 261
6.11879 252
6.13891 226
6.15902 224
6.17913 212
6.19925 244
6.21936 196
6.23948 208
6.25959 226
6.2797 189
6.29982 217
6.31993 208
6.34004 198
6.36016 209
6.38027 200
6.40039 226
6.4205 211
6.44061 221
6.46073 196
6.48084 212
6.50095 202
6.52107 189
6.54118 192
6.56129 205
6.58141 211
6.60152 193
6.62164 216
6.64175 224
6.66186 212
6.68198 201
6.70209 195
6.7222 197
6.74232 200
6.76243 184
6.78255 202
6.80266 190
6.82277 187
6.84289 225
6.863 191
6.88311 183
6.90323 200
6.92334 206
6.94346 180
6.96357 187
6.98368 207
7.0038 198
7.02391 204
7.04402 205
7.06414 183
7.08425 176
7.10436 215
7.12448 225
7.14459 205
7.16471 221
7.18482 212
7.20493 198
7.22505 193
7.24516 186
7.26527 203
7.28539 170
7.3055 183
7.32562 204
7.34573 212
7.36584 242
7.38596 237
7.40607 192
7.42618 194
7.4463 189
7.46641 211
7.48653 200
7.50664 192
7.52675 231
7.54687 191
7.56698 192
7.58709 195
7.60721 209
7.62732 189
7.64743 197
7.66755 181
7.68766 190
7.70778 185
7.72789 205
7.748 198
7.76812 182
7.78823 195
7.80834 239
7.82846 228
7.84857 182
7.86869 187
7.8888 200
7.90891 206
7.92903 200
7.94914 228
7.96925 203
7.98937 189
8.00948 231
8.0296 207
8.04971 219
8.06982 209
8.08994 238
8.11005 227
8.13016 211
8.15028 211
8.17039 195
8.1905 213
8.21062 207
8.23073 221
8.25085 189
8.27096 201
8.29107 181
8.31119 177
8.3313 219
8.35141 220
8.37153 209
8.39164 210
8.41176 213
8.43187 209
8.45198 231
8.4721 227
8.49221 220
8.51232 216
8.53244 243
8.55255 250
8.57266 209
8.59278 219
8.61289 201
8.63301 208
8.65312 239
8.67323 238
8.69335 230
8.71346 207
8.73357 203
8.75369 208
8.7738 228
8.79392 219
8.81403 253
8.83414 252
8.85426 216
8.87437 236
8.89448 231
8.9146 231
8.93471 229
8.95483 220
8.97494 236
8.99505 235
9.01517 218
9.03528 215
9.05539 214
9.07551 226
9.09562 241
9.11573 199
9.13585 243
9.15596 210
9.17608 212
9.19619 215
9.2163 231
9.23642 216
9.25653 239
9.27664 225
9.29676 215
9.31687 196
9.33699 167
9.3571 211
9.37721 172
9.39733 227
9.41744 228
9.43755 177
9.45767 184
9.47778 229
9.4979 192
9.51801 199
9.53812 247
9.55824 224
9.57835 222
9.59846 210
9.61858 205
9.63869 209
9.6588 231
9.67892 213
9.69903 232
9.71915 200
9.73926 239
9.75937 227
9.77949 197
9.7996 215
9.81971 250
9.83983 200
9.85994 208
9.88006 238
9.90017 231
9.92028 192
9.9404 234
9.96051 196
9.98062 216
10.00074 243
10.02085 225
10.04097 214
10.06108 227
10.08119 213
10.10131 206
10.12142 210
10.14153 194
10.16165 190
10.18176 221
10.20187 203
10.22199 196
10.2421 230
10.26222 214
10.28233 247
10.30244 246
10.32256 175
10.34267 196
10.36278 203
10.3829 220
10.40301 193
10.42313 214
10.44324 229
10.46335 221
10.48347 210
10.50358 212
10.52369 244
10.54381 207
10.56392 224
10.58403 224
10.60415 227
10.62426 236
10.64438 245
10.66449 218
10.6846 216
10.70472 234
10.72483 240
10.74494 235
10.76506 195
10.78517 229
10.80529 210
10.8254 217
10.84551 239
10.86563 223
10.88574 220
10.90585 221
10.92597 213
10.94608 234
10.9662 212
10.98631 241
11.00642 213
11.02654 237
11.04665 203
11.06676 197
11.08688 212
11.10699 233
11.1271 190
11.14722 209
11.16733 205
11.18745 212
11.20756 239
11.22767 191
11.24779 209
11.2679 221
11.28801 212
11.30813 222
11.32824 239
11.34836 227
11.36847 244
11.38858 225
11.4087 213
11.42881 213
11.44892 237
11.46904 223
11.48915 236
11.50927 206
11.52938 222
11.54949 244
11.56961 270
11.58972 238
11.60983 227
11.62995 223
11.65006 250
11.67017 241
11.69029 221
11.7104 245
11.73052 272
11.75063 267
11.77074 277
11.79086 251
11.81097 246
11.83108 258
11.8512 251
11.87131 294
11.89143 240
11.91154 316
11.93165 286
11.95177 298
11.97188 292
11.99199 302
12.01211 311
12.03222 319
12.05234 331
12.07245 351
12.09256 309
12.11268 350
12.13279 353
12.1529 462
12.17302 431
12.19313 427
12.21324 422
12.23336 479
12.25347 482
12.27359 450
12.2937 490
12.31381 455
12.33393 487
12.35404 480
12.37415 534
12.39427 437
12.41438 459
12.4345 404
12.45461 419
12.47472 374
12.49484 367
12.51495 341
12.53506 330
12.55518 307
12.57529 315
12.5954 280
12.61552 274
12.63563 309
12.65575 253
12.67586 266
12.69597 254
12.71609 268
12.7362 217
12.75631 225
12.77643 253
12.79654 221
12.81666 246
12.83677 239
12.85688 272
12.877 208
12.89711 228
12.91722 210
12.93734 210
12.95745 238
12.97757 232
12.99768 218
13.01779 212
13.03791 241
13.05802 197
13.07813 235
13.09825 249
13.11836 275
13.13847 249
13.15859 248
13.1787 267
13.19882 272
13.21893 209
13.23904 212
13.25916 223
13.27927 196
13.29938 195
13.3195 208
13.33961 204
13.35973 209
13.37984 185
13.39995 202
13.42007 193
13.44018 195
13.46029 205
13.48041 201
13.50052 190
13.52064 203
13.54075 234
13.56086 270
13.58098 259
13.60109 288
13.6212 330
13.64132 288
13.66143 290
13.68154 282
13.70166 267
13.72177 247
13.74189 224
13.762 214
13.78211 200
13.80223 183
13.82234 167
13.84245 190
13.86257 220
13.88268 203
13.9028 172
13.92291 214
13.94302 185
13.96314 188
13.98325 196
14.00336 187
14.02348 167
14.04359 182
14.06371 175
14.08382 188
14.10393 181
14.12405 203
14.14416 214
14.16427 189
14.18439 171
14.2045 200
14.22461 184
14.24473 184
14.26484 157
14.28496 187
14.30507 158
14.32518 191
14.3453 187
14.36541 186
14.38552 162
14.40564 184
14.42575 186
14.44587 215
14.46598 191
14.48609 179
14.50621 180
14.52632 195
14.54643 185
14.56655 180
14.58666 178
14.60677 180
14.62689 174
14.647 191
14.66712 175
14.68723 187
14.70734 159
14.72746 170
14.74757 168
14.76768 177
14.7878 185
14.80791 207
14.82803 178
14.84814 183
14.86825 208
14.88837 254
14.90848 266
14.92859 216
14.94871 246
14.96882 233
14.98894 237
15.00905 184
15.02916 171
15.04928 212
15.06939 153
15.0895 163
15.10962 224
15.12973 192
15.14984 174
15.16996 188
15.19007 180
15.21019 215
15.2303 209
15.25041 227
15.27053 207
15.29064 192
15.31075 180
15.33087 188
15.35098 177
15.3711 180
15.39121 157
15.41132 184
15.43144 173
15.45155 169
15.47166 180
15.49178 180
15.51189 164
15.53201 176
15.55212 174
15.57223 166
15.59235 173
15.61246 162
15.63257 197
15.65269 158
15.6728 192
15.69291 155
15.71303 151
15.73314 164
15.75326 188
15.77337 206
15.79348 164
15.8136 171
15.83371 185
15.85382 181
15.87394 181
15.89405 162
15.91417 162
15.93428 196
15.95439 148
15.97451 176
15.99462 149
16.01473 185
16.03485 158
16.05496 167
16.07508 165
16.09519 193
16.1153 176
16.13542 144
16.15553 165
16.17564 173
16.19576 198
16.21587 171
16.23598 165
16.2561 184
16.27621 165
16.29633 145
16.31644 205
16.33655 160
16.35667 156
16.37678 175
16.39689 168
16.41701 170
16.43712 177
16.45724 175
16.47735 173
16.49746 162
16.51758 161
16.53769 195
16.5578 182
16.57792 161
16.59803 150
16.61814 175
16.63826 160
16.65837 159
16.67849 148
16.6986 158
16.71871 191
16.73883 149
16.75894 179
16.77905 193
16.79917 175
16.81928 180
16.8394 184
16.85951 171
16.87962 179
16.89974 152
16.91985 179
16.93996 169
16.96008 160
16.98019 178
17.00031 183
17.02042 157
17.04053 185
17.06065 153
17.08076 167
17.10087 185
17.12099 131
17.1411 155
17.16121 172
17.18133 164
17.20144 176
17.22156 181
17.24167 176
17.26178 154
17.2819 159
17.30201 153
17.32212 187
17.34224 178
17.36235 158
17.38247 152
17.40258 149
17.42269 157
17.44281 164
17.46292 149
17.48303 156
17.50315 152
17.52326 178
17.54338 179
17.56349 171
17.5836 185
17.60372 190
17.62383 178
17.64394 168
17.66406 188
17.68417 180
17.70428 171
17.7244 177
17.74451 180
17.76463 148
17.78474 175
17.80485 157
17.82497 157
17.84508 180
17.86519 186
17.88531 181
17.90542 134
17.92554 160
17.94565 148
17.96576 159
17.98588 174
18.00599 177
18.0261 188
18.04622 171
18.06633 161
18.08645 166
18.10656 176
18.12667 157
18.14679 166
18.1669 168
18.18701 156
18.20713 149
18.22724 151
18.24735 171
18.26747 161
18.28758 172
18.3077 193
18.32781 176
18.34792 167
18.36804 157
18.38815 161
18.40826 161
18.42838 173
18.44849 190
18.46861 154
18.48872 188
18.50883 177
18.52895 150
18.54906 169
18.56917 159
18.58929 161
18.6094 178
18.62951 160
18.64963 173
18.66974 175
18.68986 176
18.70997 161
18.73008 199
18.7502 141
18.77031 168
18.79042 184
18.81054 172
18.83065 175
18.85077 177
18.87088 216
18.89099 186
18.91111 180
18.93122 145
18.95133 157
18.97145 136
18.99156 166
19.01168 188
19.03179 179
19.0519 130
19.07202 150
19.09213 191
19.11224 186
19.13236 168
19.15247 158
19.17258 153
19.1927 178
19.21281 212
19.23293 221
19.25304 194
19.27315 218
19.29327 217
19.31338 216
19.33349 211
19.35361 176
19.37372 178
19.39384 143
19.41395 163
19.43406 177
19.45418 215
19.47429 198
19.4944 168
19.51452 189
19.53463 188
19.55475 188
19.57486 184
19.59497 193
19.61509 172
19.6352 188
19.65531 223
19.67543 207
19.69554 258
19.71565 248
19.73577 317
19.75588 272
19.776 275
19.79611 332
19.81622 340
19.83634 358
19.85645 352
19.87656 387
19.89668 401
19.91679 382
19.93691 381
19.95702 376
19.97713 357
19.99725 353
20.01736 322
20.03747 361
20.05759 321
20.0777 350
20.09782 323
20.11793 359
20.13804 376
20.15816 388
20.17827 369
20.19838 333
20.2185 367
20.23861 381
20.25872 354
20.27884 341
20.29895 360
20.31907 368
20.33918 399
20.35929 383
20.37941 405
20.39952 426
20.41963 383
20.43975 455
20.45986 447
20.47998 462
20.50009 425
20.5202 464
20.54032 453
20.56043 425
20.58054 477
20.60066 489
20.62077 563
20.64088 593
20.661 680
20.68111 814
20.70123 1004
20.72134 1371
20.74145 1882
20.76157 2501
20.78168 3389
20.80179 4467
20.82191 5650
20.84202 6396
20.86214 6703
20.88225 6225
20.90236 4938
20.92248 3754
20.94259 2607
20.9627 1768
20.98282 1404
21.00293 1262
21.02305 1194
21.04316 1119
21.06327 1007
21.08339 813
21.1035 714
21.12361 595
21.14373 496
21.16384 446
21.18395 426
21.20407 369
21.22418 377
21.2443 372
21.26441 392
21.28452 351
21.30464 392
21.32475 342
21.34486 293
21.36498 349
21.38509 345
21.40521 321
21.42532 342
21.44543 367
21.46555 323
21.48566 361
21.50577 327
21.52589 285
21.546 307
21.56612 295
21.58623 290
21.60634 310
21.62646 293
21.64657 292
21.66668 290
21.6868 287
21.70691 322
21.72702 283
21.74714 310
21.76725 320
21.78737 280
21.80748 260
21.82759 281
21.84771 286
21.86782 313
21.88793 269
21.90805 317
21.92816 309
21.94828 307
21.96839 273
21.9885 310
22.00862 320
22.02873 349
22.04884 317
22.06896 285
22.08907 296
22.10919 282
22.1293 284
22.14941 299
22.16953 281
22.18964 345
22.20975 363
22.22987 395
22.24998 426
22.27009 463
22.29021 470
22.31032 488
22.33044 415
22.35055 392
22.37066 348
22.39078 307
22.41089 275
22.431 321
22.45112 243
22.47123 258
22.49135 283
22.51146 275
22.53157 299
22.55169 306
22.5718 299
22.59191 326
22.61203 291
22.63214 275
22.65225 316
22.67237 290
22.69248 301
22.7126 294
22.73271 286
22.75282 281
22.77294 257
22.79305 260
22.81316 235
22.83328 261
22.85339 259
22.87351 262
22.89362 280
22.91373 249
22.93385 297
22.95396 278
22.97407 322
22.99419 326
23.0143 346
23.03442 401
23.05453 382
23.07464 391
23.09476 448
23.11487 510
23.13498 557
23.1551 590
23.17521 666
23.19532 664
23.21544 575
23.23555 495
23.25567 418
23.27578 393
23.29589 350
23.31601 314
23.33612 284
23.35623 285
23.37635 260
23.39646 241
23.41658 213
23.43669 253
23.4568 262
23.47692 234
23.49703 247
23.51714 258
23.53726 256
23.55737 274
23.57749 266
23.5976 248
23.61771 245
23.63783 255
23.65794 240
23.67805 257
23.69817 273
23.71828 268
23.73839 271
23.75851 301
23.77862 267
23.79874 280
23.81885 292
23.83896 311
23.85908 361
23.87919 385
23.8993 410
23.91942 482
23.93953 535
23.95965 577
23.97976 689
23.99987 720
24.01999 650
24.0401 531
24.06021 506
24.08033 444
24.10044 340
24.12056 323
24.14067 290
24.16078 294
24.1809 277
24.20101 297
24.22112 328
24.24124 341
24.26135 364
24.28146 447
24.30158 407
24.32169 412
24.34181 409
24.36192 349
24.38203 344
24.40215 350
24.42226 295
24.44237 300
24.46249 284
24.4826 275
24.50272 294
24.52283 297
24.54294 324
24.56306 360
24.58317 341
24.60328 404
24.6234 421
24.64351 416
24.66362 491
24.68374 508
24.70385 451
24.72397 493
24.74408 443
24.76419 432
24.78431 446
24.80442 462
24.82453 488
24.84465 471
24.86476 437
24.88488 477
24.90499 454
24.9251 453
24.94522 392
24.96533 392
24.98544 404
25.00556 407
25.02567 374
25.04579 361
25.0659 343
25.08601 318
25.10613 347
25.12624 312
25.14635 315
25.16647 298
25.18658 299
25.20669 297
25.22681 321
25.24692 311
25.26704 320
25.28715 312
25.30726 281
25.32738 337
25.34749 314
25.3676 353
25.38772 371
25.40783 438
25.42795 469
25.44806 515
25.46817 629
25.48829 683
25.5084 652
25.52851 714
25.54863 700
25.56874 623
25.58886 616
25.60897 656
25.62908 648
25.6492 630
25.66931 654
25.68942 612
25.70954 581
25.72965 482
25.74976 493
25.76988 475
25.78999 462
25.81011 396
25.83022 426
25.85033 386
25.87045 410
25.89056 401
25.91067 466
25.93079 414
25.9509 403
25.97102 427
25.99113 446
26.01124 443
26.03136 398
26.05147 471
26.07158 489
26.0917 467
26.11181 535
26.13193 552
26.15204 588
26.17215 680
26.19227 663
26.21238 666
26.23249 831
26.25261 873
26.27272 950
26.29283 1053
26.31295 1172
26.33306 1350
26.35318 1528
26.37329 1777
26.3934 2037
26.41352 2394
26.43363 2893
26.45374 3552
26.47386 4722
26.49397 6394
26.51409 8652
26.5342 11947
26.55431 15849
26.57443 20365
26.59454 25440
26.61465 28909
26.63477 29972
26.65488 27451
26.67499 22327
26.69511 16823
26.71522 12198
26.73534 8143
26.75545 4749
26.77556 2543
26.79568 1700
26.81579 1390
26.8359 1216
26.85602 1137
26.87613 1064
26.89625 1011
26.91636 975
26.93647 961
26.95659 995
26.9767 1036
26.99681 1041
27.01693 1050
27.03704 1130
27.05716 1175
27.07727 1131
27.09738 936
27.1175 823
27.13761 735
27.15772 651
27.17784 629
27.19795 577
27.21806 570
27.23818 648
27.25829 657
27.27841 784
27.29852 945
27.31863 1117
27.33875 1252
27.35886 1426
27.37897 1630
27.39909 1819
27.4192 1909
27.43932 1897
27.45943 1761
27.47954 1560
27.49966 1309
27.51977 1138
27.53988 929
27.56 738
27.58011 602
27.60023 549
27.62034 449
27.64045 406
27.66057 426
27.68068 387
27.70079 377
27.72091 390
27.74102 337
27.76113 337
27.78125 352
27.80136 356
27.82148 343
27.84159 362
27.8617 376
27.88182 349
27.90193 351
27.92204 342
27.94216 335
27.96227 315
27.98239 291
28.0025 329
28.02261 304
28.04273 310
28.06284 286
28.08295 267
28.10307 264
28.12318 294
28.1433 289
28.16341 268
28.18352 252
28.20364 277
28.22375 266
28.24386 279
28.26398 274
28.28409 271
28.3042 270
28.32432 257
28.34443 270
28.36455 264
28.38466 241
28.40477 262
28.42489 251
28.445 248
28.46511 260
28.48523 262
28.50534 252
28.52546 251
28.54557 277
28.56568 267
28.5858 256
28.60591 240
28.62602 237
28.64614 246
28.66625 225
28.68636 213
28.70648 243
28.72659 241
28.74671 231
28.76682 247
28.78693 232
28.80705 227
28.82716 224
28.84727 234
28.86739 204
28.8875 282
28.90762 253
28.92773 234
28.94784 243
28.96796 251
28.98807 244
29.00818 245
29.0283 258
29.04841 237
29.06853 224
29.08864 265
29.10875 265
29.12887 241
29.14898 233
29.16909 272
29.18921 235
29.20932 253
29.22943 286
29.24955 272
29.26966 268
29.28978 319
29.30989 318
29.33 398
29.35012 429
29.37023 459
29.39034 508
29.41046 547
29.43057 525
29.45069 459
29.4708 391
29.49091 429
29.51103 358
29.53114 286
29.55125 273
29.57137 260
29.59148 245
29.6116 238
29.63171 246
29.65182 231
29.67194 259
29.69205 235
29.71216 256
29.73228 242
29.75239 238
29.7725 225
29.79262 243
29.81273 272
29.83285 269
29.85296 248
29.87307 260
29.89319 256
29.9133 255
29.93341 266
29.95353 249
29.97364 286
29.99376 275
30.01387 263
30.03398 307
30.0541 308
30.07421 355
30.09432 383
30.11444 404
30.13455 451
30.15467 516
30.17478 535
30.19489 540
30.21501 505
30.23512 492
30.25523 478
30.27535 427
30.29546 380
30.31557 341
30.33569 272
30.3558 255
30.37592 262
30.39603 258
30.41614 260
30.43626 260
30.45637 246
30.47648 247
30.4966 256
30.51671 248
30.53683 258
30.55694 266
30.57705 244
30.59717 335
30.61728 317
30.63739 368
30.65751 405
30.67762 434
30.69773 478
30.71785 477
30.73796 458
30.75808 468
30.77819 410
30.7983 439
30.81842 401
30.83853 443
30.85864 391
30.87876 371
30.89887 334
30.91899 336
30.9391 340
30.95921 318
30.97933 295
30.99944 270
31.01955 231
31.03967 218
31.05978 240
31.0799 190
31.10001 209
31.12012 216
31.14024 193
31.16035 176
31.18046 215
31.20058 204
31.22069 201
31.2408 191
31.26092 208
31.28103 193
31.30115 198
31.32126 205
31.34137 193
31.36149 185
31.3816 186
31.40171 167
31.42183 162
31.44194 195
31.46206 187
31.48217 194
31.50228 189
31.5224 186
31.54251 165
31.56262 219
31.58274 169
31.60285 185
31.62297 213
31.64308 187
31.66319 203
31.68331 203
31.70342 201
31.72353 175
31.74365 212
31.76376 206
31.78387 185
31.80399 180
31.8241 170
31.84422 174
31.86433 171
31.88444 185
31.90456 201
31.92467 174
31.94478 191
31.9649 203
31.98501 199
32.00513 233
32.02524 204
32.04535 248
32.06547 264
32.08558 254
32.10569 258
32.12581 234
32.14592 254
32.16604 197
32.18615 246
32.20626 202
32.22638 209
32.24649 217
32.2666 243
32.28672 222
32.30683 210
32.32694 232
32.34706 302
32.36717 287
32.38729 281
32.4074 286
32.42751 321
32.44763 288
32.46774 306
32.48785 274
32.50797 278
32.52808 237
32.5482 236
32.56831 251
32.58842 214
32.60854 216
32.62865 193
32.64876 197
32.66888 174
32.68899 171
32.7091 176
32.72922 189
32.74933 216
32.76945 181
32.78956 186
32.80967 164
32.82979 200
32.8499 174
32.87001 187
32.89013 172
32.91024 201
32.93036 175
32.95047 190
32.97058 197
32.9907 172
33.01081 187
33.03092 202
33.05104 195
33.07115 210
33.09127 190
33.11138 176
33.13149 198
33.15161 193
33.17172 190
33.19183 195
33.21195 196
33.23206 197
33.25217 202
33.27229 185
33.2924 167
33.31252 174
33.33263 176
33.35274 177
33.37286 172
33.39297 192
33.41308 174
33.4332 141
33.45331 168
33.47343 184
33.49354 175
33.51365 175
33.53377 154
33.55388 167
33.57399 177
33.59411 189
33.61422 167
33.63434 180
33.65445 152
33.67456 163
33.69468 176
33.71479 180
33.7349 191
33.75502 181
33.77513 178
33.79524 159
33.81536 187
33.83547 170
33.85559 189
33.8757 197
33.89581 175
33.91593 175
33.93604 183
33.95615 203
33.97627 201
33.99638 211
34.0165 201
34.03661 225
34.05672 278
34.07684 277
34.09695 307
34.11706 349
34.13718 357
34.15729 393
34.17741 378
34.19752 369
34.21763 345
34.23775 351
34.25786 308
34.27797 260
34.29809 254
34.3182 218
34.33831 228
34.35843 239
34.37854 186
34.39866 195
34.41877 214
34.43888 209
34.459 231
34.47911 227
34.49922 230
34.51934 247
34.53945 220
34.55957 243
34.57968 288
34.59979 284
34.61991 304
34.64002 330
34.66013 331
34.68025 313
34.70036 331
34.72047 290
34.74059 285
34.7607 307
34.78082 342
34.80093 294
34.82104 307
34.84116 305
34.86127 353
34.88138 372
34.9015 352
34.92161 359
34.94173 359
34.96184 362
34.98195 323
35.00207 315
35.02218 310
35.04229 298
35.06241 339
35.08252 325
35.10264 285
35.12275 309
35.14286 292
35.16298 279
35.18309 319
35.2032 294
35.22332 293
35.24343 311
35.26354 314
35.28366 294
35.30377 299
35.32389 305
35.344 281
35.36411 311
35.38423 346
35.40434 313
35.42445 332
35.44457 385
35.46468 376
35.4848 386
35.50491 378
35.52502 392
35.54514 449
35.56525 404
35.58536 370
35.60548 362
35.62559 353
35.64571 340
35.66582 327
35.68593 300
35.70605 292
35.72616 279
35.74627 289
35.76639 299
35.7865 283
35.80661 319
35.82673 302
35.84684 300
35.86696 311
35.88707 291
35.90718 290
35.9273 269
35.94741 261
35.96752 281
35.98764 271
36.00775 269
36.02787 225
36.04798 248
36.06809 254
36.08821 264
36.10832 255
36.12843 297
36.14855 257
36.16866 267
36.18878 251
36.20889 284
36.229 302
36.24912 270
36.26923 326
36.28934 364
36.30946 385
36.32957 433
36.34968 464
36.3698 570
36.38991 717
36.41003 820
36.43014 1077
36.45025 1369
36.47037 1651
36.49048 1892
36.51059 2122
36.53071 2216
36.55082 2027
36.57094 1726
36.59105 1375
36.61116 1187
36.63128 1034
36.65139 880
36.6715 660
36.69162 365
36.71173 375
36.73184 336
36.75196 265
36.77207 328
36.79219 318
36.8123 288
36.83241 322
36.85253 326
36.87264 307
36.89275 348
36.91287 347
36.93298 296
36.9531 338
36.97321 366
36.99332 340
37.01344 361
37.03355 309
37.05366 252
37.07378 271
37.09389 260
37.11401 260
37.13412 244
37.15423 239
37.17435 210
37.19446 263
37.21457 228
37.23469 206
37.2548 232
37.27491 217
37.29503 217
37.31514 205
37.33526 232
37.35537 209
37.37548 237
37.3956 200
37.41571 205
37.43582 223
37.45594 218
37.47605 223
37.49617 248
37.51628 217
37.53639 216
37.55651 254
37.57662 238
37.59673 243
37.61685 221
37.63696 258
37.65708 283
37.67719 225
37.6973 218
37.71742 218
37.73753 269
37.75764 213
37.77776 241
37.79787 243
37.81798 222
37.8381 238
37.85821 210
37.87833 236
37.89844 197
37.91855 231
37.93867 222
37.95878 220
37.97889 240
37.99901 243
38.01912 200
38.03924 216
38.05935 237
38.07946 242
38.09958 229
38.11969 225
38.1398 236
38.15992 281
38.18003 258
38.20015 297
38.22026 242
38.24037 267
38.26049 268
38.2806 278
38.30071 254
38.32083 315
38.34094 266
38.36105 303
38.38117 305
38.40128 336
38.4214 319
38.44151 334
38.46162 368
38.48174 368
38.50185 350
38.52196 347
38.54208 356
38.56219 349
38.58231 339
38.60242 319
38.62253 341
38.64265 307
38.66276 261
38.68287 251
38.70299 268
38.7231 258
38.74321 239
38.76333 234
38.78344 241
38.80356 236
38.82367 244
38.84378 252
38.8639 234
38.88401 233
38.90412 259
38.92424 264
38.94435 230
38.96447 257
38.98458 261
39.00469 296
39.02481 244
39.04492 278
39.06503 272
39.08515 280
39.10526 276
39.12538 332
39.14549 288
39.1656 344
39.18572 319
39.20583 376
39.22594 379
39.24606 440
39.26617 502
39.28628 545
39.3064 773
39.32651 777
39.34663 1058
39.36674 1217
39.38685 1481
39.40697 1748
39.42708 1852
39.44719 1987
39.46731 1830
39.48742 1563
39.50754 1290
39.52765 1035
39.54776 1039
39.56788 950
39.58799 708
39.6081 487
39.62822 320
39.64833 293
39.66845 255
39.68856 228
39.70867 250
39.72879 225
39.7489 212
39.76901 219
39.78913 215
39.80924 204
39.82935 217
39.84947 215
39.86958 203
39.8897 229
39.90981 209
39.92992 213
39.95004 248
39.97015 244
39.99026 248
40.01038 251
40.03049 256
40.05061 262
40.07072 296
40.09083 325
40.11095 391
40.13106 424
40.15117 530
40.17129 607
40.1914 722
40.21152 851
40.23163 904
40.25174 1043
40.27186 1042
40.29197 1040
40.31208 841
40.3322 737
40.35231 620
40.37242 626
40.39254 563
40.41265 491
40.43277 354
40.45288 316
40.47299 275
40.49311 255
40.51322 257
40.53333 232
40.55345 238
40.57356 237
40.59368 202
40.61379 198
40.6339 197
40.65402 224
40.67413 168
40.69424 218
40.71436 244
40.73447 186
40.75458 190
40.7747 212
40.79481 218
40.81493 209
40.83504 217
40.85515 187
40.87527 215
40.89538 213
40.91549 192
40.93561 210
40.95572 196
40.97584 177
40.99595 196
41.01606 194
41.03618 200
41.05629 202
41.0764 186
41.09652 171
41.11663 176
41.13675 201
41.15686 199
41.17697 207
41.19709 198
41.2172 181
41.23731 197
41.25743 197
41.27754 218
41.29765 217
41.31777 222
41.33788 183
41.358 210
41.37811 197
41.39822 213
41.41834 234
41.43845 210
41.45856 218
41.47868 227
41.49879 235
41.51891 215
41.53902 227
41.55913 216
41.57925 246
41.59936 274
41.61947 264
41.63959 312
41.6597 316
41.67982 345
41.69993 403
41.72004 427
41.74016 469
41.76027 494
41.78038 481
41.8005 470
41.82061 468
41.84072 384
41.86084 355
41.88095 338
41.90107 301
41.92118 294
41.94129 253
41.96141 277
41.98152 208
42.00163 216
42.02175 214
42.04186 209
42.06198 205
42.08209 201
42.1022 231
42.12232 222
42.14243 243
42.16254 256
42.18266 292
42.20277 315
42.22289 323
42.243 378
42.26311 434
42.28323 529
42.30334 635
42.32345 751
42.34357 965
42.36368 1037
42.38379 1241
42.40391 1399
42.42402 1488
42.44414 1394
42.46425 1166
42.48436 969
42.50448 867
42.52459 806
42.5447 789
42.56482 644
42.58493 482
42.60505 363
42.62516 266
42.64527 284
42.66539 268
42.6855 240
42.70561 270
42.72573 245
42.74584 249
42.76595 258
42.78607 215
42.80618 229
42.8263 239
42.84641 201
42.86652 199
42.88664 185
42.90675 192
42.92686 180
42.94698 178
42.96709 198
42.98721 204
43.00732 182
43.02743 203
43.04755 173
43.06766 205
43.08777 196
43.10789 196
43.128 193
43.14812 222
43.16823 204
43.18834 224
43.20846 197
43.22857 210
43.24868 199
43.2688 192
43.28891 188
43.30902 154
43.32914 202
43.34925 182
43.36937 190
43.38948 176
43.40959 192
43.42971 158
43.44982 179
43.46993 194
43.49005 207
43.51016 186
43.53028 191
43.55039 213
43.5705 220
43.59062 181
43.61073 194
43.63084 190
43.65096 200
43.67107 184
43.69119 176
43.7113 200
43.73141 186
43.75153 169
43.77164 161
43.79175 172
43.81187 185
43.83198 171
43.85209 193
43.87221 168
43.89232 186
43.91244 188
43.93255 175
43.95266 185
43.97278 186
43.99289 174
44.013 189
44.03312 219
44.05323 177
44.07335 202
44.09346 207
44.11357 199
44.13369 178
44.1538 190
44.17391 198
44.19403 214
44.21414 201
44.23426 184
44.25437 198
44.27448 203
44.2946 197
44.31471 177
44.33482 201
44.35494 158
44.37505 186
44.39516 175
44.41528 184
44.43539 204
44.45551 184
44.47562 189
44.49573 180
44.51585 204
44.53596 203
44.55607 191
44.57619 195
44.5963 181
44.61642 196
44.63653 185
44.65664 160
44.67676 193
44.69687 178
44.71698 178
44.7371 166
44.75721 172
44.77732 149
44.79744 186
44.81755 167
44.83767 176
44.85778 195
44.87789 167
44.89801 199
44.91812 183
44.93823 193
44.95835 171
44.97846 182
44.99858 166
45.01869 200
45.0388 155
45.05892 180
45.07903 180
45.09914 179
45.11926 182
45.13937 212
45.15949 180
45.1796 200
45.19971 194
45.21983 204
45.23994 195
45.26005 199
45.28017 206
45.30028 207
45.32039 229
45.34051 182
45.36062 220
45.38074 261
45.40085 253
45.42096 236
45.44108 295
45.46119 284
45.4813 345
45.50142 332
45.52153 309
45.54165 372
45.56176 365
45.58187 398
45.60199 474
45.6221 489
45.64221 584
45.66233 617
45.68244 769
45.70256 758
45.72267 892
45.74278 984
45.7629 1104
45.78301 1010
45.80312 939
45.82324 743
45.84335 677
45.86346 585
45.88358 577
45.90369 513
45.92381 507
45.94392 353
45.96403 274
45.98415 213
46.00426 217
46.02437 232
46.04449 215
46.0646 221
46.08472 232
46.10483 212
46.12494 213
46.14506 238
46.16517 234
46.18528 214
46.2054 223
46.22551 229
46.24563 210
46.26574 232
46.28585 185
46.30597 200
46.32608 242
46.34619 184
46.36631 203
46.38642 179
46.40653 211
46.42665 190
46.44676 167
46.46688 158
46.48699 172
46.5071 190
46.52722 164
46.54733 181
46.56744 170
46.58756 179
46.60767 157
46.62779 187
46.6479 172
46.66801 158
46.68813 160
46.70824 156
46.72835 174
46.74847 168
46.76858 200
46.78869 185
46.80881 177
46.82892 184
46.84904 179
46.86915 166
46.88926 196
46.90938 202
46.92949 213
46.9496 209
46.96972 214
46.98983 207
47.00995 207
47.03006 218
47.05017 268
47.07029 246
47.0904 250
47.11051 252
47.13063 231
47.15074 238
47.17086 222
47.19097 206
47.21108 225
47.2312 215
47.25131 217
47.27142 212
47.29154 205
47.31165 178
47.33176 208
47.35188 209
47.37199 193
47.39211 193
47.41222 209
47.43233 204
47.45245 248
47.47256 198
47.49267 175
47.51279 204
47.5329 189
47.55302 193
47.57313 195
47.59324 186
47.61336 163
47.63347 172
47.65358 173
47.6737 160
47.69381 189
47.71393 184
47.73404 171
47.75415 195
47.77427 157
47.79438 177
47.81449 161
47.83461 177
47.85472 160
47.87483 175
47.89495 174
47.91506 204
47.93518 176
47.95529 166
47.9754 186
47.99552 166
48.01563 184
48.03574 187
48.05586 151
48.07597 195
48.09609 196
48.1162 165
48.13631 187
48.15643 170
48.17654 168
48.19665 168
48.21677 168
48.23688 167
48.257 182
48.27711 184
48.29722 183
48.31734 180
48.33745 178
48.35756 179
48.37768 193
48.39779 202
48.4179 165
48.43802 169
48.45813 180
48.47825 177
48.49836 189
48.51847 162
48.53859 168
48.5587 181
48.57881 202
48.59893 183
48.61904 207
48.63916 201
48.65927 206
48.67938 204
48.6995 227
48.71961 214
48.73972 236
48.75984 212
48.77995 243
48.80006 207
48.82018 252
48.84029 223
48.86041 209
48.88052 261
48.90063 226
48.92075 214
48.94086 254
48.96097 229
48.98109 241
49.0012 248
49.02132 238
49.04143 237
49.06154 224
49.08166 235
49.10177 233
49.12188 208
49.142 225
49.16211 184
49.18223 193
49.20234 204
49.22245 187
49.24257 176
49.26268 184
49.28279 193
49.30291 194
49.32302 181
49.34313 193
49.36325 181
49.38336 181
49.40348 179
49.42359 174
49.4437 215
49.46382 196
49.48393 196
49.50404 154
49.52416 205
49.54427 204
49.56439 180
49.5845 196
49.60461 207
49.62473 194
49.64484 229
49.66495 220
49.68507 218
49.70518 257
49.7253 258
49.74541 256
49.76552 298
49.78564 300
49.80575 336
49.82586 367
49.84598 429
49.86609 509
49.8862 536
49.90632 672
49.92643 702
49.94655 883
49.96666 1048
49.98677 1313
50.00689 1544
50.027 1993
50.04711 2275
50.06723 2703
50.08734 3001
50.10746 3308
50.12757 3076
50.14768 2644
50.1678 2131
50.18791 1619
50.20802 1654
50.22814 1718
50.24825 1581
50.26837 1425
50.28848 1065
50.30859 786
50.32871 540
50.34882 424
50.36893 402
50.38905 421
50.40916 448
50.42927 534
50.44939 489
50.4695 549
50.48962 522
50.50973 545
50.52984 516
50.54996 472
50.57007 456
50.59018 429
50.6103 439
50.63041 418
50.65053 397
50.67064 335
50.69075 328
50.71087 275
50.73098 265
50.75109 264
50.77121 271
50.79132 295
50.81143 283
50.83155 269
50.85166 263
50.87178 288
50.89189 273
50.912 257
50.93212 246
50.95223 249
50.97234 243
50.99246 228
51.01257 223
51.03269 225
51.0528 197
51.07291 207
51.09303 231
51.11314 204
51.13325 202
51.15337 196
51.17348 188
51.1936 188
51.21371 151
51.23382 194
51.25394 185
51.27405 184
51.29416 148
51.31428 192
51.33439 154
51.3545 159
51.37462 183
51.39473 163
51.41485 178
51.43496 165
51.45507 159
51.47519 176
51.4953 149
51.51541 168
51.53553 182
51.55564 156
51.57576 166
51.59587 145
51.61598 169
51.6361 173
51.65621 155
51.67632 166
51.69644 144
51.71655 161
51.73667 146
51.75678 162
51.77689 154
51.79701 147
51.81712 176
51.83723 144
51.85735 150
51.87746 156
51.89757 153
51.91769 163
51.9378 152
51.95792 138
51.97803 144
51.99814 128
52.01826 145
52.03837 134
52.05848 137
52.0786 155
52.09871 146
52.11883 129
52.13894 146
52.15905 157
52.17917 159
52.19928 172
52.21939 176
52.23951 145
52.25962 153
52.27974 183
52.29985 141
52.31996 136
52.34008 145
52.36019 157
52.3803 155
52.40042 164
52.42053 175
52.44064 168
52.46076 171
52.48087 183
52.50099 198
52.5211 182
52.54121 156
52.56133 174
52.58144 183
52.60155 184
52.62167 178
52.64178 175
52.6619 208
52.68201 196
52.70212 172
52.72224 179
52.74235 173
52.76246 168
52.78258 183
52.80269 170
52.8228 161
52.84292 177
52.86303 162
52.88315 187
52.90326 165
52.92337 146
52.94349 170
52.9636 158
52.98371 177
53.00383 152
53.02394 167
53.04406 176
53.06417 162
53.08428 177
53.1044 176
53.12451 164
53.14462 170
53.16474 165
53.18485 154
53.20497 153
53.22508 176
53.24519 155
53.26531 159
53.28542 149
53.30553 169
53.32565 171
53.34576 157
53.36587 175
53.38599 170
53.4061 182
53.42622 177
53.44633 198
53.46644 151
53.48656 159
53.50667 162
53.52678 163
53.5469 179
53.56701 173
53.58713 175
53.60724 179
53.62735 160
53.64747 180
53.66758 157
53.68769 195
53.70781 170
53.72792 185
53.74804 172
53.76815 173
53.78826 172
53.80838 171
53.82849 178
53.8486 165
53.86872 195
53.88883 195
53.90894 200
53.92906 182
53.94917 191
53.96929 215
53.9894 200
54.00951 179
54.02963 220
54.04974 177
54.06985 214
54.08997 193
54.11008 194
54.1302 228
54.15031 194
54.17042 201
54.19054 184
54.21065 210
54.23076 219
54.25088 187
54.27099 209
54.29111 180
54.31122 208
54.33133 199
54.35145 200
54.37156 215
54.39167 209
54.41179 203
54.4319 206
54.45201 210
54.47213 225
54.49224 234
54.51236 245
54.53247 230
54.55258 251
54.5727 243
54.59281 307
54.61292 315
54.63304 313
54.65315 363
54.67327 380
54.69338 443
54.71349 521
54.73361 595
54.75372 707
54.77383 813
54.79395 883
54.81406 924
54.83417 1030
54.85429 1050
54.8744 914
54.89452 752
54.91463 670
54.93474 583
54.95486 640
54.97497 644
54.99508 595
55.0152 551
55.03531 435
55.05543 375
55.07554 335
55.09565 359
55.11577 341
55.13588 326
55.15599 367
55.17611 395
55.19622 403
55.21634 446
55.23645 488
55.25656 541
55.27668 636
55.29679 550
55.3169 519
55.33702 494
55.35713 450
55.37724 442
55.39736 410
55.41747 384
55.43759 401
55.4577 390
55.47781 360
55.49793 315
55.51804 302
55.53815 268
55.55827 245
55.57838 219
55.5985 218
55.61861 229
55.63872 209
55.65884 202
55.67895 200
55.69906 182
55.71918 201
55.73929 236
55.75941 198
55.77952 214
55.79963 190
55.81975 196
55.83986 171
55.85997 187
55.88009 181
55.9002 172
55.92031 199
55.94043 164
55.96054 176
55.98066 199
56.00077 174
56.02088 198
56.041 167
56.06111 188
56.08122 170
56.10134 185
56.12145 183
56.14157 175
56.16168 174
56.18179 193
56.20191 161
56.22202 153
56.24213 168
56.26225 162
56.28236 159
56.30248 181
56.32259 180
56.3427 154
56.36282 167
56.38293 179
56.40304 158
56.42316 188
56.44327 189
56.46338 190
56.4835 189
56.50361 201
56.52373 158
56.54384 194
56.56395 158
56.58407 194
56.60418 201
56.62429 191
56.64441 195
56.66452 185
56.68464 196
56.70475 196
56.72486 208
56.74498 221
56.76509 187
56.7852 205
56.80532 198
56.82543 189
56.84554 176
56.86566 185
56.88577 167
56.90589 181
56.926 198
56.94611 200
56.96623 209
56.98634 170
57.00645 189
57.02657 197
57.04668 188
57.0668 184
57.08691 187
57.10702 181
57.12714 197
57.14725 232
57.16736 232
57.18748 241
57.20759 214
57.22771 223
57.24782 208
57.26793 222
57.28805 203
57.30816 217
57.32827 218
57.34839 244
57.3685 216
57.38861 196
57.40873 205
57.42884 220
57.44896 166
57.46907 191
57.48918 185
57.5093 193
57.52941 171
57.54952 177
57.56964 164
57.58975 183
57.60987 157
57.62998 169
57.65009 139
57.67021 144
57.69032 147
57.71043 175
57.73055 160
57.75066 159
57.77078 150
57.79089 159
57.811 167
57.83112 144
57.85123 173
57.87134 171
57.89146 173
57.91157 149
57.93168 152
57.9518 149
57.97191 169
57.99203 165
58.01214 197
58.03225 168
58.05237 224
58.07248 181
58.09259 177
58.11271 195
58.13282 183
58.15294 191
58.17305 201
58.19316 180
58.21328 191
58.23339 167
58.2535 162
58.27362 205
58.29373 207
58.31385 179
58.33396 208
58.35407 191
58.37419 200
58.3943 198
58.41441 198
58.43453 183
58.45464 188
58.47475 178
58.49487 193
58.51498 201
58.5351 181
58.55521 187
58.57532 196
58.59544 180
58.61555 202
58.63566 215
58.65578 199
58.67589 175
58.69601 201
58.71612 176
58.73623 194
58.75635 183
58.77646 182
58.79657 181
58.81669 177
58.8368 197
58.85691 182
58.87703 187
58.89714 151
58.91726 200
58.93737 176
58.95748 147
58.9776 162
58.99771 161
59.01782 178
59.03794 160
59.05805 162
59.07817 171
59.09828 169
59.11839 176
59.13851 170
59.15862 175
59.17873 166
59.19885 191
59.21896 163
59.23908 187
59.25919 159
59.2793 191
59.29942 182
59.31953 187
59.33964 191
59.35976 175
59.37987 216
59.39998 210
59.4201 194
59.44021 233
59.46033 245
59.48044 229
59.50055 217
59.52067 244
59.54078 250
59.56089 274
59.58101 279
59.60112 288
59.62124 320
59.64135 366
59.66146 364
59.68158 420
59.70169 449
59.7218 548
59.74192 632
59.76203 715
59.78215 845
59.80226 1039
59.82237 1214
59.84249 1451
59.8626 1661
59.88271 1865
59.90283 2025
59.92294 2064
59.94305 1901
59.96317 1648
59.98328 1359
60.0034 1166
60.02351 1040
60.04362 1004
60.06374 1118
60.08385 1075
60.10396 1011
60.12408 845
60.14419 601
60.16431 405
60.18442 348
60.20453 312
60.22465 262
60.24476 278
60.26487 232
60.28499 223
60.3051 215
60.32522 194
60.34533 209
60.36544 176
60.38556 215
60.40567 202
60.42578 178
60.4459 180
60.46601 169
60.48612 195
60.50624 196
60.52635 160
60.54647 170
60.56658 164
60.58669 161
60.60681 177
60.62692 156
60.64703 168
60.66715 184
60.68726 177
60.70738 183
60.72749 186
60.7476 174
60.76772 191
60.78783 182
60.80794 189
60.82806 204
60.84817 170
60.86828 172
60.8884 192
60.90851 194
60.92863 195
60.94874 216
60.96885 195
60.98897 210
61.00908 215
61.02919 223
61.04931 232
61.06942 257
61.08954 260
61.10965 240
61.12976 257
61.14988 251
61.16999 203
61.1901 225
61.21022 195
61.23033 224
61.25045 179
61.27056 194
61.29067 181
61.31079 204
61.3309 172
61.35101 183
61.37113 189
61.39124 173
61.41135 169
61.43147 154
61.45158 155
61.4717 171
61.49181 154
61.51192 189
61.53204 178
61.55215 151
61.57226 176
61.59238 173
61.61249 186
61.63261 170
61.65272 169
61.67283 157
61.69295 161
61.71306 173
61.73317 158
61.75329 172
61.7734 153
61.79352 170
61.81363 174
61.83374 195
61.85386 181
61.87397 209
61.89408 179
61.9142 195
61.93431 180
61.95442 187
61.97454 167
61.99465 195
62.01477 186
62.03488 197
62.05499 230
62.07511 217
62.09522 222
62.11533 223
62.13545 236
62.15556 245
62.17568 242
62.19579 214
62.2159 225
62.23602 254
62.25613 236
62.27624 217
62.29636 230
62.31647 230
62.33659 237
62.3567 261
62.37681 257
62.39693 215
62.41704 198
62.43715 207
62.45727 214
62.47738 226
62.49749 222
62.51761 204
62.53772 205
62.55784 205
62.57795 181
62.59806 197
62.61818 215
62.63829 221
62.6584 208
62.67852 194
62.69863 184
62.71875 184
62.73886 164
62.75897 194
62.77909 201
62.7992 214
62.81931 176
62.83943 186
62.85954 197
62.87965 195
62.89977 191
62.91988 202
62.94 217
62.96011 215
62.98022 202
63.00034 198
63.02045 244
63.04056 235
63.06068 236
63.08079 231
63.10091 242
63.12102 239
63.14113 276
63.16125 235
63.18136 237
63.20147 203
63.22159 192
63.2417 201
63.26182 191
63.28193 200
63.30204 186
63.32216 208
63.34227 201
63.36238 187
63.3825 174
63.40261 169
63.42272 190
63.44284 179
63.46295 187
63.48307 169
63.50318 170
63.52329 201
63.54341 196
63.56352 190
63.58363 202
63.60375 200
63.62386 209
63.64398 211
63.66409 244
63.6842 219
63.70432 230
63.72443 220
63.74454 246
63.76466 252
63.78477 297
63.80489 305
63.825 322
63.84511 369
63.86523 374
63.88534 411
63.90545 457
63.92557 460
63.94568 508
63.96579 559
63.98591 554
64.00602 585
64.02614 516
64.04625 446
64.06636 410
64.08648 363
64.10659 364
64.1267 332
64.14682 345
64.16693 339
64.18705 319
64.20716 303
64.22727 246
64.24739 218
64.2675 168
64.28761 177
64.30773 192
64.32784 175
64.34796 146
64.36807 168
64.38818 146
64.4083 145
64.42841 169
64.44852 154
64.46864 144
64.48875 165
64.50886 173
64.52898 135
64.54909 157
64.56921 145
64.58932 142
64.60943 167
64.62955 151
64.64966 132
64.66977 137
64.68989 160
64.71 140
64.73012 157
64.75023 151
64.77034 168
64.79046 160
64.81057 153
64.83068 188
64.8508 163
64.87091 167
64.89102 196
64.91114 180
64.93125 168
64.95137 150
64.97148 169
64.99159 179
65.01171 206
65.03182 175
65.05193 183
65.07205 184
65.09216 171
65.11228 202
65.13239 185
65.1525 204
65.17262 183
65.19273 220
65.21284 214
65.23296 206
65.25307 216
65.27319 183
65.2933 215
65.31341 190
65.33353 205
65.35364 213
65.37375 192
65.39387 177
65.41398 186
65.43409 181
65.45421 167
65.47432 181
65.49444 177
65.51455 159
65.53466 168
65.55478 187
65.57489 194
65.595 192
65.61512 213
65.63523 195
65.65535 227
65.67546 234
65.69557 223
65.71569 231
65.7358 245
65.75591 258
65.77603 257
65.79614 215
65.81626 216
65.83637 178
65.85648 199
65.8766 204
65.89671 194
65.91682 209
65.93694 181
65.95705 218
65.97716 199
65.99728 212
66.01739 177
66.03751 161
66.05762 147
66.07773 181
66.09785 193
66.11796 188
66.13807 198
66.15819 193
66.1783 220
66.19842 213
66.21853 216
66.23864 214
66.25876 206
66.27887 202
66.29898 189
66.3191 176
66.33921 180
66.35933 208
66.37944 191
66.39955 183
66.41967 193
66.43978 163
66.45989 197
66.48001 174
66.50012 183
66.52023 190
66.54035 174
66.56046 163
66.58058 188
66.60069 166
66.6208 177
66.64092 170
66.66103 173
66.68114 168
66.70126 177
66.72137 172
66.74149 142
66.7616 159
66.78171 174
66.80183 179
66.82194 178
66.84205 182
66.86217 195
66.88228 191
66.90239 185
66.92251 184
66.94262 175
66.96274 173
66.98285 167
67.00296 179
67.02308 186
67.04319 208
67.0633 204
67.08342 178
67.10353 200
67.12365 199
67.14376 208
67.16387 203
67.18399 213
67.2041 233
67.22421 167
67.24433 189
67.26444 179
67.28456 191
67.30467 259
67.32478 241
67.3449 233
67.36501 229
67.38512 256
67.40524 245
67.42535 293
67.44546 333
67.46558 331
67.48569 350
67.50581 385
67.52592 485
67.54603 564
67.56615 589
67.58626 682
67.60637 821
67.62649 900
67.6466 1114
67.66672 1220
67.68683 1317
67.70694 1267
67.72706 1236
67.74717 1041
67.76728 922
67.7874 785
67.80751 732
67.82763 746
67.84774 843
67.86785 924
67.88797 931
67.90808 936
67.92819 946
67.94831 907
67.96842 962
67.98853 960
68.00865 1089
68.02876 1230
68.04888 1334
68.06899 1527
68.0891 1671
68.10922 1731
68.12933 1600
68.14944 1485
68.16956 1321
68.18967 1267
68.20979 1316
68.2299 1377
68.25001 1527
68.27013 1551
68.29024 1513
68.31035 1449
68.33047 1149
68.35058 984
68.3707 742
68.39081 659
68.41092 590
68.43104 546
68.45115 579
68.47126 571
68.49138 526
68.51149 498
68.5316 360
68.55172 285
68.57183 266
68.59195 208
68.61206 202
68.63217 221
68.65229 206
68.6724 184
68.69251 189
68.71263 202
68.73274 187
68.75286 204
68.77297 206
68.79308 187
68.8132 196
68.83331 188
68.85342 187
68.87354 190
68.89365 164
68.91376 198
68.93388 190
68.95399 181
68.97411 182
68.99422 182
69.01433 174
69.03445 152
69.05456 174
69.07467 153
69.09479 176
69.1149 152
69.13502 163
69.15513 169
69.17524 154
69.19536 172
69.21547 161
69.23558 140
69.2557 142
69.27581 140
69.29593 149
69.31604 158
69.33615 161
69.35627 150
69.37638 164
69.39649 158
69.41661 152
69.43672 147
69.45683 165
69.47695 150
69.49706 159
69.51718 148
69.53729 162
69.5574 151
69.57752 151
69.59763 167
69.61774 149
69.63786 153
69.65797 150
69.67809 141
69.6982 148
69.71831 157
69.73843 148
69.75854 164
69.77865 153
69.79877 164
69.81888 144
69.839 125
69.85911 145
69.87922 154
69.89934 163
69.91945 149
69.93956 140
69.95968 162
69.97979 178
69.9999 180
70.02002 150
70.04013 165
70.06025 165
70.08036 164
70.10047 174
70.12059 181
70.1407 160
70.16081 134
70.18093 162
70.20104 198
70.22116 166
70.24127 175
70.26138 184
70.2815 174
70.30161 118
70.32172 177
70.34184 132
70.36195 148
70.38207 146
70.40218 152
70.42229 166
70.44241 159
70.46252 157
70.48263 163
70.50275 167
70.52286 161
70.54297 168
70.56309 162
70.5832 165
70.60332 186
70.62343 166
70.64354 170
70.66366 161
70.68377 166
70.70388 182
70.724 165
70.74411 170
70.76423 181
70.78434 192
70.80445 175
70.82457 171
70.84468 158
70.86479 170
70.88491 143
70.90502 155
70.92513 162
70.94525 164
70.96536 152
70.98548 154
71.00559 149
71.0257 149
71.04582 168
71.06593 157
71.08604 159
71.10616 149
71.12627 151
71.14639 134
71.1665 160
71.18661 166
71.20673 165
71.22684 150
71.24695 146
71.26707 158
71.28718 149
71.3073 166
71.32741 167
71.34752 137
71.36764 165
71.38775 167
71.40786 185
71.42798 191
71.44809 169
71.4682 162
71.48832 183
71.50843 174
71.52855 185
71.54866 185
71.56877 188
71.58889 176
71.609 156
71.62911 190
71.64923 164
71.66934 186
71.68946 170
71.70957 188
71.72968 164
71.7498 182
71.76991 163
71.79002 185
71.81014 171
71.83025 177
71.85037 180
71.87048 179
71.89059 177
71.91071 193
71.93082 151
71.95093 184
71.97105 183
71.99116 195
72.01127 219
72.03139 175
72.0515 209
72.07162 164
72.09173 195
72.11184 190
72.13196 177
72.15207 190
72.17218 189
72.1923 189
72.21241 182
72.23253 217
72.25264 200
72.27275 167
72.29287 185
72.31298 179
72.33309 157
72.35321 183
72.37332 182
72.39344 177
72.41355 168
72.43366 170
72.45378 156
72.47389 189
72.494 160
72.51412 175
72.53423 160
72.55434 157
72.57446 171
72.59457 169
72.61469 156
72.6348 172
72.65491 169
72.67503 172
72.69514 162
72.71525 166
72.73537 172
72.75548 151
72.7756 181
72.79571 175
72.81582 152
72.83594 167
72.85605 160
72.87616 163
72.89628 170
72.91639 194
72.9365 182
72.95662 205
72.97673 209
72.99685 218
73.01696 205
73.03707 216
73.05719 205
73.0773 214
73.09741 210
73.11753 201
73.13764 226
73.15776 213
73.17787 218
73.19798 237
73.2181 281
73.23821 291
73.25832 301
73.27844 325
73.29855 342
73.31867 383
73.33878 450
73.35889 509
73.37901 535
73.39912 552
73.41923 501
73.43935 555
73.45946 514
73.47957 437
73.49969 382
73.5198 340
73.53992 335
73.56003 339
73.58014 367
73.60026 362
73.62037 371
73.64048 344
73.6606 348
73.68071 319
73.70083 273
73.72094 245
73.74105 224
73.76117 178
73.78128 190
73.80139 169
73.82151 185
73.84162 183
73.86174 178
73.88185 179
73.90196 172
73.92208 171
73.94219 177
73.9623 148
73.98242 153
74.00253 147
74.02264 164
74.04276 148
74.06287 161
74.08299 165
74.1031 141
74.12321 158
74.14333 141
74.16344 178
74.18355 164
74.20367 160
74.22378 134
74.2439 166
74.26401 173
74.28412 144
74.30424 147
74.32435 160
74.34446 181
74.36458 163
74.38469 171
74.40481 166
74.42492 168
74.44503 200
74.46515 172
74.48526 178
74.50537 183
74.52549 170
74.5456 154
74.56571 169
74.58583 183
74.60594 149
74.62606 170
74.64617 171
74.66628 156
74.6864 146
74.70651 179
74.72662 190
74.74674 167
74.76685 168
74.78697 165
74.80708 170
74.82719 200
74.84731 177
74.86742 159
74.88753 164
74.90765 190
74.92776 176
74.94787 181
74.96799 188
74.9881 154
75.00822 168
