3.00117 19178
3.02128 18286
3.0414 18216
3.06151 17431
3.08162 17078
3.10174 16373
3.12185 15874
3.14197 15629
3.16208 14985
3.18219 15075
3.20231 13971
3.22242 13744
3.24253 13376
3.26265 12912
3.28276 12671
3.30288 12263
3.32299 11741
3.3431 11387
3.36322 10899
3.38333 10816
3.40344 10077
3.42356 9964
3.44367 9721
3.46379 9323
3.4839 9039
3.50401 8485
3.52413 8400
3.54424 8078
3.56435 7601
3.58447 7492
3.60458 7016
3.62469 6961
3.64481 6681
3.66492 6356
3.68504 6035
3.70515 5744
3.72526 5529
3.74538 5480
3.76549 4944
3.7856 5020
3.80572 4726
3.82583 4398
3.84595 4385
3.86606 4110
3.88617 4026
3.90629 3752
3.9264 3639
3.94651 3466
3.96663 3371
3.98674 3410
4.00686 2942
4.02697 2738
4.04708 2763
4.0672 2652
4.08731 2551
4.10742 2254
4.12754 2211
4.14765 2297
4.16776 2203
4.18788 2163
4.20799 1829
4.22811 1829
4.24822 1877
4.26833 1759
4.28845 1672
4.30856 1636
4.32867 1570
4.34879 1582
4.3689 1400
4.38902 1547
4.40913 1340
4.42924 1314
4.44936 1480
4.46947 1334
4.48958 1312
4.5097 1239
4.52981 1150
4.54992 1193
4.57004 1124
4.59015 1195
4.61027 1026
4.63038 1049
4.65049 1070
4.67061 1033
4.69072 979
4.71083 954
4.73095 865
4.75106 1002
4.77118 916
4.79129 889
4.8114 898
4.83152 822
4.85163 821
4.87174 832
4.89186 792
4.91197 759
4.93209 690
4.9522 731
4.97231 768
4.99243 680
5.01254 655
5.03265 622
5.05277 677
5.07288 630
5.09299 604
5.11311 592
5.13322 566
5.15334 599
5.17345 589
5.19356 502
5.21368 591
5.23379 560
5.2539 491
5.27402 583
5.29413 458
5.31425 482
5.33436 468
5.35447 466
5.37459 438
5.3947 402
5.41481 397
5.43493 423
5.45504 434
5.47516 425
5.49527 381
5.51538 340
5.5355 351
5.55561 359
5.57572 376
5.59584 316
5.61595 317
5.63606 349
5.65618 322
5.67629 312
5.69641 312
5.71652 273
5.73663 317
5.75675 299
5.77686 273
5.79697 293
5.81709 259
5.8372 289
5.85732 288
5.87743 247
5.89754 247
5.91766 275
5.93777 287
5.95788 244
5.978 280
5.99811 274
6.01823 242
6.03834 260
6.05845 267
6.07857 254
6.09868 254
6.11879 255
6.13891 240
6.15902 252
6.17913 263
6.19925 239
6.21936 230
6.23948 243
6.25959 253
6.2797 251
6.29982 240
6.31993 222
6.34004 243
6.36016 243
6.38027 238
6.40039 245
6.4205 224
6.44061 205
6.46073 232
6.48084 183
6.50095 210
6.52107 201
6.54118 208
6.56129 204
6.58141 208
6.60152 220
6.62164 190
6.64175 203
6.66186 193
6.68198 201
6.70209 223
6.7222 216
6.74232 186
6.76243 229
6.78255 210
6.80266 219
6.82277 239
6.84289 226
6.863 180
6.88311 191
6.90323 197
6.92334 210
6.94346 223
6.96357 209
6.98368 202
7.0038 225
7.02391 205
7.04402 191
7.06414 228
7.08425 208
7.10436 220
7.12448 209
7.14459 214
7.16471 190
7.18482 200
7.20493 232
7.22505 214
7.24516 210
7.26527 222
7.28539 197
7.3055 214
7.32562 228
7.34573 208
7.36584 211
7.38596 210
7.40607 227
7.42618 208
7.4463 200
7.46641 200
7.48653 236
7.50664 199
7.52675 188
7.54687 214
7.56698 224
7.58709 223
7.60721 256
7.62732 243
7.64743 215
7.66755 229
7.68766 214
7.70778 213
7.72789 224
7.748 208
7.76812 235
7.78823 221
7.80834 277
7.82846 212
7.84857 221
7.86869 221
7.8888 210
7.90891 226
7.92903 229
7.94914 222
7.96925 212
7.98937 217
8.00948 238
8.0296 237
8.04971 207
8.06982 227
8.08994 224
8.11005 271
8.13016 251
8.15028 233
8.17039 236
8.1905 247
8.21062 262
8.23073 199
8.25085 218
8.27096 257
8.29107 221
8.31119 202
8.3313 238
8.35141 236
8.37153 235
8.39164 198
8.41176 202
8.43187 236
8.45198 204
8.4721 235
8.49221 212
8.51232 234
8.53244 239
8.55255 247
8.57266 225
8.59278 227
8.61289 240
8.63301 262
8.65312 216
8.67323 217
8.69335 229
8.71346 256
8.73357 228
8.75369 235
8.7738 212
8.79392 220
8.81403 252
8.83414 267
8.85426 307
8.87437 275
8.89448 243
8.9146 247
8.93471 248
8.95483 235
8.97494 247
8.99505 236
9.01517 198
9.03528 240
9.05539 236
9.07551 235
9.09562 256
9.11573 233
9.13585 220
9.15596 220
9.17608 230
9.19619 243
9.2163 251
9.23642 223
9.25653 211
9.27664 228
9.29676 257
9.31687 226
9.33699 208
9.3571 217
9.37721 240
9.39733 257
9.41744 248
9.43755 234
9.45767 241
9.47778 227
9.4979 237
9.51801 257
9.53812 225
9.55824 230
9.57835 253
9.59846 203
9.61858 226
9.63869 213
9.6588 209
9.67892 237
9.69903 252
9.71915 259
9.73926 214
9.75937 228
9.77949 232
9.7996 237
9.81971 242
9.83983 255
9.85994 240
9.88006 245
9.90017 225
9.92028 216
9.9404 217
9.96051 219
9.98062 255
10.00074 222
10.02085 242
10.04097 219
10.06108 241
10.08119 267
10.10131 256
10.12142 229
10.14153 215
10.16165 250
10.18176 237
10.20187 246
10.22199 210
10.2421 228
10.26222 228
10.28233 262
10.30244 225
10.32256 226
10.34267 233
10.36278 185
10.3829 212
10.40301 240
10.42313 235
10.44324 257
10.46335 229
10.48347 270
10.50358 250
10.52369 228
10.54381 252
10.56392 234
10.58403 226
10.60415 235
10.62426 232
10.64438 241
10.66449 255
10.6846 235
10.70472 240
10.72483 219
10.74494 220
10.76506 227
10.78517 234
10.80529 216
10.8254 244
10.84551 227
10.86563 242
10.88574 213
10.90585 248
10.92597 218
10.94608 240
10.9662 231
10.98631 237
11.00642 242
11.02654 239
11.04665 226
11.06676 245
11.08688 235
11.10699 242
11.1271 250
11.14722 259
11.16733 241
11.18745 223
11.20756 249
11.22767 233
11.24779 246
11.2679 244
11.28801 234
11.30813 242
11.32824 253
11.34836 223
11.36847 231
11.38858 201
11.4087 220
11.42881 239
11.44892 221
11.46904 239
11.48915 261
11.50927 242
11.52938 244
11.54949 234
11.56961 226
11.58972 243
11.60983 243
11.62995 274
11.65006 240
11.67017 214
11.69029 232
11.7104 233
11.73052 232
11.75063 252
11.77074 242
11.79086 221
11.81097 258
11.83108 268
11.8512 238
11.87131 280
11.89143 251
11.91154 237
11.93165 253
11.95177 248
11.97188 249
11.99199 278
12.01211 243
12.03222 266
12.05234 223
12.07245 247
12.09256 237
12.11268 253
12.13279 257
12.1529 260
12.17302 228
12.19313 254
12.21324 277
12.23336 242
12.25347 265
12.27359 245
12.2937 273
12.31381 267
12.33393 264
12.35404 242
12.37415 235
12.39427 229
12.41438 209
12.4345 225
12.45461 251
12.47472 262
12.49484 251
12.51495 232
12.53506 230
12.55518 215
12.57529 242
12.5954 238
12.61552 217
12.63563 228
12.65575 215
12.67586 209
12.69597 205
12.71609 226
12.7362 229
12.75631 205
12.77643 227
12.79654 201
12.81666 229
12.83677 204
12.85688 205
12.877 194
12.89711 202
12.91722 209
12.93734 231
12.95745 235
12.97757 216
12.99768 207
13.01779 221
13.03791 225
13.05802 210
13.07813 237
13.09825 221
13.11836 240
13.13847 265
13.15859 239
13.1787 233
13.19882 254
13.21893 208
13.23904 238
13.25916 251
13.27927 202
13.29938 230
13.3195 185
13.33961 200
13.35973 247
13.37984 210
13.39995 223
13.42007 199
13.44018 215
13.46029 224
13.48041 197
13.50052 222
13.52064 254
13.54075 253
13.56086 229
13.58098 275
13.60109 282
13.6212 288
13.64132 280
13.66143 282
13.68154 299
13.70166 287
13.72177 236
13.74189 205
13.762 225
13.78211 223
13.80223 205
13.82234 189
13.84245 196
13.86257 206
13.88268 236
13.9028 228
13.92291 197
13.94302 209
13.96314 189
13.98325 213
14.00336 231
14.02348 221
14.04359 194
14.06371 218
14.08382 178
14.10393 221
14.12405 188
14.14416 199
14.16427 233
14.18439 182
14.2045 187
14.22461 206
14.24473 198
14.26484 194
14.28496 165
14.30507 196
14.32518 178
14.3453 218
14.36541 195
14.38552 181
14.40564 191
14.42575 174
14.44587 189
14.46598 177
14.48609 214
14.50621 199
14.52632 182
14.54643 181
14.56655 215
14.58666 185
14.60677 190
14.62689 190
14.647 188
14.66712 206
14.68723 190
14.70734 175
14.72746 197
14.74757 201
14.76768 206
14.7878 197
14.80791 227
14.82803 191
14.84814 208
14.86825 216
14.88837 218
14.90848 249
14.92859 232
14.94871 213
14.96882 221
14.98894 220
15.00905 215
15.02916 223
15.04928 232
15.06939 239
15.0895 200
15.10962 221
15.12973 202
15.14984 228
15.16996 202
15.19007 214
15.21019 209
15.2303 221
15.25041 189
15.27053 193
15.29064 196
15.31075 196
15.33087 192
15.35098 198
15.3711 214
15.39121 190
15.41132 163
15.43144 214
15.45155 187
15.47166 199
15.49178 167
15.51189 204
15.53201 183
15.55212 185
15.57223 184
15.59235 168
15.61246 185
15.63257 167
15.65269 158
15.6728 170
15.69291 163
15.71303 191
15.73314 157
15.75326 186
15.77337 176
15.79348 169
15.8136 179
15.83371 194
15.85382 192
15.87394 188
15.89405 179
15.91417 178
15.93428 176
15.95439 167
15.97451 192
15.99462 207
16.01473 183
16.03485 178
16.05496 184
16.07508 180
16.09519 166
16.1153 192
16.13542 162
16.15553 175
16.17564 178
16.19576 175
16.21587 213
16.23598 172
16.2561 176
16.27621 176
16.29633 189
16.31644 178
16.33655 187
16.35667 198
16.37678 176
16.39689 177
16.41701 161
16.43712 167
16.45724 166
16.47735 176
16.49746 198
16.51758 188
16.53769 178
16.5578 178
16.57792 178
16.59803 159
16.61814 170
16.63826 204
16.65837 185
16.67849 178
16.6986 202
16.71871 168
16.73883 184
16.75894 160
16.77905 166
16.79917 184
16.81928 188
16.8394 171
16.85951 202
16.87962 186
16.89974 169
16.91985 179
16.93996 158
16.96008 149
16.98019 174
17.00031 186
17.02042 182
17.04053 157
17.06065 181
17.08076 175
17.10087 188
17.12099 208
17.1411 143
17.16121 183
17.18133 168
17.20144 180
17.22156 154
17.24167 184
17.26178 180
17.2819 182
17.30201 176
17.32212 168
17.34224 169
17.36235 140
17.38247 159
17.40258 175
17.42269 164
17.44281 183
17.46292 161
17.48303 215
17.50315 163
17.52326 173
17.54338 178
17.56349 183
17.5836 173
17.60372 178
17.62383 197
17.64394 193
17.66406 178
17.68417 215
17.70428 191
17.7244 216
17.74451 205
17.76463 190
17.78474 177
17.80485 203
17.82497 196
17.84508 186
17.86519 182
17.88531 186
17.90542 186
17.92554 163
17.94565 193
17.96576 176
17.98588 192
18.00599 196
18.0261 171
18.04622 171
18.06633 181
18.08645 176
18.10656 180
18.12667 161
18.14679 144
18.1669 158
18.18701 168
18.20713 163
18.22724 169
18.24735 162
18.26747 183
18.28758 152
18.3077 173
18.32781 180
18.34792 162
18.36804 198
18.38815 174
18.40826 157
18.42838 169
18.44849 173
18.46861 156
18.48872 165
18.50883 166
18.52895 182
18.54906 200
18.56917 150
18.58929 179
18.6094 160
18.62951 182
18.64963 199
18.66974 180
18.68986 191
18.70997 203
18.73008 193
18.7502 214
18.77031 181
18.79042 167
18.81054 198
18.83065 197
18.85077 180
18.87088 195
18.89099 196
18.91111 184
18.93122 185
18.95133 166
18.97145 167
18.99156 183
19.01168 194
19.03179 189
19.0519 175
19.07202 169
19.09213 182
19.11224 163
19.13236 185
19.15247 212
19.17258 188
19.1927 173
19.21281 190
19.23293 185
19.25304 225
19.27315 217
19.29327 203
19.31338 208
19.33349 213
19.35361 202
19.37372 176
19.39384 205
19.41395 195
19.43406 188
19.45418 196
19.47429 191
19.4944 211
19.51452 210
19.53463 189
19.55475 211
19.57486 213
19.59497 226
19.61509 194
19.6352 208
19.65531 219
19.67543 209
19.69554 212
19.71565 266
19.73577 257
19.75588 232
19.776 265
19.79611 284
19.81622 282
19.83634 276
19.85645 260
19.87656 276
19.89668 273
19.91679 283
19.93691 289
19.95702 307
19.97713 277
19.99725 290
20.01736 291
20.03747 289
20.05759 273
20.0777 276
20.09782 272
20.11793 279
20.13804 317
20.15816 307
20.17827 310
20.19838 304
20.2185 287
20.23861 293
20.25872 305
20.27884 302
20.29895 291
20.31907 300
20.33918 288
20.35929 298
20.37941 320
20.39952 338
20.41963 332
20.43975 348
20.45986 368
20.47998 378
20.50009 403
20.5202 374
20.54032 382
20.56043 385
20.58054 445
20.60066 443
20.62077 493
20.64088 538
20.661 573
20.68111 751
20.70123 957
20.72134 1377
20.74145 1984
20.76157 2780
20.78168 3727
20.80179 4969
20.82191 5988
20.84202 6460
20.86214 6451
20.88225 5601
20.90236 4379
20.92248 3104
20.94259 2215
20.9627 1562
20.98282 1289
21.00293 1042
21.02305 964
21.04316 903
21.06327 775
21.08339 708
21.1035 579
21.12361 560
21.14373 409
21.16384 410
21.18395 389
21.20407 380
21.22418 351
21.2443 356
21.26441 344
21.28452 345
21.30464 320
21.32475 358
21.34486 316
21.36498 324
21.38509 312
21.40521 312
21.42532 267
21.44543 284
21.46555 289
21.48566 294
21.50577 277
21.52589 263
21.546 268
21.56612 275
21.58623 230
21.60634 297
21.62646 221
21.64657 245
21.66668 231
21.6868 233
21.70691 243
21.72702 252
21.74714 247
21.76725 230
21.78737 217
21.80748 231
21.82759 270
21.84771 245
21.86782 234
21.88793 236
21.90805 226
21.92816 246
21.94828 240
21.96839 249
21.9885 276
22.00862 268
22.02873 260
22.04884 254
22.06896 290
22.08907 273
22.10919 231
22.1293 252
22.14941 240
22.16953 250
22.18964 272
22.20975 277
22.22987 283
22.24998 302
22.27009 331
22.29021 355
22.31032 358
22.33044 317
22.35055 331
22.37066 308
22.39078 293
22.41089 266
22.431 302
22.45112 288
22.47123 261
22.49135 295
22.51146 265
22.53157 255
22.55169 267
22.5718 279
22.59191 297
22.61203 291
22.63214 271
22.65225 269
22.67237 271
22.69248 244
22.7126 237
22.73271 251
22.75282 243
22.77294 228
22.79305 248
22.81316 224
22.83328 224
22.85339 243
22.87351 251
22.89362 233
22.91373 254
22.93385 258
22.95396 253
22.97407 252
22.99419 275
23.0143 309
23.03442 294
23.05453 306
23.07464 344
23.09476 324
23.11487 404
23.13498 409
23.1551 432
23.17521 428
23.19532 502
23.21544 425
23.23555 411
23.25567 392
23.27578 353
23.29589 330
23.31601 360
23.33612 297
23.35623 291
23.37635 292
23.39646 292
23.41658 315
23.43669 293
23.4568 294
23.47692 284
23.49703 326
23.51714 317
23.53726 304
23.55737 331
23.57749 294
23.5976 295
23.61771 290
23.63783 302
23.65794 320
23.67805 284
23.69817 279
23.71828 287
23.73839 297
23.75851 332
23.77862 319
23.79874 340
23.81885 371
23.83896 360
23.85908 350
23.87919 362
23.8993 412
23.91942 449
23.93953 448
23.95965 456
23.97976 482
23.99987 473
24.01999 421
24.0401 391
24.06021 375
24.08033 337
24.10044 277
24.12056 280
24.14067 250
24.16078 283
24.1809 270
24.20101 263
24.22112 279
24.24124 282
24.26135 278
24.28146 306
24.30158 314
24.32169 303
24.34181 320
24.36192 314
24.38203 312
24.40215 306
24.42226 277
24.44237 243
24.46249 288
24.4826 252
24.50272 259
24.52283 245
24.54294 242
24.56306 249
24.58317 278
24.60328 291
24.6234 321
24.64351 323
24.66362 278
24.68374 271
24.70385 330
24.72397 294
24.74408 317
24.76419 315
24.78431 297
24.80442 294
24.82453 262
24.84465 271
24.86476 269
24.88488 316
24.90499 344
24.9251 279
24.94522 290
24.96533 265
24.98544 263
25.00556 248
25.02567 266
25.04579 272
25.0659 271
25.08601 275
25.10613 256
25.12624 262
25.14635 272
25.16647 258
25.18658 245
25.20669 282
25.22681 262
25.24692 262
25.26704 287
25.28715 278
25.30726 293
25.32738 301
25.34749 279
25.3676 303
25.38772 308
25.40783 342
25.42795 387
25.44806 444
25.46817 489
25.48829 548
25.5084 592
25.52851 596
25.54863 608
25.56874 607
25.58886 643
25.60897 629
25.62908 636
25.6492 637
25.66931 602
25.68942 539
25.70954 527
25.72965 482
25.74976 461
25.76988 426
25.78999 425
25.81011 409
25.83022 394
25.85033 419
25.87045 372
25.89056 402
25.91067 392
25.93079 416
25.9509 414
25.97102 453
25.99113 418
26.01124 433
26.03136 430
26.05147 416
26.07158 452
26.0917 528
26.11181 530
26.13193 590
26.15204 628
26.17215 615
26.19227 703
26.21238 752
26.23249 819
26.25261 916
26.27272 899
26.29283 980
26.31295 1104
26.33306 1200
26.35318 1384
26.37329 1514
26.3934 1758
26.41352 2212
26.43363 2709
26.45374 3469
26.47386 4720
26.49397 6627
26.51409 9239
26.5342 12947
26.55431 17469
26.57443 22422
26.59454 27265
26.61465 29395
26.63477 28844
26.65488 25260
26.67499 19862
26.69511 14992
26.71522 10979
26.73534 7086
26.75545 4190
26.77556 2705
26.79568 1909
26.81579 1617
26.8359 1414
26.85602 1214
26.87613 1207
26.89625 1069
26.91636 1049
26.93647 1060
26.95659 980
26.9767 1018
26.99681 1054
27.01693 1077
27.03704 1035
27.05716 1056
27.07727 1020
27.09738 969
27.1175 854
27.13761 766
27.15772 721
27.17784 670
27.19795 665
27.21806 615
27.23818 638
27.25829 713
27.27841 703
27.29852 760
27.31863 856
27.33875 909
27.35886 993
27.37897 1176
27.39909 1283
27.4192 1324
27.43932 1465
27.45943 1347
27.47954 1343
27.49966 1226
27.51977 1074
27.53988 914
27.56 768
27.58011 660
27.60023 562
27.62034 487
27.64045 409
27.66057 438
27.68068 393
27.70079 376
27.72091 386
27.74102 350
27.76113 376
27.78125 341
27.80136 344
27.82148 346
27.84159 345
27.8617 327
27.88182 394
27.90193 343
27.92204 344
27.94216 332
27.96227 342
27.98239 313
28.0025 303
28.02261 288
28.04273 279
28.06284 254
28.08295 270
28.10307 275
28.12318 272
28.1433 279
28.16341 264
28.18352 291
28.20364 266
28.22375 275
28.24386 271
28.26398 264
28.28409 239
28.3042 278
28.32432 236
28.34443 255
28.36455 250
28.38466 279
28.40477 246
28.42489 232
28.445 253
28.46511 252
28.48523 252
28.50534 239
28.52546 272
28.54557 193
28.56568 240
28.5858 239
28.60591 234
28.62602 226
28.64614 284
28.66625 255
28.68636 229
28.70648 255
28.72659 241
28.74671 235
28.76682 237
28.78693 223
28.80705 231
28.82716 229
28.84727 239
28.86739 228
28.8875 232
28.90762 239
28.92773 256
28.94784 245
28.96796 236
28.98807 252
29.00818 243
29.0283 263
29.04841 279
29.06853 224
29.08864 225
29.10875 239
29.12887 255
29.14898 248
29.16909 229
29.18921 238
29.20932 226
29.22943 256
29.24955 267
29.26966 269
29.28978 274
29.30989 259
29.33 301
29.35012 299
29.37023 307
29.39034 342
29.41046 375
29.43057 369
29.45069 336
29.4708 376
29.49091 332
29.51103 313
29.53114 299
29.55125 304
29.57137 346
29.59148 347
29.6116 265
29.63171 290
29.65182 312
29.67194 257
29.69205 291
29.71216 293
29.73228 302
29.75239 302
29.7725 291
29.79262 263
29.81273 274
29.83285 298
29.85296 282
29.87307 309
29.89319 292
29.9133 276
29.93341 266
29.95353 275
29.97364 281
29.99376 337
30.01387 323
30.03398 286
30.0541 340
30.07421 360
30.09432 347
30.11444 418
30.13455 351
30.15467 426
30.17478 427
30.19489 446
30.21501 396
30.23512 383
30.25523 372
30.27535 327
30.29546 297
30.31557 291
30.33569 300
30.3558 276
30.37592 275
30.39603 266
30.41614 242
30.43626 224
30.45637 262
30.47648 226
30.4966 237
30.51671 243
30.53683 303
30.55694 248
30.57705 272
30.59717 262
30.61728 308
30.63739 307
30.65751 371
30.67762 399
30.69773 396
30.71785 416
30.73796 391
30.75808 442
30.77819 390
30.7983 392
30.81842 404
30.83853 432
30.85864 350
30.87876 313
30.89887 338
30.91899 341
30.9391 288
30.95921 284
30.97933 264
30.99944 258
31.01955 226
31.03967 223
31.05978 239
31.0799 217
31.10001 193
31.12012 203
31.14024 236
31.16035 201
31.18046 220
31.20058 239
31.22069 191
31.2408 200
31.26092 197
31.28103 220
31.30115 220
31.32126 206
31.34137 216
31.36149 191
31.3816 177
31.40171 200
31.42183 180
31.44194 209
31.46206 208
31.48217 180
31.50228 206
31.5224 181
31.54251 194
31.56262 179
31.58274 209
31.60285 179
31.62297 183
31.64308 198
31.66319 208
31.68331 192
31.70342 183
31.72353 232
31.74365 171
31.76376 202
31.78387 186
31.80399 192
31.8241 201
31.84422 207
31.86433 198
31.88444 206
31.90456 194
31.92467 197
31.94478 173
31.9649 219
31.98501 235
32.00513 202
32.02524 193
32.04535 217
32.06547 217
32.08558 235
32.10569 267
32.12581 260
32.14592 272
32.16604 250
32.18615 270
32.20626 241
32.22638 257
32.24649 266
32.2666 263
32.28672 231
32.30683 268
32.32694 276
32.34706 248
32.36717 267
32.38729 280
32.4074 270
32.42751 268
32.44763 277
32.46774 245
32.48785 234
32.50797 242
32.52808 233
32.5482 218
32.56831 205
32.58842 196
32.60854 206
32.62865 195
32.64876 175
32.66888 193
32.68899 212
32.7091 211
32.72922 196
32.74933 194
32.76945 187
32.78956 188
32.80967 173
32.82979 190
32.8499 174
32.87001 214
32.89013 176
32.91024 182
32.93036 206
32.95047 189
32.97058 160
32.9907 175
33.01081 210
33.03092 199
33.05104 193
33.07115 193
33.09127 222
33.11138 221
33.13149 178
33.15161 190
33.17172 192
33.19183 197
33.21195 177
33.23206 188
33.25217 212
33.27229 210
33.2924 198
33.31252 188
33.33263 199
33.35274 198
33.37286 179
33.39297 193
33.41308 196
33.4332 209
33.45331 187
33.47343 182
33.49354 200
33.51365 175
33.53377 196
33.55388 162
33.57399 165
33.59411 205
33.61422 195
33.63434 183
33.65445 188
33.67456 161
33.69468 191
33.71479 191
33.7349 184
33.75502 186
33.77513 164
33.79524 176
33.81536 193
33.83547 182
33.85559 192
33.8757 200
33.89581 168
33.91593 194
33.93604 189
33.95615 196
33.97627 182
33.99638 208
34.0165 199
34.03661 218
34.05672 230
34.07684 203
34.09695 259
34.11706 279
34.13718 296
34.15729 304
34.17741 301
34.19752 331
34.21763 303
34.23775 328
34.25786 257
34.27797 262
34.29809 272
34.3182 268
34.33831 247
34.35843 262
34.37854 266
34.39866 251
34.41877 247
34.43888 279
34.459 265
34.47911 272
34.49922 267
34.51934 248
34.53945 259
34.55957 284
34.57968 259
34.59979 288
34.61991 303
34.64002 299
34.66013 253
34.68025 267
34.70036 270
34.72047 290
34.74059 277
34.7607 289
34.78082 298
34.80093 284
34.82104 296
34.84116 313
34.86127 328
34.88138 321
34.9015 298
34.92161 302
34.94173 290
34.96184 330
34.98195 281
35.00207 292
35.02218 280
35.04229 321
35.06241 291
35.08252 292
35.10264 281
35.12275 317
35.14286 258
35.16298 274
35.18309 251
35.2032 269
35.22332 258
35.24343 282
35.26354 276
35.28366 300
35.30377 308
35.32389 279
35.344 314
35.36411 291
35.38423 319
35.40434 336
35.42445 318
35.44457 306
35.46468 316
35.4848 338
35.50491 299
35.52502 347
35.54514 332
35.56525 322
35.58536 274
35.60548 303
35.62559 294
35.64571 285
35.66582 256
35.68593 261
35.70605 267
35.72616 257
35.74627 244
35.76639 242
35.7865 267
35.80661 243
35.82673 241
35.84684 230
35.86696 229
35.88707 266
35.90718 259
35.9273 247
35.94741 278
35.96752 235
35.98764 218
36.00775 237
36.02787 239
36.04798 234
36.06809 225
36.08821 235
36.10832 243
36.12843 257
36.14855 250
36.16866 242
36.18878 251
36.20889 261
36.229 251
36.24912 291
36.26923 294
36.28934 335
36.30946 356
36.32957 383
36.34968 438
36.3698 548
36.38991 784
36.41003 944
36.43014 1181
36.45025 1430
36.47037 1749
36.49048 2040
36.51059 2100
36.53071 1992
36.55082 1917
36.57094 1581
36.59105 1416
36.61116 1168
36.63128 1004
36.65139 809
36.6715 538
36.69162 414
36.71173 392
36.73184 319
36.75196 317
36.77207 318
36.79219 307
36.8123 301
36.83241 284
36.85253 274
36.87264 315
36.89275 302
36.91287 320
36.93298 320
36.9531 307
36.97321 305
36.99332 293
37.01344 265
37.03355 256
37.05366 282
37.07378 256
37.09389 252
37.11401 213
37.13412 234
37.15423 224
37.17435 229
37.19446 250
37.21457 218
37.23469 236
37.2548 228
37.27491 209
37.29503 201
37.31514 216
37.33526 201
37.35537 206
37.37548 184
37.3956 217
37.41571 196
37.43582 193
37.45594 172
37.47605 209
37.49617 206
37.51628 226
37.53639 191
37.55651 218
37.57662 236
37.59673 201
37.61685 228
37.63696 207
37.65708 187
37.67719 201
37.6973 227
37.71742 220
37.73753 218
37.75764 202
37.77776 210
37.79787 216
37.81798 209
37.8381 192
37.85821 207
37.87833 210
37.89844 178
37.91855 182
37.93867 219
37.95878 177
37.97889 200
37.99901 204
38.01912 168
38.03924 179
38.05935 201
38.07946 213
38.09958 208
38.11969 202
38.1398 189
38.15992 220
38.18003 217
38.20015 228
38.22026 208
38.24037 224
38.26049 218
38.2806 217
38.30071 249
38.32083 215
38.34094 217
38.36105 213
38.38117 235
38.40128 254
38.4214 255
38.44151 225
38.46162 252
38.48174 250
38.50185 251
38.52196 249
38.54208 279
38.56219 271
38.58231 257
38.60242 258
38.62253 255
38.64265 222
38.66276 227
38.68287 206
38.70299 258
38.7231 195
38.74321 185
38.76333 203
38.78344 221
38.80356 195
38.82367 187
38.84378 205
38.8639 227
38.88401 199
38.90412 188
38.92424 217
38.94435 215
38.96447 194
38.98458 203
39.00469 231
39.02481 221
39.04492 231
39.06503 231
39.08515 201
39.10526 253
39.12538 275
39.14549 248
39.1656 289
39.18572 286
39.20583 339
39.22594 353
39.24606 394
39.26617 447
39.28628 486
39.3064 673
39.32651 753
39.34663 983
39.36674 1269
39.38685 1523
39.40697 1650
39.42708 1879
39.44719 1829
39.46731 1721
39.48742 1461
39.50754 1254
39.52765 1049
39.54776 975
39.56788 776
39.58799 602
39.6081 478
39.62822 334
39.64833 301
39.66845 271
39.68856 258
39.70867 241
39.72879 245
39.7489 208
39.76901 221
39.78913 220
39.80924 224
39.82935 210
39.84947 220
39.86958 215
39.8897 207
39.90981 238
39.92992 217
39.95004 237
39.97015 264
39.99026 222
40.01038 253
40.03049 250
40.05061 254
40.07072 255
40.09083 321
40.11095 378
40.13106 446
40.15117 483
40.17129 657
40.1914 769
40.21152 904
40.23163 941
40.25174 1015
40.27186 965
40.29197 926
40.31208 796
40.3322 690
40.35231 688
40.37242 597
40.39254 529
40.41265 411
40.43277 297
40.45288 259
40.47299 269
40.49311 229
40.51322 214
40.53333 233
40.55345 204
40.57356 201
40.59368 210
40.61379 203
40.6339 182
40.65402 177
40.67413 205
40.69424 212
40.71436 206
40.73447 200
40.75458 201
40.7747 201
40.79481 200
40.81493 220
40.83504 201
40.85515 202
40.87527 211
40.89538 175
40.91549 228
40.93561 203
40.95572 176
40.97584 189
40.99595 214
41.01606 198
41.03618 180
41.05629 198
41.0764 219
41.09652 170
41.11663 194
41.13675 215
41.15686 204
41.17697 204
41.19709 195
41.2172 181
41.23731 212
41.25743 200
41.27754 184
41.29765 195
41.31777 170
41.33788 217
41.358 200
41.37811 194
41.39822 192
41.41834 251
41.43845 208
41.45856 225
41.47868 195
41.49879 193
41.51891 235
41.53902 214
41.55913 230
41.57925 234
41.59936 264
41.61947 255
41.63959 300
41.6597 299
41.67982 322
41.69993 352
41.72004 376
41.74016 391
41.76027 364
41.78038 392
41.8005 379
41.82061 372
41.84072 360
41.86084 325
41.88095 310
41.90107 304
41.92118 268
41.94129 246
41.96141 225
41.98152 250
42.00163 223
42.02175 263
42.04186 220
42.06198 219
42.08209 234
42.1022 237
42.12232 244
42.14243 253
42.16254 263
42.18266 307
42.20277 290
42.22289 293
42.243 365
42.26311 415
42.28323 483
42.30334 611
42.32345 815
42.34357 923
42.36368 1165
42.38379 1270
42.40391 1452
42.42402 1470
42.44414 1326
42.46425 1113
42.48436 966
42.50448 887
42.52459 860
42.5447 753
42.56482 584
42.58493 478
42.60505 354
42.62516 296
42.64527 284
42.66539 279
42.6855 263
42.70561 244
42.72573 232
42.74584 228
42.76595 241
42.78607 216
42.80618 199
42.8263 215
42.84641 227
42.86652 225
42.88664 178
42.90675 218
42.92686 197
42.94698 209
42.96709 184
42.98721 208
43.00732 172
43.02743 186
43.04755 198
43.06766 185
43.08777 173
43.10789 183
43.128 168
43.14812 198
43.16823 179
43.18834 179
43.20846 178
43.22857 196
43.24868 163
43.2688 193
43.28891 192
43.30902 191
43.32914 179
43.34925 184
43.36937 172
43.38948 196
43.40959 193
43.42971 153
43.44982 229
43.46993 200
43.49005 191
43.51016 177
43.53028 209
43.55039 196
43.5705 196
43.59062 176
43.61073 200
43.63084 175
43.65096 164
43.67107 167
43.69119 180
43.7113 183
43.73141 184
43.75153 184
43.77164 179
43.79175 164
43.81187 187
43.83198 185
43.85209 158
43.87221 187
43.89232 176
43.91244 161
43.93255 174
43.95266 176
43.97278 161
43.99289 175
44.013 169
44.03312 175
44.05323 202
44.07335 169
44.09346 184
44.11357 178
44.13369 185
44.1538 190
44.17391 202
44.19403 211
44.21414 195
44.23426 201
44.25437 184
44.27448 181
44.2946 193
44.31471 216
44.33482 201
44.35494 196
44.37505 190
44.39516 175
44.41528 165
44.43539 166
44.45551 197
44.47562 196
44.49573 189
44.51585 170
44.53596 181
44.55607 181
44.57619 175
44.5963 187
44.61642 202
44.63653 188
44.65664 189
44.67676 199
44.69687 190
44.71698 168
44.7371 173
44.75721 175
44.77732 182
44.79744 169
44.81755 196
44.83767 185
44.85778 153
44.87789 191
44.89801 192
44.91812 186
44.93823 187
44.95835 166
44.97846 197
44.99858 209
45.01869 188
45.0388 182
45.05892 159
45.07903 177
45.09914 175
45.11926 185
45.13937 191
45.15949 192
45.1796 175
45.19971 176
45.21983 189
45.23994 200
45.26005 171
45.28017 195
45.30028 201
45.32039 173
45.34051 231
45.36062 248
45.38074 216
45.40085 230
45.42096 250
45.44108 285
45.46119 261
45.4813 264
45.50142 231
45.52153 287
45.54165 294
45.56176 355
45.58187 322
45.60199 400
45.6221 459
45.64221 515
45.66233 584
45.68244 736
45.70256 825
45.72267 889
45.74278 990
45.7629 989
45.78301 987
45.80312 820
45.82324 728
45.84335 604
45.86346 653
45.88358 599
45.90369 526
45.92381 431
45.94392 329
45.96403 284
45.98415 250
46.00426 228
46.02437 231
46.04449 210
46.0646 192
46.08472 219
46.10483 204
46.12494 207
46.14506 219
46.16517 233
46.18528 203
46.2054 195
46.22551 212
46.24563 187
46.26574 188
46.28585 198
46.30597 177
46.32608 187
46.34619 168
46.36631 179
46.38642 175
46.40653 176
46.42665 176
46.44676 180
46.46688 179
46.48699 178
46.5071 168
46.52722 173
46.54733 187
46.56744 184
46.58756 181
46.60767 165
46.62779 174
46.6479 183
46.66801 182
46.68813 182
46.70824 172
46.72835 191
46.74847 176
46.76858 144
46.78869 175
46.80881 150
46.82892 187
46.84904 161
46.86915 169
46.88926 192
46.90938 208
46.92949 172
46.9496 186
46.96972 188
46.98983 211
47.00995 203
47.03006 195
47.05017 201
47.07029 209
47.0904 222
47.11051 206
47.13063 219
47.15074 225
47.17086 199
47.19097 207
47.21108 201
47.2312 203
47.25131 187
47.27142 187
47.29154 198
47.31165 200
47.33176 201
47.35188 174
47.37199 211
47.39211 217
47.41222 199
47.43233 218
47.45245 215
47.47256 182
47.49267 199
47.51279 182
47.5329 190
47.55302 207
47.57313 203
47.59324 160
47.61336 163
47.63347 162
47.65358 177
47.6737 171
47.69381 182
47.71393 164
47.73404 183
47.75415 181
47.77427 174
47.79438 187
47.81449 166
47.83461 159
47.85472 174
47.87483 153
47.89495 161
47.91506 155
47.93518 166
47.95529 141
47.9754 163
47.99552 167
48.01563 178
48.03574 170
48.05586 173
48.07597 169
48.09609 163
48.1162 159
48.13631 160
48.15643 167
48.17654 187
48.19665 155
48.21677 169
48.23688 157
48.257 169
48.27711 137
48.29722 192
48.31734 177
48.33745 188
48.35756 163
48.37768 201
48.39779 174
48.4179 168
48.43802 181
48.45813 159
48.47825 208
48.49836 172
48.51847 173
48.53859 170
48.5587 174
48.57881 180
48.59893 183
48.61904 191
48.63916 186
48.65927 193
48.67938 210
48.6995 197
48.71961 202
48.73972 226
48.75984 205
48.77995 212
48.80006 239
48.82018 191
48.84029 218
48.86041 189
48.88052 229
48.90063 242
48.92075 230
48.94086 239
48.96097 225
48.98109 236
49.0012 208
49.02132 222
49.04143 222
49.06154 211
49.08166 222
49.10177 199
49.12188 226
49.142 173
49.16211 231
49.18223 189
49.20234 210
49.22245 217
49.24257 199
49.26268 192
49.28279 192
49.30291 193
49.32302 173
49.34313 194
49.36325 182
49.38336 180
49.40348 193
49.42359 169
49.4437 198
49.46382 172
49.48393 201
49.50404 195
49.52416 211
49.54427 195
49.56439 211
49.5845 218
49.60461 230
49.62473 217
49.64484 218
49.66495 244
49.68507 219
49.70518 265
49.7253 259
49.74541 303
49.76552 303
49.78564 331
49.80575 331
49.82586 379
49.84598 359
49.86609 467
49.8862 522
49.90632 555
49.92643 729
49.94655 843
49.96666 1095
49.98677 1270
50.00689 1670
50.027 2072
50.04711 2569
50.06723 2853
50.08734 3103
50.10746 2951
50.12757 2824
50.14768 2470
50.1678 2057
50.18791 1719
50.20802 1680
50.22814 1676
50.24825 1535
50.26837 1189
50.28848 918
50.30859 668
50.32871 527
50.34882 440
50.36893 389
50.38905 393
50.40916 409
50.42927 392
50.44939 414
50.4695 465
50.48962 468
50.50973 476
50.52984 435
50.54996 444
50.57007 426
50.59018 449
50.6103 399
50.63041 423
50.65053 357
50.67064 379
50.69075 349
50.71087 326
50.73098 329
50.75109 310
50.77121 294
50.79132 271
50.81143 266
50.83155 259
50.85166 258
50.87178 259
50.89189 239
50.912 231
50.93212 246
50.95223 246
50.97234 224
50.99246 204
51.01257 218
51.03269 227
51.0528 216
51.07291 203
51.09303 189
51.11314 190
51.13325 170
51.15337 211
51.17348 175
51.1936 166
51.21371 176
51.23382 170
51.25394 169
51.27405 177
51.29416 175
51.31428 194
51.33439 146
51.3545 159
51.37462 172
51.39473 176
51.41485 167
51.43496 165
51.45507 146
51.47519 164
51.4953 159
51.51541 179
51.53553 169
51.55564 167
51.57576 170
51.59587 152
51.61598 181
51.6361 160
51.65621 170
51.67632 164
51.69644 170
51.71655 153
51.73667 167
51.75678 174
51.77689 174
51.79701 161
51.81712 155
51.83723 139
51.85735 174
51.87746 174
51.89757 170
51.91769 155
51.9378 168
51.95792 170
51.97803 148
51.99814 155
52.01826 152
52.03837 151
52.05848 159
52.0786 168
52.09871 157
52.11883 165
52.13894 154
52.15905 171
52.17917 140
52.19928 140
52.21939 160
52.23951 162
52.25962 168
52.27974 147
52.29985 152
52.31996 170
52.34008 148
52.36019 146
52.3803 143
52.40042 166
52.42053 163
52.44064 166
52.46076 171
52.48087 170
52.50099 187
52.5211 167
52.54121 187
52.56133 186
52.58144 150
52.60155 168
52.62167 179
52.64178 162
52.6619 195
52.68201 166
52.70212 163
52.72224 195
52.74235 165
52.76246 176
52.78258 177
52.80269 165
52.8228 160
52.84292 177
52.86303 173
52.88315 159
52.90326 188
52.92337 146
52.94349 164
52.9636 175
52.98371 159
53.00383 174
53.02394 146
53.04406 168
53.06417 166
53.08428 175
53.1044 162
53.12451 163
53.14462 162
53.16474 165
53.18485 148
53.20497 176
53.22508 153
53.24519 157
53.26531 181
53.28542 174
53.30553 168
53.32565 158
53.34576 164
53.36587 174
53.38599 176
53.4061 182
53.42622 194
53.44633 181
53.46644 172
53.48656 204
53.50667 188
53.52678 183
53.5469 179
53.56701 208
53.58713 156
53.60724 209
53.62735 215
53.64747 179
53.66758 189
53.68769 193
53.70781 176
53.72792 182
53.74804 183
53.76815 169
53.78826 177
53.80838 188
53.82849 210
53.8486 190
53.86872 187
53.88883 194
53.90894 198
53.92906 199
53.94917 179
53.96929 165
53.9894 177
54.00951 190
54.02963 210
54.04974 177
54.06985 194
54.08997 179
54.11008 215
54.1302 170
54.15031 193
54.17042 199
54.19054 198
54.21065 196
54.23076 195
54.25088 194
54.27099 200
54.29111 211
54.31122 218
54.33133 222
54.35145 203
54.37156 203
54.39167 192
54.41179 190
54.4319 230
54.45201 220
54.47213 220
54.49224 192
54.51236 237
54.53247 234
54.55258 225
54.5727 256
54.59281 240
54.61292 278
54.63304 275
54.65315 334
54.67327 348
54.69338 419
54.71349 519
54.73361 612
54.75372 709
54.77383 775
54.79395 902
54.81406 928
54.83417 974
54.85429 944
54.8744 814
54.89452 745
54.91463 630
54.93474 633
54.95486 631
54.97497 583
54.99508 545
55.0152 532
55.03531 420
55.05543 332
55.07554 274
55.09565 288
55.11577 278
55.13588 321
55.15599 323
55.17611 365
55.19622 419
55.21634 437
55.23645 488
55.25656 477
55.27668 554
55.29679 510
55.3169 492
55.33702 442
55.35713 418
55.37724 356
55.39736 353
55.41747 367
55.43759 352
55.4577 302
55.47781 305
55.49793 253
55.51804 275
55.53815 237
55.55827 220
55.57838 225
55.5985 229
55.61861 201
55.63872 205
55.65884 185
55.67895 180
55.69906 175
55.71918 177
55.73929 175
55.75941 181
55.77952 184
55.79963 168
55.81975 170
55.83986 170
55.85997 177
55.88009 181
55.9002 175
55.92031 195
55.94043 177
55.96054 169
55.98066 178
56.00077 179
56.02088 194
56.041 171
56.06111 170
56.08122 179
56.10134 165
56.12145 168
56.14157 172
56.16168 166
56.18179 157
56.20191 177
56.22202 161
56.24213 169
56.26225 193
56.28236 163
56.30248 181
56.32259 164
56.3427 162
56.36282 165
56.38293 152
56.40304 171
56.42316 177
56.44327 170
56.46338 177
56.4835 159
56.50361 175
56.52373 181
56.54384 173
56.56395 171
56.58407 167
56.60418 175
56.62429 173
56.64441 177
56.66452 186
56.68464 188
56.70475 192
56.72486 190
56.74498 182
56.76509 182
56.7852 195
56.80532 169
56.82543 165
56.84554 156
56.86566 175
56.88577 172
56.90589 206
56.926 179
56.94611 162
56.96623 157
56.98634 160
57.00645 156
57.02657 184
57.04668 184
57.0668 169
57.08691 194
57.10702 197
57.12714 219
57.14725 222
57.16736 233
57.18748 220
57.20759 208
57.22771 220
57.24782 200
57.26793 228
57.28805 203
57.30816 211
57.32827 198
57.34839 227
57.3685 199
57.38861 185
57.40873 174
57.42884 199
57.44896 190
57.46907 180
57.48918 182
57.5093 168
57.52941 181
57.54952 160
57.56964 161
57.58975 176
57.60987 152
57.62998 160
57.65009 164
57.67021 151
57.69032 171
57.71043 154
57.73055 143
57.75066 167
57.77078 171
57.79089 164
57.811 155
57.83112 159
57.85123 164
57.87134 163
57.89146 159
57.91157 204
57.93168 162
57.9518 175
57.97191 159
57.99203 167
58.01214 164
58.03225 171
58.05237 157
58.07248 191
58.09259 151
58.11271 165
58.13282 159
58.15294 182
58.17305 170
58.19316 162
58.21328 165
58.23339 187
58.2535 177
58.27362 186
58.29373 176
58.31385 182
58.33396 167
58.35407 182
58.37419 170
58.3943 171
58.41441 156
58.43453 172
58.45464 181
58.47475 197
58.49487 182
58.51498 166
58.5351 182
58.55521 179
58.57532 185
58.59544 215
58.61555 176
58.63566 173
58.65578 180
58.67589 197
58.69601 196
58.71612 181
58.73623 175
58.75635 178
58.77646 183
58.79657 202
58.81669 173
58.8368 199
58.85691 177
58.87703 159
58.89714 168
58.91726 189
58.93737 170
58.95748 163
58.9776 157
58.99771 176
59.01782 167
59.03794 164
59.05805 155
59.07817 165
59.09828 179
59.11839 182
59.13851 177
59.15862 181
59.17873 146
59.19885 172
59.21896 169
59.23908 176
59.25919 170
59.2793 172
59.29942 208
59.31953 189
59.33964 206
59.35976 195
59.37987 212
59.39998 183
59.4201 220
59.44021 199
59.46033 214
59.48044 250
59.50055 248
59.52067 228
59.54078 248
59.56089 263
59.58101 273
59.60112 269
59.62124 293
59.64135 294
59.66146 340
59.68158 364
59.70169 427
59.7218 519
59.74192 552
59.76203 684
59.78215 791
59.80226 1006
59.82237 1242
59.84249 1489
59.8626 1706
59.88271 1906
59.90283 2012
59.92294 2018
59.94305 1771
59.96317 1612
59.98328 1292
60.0034 1119
60.02351 1027
60.04362 1127
60.06374 1112
60.08385 1036
60.10396 911
60.12408 728
60.14419 603
60.16431 427
60.18442 347
60.20453 326
60.22465 294
60.24476 222
60.26487 220
60.28499 223
60.3051 226
60.32522 225
60.34533 248
60.36544 197
60.38556 214
60.40567 195
60.42578 209
60.4459 180
60.46601 196
60.48612 167
60.50624 198
60.52635 186
60.54647 199
60.56658 198
60.58669 191
60.60681 175
60.62692 202
60.64703 181
60.66715 163
60.68726 179
60.70738 195
60.72749 163
60.7476 179
60.76772 181
60.78783 195
60.80794 192
60.82806 190
60.84817 163
60.86828 188
60.8884 162
60.90851 206
60.92863 165
60.94874 170
60.96885 181
60.98897 203
61.00908 171
61.02919 202
61.04931 206
61.06942 207
61.08954 215
61.10965 197
61.12976 206
61.14988 190
61.16999 213
61.1901 205
61.21022 196
61.23033 214
61.25045 198
61.27056 225
61.29067 204
61.31079 209
61.3309 182
61.35101 174
61.37113 207
61.39124 185
61.41135 201
61.43147 194
61.45158 189
61.4717 188
61.49181 188
61.51192 183
61.53204 197
61.55215 176
61.57226 180
61.59238 175
61.61249 190
61.63261 180
61.65272 206
61.67283 191
61.69295 202
61.71306 205
61.73317 210
61.75329 177
61.7734 194
61.79352 185
61.81363 203
61.83374 186
61.85386 179
61.87397 189
61.89408 181
61.9142 171
61.93431 172
61.95442 181
61.97454 197
61.99465 196
62.01477 207
62.03488 211
62.05499 189
62.07511 231
62.09522 182
62.11533 207
62.13545 198
62.15556 192
62.17568 183
62.19579 180
62.2159 169
62.23602 200
62.25613 236
62.27624 195
62.29636 223
62.31647 181
62.33659 198
62.3567 202
62.37681 190
62.39693 189
62.41704 164
62.43715 166
62.45727 175
62.47738 199
62.49749 182
62.51761 186
62.53772 196
62.55784 208
62.57795 182
62.59806 201
62.61818 189
62.63829 183
62.6584 210
62.67852 185
62.69863 176
62.71875 172
62.73886 205
62.75897 206
62.77909 196
62.7992 196
62.81931 204
62.83943 199
62.85954 184
62.87965 204
62.89977 186
62.91988 191
62.94 188
62.96011 190
62.98022 227
63.00034 216
63.02045 207
63.04056 222
63.06068 185
63.08079 201
63.10091 209
63.12102 177
63.14113 192
63.16125 183
63.18136 200
63.20147 194
63.22159 211
63.2417 190
63.26182 197
63.28193 197
63.30204 208
63.32216 207
63.34227 189
63.36238 176
63.3825 187
63.40261 166
63.42272 167
63.44284 191
63.46295 186
63.48307 210
63.50318 179
63.52329 178
63.54341 172
63.56352 178
63.58363 172
63.60375 184
63.62386 194
63.64398 191
63.66409 213
63.6842 192
63.70432 205
63.72443 206
63.74454 244
63.76466 237
63.78477 242
63.80489 280
63.825 286
63.84511 320
63.86523 297
63.88534 369
63.90545 406
63.92557 435
63.94568 482
63.96579 511
63.98591 525
64.00602 512
64.02614 454
64.04625 457
64.06636 411
64.08648 358
64.10659 368
64.1267 373
64.14682 357
64.16693 364
64.18705 358
64.20716 296
64.22727 282
64.24739 249
64.2675 210
64.28761 192
64.30773 193
64.32784 199
64.34796 181
64.36807 181
64.38818 176
64.4083 167
64.42841 162
64.44852 168
64.46864 176
64.48875 165
64.50886 160
64.52898 172
64.54909 171
64.56921 165
64.58932 169
64.60943 163
64.62955 139
64.64966 161
64.66977 177
64.68989 144
64.71 168
64.73012 166
64.75023 179
64.77034 168
64.79046 168
64.81057 152
64.83068 163
64.8508 164
64.87091 145
64.89102 198
64.91114 182
64.93125 176
64.95137 183
64.97148 158
64.99159 155
65.01171 198
65.03182 180
65.05193 179
65.07205 199
65.09216 184
65.11228 171
65.13239 215
65.1525 202
65.17262 195
65.19273 186
65.21284 189
65.23296 204
65.25307 205
65.27319 190
65.2933 229
65.31341 194
65.33353 186
65.35364 159
65.37375 186
65.39387 193
65.41398 203
65.43409 208
65.45421 194
65.47432 186
65.49444 177
65.51455 195
65.53466 205
65.55478 205
65.57489 185
65.595 213
65.61512 185
65.63523 232
65.65535 195
65.67546 205
65.69557 249
65.71569 237
65.7358 217
65.75591 236
65.77603 232
65.79614 221
65.81626 223
65.83637 193
65.85648 192
65.8766 207
65.89671 180
65.91682 221
65.93694 173
65.95705 217
65.97716 176
65.99728 187
66.01739 186
66.03751 181
66.05762 174
66.07773 164
66.09785 177
66.11796 200
66.13807 179
66.15819 178
66.1783 192
66.19842 186
66.21853 157
66.23864 198
66.25876 187
66.27887 199
66.29898 199
66.3191 195
66.33921 196
66.35933 171
66.37944 206
66.39955 183
66.41967 199
66.43978 188
66.45989 180
66.48001 191
66.50012 180
66.52023 176
66.54035 171
66.56046 176
66.58058 186
66.60069 171
66.6208 161
66.64092 181
66.66103 177
66.68114 184
66.70126 144
66.72137 162
66.74149 164
66.7616 179
66.78171 157
66.80183 157
66.82194 151
66.84205 178
66.86217 162
66.88228 158
66.90239 189
66.92251 163
66.94262 183
66.96274 180
66.98285 157
67.00296 166
67.02308 185
67.04319 174
67.0633 207
67.08342 213
67.10353 180
67.12365 199
67.14376 195
67.16387 177
67.18399 215
67.2041 160
67.22421 223
67.24433 199
67.26444 213
67.28456 198
67.30467 235
67.32478 219
67.3449 227
67.36501 227
67.38512 230
67.40524 261
67.42535 256
67.44546 283
67.46558 307
67.48569 343
67.50581 372
67.52592 459
67.54603 480
67.56615 620
67.58626 670
67.60637 794
67.62649 923
67.6466 1166
67.66672 1153
67.68683 1236
67.70694 1236
67.72706 1140
67.74717 997
67.76728 852
67.7874 776
67.80751 796
67.82763 803
67.84774 885
67.86785 902
67.88797 847
67.90808 915
67.92819 841
67.94831 849
67.96842 872
67.98853 933
68.00865 1023
68.02876 1284
68.04888 1376
68.06899 1582
68.0891 1620
68.10922 1683
68.12933 1579
68.14944 1443
68.16956 1407
68.18967 1323
68.20979 1363
68.2299 1430
68.25001 1556
68.27013 1523
68.29024 1547
68.31035 1281
68.33047 1128
68.35058 861
68.3707 731
68.39081 662
68.41092 616
68.43104 649
68.45115 618
68.47126 625
68.49138 504
68.51149 427
68.5316 358
68.55172 326
68.57183 267
68.59195 257
68.61206 248
68.63217 210
68.65229 207
68.6724 219
68.69251 209
68.71263 202
68.73274 204
68.75286 165
68.77297 190
68.79308 191
68.8132 186
68.83331 207
68.85342 194
68.87354 183
68.89365 170
68.91376 189
68.93388 173
68.95399 166
68.97411 173
68.99422 170
69.01433 170
69.03445 186
69.05456 152
69.07467 163
69.09479 146
69.1149 172
69.13502 161
69.15513 168
69.17524 187
69.19536 167
69.21547 176
69.23558 155
69.2557 164
69.27581 155
69.29593 131
69.31604 147
69.33615 169
69.35627 154
69.37638 156
69.39649 154
69.41661 140
69.43672 165
69.45683 192
69.47695 168
69.49706 197
69.51718 164
69.53729 147
69.5574 162
69.57752 141
69.59763 171
69.61774 156
69.63786 176
69.65797 164
69.67809 133
69.6982 149
69.71831 171
69.73843 151
69.75854 156
69.77865 153
69.79877 147
69.81888 147
69.839 149
69.85911 174
69.87922 145
69.89934 151
69.91945 155
69.93956 167
69.95968 191
69.97979 167
69.9999 171
70.02002 131
70.04013 184
70.06025 148
70.08036 154
70.10047 180
70.12059 190
70.1407 163
70.16081 171
70.18093 170
70.20104 182
70.22116 165
70.24127 172
70.26138 147
70.2815 150
70.30161 169
70.32172 166
70.34184 154
70.36195 138
70.38207 143
70.40218 159
70.42229 179
70.44241 148
70.46252 176
70.48263 162
70.50275 142
70.52286 150
70.54297 152
70.56309 157
70.5832 158
70.60332 160
70.62343 172
70.64354 166
70.66366 179
70.68377 191
70.70388 173
70.724 172
70.74411 197
70.76423 150
70.78434 151
70.80445 154
70.82457 161
70.84468 148
70.86479 165
70.88491 157
70.90502 150
70.92513 146
70.94525 167
70.96536 161
70.98548 129
71.00559 171
71.0257 143
71.04582 161
71.06593 127
71.08604 161
71.10616 161
71.12627 162
71.14639 134
71.1665 145
71.18661 153
71.20673 148
71.22684 136
71.24695 163
71.26707 137
71.28718 194
71.3073 161
71.32741 145
71.34752 192
71.36764 170
71.38775 151
71.40786 172
71.42798 165
71.44809 177
71.4682 164
71.48832 181
71.50843 171
71.52855 153
71.54866 202
71.56877 162
71.58889 195
71.609 168
71.62911 172
71.64923 155
71.66934 172
71.68946 181
71.70957 173
71.72968 173
71.7498 173
71.76991 166
71.79002 148
71.81014 149
71.83025 168
71.85037 167
71.87048 165
71.89059 167
71.91071 173
71.93082 160
71.95093 185
71.97105 157
71.99116 173
72.01127 162
72.03139 175
72.0515 195
72.07162 180
72.09173 156
72.11184 193
72.13196 182
72.15207 177
72.17218 182
72.1923 193
72.21241 180
72.23253 178
72.25264 163
72.27275 167
72.29287 187
72.31298 162
72.33309 160
72.35321 185
72.37332 182
72.39344 182
72.41355 200
72.43366 177
72.45378 124
72.47389 152
72.494 161
72.51412 158
72.53423 170
72.55434 163
72.57446 155
72.59457 159
72.61469 163
72.6348 156
72.65491 154
72.67503 164
72.69514 157
72.71525 157
72.73537 148
72.75548 161
72.7756 160
72.79571 165
72.81582 186
72.83594 182
72.85605 174
72.87616 160
72.89628 188
72.91639 185
72.9365 175
72.95662 172
72.97673 181
72.99685 182
73.01696 202
73.03707 188
73.05719 194
73.0773 182
73.09741 193
73.11753 208
73.13764 212
73.15776 226
73.17787 251
73.19798 211
73.2181 226
73.23821 252
73.25832 266
73.27844 291
73.29855 337
73.31867 354
73.33878 422
73.35889 450
73.37901 504
73.39912 571
73.41923 538
73.43935 511
73.45946 431
73.47957 403
73.49969 367
73.5198 336
73.53992 355
73.56003 321
73.58014 340
73.60026 322
73.62037 361
73.64048 374
73.6606 389
73.68071 294
73.70083 257
73.72094 212
73.74105 215
73.76117 220
73.78128 211
73.80139 201
73.82151 185
73.84162 148
73.86174 180
73.88185 187
73.90196 165
73.92208 153
73.94219 165
73.9623 178
73.98242 161
74.00253 174
74.02264 162
74.04276 152
74.06287 171
74.08299 181
74.1031 158
74.12321 163
74.14333 171
74.16344 168
74.18355 168
74.20367 153
74.22378 154
74.2439 171
74.26401 153
74.28412 144
74.30424 152
74.32435 156
74.34446 157
74.36458 177
74.38469 172
74.40481 171
74.42492 169
74.44503 175
74.46515 166
74.48526 171
74.50537 178
74.52549 155
74.5456 167
74.56571 159
74.58583 168
74.60594 194
74.62606 164
74.64617 151
74.66628 158
74.6864 169
74.70651 157
74.72662 177
74.74674 174
74.76685 162
74.78697 177
74.80708 184
74.82719 180
74.84731 176
74.86742 174
74.88753 168
74.90765 184
74.92776 179
74.94787 165
74.96799 174
74.9881 166
75.00822 197
