3.00117 22690.8558302294
3.02128 22154.4590040956
3.0414 21748
3.06151 21287.7485290112
3.08162 20661.1754336991
3.10174 19863.1012442445
3.12185 19696.640492612
3.14197 19153.9633792649
3.16208 18659.2699252603
3.18219 18296.4185557218
3.20231 17295.7758787681
3.22242 17312.697571469
3.24253 16499.9231202217
3.26265 16105.9403260765
3.28276 15461.3713289948
3.30288 14941.3061025243
3.32299 14687.1992364014
3.3431 14120
3.36322 13736.7642124265
3.38333 13460.2893756965
3.40344 12922.3999446724
3.42356 12766.7923161043
3.44367 12110.8065399558
3.46379 11817.1437223691
3.4839 11426
3.50401 11107.7946607453
3.52413 10578.2029527557
3.54424 10205.6893098773
3.56435 10104.6544059903
3.58447 9625.79228142619
3.60458 9227.24329729928
3.62469 9054.10194546634
3.64481 8737.7996117663
3.66492 8367.75939966727
3.68504 8085.83926537446
3.70515 7432.42260815367
3.72526 7575.0429865158
3.74538 7172.46020686979
3.76549 6896.08210576007
3.7856 6674
3.80572 6266.76633129684
3.82583 6216.91230856604
3.84595 6031.41313875507
3.86606 5773.64812098023
3.88617 5402.51828337125
3.90629 5181.03071770337
3.9264 5181
3.94651 4926.78944101107
3.96663 4575.92189704375
3.98674 4660.67428382774
4.00686 4201.8219237396
4.02697 4050.0191823655
4.04708 3995.15350588581
4.0672 3779
4.08731 3628.89361387066
4.10742 3393.88331803633
4.12754 3413.07091053615
4.14765 3322.59586857413
4.16776 3032.43554185759
4.18788 2942.02599937502
4.20799 2923.00199760645
4.22811 2892.94780287054
4.24822 2711.79148406936
4.26833 2525.76449726222
4.28845 2376.59160102359
4.30856 2262.94709100533
4.32867 2374.92082596108
4.34879 2299.06468941486
4.3689 2158
4.38902 1974.89342429446
4.40913 1992.17137616767
4.42924 2124.1894820199
4.44936 2100.34057838962
4.46947 1877.22573945953
4.48958 1839.00760597195
4.5097 1804
4.52981 1813.03919960041
4.54992 1843.84274129392
4.57004 1596.81075064382
4.59015 1672.93577615038
4.61027 1590.04254610863
4.63038 1650.97836125438
4.65049 1568.06176586956
4.67061 1519.03933497428
4.69072 1598.90138132019
4.71083 1359.76043229419
4.73095 1398.34720153757
4.75106 1479.08191978077
4.77118 1352.11310599646
4.79129 1319.99066629297
4.8114 1326
4.83152 1284.031312852
4.85163 1341.9431536244
4.87174 1210.80305897688
4.89186 1211.9122530006
4.91197 1215.09690887227
4.93209 1139.00142299758
4.9522 1183
4.97231 1101.98560680251
4.99243 1143.02339084723
5.01254 1094.88995999131
5.03265 1090.8771210012
5.05277 1111.14047058768
5.07288 966.046895766197
5.09299 1035.97163041552
5.11311 990.947297451105
5.13322 943.087511968089
5.15334 1059.922983013
5.17345 898.833678588817
5.19356 985.832771297368
5.21368 956.097806708877
5.23379 884.996768948048
5.2539 934
5.27402 864.909578614184
5.29413 826.050254859793
5.31425 878.996167586114
5.33436 820.090139501105
5.35447 812.026695115017
5.37459 772.013439270045
5.3947 771
5.41481 767.000143767856
5.43493 782.043235187376
5.45504 787.89400512003
5.47516 701.115560335699
5.49527 701.957643587441
5.51538 723.986657265942
5.5355 729
5.55561 712.978831802342
5.57572 661.970283008538
5.59584 677.107978976159
5.61595 722.018544012379
5.63606 665.120705390297
5.65618 634.013960801735
5.67629 626.998671867802
5.69641 626.991197650305
5.71652 592.966215420369
5.73663 568.969479735513
5.75675 557.019463420612
5.77686 581.944374585783
5.79697 604.9640352911
5.81709 617.009618330324
5.8372 576
5.85732 568.007027024649
5.87743 570.985690418047
5.89754 572.086195169366
5.91766 623.015892779391
5.93777 568.035478992459
5.95788 591.990307795062
5.978 565
5.99811 561.998274200936
6.01823 555.011840431587
6.03834 561.94385371891
6.05845 518.014451598763
6.07857 548.981160424628
6.09868 524.026372031653
6.11879 533.97594765168
6.13891 570.987040558074
6.15902 509.983805144994
6.17913 549.038009313755
6.19925 524.898216026538
6.21936 505.981350258273
6.23948 523.002292939413
6.25959 505.001522935949
6.2797 515
6.29982 504.037931146227
6.31993 559.988346365688
6.34004 494.931500149149
6.36016 514.979151545409
6.38027 508.948469012085
6.40039 557.011412465595
6.4205 471
6.44061 492.027082283209
6.46073 521.987710182689
6.48084 487.932813330724
6.50095 480.949464405221
6.52107 507.981236730163
6.54118 498.019364333622
6.56129 479.010788607591
6.58141 477.021514810361
6.60152 531.00471753834
6.62164 474.863607624378
6.64175 447.044050585662
6.66186 481.962976484054
6.68198 479.99344252718
6.70209 486.01640715527
6.7222 447
6.74232 520.02897976947
6.76243 487.969633012925
6.78255 506.026110226821
6.80266 491.025104074837
6.82277 496.98064062915
6.84289 487.025507965938
6.863 439
6.88311 495.001130985286
6.90323 443.981452978933
6.92334 494.089537880992
6.94346 475.147645197825
6.96357 409.004663485726
6.98368 457.965016105144
7.0038 451
7.02391 453.999196685364
7.04402 446.002794715071
7.06414 456.998840311797
7.08425 446.001138101244
7.10436 453.019026533319
7.12448 448.952389598148
7.14459 512.00252126752
7.16471 446.983426440474
7.18482 475.027440400549
7.20493 458.938517328973
7.22505 432.020481018917
7.24516 470.912459566773
7.26527 475.082763073048
7.28539 417.990421750339
7.3055 489
7.32562 433.947996372083
7.34573 436.044961546334
7.36584 457.001584402039
7.38596 450.976901437273
7.40607 474.989928182763
7.42618 456.023303064229
7.4463 442
7.46641 433.001333490905
7.48653 439.993051968246
7.50664 421.965802652634
7.52675 413.018552214713
7.54687 409.983328592349
7.56698 432.977451489466
7.58709 438.00884923842
7.60721 421.006260531744
7.62732 454.015449963678
7.64743 434.950935447618
7.66755 428.094802359128
7.68766 471.023192930813
7.70778 412.03952204398
7.72789 423.985360284687
7.748 430
7.76812 410.024686494756
7.78823 466.049284764
7.80834 453.949789889797
7.82846 447.972356799112
7.84857 474.95114126817
7.86869 490.009372309232
7.8888 449
7.90891 441.006463210544
7.92903 456.006433334756
7.94914 441.945510554988
7.96925 416.036101540917
7.98937 418.975102184045
8.00948 436.98936271496
8.0296 433
8.04971 416.999462033639
8.06982 432.018674692613
8.08994 434.960057863207
8.11005 413.010950976798
8.13016 447.918034021214
8.15028 460.028292407475
8.17039 428.992168486262
8.1905 483
8.21062 469.970058164283
8.23073 462.034551156663
8.25085 478.911696279913
8.27096 406.096856795581
8.29107 414.942144171626
8.31119 441.000768043541
8.3313 419
8.35141 430.025182639747
8.37153 480.001475654685
8.39164 437.938311169072
8.41176 436.017574550783
8.43187 429.936613976372
8.45198 502.960620947584
8.4721 474
8.49221 416.988383482284
8.51232 432.03585756719
8.53244 446.938515610542
8.55255 412.924082938402
8.57266 494.89502277561
8.59278 485.024883165416
8.61289 475.006279299823
8.63301 464.006230646712
8.65312 484.992599437963
8.67323 456.994167252882
8.69335 495.132800614339
8.71346 514.077037003349
8.73357 467.969880434492
8.75369 544.974939728024
8.7738 534
8.79392 535.014232592004
8.81403 551.026043441193
8.83414 577.083492842935
8.85426 612.999213813002
8.87437 582.043110818369
8.89448 581.978066568611
8.9146 600
8.93471 568.980375281887
8.95483 534.952538144563
8.97494 502.937600999506
8.99505 473.070482457162
9.01517 448.029668893478
9.03528 445.973371271304
9.05539 462.022528425835
9.07551 393.99931701666
9.09562 468.068710581351
9.11573 472.943077494439
9.13585 431.938731231995
9.15596 426.008119099709
9.17608 429.965057637975
9.19619 471.99926903473
9.2163 430
9.23642 421.009025404171
9.25653 446.078606426193
9.27664 474.884986289468
9.29676 380.037487889813
9.31687 445.930026205361
9.33699 424.018085748109
9.3571 425
9.37721 461.002377122164
9.39733 425.922599076192
9.41744 397.021440532789
9.43755 428.956247888517
9.45767 431.964667831911
9.47778 449.052097069997
9.4979 371
9.51801 455.028667591269
9.53812 431.949324937306
9.55824 418.070141165214
9.57835 449.910767706569
9.59846 381.999237561724
9.61858 450.962535750716
9.63869 418.021306861635
9.6588 412
9.67892 429.00900109296
9.69903 421.965735544573
9.71915 408.049296933501
9.73926 433.046201901745
9.75937 391.962835499631
9.77949 463.99203866249
9.7996 399
9.81971 384.007635049974
9.83983 402.023036879999
9.85994 416.037601094303
9.88006 434.984535592922
9.90017 423.043507167252
9.92028 399.996107027408
9.9404 426
9.96051 424.990898918884
9.98062 403.984908144522
10.00074 397.99604305698
10.02085 395.009507870769
10.04097 391.005490423629
10.06108 393.984562201227
10.08119 414.993256529642
10.10131 405.983222088853
10.12142 387.037208004317
10.14153 448.015429098437
10.16165 422.064569288677
10.18176 486.000555070752
10.20187 415.068852047404
10.22199 424.999278656946
10.2421 406
10.26222 442.999303157874
10.28233 402.970491804083
10.30244 418.010050583044
10.32256 403.994767203483
10.34267 426.982924082601
10.36278 426.979392732113
10.3829 456
10.40301 411.982076476372
10.42313 414.038284940083
10.44324 442.046728504214
10.46335 437.125289757919
10.48347 383.993774253538
10.50358 434.972904270978
10.52369 424.994992008013
10.54381 459.002190658158
10.56392 418.954378048907
10.58403 398.998662834115
10.60415 403.003768765596
10.62426 400.004303362976
10.64438 407.977991549281
10.66449 442.978804507553
10.6846 458
10.70472 387.96288543317
10.72483 400.02696529474
10.74494 402.013841279796
10.76506 415.996044879847
10.78517 410.982135316092
10.80529 436.99354625677
10.8254 421
10.84551 403.01016598065
10.86563 433.986703298691
10.88574 384.922015258553
10.90585 382.968282743336
10.92597 395.968137188182
10.94608 414.005153014209
10.9662 392
10.98631 414.027453843667
11.00642 465.010691394996
11.02654 433.923591301202
11.04665 414.024541601483
11.06676 414.95792575794
11.08688 433.017785105839
11.10699 393.007695075221
11.1271 416
11.14722 418.97883837116
11.16733 399.008035135851
11.18745 428.067005689406
11.20756 428.052024839863
11.22767 400.009592615137
11.24779 414.993708976098
11.2679 416
11.28801 423.999517160505
11.30813 422.026966279357
11.32824 446.995648233657
11.34836 432.953045815022
11.36847 486.958566260761
11.38858 449.085854596299
11.4087 376
11.42881 419.028762430779
11.44892 452.011993998258
11.46904 451.985841445927
11.48915 447.989037445208
11.50927 461.970937015342
11.52938 458.052005146643
11.54949 394.00705361086
11.56961 445.034733175092
11.58972 470.965907300297
11.60983 428.024044396148
11.62995 482.00785551424
11.65006 415.134097722677
11.67017 401.960020611736
11.69029 447.970672717897
11.7104 479
11.73052 420.986745447753
11.75063 462.051150278592
11.77074 468.033928383514
11.79086 488.048821974885
11.81097 438.013434930108
11.83108 480.961056188442
11.8512 483
11.87131 486.012855326268
11.89143 509.985195403465
11.91154 486.027137705509
11.93165 525.992058800582
11.95177 481.061808606349
11.97188 486.954884473138
11.99199 544.974202842944
12.01211 568.996642484185
12.03222 556.008095365865
12.05234 590.074314589634
12.07245 596.913572884253
12.09256 566.935245286819
12.11268 653.924755368958
12.13279 688.984562451674
12.1529 718
12.17302 699.02982144863
12.19313 767.052423660866
12.21324 774.10799557626
12.23336 860.942257799876
12.25347 824.031470972525
12.27359 881.941285541547
12.2937 986
12.31381 954.981002344317
12.33393 945.997055624983
12.35404 946.037976745838
12.37415 957.102488383209
12.39427 883.064234933315
12.41438 905.940282893553
12.4345 927
12.45461 802.946178111832
12.47472 743.949327513565
12.49484 701.011895132207
12.51495 718.125967297237
12.53506 622.079768262063
12.55518 636.035584803996
12.57529 540.031159541791
12.5954 547
12.61552 538.982919188075
12.63563 521.961923571654
12.65575 489.930731760428
12.67586 464.072885810533
12.69597 434.985470777839
12.71609 471.989380621896
12.7362 468
12.75631 485.001030975824
12.77643 461.954841264142
12.79654 428.902361315187
12.81666 392.960638732622
12.83677 446.963773122738
12.85688 423.026413364754
12.877 426
12.89711 428.984559419948
12.91722 387.991278002381
12.93734 412.03038425426
12.95745 409.966349166877
12.97757 436.991946066184
12.99768 412.028772509408
13.01779 398.003350953844
13.03791 386.990462875129
13.05802 379.026315803665
13.07813 417.005199028398
13.09825 395.01842179469
13.11836 428.000233530599
13.13847 392.023968087856
13.15859 406.000939191873
13.1787 374
13.19882 371.018363686464
13.21893 393.020283177142
13.23904 402.040065712902
13.25916 425.990736419845
13.27927 404.049160303171
13.29938 374.028705254592
13.3195 355
13.33961 382.023654202411
13.35973 415.987188506142
13.37984 373.925284711521
13.39995 372.926034677363
13.42007 408.96473169233
13.44018 411.010076726875
13.46029 389.021417562795
13.48041 349.999713115174
13.50052 394.060203019791
13.52064 425.972988009882
13.54075 379.878979844916
13.56086 363.955550887003
13.58098 396.989514907
13.60109 373.018584722899
13.6212 361
13.64132 407.015504569983
13.66143 383.963432509065
13.68154 386.038950388227
13.70166 399.017575033028
13.72177 372.039316455958
13.74189 361.998431919698
13.762 387
13.78211 436.993553224041
13.80223 374.935885095436
13.82234 386.064125920587
13.84245 396.056920196071
13.86257 368.987706178357
13.88268 404.983420183781
13.9028 384
13.92291 383.018092269972
13.94302 418.989325323054
13.96314 372.952952230456
13.98325 381.02119182912
14.00336 356.980273494997
14.02348 396.98363922758
14.04359 378.006251642514
14.06371 390.006363148859
14.08382 387.991381003003
14.10393 390.032680863904
14.12405 395.863158249602
14.14416 327.975459067892
14.16427 401.963944158523
14.18439 364.000203965062
14.2045 418
14.22461 373.964451724075
14.24473 335.017147355371
14.26484 387.129119311164
14.28496 419.038405572294
14.30507 374.040414519568
14.32518 380.986665666884
14.3453 385
14.36541 400.008832625967
14.38552 397.961652227996
14.40564 345.948900150081
14.42575 357.947107748629
14.44587 373.96322321491
14.46598 390.023722327033
14.48609 350.999042557842
14.50621 388.004963463844
14.52632 357.979106057792
14.54643 369.025632662897
14.56655 368.963215535447
14.58666 355.99399278842
14.60677 356.053896529284
14.62689 318.9847212769
14.647 384
14.66712 314.969109710241
14.68723 366.109829582459
14.70734 395.95922096731
14.72746 357.03658392998
14.74757 365.993478631453
14.76768 367.966227919736
14.7878 411
14.80791 362.986270587319
14.82803 380.034095039169
14.84814 372.93237647047
14.86825 341.009203874044
14.88837 363.967190922447
14.90848 362.021072258014
14.92859 352.985176071435
14.94871 396.00190641299
14.96882 359.975845537794
14.98894 370.030703499104
15.00905 371.996153882663
15.02916 379.959022629524
15.04928 392.020807214855
15.06939 349.014812696853
15.0895 359
15.10962 395.003808239137
15.12973 364.942558969455
15.14984 351.036289640529
15.16996 369.044618756794
15.19007 328.992033750971
15.21019 383.977304293608
15.2303 381
15.25041 360.004869298988
15.27053 392.038412819387
15.29064 394.984251977635
15.31075 382.059445094593
15.33087 353.033205638087
15.35098 353.971356488044
15.3711 385
15.39121 364.996233050843
15.41132 385.027288090505
15.43144 389.945797605975
15.45155 344.10199437632
15.47166 338.923180765486
15.49178 380.005760126831
15.51189 340.00607505726
15.53201 369.01070717861
15.55212 370.015939463627
15.57223 407.042564665911
15.59235 395.869713967746
15.61246 351.967870931251
15.63257 397.013112115515
15.65269 338.011180100906
15.6728 368
15.69291 351.007427657461
15.71303 396.01894450486
15.73314 363.946049357699
15.75326 364.000350710763
15.77337 348.029860485204
15.79348 337.997814580372
15.8136 353
15.83371 374.000578892404
15.85382 361.996173346931
15.87394 363.968631887808
15.89405 338.012290549442
15.91417 367.928998284526
15.93428 391.026269887425
15.95439 341.011298350207
15.97451 375.03441054626
15.99462 418.980034760558
16.01473 361.95796103632
16.03485 376.010041726167
16.05496 360.982203333596
16.07508 389.997875006618
16.09519 359.01161620318
16.1153 353
16.13542 326.003432002046
16.15553 355.018134217477
16.17564 357.081273807555
16.19576 413.997874232465
16.21587 352.09030619579
16.23598 335.993223276012
16.2561 342
16.27621 344.002265458788
16.29633 348.999435958044
16.31644 350.029745516195
16.33655 376.939569806535
16.35667 386.006515416097
16.37678 373.018624434261
16.39689 362.994901407401
16.41701 379.999324780931
16.43712 370.016058588623
16.45724 388.927955443211
16.47735 320.953124644636
16.49746 367.903634795987
16.51758 371.024904969799
16.53769 345.008531148689
16.5578 339
16.57792 338.005747609688
16.59803 341.982545166122
16.61814 322.991864940961
16.63826 339.956453606134
16.65837 354.981475770196
16.67849 366.995279923227
16.6986 360
16.71871 315.989531323778
16.73883 336.071121959317
16.75894 369.984893728926
16.77905 338.027763933702
16.79917 352.998019943897
16.81928 335.003023523799
16.8394 358
16.85951 370.00255854824
16.87962 372.998717553558
16.89974 375.029914955632
16.91985 382.078883120756
16.93996 337.998221562043
16.96008 381.972566569663
16.98019 375.998558735798
17.00031 387.989441524104
17.02042 340.977005595952
17.04053 352.008729228359
17.06065 350.06638042077
17.08076 394.967862207732
17.10087 366.065056836077
17.12099 342.00037555838
17.1411 350
17.16121 337.997329364956
17.18133 359.074680557993
17.20144 403.000523116274
17.22156 364.071229010876
17.24167 363.960946146536
17.26178 387.997036328972
17.2819 382
17.30201 402.988955339785
17.32212 348.973781220627
17.34224 372.069350949159
17.36235 377.072177212709
17.38247 344.999738111449
17.40258 374.978058566021
17.42269 369.008110697332
17.44281 371.015527123932
17.46292 402.993495689613
17.48303 362.956313937525
17.50315 365.024444214498
17.52326 370.972458431546
17.54338 386.999341992212
17.56349 369.011143271741
17.5836 363
17.60372 388.011525952903
17.62383 380.98597612127
17.64394 384.027994635641
17.66406 400.974238553936
17.68417 403.01348096458
17.70428 387.018636270843
17.7244 391
17.74451 463.027291436812
17.76463 473.972354635753
17.78474 468.068157879279
17.80485 504.070913124064
17.82497 417.109108560421
17.84508 410.958508025816
17.86519 444.006415724044
17.88531 395.982612165765
17.90542 410.050628161434
17.92554 440.933007485705
17.94565 361.848591204481
17.96576 361.919844650258
17.98588 401.980161481191
18.00599 401.999959722371
18.0261 413
18.04622 417.996963195876
18.06633 409.985730262192
18.08645 399.968370965782
18.10656 383.040485631917
18.12667 369.993584716788
18.14679 388.989552950912
18.1669 402
18.18701 403.996641328636
18.20713 380.934708690049
18.22724 356.075198914302
18.24735 418.984374836306
18.26747 368.040461570396
18.28758 385.997067940778
18.3077 356
18.32781 365.008090068958
18.34792 364.982529758312
18.36804 342.975990586396
18.38815 348.955802977834
18.40826 372.938483081192
18.42838 397.994485424555
18.44849 380.01590165775
18.46861 364.01013784937
18.48872 403.019414811423
18.50883 388.964770385744
18.52895 381.022330937058
18.54906 391.012486888798
18.56917 368.034189976607
18.58929 358.999071818014
18.6094 370
18.62951 390.002736913634
18.64963 374.957502915181
18.66974 360.036706271824
18.68986 388.012773544429
18.70997 354.016355169916
18.73008 372.995001515411
18.7502 338
18.77031 317.027439819772
18.79042 403.031334937225
18.81054 354.865596292558
18.83065 330.943098956447
18.85077 373.950314602442
18.87088 378.014836320929
18.89099 365.000281284136
18.91111 379.010016794479
18.93122 388.992028537539
18.95133 369.977366278735
18.97145 369.021811811801
18.99156 373.0216213102
19.01168 357.001309398466
19.03179 372.992015317863
19.0519 391
19.07202 425.986458715457
19.09213 367.919441076488
19.11224 357.045324555446
19.13236 380.002433367413
19.15247 367.977806137467
19.17258 407.974619207812
19.1927 399
19.21281 390.007806137584
19.23293 406.977600029755
19.25304 368.962371248656
19.27315 385.931565963299
19.29327 395.01963157089
19.31338 377.998753076693
19.33349 409.973625444594
19.35361 433.977402051633
19.37372 366.999606406964
19.39384 438.118162201301
19.41395 432.901194311295
19.43406 404.004699528306
19.45418 417.995527956798
19.47429 404.007744681416
19.4944 399
19.51452 423.069170674609
19.53463 488.986877962833
19.55475 430.973145201874
19.57486 487.902911730751
19.59497 482.047163166286
19.61509 458.006095301539
19.6352 468
19.65531 528.033813755127
19.67543 580.038063574621
19.69554 588.019588416194
19.71565 633.760477345938
19.73577 724.977226083728
19.75588 699.958987053636
19.776 810
19.79611 824.016446375202
19.81622 909.090075464397
19.83634 972.096962757176
19.85645 1004.00203895175
19.87656 974.079007041862
19.89668 954.98743790971
19.91679 976.002466421665
19.93691 939.981241989609
19.95702 920.990903244263
19.97713 902.9451456775
19.99725 851.873178790642
20.01736 816.039382359408
20.03747 808.002002760239
20.05759 794.020331063421
20.0777 736
20.09782 724.035232787069
20.11793 771.021773897006
20.13804 744.938105146152
20.15816 735.990209773683
20.17827 751.951390732424
20.19838 771.030100453418
20.2185 721
20.23861 758.004140508097
20.25872 720.970978975643
20.27884 729.042816333602
20.29895 729.081480801177
20.31907 698.970805704214
20.33918 740.012759791083
20.35929 692.993021688505
20.37941 780.038054184339
20.39952 780.943994823569
20.41963 708.90372544089
20.43975 689.096082049801
20.45986 738.006155469506
20.47998 691.020455551604
20.50009 715.990450524269
20.5202 720
20.54032 777.040383519884
20.56043 765.917270290313
20.58054 744.163576237389
20.60066 861.972471285631
20.62077 770.090247821044
20.64088 808.93179536399
20.661 876
20.68111 981.015251103617
20.70123 979.122674279418
20.72134 1165.38512226278
20.74145 1343.41352152015
20.76157 1690.34652435463
20.78168 2129.63153240399
20.80179 2494.75460338412
20.82191 3008.14432180705
20.84202 3025.93876857191
20.86214 2995.84083735859
20.88225 2763.99762856113
20.90236 2234.17518061098
20.92248 1705.40567077756
20.94259 1395.1459512581
20.9627 1107
20.98282 956.831744377055
21.00293 791.916727792657
21.02305 839.097382391695
21.04316 821.027718721221
21.06327 843.953169193964
21.08339 837.031617169799
21.1035 773
21.12361 827.998253859594
21.14373 775.014886027724
21.16384 830.94658450555
21.18395 739.025311207558
21.20407 816.961722359036
21.22418 773.987068883482
21.2443 864
21.26441 858.995071891493
21.28452 878.018675225561
21.30464 864.905811537991
21.32475 823.978132750065
21.34486 865.96932365848
21.36498 834.039824832702
21.38509 808.014557802994
21.40521 786.006522266438
21.42532 818.006854574791
21.44543 790.961411230915
21.46555 787.00910372912
21.48566 775.072673414631
21.50577 736.015542599029
21.52589 742.010488678622
21.546 704
21.56612 735.004834276411
21.58623 694.932070822741
21.60634 673.988700067615
21.62646 684.924266543827
21.64657 726.981663489492
21.66668 704.029766296524
21.6868 686
21.70691 666.990725005251
21.72702 642.961363521311
21.74714 615.03587632852
21.76725 659.956544739131
21.78737 623.095533493758
21.80748 589.971472709981
21.82759 650.983580477618
21.84771 625.97383192246
21.86782 586.98554489587
21.88793 594.022149692498
21.90805 588.903103319711
21.92816 555.946291410166
21.94828 616.984918786615
21.96839 571.021081939774
21.9885 566
22.00862 567.024939142676
22.02873 598.996257820726
22.04884 565.96354240213
22.06896 577.974665100311
22.08907 569.035173253898
22.10919 544.010134289844
22.1293 522
22.14941 497.011574334241
22.16953 562.094042774433
22.18964 585.982924323342
22.20975 560.085687398324
22.22987 541.978169307879
22.24998 575.976430529157
22.27009 564.02153052591
22.29021 535.01321373006
22.31032 594.027013260524
22.33044 567.927517401261
22.35055 562.056641318978
22.37066 576.060712993546
22.39078 528.999751230902
22.41089 566.000357518917
22.431 517
22.45112 542.061533258727
22.47123 573.93549383476
22.49135 487.872166702123
22.51146 501.934335362954
22.53157 523.958924120021
22.55169 544.008519255492
22.5718 498
22.59191 507.026807449773
22.61203 554.988543935477
22.63214 501.923105797591
22.65225 514.895306578022
22.67237 540.023419225434
22.69248 502.01792736383
22.7126 515
22.73271 514.001759857344
22.75282 531.021177814357
22.77294 544.002566529893
22.79305 539.006084793056
22.81316 539.012908629824
22.83328 535.980650868625
22.85339 575.98030870849
22.87351 582.981696564608
22.89362 539.999574254519
22.91373 573.013007108909
22.93385 539.913597557505
22.95396 543.914128836342
22.97407 584.008682563622
22.99419 534.024603510103
23.0143 523
23.03442 546.002686923709
23.05453 519.939336474855
23.07464 500.043696405503
23.09476 538.980951215917
23.11487 516.018738705519
23.13498 519.019364327486
23.1551 481
23.17521 485.989175597798
23.19532 449.005395075218
23.21544 496.060261401019
23.23555 492.986940442431
23.25567 504.041057961907
23.27578 456.005918466631
23.29589 501.977594493112
23.31601 499.979002070481
23.33612 466.015760671083
23.35623 509.009021058776
23.37635 476.98181506451
23.39646 494.042929830712
23.41658 445.999262292785
23.43669 499.981910949034
23.4568 492
23.47692 498.99317491081
23.49703 476.985747741661
23.51714 498.084129148922
23.53726 541.930489288477
23.55737 538.093204974748
23.57749 471.99736685845
23.5976 533
23.61771 495.981220948502
23.63783 496.020878598522
23.65794 501.999511801355
23.67805 502.980302016688
23.69817 520.961974227551
23.71828 538.004829148217
23.73839 518.007434618473
23.75851 536.029172396726
23.77862 597.017305563476
23.79874 579.001208648378
23.81885 608.033627229743
23.83896 585.07265042593
23.85908 566.990408376789
23.87919 578.011533281152
23.8993 536
23.91942 560.008349861725
23.93953 547.013556488894
23.95965 566.94119337196
23.97976 518.996896417044
23.99987 552.040696491548
24.01999 481.002943251939
24.0401 554
24.06021 539.977904750419
24.08033 512.996869174734
24.10044 520.991904020644
24.12056 508.987250175337
24.14067 531.982868805994
24.16078 529.98926299497
24.1809 542
24.20101 506.008047604474
24.22112 548.981208413439
24.24124 471.914579581816
24.26135 500.884411387662
24.28146 516.021692396121
24.30158 514.960876420417
24.32169 565.998290651219
24.34181 520.982643703812
24.36192 526.016200121263
24.38203 538.030984022033
24.40215 565.044111400709
24.42226 556.074799077037
24.44237 525.976639669039
24.46249 569.991750118601
24.4826 544
24.50272 542.011164635595
24.52283 566.073307539014
24.54294 607.980791799298
24.56306 570.990858252155
24.58317 610.003755155311
24.60328 568.003148256349
24.6234 620
24.64351 639.018185862911
24.66362 693.027817697642
24.68374 690.008884307625
24.70385 707.009615096257
24.72397 694.961226912058
24.74408 765.923762214616
24.76419 813.98777923509
24.78431 828.005571388254
24.80442 849.035503140097
24.82453 880.003104282904
24.84465 858.964661029652
24.86476 847.087250120833
24.88488 795.00205252253
24.90499 835.990627315714
24.9251 816
24.94522 826.995085490617
24.96533 782.896650584659
24.98544 728.975982538719
25.00556 748.969174075533
25.02567 724.09682402766
25.04579 651.024732373262
25.0659 644
25.08601 661.994017947258
25.10613 623.94681033123
25.12624 624.081231925401
25.14635 654.093519911536
25.16647 579.037883579932
25.18658 616.972438790417
25.20669 600.011095056749
25.22681 609.01867352555
25.24692 636.983204558264
25.26704 587.933939361752
25.28715 589.014992918263
25.30726 585.993839090066
25.32738 595.997479970244
25.34749 587.005067766976
25.3676 571
25.38772 545.031265647019
25.40783 615.064735422941
25.42795 609.974471063128
25.44806 611.028265639816
25.46817 584.016101270784
25.48829 614.965596749299
25.5084 684
25.52851 670.981410014773
25.54863 630.934931415783
25.56874 588.93183957214
25.58886 579.944932146535
25.60897 612.010885618544
25.62908 564.045912409422
25.6492 551
25.66931 554.991963012142
25.68942 515.950985617708
25.70954 507.138138648303
25.72965 598.950266350953
25.74976 535.131065431516
25.76988 519.993800151149
25.78999 527.990149439296
25.81011 546.997767378266
25.83022 518.971213491065
25.85033 516.040782199661
25.87045 548.016729713304
25.89056 537.976949200938
25.91067 559.029980101054
25.93079 503.017833753455
25.9509 530
25.97102 595.005851302942
25.99113 559.98467613101
26.01124 598.088655762474
26.03136 614.0121562207
26.05147 604.999119623749
26.07158 608.014244114867
26.0917 581
26.11181 606.03444380581
26.13193 672.016751577293
26.15204 652.046765601566
26.17215 720.897525671353
26.19227 706.039731898629
26.21238 689.030470492583
26.23249 690.948196918968
26.25261 835.025726134508
26.27272 786.97677047426
26.29283 838.076183769801
26.31295 858.079639395278
26.33306 907.939446722276
26.35318 927.944524272613
26.37329 1039.92918239099
26.3934 1167
26.41352 1263.15885123367
26.43363 1483.32541542176
26.45374 1764.93853018744
26.47386 2399.72396417892
26.49397 3049.78256147241
26.51409 4136.35206909908
26.5342 5591
26.55431 7365.99758078021
26.57443 9504.1576277836
26.59454 11258.3941579004
26.61465 11922.1888071227
26.63477 11823.221877319
26.65488 10447.4691041288
26.67499 8997.87071381952
26.69511 6929.97166398301
26.71522 5139.45880277728
26.73534 3720.29255142334
26.75545 2482.57200523212
26.77556 1814.89675790113
26.79568 1464.27256655386
26.81579 1242.0846479313
26.8359 1109
26.85602 998.884306492776
26.87613 893.896688629771
26.89625 855.911509049777
26.91636 804.114955199622
26.93647 758.039869096562
26.95659 717.048013187302
26.9767 614
26.99681 661.002446258777
27.01693 589.891418611733
27.03704 566.002869382932
27.05716 590.861504785186
27.07727 649.046465329726
27.09738 559.040157873367
27.1175 595
27.13761 564.968882501438
27.15772 517.98909931429
27.17784 536.038880815268
27.19795 535.040241148188
27.21806 513.047406731554
27.23818 503.981659940002
27.25829 532.995047212847
27.27841 519.994934791695
27.29852 518.98887645099
27.31863 505.014731108347
27.33875 527.997062598724
27.35886 511.968741304112
27.37897 557.957758129346
27.39909 546.013275767717
27.4192 530
27.43932 523.982697107237
27.45943 512.031414933126
27.47954 550.022681156867
27.49966 524.060547659615
27.51977 503.045508862023
27.53988 475.991606657098
27.56 506
27.58011 490.00569194952
27.60023 514.963728524042
27.62034 467.032716418019
27.64045 538.92511796026
27.66057 503.043357062281
27.68068 528.944321249336
27.70079 563.007403317783
27.72091 518.986937108891
27.74102 528.014974504486
27.76113 532.007490162474
27.78125 541.009693741697
27.80136 551.922223856995
27.82148 602.974636107651
27.84159 587.01785749641
27.8617 560
27.88182 565.013255547353
27.90193 566.967940091066
27.92204 529.935196030096
27.94216 524.94873063897
27.96227 560.966283935988
27.98239 555.012916519901
28.0025 524
28.02261 496.985381036231
28.04273 476.004842183063
28.06284 494.015067202219
28.08295 487.993935018263
28.10307 489.048296388831
28.12318 448.989847536502
28.1433 485
28.16341 418.991496781589
28.18352 468.038159603979
28.20364 456.95515607206
28.22375 459.062091484261
28.24386 480.016627703189
28.26398 444.036479926641
28.28409 433.991544821292
28.3042 462
28.32432 457.964723460176
28.34443 423.003246963728
28.36455 458.067248519005
28.38466 452.046468183367
28.40477 432.017431889917
28.42489 428.999506541166
28.445 423
28.46511 412.012570509275
28.48523 466.070603904356
28.50534 474.948724671421
28.52546 441.037744179843
28.54557 445.977659288323
28.56568 456.99298939254
28.5858 452
28.60591 430.006222972885
28.62602 457.993177062778
28.64614 433.047450416916
28.66625 477.078331161093
28.68636 387.071237136751
28.70648 421.991151021863
28.72659 396.984921124947
28.74671 472.009766221085
28.76682 422.969048840865
28.78693 431.977612038036
28.80705 395.017305639477
28.82716 444.948215664728
28.84727 425.031805468703
28.86739 426.997439422693
28.8875 422
28.90762 419.00408302649
28.92773 422.992392340201
28.94784 409.978528837144
28.96796 408.987523545405
28.98807 415.994406520522
29.00818 414.006192418828
29.0283 416
29.04841 443.004246159178
29.06853 433.997995857215
29.08864 435.952040741228
29.10875 404.97298171179
29.12887 441.0063964716
29.14898 394.026264131919
29.16909 412.987210308998
29.18921 418.999277993811
29.20932 424.013067444595
29.22943 435.999891296804
29.24955 417.922914335493
29.26966 398.973866680962
29.28978 430.982472147634
29.30989 417.014680657977
29.33 409
29.35012 451.996571238298
29.37023 408.96871972141
29.39034 428.031007956535
29.41046 409.081753925683
29.43057 387.956950187206
29.45069 442.986422100264
29.4708 431
29.49091 427.981880112051
29.51103 382.011462209293
29.53114 435.054068379101
29.55125 419.013416218353
29.57137 442.972848522975
29.59148 439.007267171389
29.6116 444
29.63171 459.005570475902
29.65182 462.998179200645
29.67194 454.968322137749
29.69205 443.013677835901
29.71216 467.934935344653
29.73228 491.989595314181
29.75239 508.975855252576
29.7725 566
29.79262 535.963356251488
29.81273 543.091361579034
29.83285 603.990234979136
29.85296 547.066479592782
29.87307 557.004652233707
29.89319 534.994999973135
29.9133 562
29.93341 491.974890361026
29.95353 491.016658563984
29.97364 492.01145833599
29.99376 502.002521660192
30.01387 491.005605429528
30.03398 504.974931930797
30.0541 514
30.07421 468.989614649571
30.09432 474.99467792514
30.11444 453.994443671971
30.13455 469.003669060205
30.15467 447.018263274068
30.17478 458.979786120335
30.19489 478.986597082076
30.21501 483.973561182508
30.23512 412.987629565139
30.25523 455.024182921546
30.27535 429.995876353234
30.29546 454.024788491916
30.31557 394.084246512606
30.33569 384.984532174603
30.3558 433
30.37592 448.96525046453
30.39603 397.978530533539
30.41614 426.047410823041
30.43626 426.98807823822
30.45637 443.990971442235
30.47648 429.023939239693
30.4966 412
30.51671 419.008538648868
30.53683 423.959795680745
30.55694 387.994888841238
30.57705 411.004469538522
30.59717 392.963008878547
30.61728 450.977768196348
30.63739 415.023835315402
30.65751 401.009624251135
30.67762 432.021440504239
30.69773 435.999062229099
30.71785 439.004901805015
30.73796 431.04400883736
30.75808 414.985480830205
30.77819 435.012133652131
30.7983 384
30.81842 428.042784417447
30.83853 430.968173812685
30.85864 415.006477726429
30.87876 435.954022870058
30.89887 437.044502439377
30.91899 399.007264261529
30.9391 410
30.95921 411.010902087401
30.97933 447.024166529399
30.99944 426.922430671597
31.01955 400.002634654023
31.03967 419.966506510097
31.05978 425.013617508478
31.0799 414
31.10001 442.003510707718
31.12012 431.00827320191
31.14024 448.961623670801
31.16035 416.933380703761
31.18046 476.013631224054
31.20058 430.956828851486
31.22069 532.998059910853
31.2408 439
31.26092 500.035672460398
31.28103 472.989346233517
31.30115 500.989854198926
31.32126 453.07224990902
31.34137 447.018457212992
31.36149 428.993104311279
31.3816 457
31.40171 415.999878057938
31.42183 459.030170835854
31.44194 432.940276392863
31.46206 425.004078082794
31.48217 406.063465208019
31.50228 365.007689628939
31.5224 392
31.54251 408.005863915431
31.56262 415.99365451174
31.58274 410.039259315933
31.60285 439.00908892058
31.62297 408.01667750177
31.64308 423.996829119383
31.66319 398.015657696253
31.68331 394.016288704111
31.70342 430.999516937248
31.72353 395.962673135229
31.74365 400.01918885966
31.76376 401.976026851491
31.78387 426.962747352312
31.80399 435.006390575703
31.8241 415
31.84422 410.978964443568
31.86433 396.05531509263
31.88444 464.064152148931
31.90456 436.091140686388
31.92467 412.007354908429
31.94478 420.979747286633
31.9649 440
31.98501 441.004895720221
32.00513 454.99728495656
32.02524 439.988652720178
32.04535 451.961402388753
32.06547 461.985720718405
32.08558 470.996791297214
32.10569 460.014138801519
32.12581 428.992298475685
32.14592 421.976492425186
32.16604 388.979982203872
32.18615 417.122557899058
32.20626 443.04997748851
32.22638 401.994093852714
32.24649 449.988986622945
32.2666 426
32.28672 421.983572359763
32.30683 389.97064540197
32.32694 401.064477766407
32.34706 432.962709441963
32.36717 433.017495481915
32.38729 423.000884780602
32.4074 432
32.42751 455.017176716458
32.44763 481.994084144097
32.46774 454.962371038644
32.48785 466.914376920576
32.50797 498.98043415603
32.52808 495.002686657129
32.5482 492
32.56831 455.98957146455
32.58842 460.011198201905
32.60854 447.904133442282
32.62865 395.032684728233
32.64876 426.924240290215
32.66888 441.998091012703
32.68899 444.995855795131
32.7091 455
32.72922 439.961843825478
32.74933 392.945634533303
32.76945 392.100280538529
32.78956 440.962470265842
32.80967 417.061444818501
32.82979 400.98712934913
32.8499 448
32.87001 447.996454567146
32.89013 465.073191381204
32.91024 505.970175056132
32.93036 451.061088233821
32.95047 465.972862070536
32.97058 464.002976616452
32.9907 472
33.01081 484.007909370332
33.03092 498.00262006314
33.05104 482.941229710264
33.07115 453.047680884909
33.09127 464.921725852808
33.11138 514.007810047974
33.13149 476.992412473417
33.15161 530.998812928867
33.17172 465.961233373073
33.19183 487.039605081904
33.21195 492.026673998094
33.23206 506.024743916097
33.25217 473.026899640941
33.27229 473.007284534837
33.2924 442
33.31252 460.04103588255
33.33263 497.024507010122
33.35274 488.959945993591
33.37286 470.03321314405
33.39297 461.990851754552
33.41308 479.978057238191
33.4332 484
33.45331 458.012644656439
33.47343 510.007030012941
33.49354 480.04247820798
33.51365 540.000897424277
33.53377 458.128124700901
33.55388 433.974475593459
33.57399 475.981597651417
33.59411 483.988254249856
33.61422 455.997459763268
33.63434 480.043706362829
33.65445 473.921536967339
33.67456 442.019069026596
33.69468 448.007762528786
33.71479 421.011017011621
33.7349 420
33.75502 422.978742767493
33.77513 398.010499969367
33.79524 419.96897256398
33.81536 383.973209906586
33.83547 440.962826449202
33.85559 411.015774117414
33.8757 410
33.89581 416.005364180988
33.91593 424.989366337413
33.93604 412.011197459363
33.95615 429.008514806115
33.97627 410.992439337427
33.99638 436.993048848937
34.0165 418
34.03661 436.0186757795
34.05672 448.954864458088
34.07684 378.945798125999
34.09695 411.892659702617
34.11706 433.961143294323
34.13718 443.028078767669
34.15729 407.992278580337
34.17741 458.00543884599
34.19752 414.961728216256
34.21763 422.052434190004
34.23775 443.962474953808
34.25786 408.033152019373
34.27797 423.967224981274
34.29809 441.9846702412
34.3182 479
34.33831 468.985633218005
34.35843 450.013133711387
34.37854 468.987715048905
34.39866 447.98021579112
34.41877 473.032040781498
34.43888 428.980823277733
34.459 507
34.47911 487.986977872151
34.49922 499.034690820795
34.51934 538.073168520646
34.53945 549.079509205626
34.55957 512.976060315634
34.57968 571.963785960858
34.59979 552.022106717889
34.61991 544.028588430075
34.64002 623.02750671796
34.66013 591.963613190346
34.68025 618.137305675205
34.70036 655.015267595763
34.72047 612.064002809293
34.74059 613.972091329913
34.7607 665
34.78082 601.998772745478
34.80093 682.118124527951
34.82104 693.920907669888
34.84116 661.960424244442
34.86127 732.884518165303
34.88138 766.017197795952
34.9015 747
34.92161 827.031903762174
34.94173 862.081189018987
34.96184 924.018763657378
34.98195 866.197867431649
35.00207 818.013144830685
35.02218 849.933926971861
35.04229 901.00394910122
35.06241 848.981373011876
35.08252 842.983924012288
35.10264 803.934259564536
35.12275 792.996297267518
35.14286 782.053234816608
35.16298 741.047054221492
35.18309 701.013464299877
35.2032 692
35.22332 699.990053171199
35.24343 674.97071625895
35.26354 668.991192931647
35.28366 668.961667877341
35.30377 670.103821787478
35.32389 582.00072026678
35.344 656
35.36411 600.963064945914
35.38423 584.071657575421
35.40434 641.004816417717
35.42445 600.023850411164
35.44457 631.98669853532
35.46468 601.022741721326
35.4848 606
35.50491 602.004053318005
35.52502 607.969142111539
35.54514 564.003661405823
35.56525 618.860199938935
35.58536 625.087363560937
35.60548 570.027008458471
35.62559 574.998842650931
35.64571 573.013371786911
35.66582 623.034081880916
35.68593 625.992462691232
35.70605 624.979947451374
35.72616 606.044772051898
35.74627 593.992174191568
35.76639 617.981408045599
35.7865 652
35.80661 652.995384569663
35.82673 644.9953590466
35.84684 640.971592507761
35.86696 624.99933801696
35.88707 641.976016719152
35.90718 632.0433079337
35.9273 599
35.94741 653.996323249042
35.96752 605.018125800285
35.98764 677.007506187157
36.00775 606.074692592189
36.02787 636.009796477352
36.04798 574.039216276766
36.06809 582.997492806574
36.08821 558.987203562526
36.10832 548.995939149594
36.12843 539.977660159867
36.14855 544.122095482846
36.16866 596.026922906939
36.18878 540.007269840456
36.20889 581.99973739194
36.229 528
36.24912 547.017124185125
36.26923 541.001022393977
36.28934 568.086024373466
36.30946 594.029414631487
36.32957 555.034881210387
36.34968 585.916411044849
36.3698 685
36.38991 728.01678320911
36.41003 783.122521006704
36.43014 895.276937757755
36.45025 1040.66842371561
36.47037 1158.8243705866
36.49048 1260.94419585699
36.51059 1251.0326865623
36.53071 1179.98204996724
36.55082 1159.93740196701
36.57094 1058.84981711861
36.59105 1040.01334540326
36.61116 1008.19540432809
36.63128 878.097470428111
36.65139 814.04583336887
36.6715 685
36.69162 628.987095210625
36.71173 628.994660683137
36.73184 616.982522617588
36.75196 597.11314905476
36.77207 538.000675842412
36.79219 601.963630011069
36.8123 627
36.83241 577.977675970182
36.85253 576.077154396385
36.87264 628.982586342975
36.89275 577.033560507635
36.91287 616.960050654748
36.93298 605.009390508594
36.9531 621
36.97321 618.97992745805
36.99332 563.967573078302
37.01344 569.041594011736
37.03355 582.985468388505
37.05366 585.986987778321
37.07378 590.010970145282
37.09389 559.021565398734
37.11401 546.026118237976
37.13412 601.962556023879
37.15423 487.885888313725
37.17435 509.162039615325
37.19446 542.044302086817
37.21457 503.987368182859
37.23469 551.991062908945
37.2548 508
37.27491 478.016545763154
37.29503 540.04670902019
37.31514 503.838856833871
37.33526 451.942463253037
37.35537 527.943515854786
37.37548 498.041651104749
37.3956 491
37.41571 515.009153527941
37.43582 517.988813395175
37.45594 500.969211769615
37.47605 500.94510192231
37.49617 528.983389010751
37.51628 519.012375030767
37.53639 523.988257153025
37.55651 544.997982724122
37.57662 522.9896042727
37.59673 534.019341655415
37.61685 544.053763919027
37.63696 565.012960411621
37.65708 538.013627407766
37.67719 541.005354678125
37.6973 530
37.71742 594.038358355731
37.73753 580.948803752853
37.75764 565.023286557885
37.77776 581.024870658031
37.79787 543.041436565657
37.81798 551.963804359408
37.8381 576
37.85821 528.9851615973
37.87833 530.000390241756
37.89844 527.045227013566
37.91855 565.95891014446
37.93867 543.061154586926
37.95878 505.03531863698
37.97889 484.995562092332
37.99901 497.989398989004
38.01912 465.016174965813
38.03924 532.116521400009
38.05935 540.94296922128
38.07946 506.088589451537
38.09958 477.987627828734
38.11969 513.990762461887
38.1398 495
38.15992 485.036951869261
38.18003 544.051151435495
38.20015 545.013745984253
38.22026 565.981109741603
38.24037 565.971135109145
38.26049 599.992555115268
38.2806 591
38.30071 605.008313101784
38.32083 614.00940925901
38.34094 622.018074138667
38.36105 628.001721793991
38.38117 627.982663822082
38.40128 642.00382111701
38.4214 621
38.44151 614.995729235274
38.46162 607.009427952245
38.48174 621.983500323804
38.50185 579.148741599007
38.52196 544.966469908603
38.54208 583.993157220881
38.56219 548.017505858261
38.58231 540.000927317576
38.60242 539.000696982092
38.62253 535.975104802665
38.64265 515.992478539127
38.66276 523.020085673167
38.68287 507.971036880839
38.70299 545.999420404156
38.7231 506
38.74321 511.006885430705
38.76333 511.988944309421
38.78344 504.995573051492
38.80356 502.027041127082
38.82367 489.982638120447
38.84378 508.015026719154
38.8639 456
38.88401 452.029467609174
38.90412 521.01105874407
38.92424 481.972243998726
38.94435 519.897026754577
38.96447 523.042895302659
38.98458 489.019112898154
39.00469 505.97290874586
39.02481 551.99514016698
39.04492 514.00847354351
39.06503 558.995429308132
39.08515 506.956109295646
39.10526 544.937126128091
39.12538 542.003816673889
39.14549 561.982711068305
39.1656 587
39.18572 563.972243180703
39.20583 552.010265408978
39.22594 576.072722200538
39.24606 611.947248867241
39.26617 622.007489592426
39.28628 617.988406628392
39.3064 668
39.32651 768.026378412657
39.34663 798.121789385658
39.36674 928.201145293282
39.38685 989.779060788991
39.40697 1126.79235399684
39.42708 1198.02105939126
39.44719 1117.04177210116
39.46731 1061.9746322283
39.48742 981.883388504277
39.50754 873.912062849596
39.52765 872.919349751694
39.54776 775.242773147807
39.56788 673.07809666977
39.58799 616.020499149403
39.6081 576
39.62822 517.938495818683
39.64833 473.983695582889
39.66845 483.001759177704
39.68856 463.049230768913
39.70867 445.023248657224
39.72879 431.004462713959
39.7489 432
39.76901 449.006561641586
39.78913 452.996675547089
39.80924 445.973491846897
39.82935 443.929383900195
39.84947 475.01988853767
39.86958 429.019650406862
39.8897 446
39.90981 436.010065663339
39.92992 483.024910159243
39.95004 488.070739500601
39.97015 528.080288640607
39.99026 443.08242185332
40.01038 477.952984114811
40.03049 487.007788083063
40.05061 478.007691434003
40.07072 513.031720229911
40.09083 528.010365115276
40.11095 543.075567089073
40.13106 587.898522311508
40.15117 621.996842386135
40.17129 635.957828595901
40.1914 747
40.21152 718.026657594788
40.23163 821.121959643802
40.25174 832.981845194211
40.27186 818.107364498402
40.29197 739.084606017513
40.31208 719.01646566518
40.3322 682
40.35231 652.003998690339
40.37242 659.950207238949
40.39254 567.880412349317
40.41265 555.059757922278
40.43277 521.971995863424
40.45288 568.012322930451
40.47299 506.008402421523
40.49311 546.006841211117
40.51322 497.937941832574
40.53333 472.020693194243
40.55345 492.980199480866
40.57356 462.023766326177
40.59368 474.998113804006
40.61379 455.008252539992
40.6339 450
40.65402 444.025725183211
40.67413 485.018308839127
40.69424 453.909919093247
40.71436 430.986071220468
40.73447 455.964836340106
40.75458 465.996207748957
40.7747 461
40.79481 439.00513966236
40.81493 477.045547128614
40.83504 471.933009641539
40.85515 451.927626651043
40.87527 507.962307646216
40.89538 481.042598851308
40.91549 459.000480996583
40.93561 467.002292764212
40.95572 462.994524050296
40.97584 463.010805705509
40.99595 457.922208041361
41.01606 432.941034724841
41.03618 494.976296477236
41.05629 465.014287433466
41.0764 472
41.09652 485.00049142633
41.11663 473.973003139926
41.13675 457.977250690713
41.15686 456.992567981002
41.17697 459.999621323869
41.19709 459.997874586937
41.2172 462
41.23731 448.002563979163
41.25743 467.008596180863
41.27754 456.997322599377
41.29765 464.023238526936
41.31777 445.991352382235
41.33788 477.972172893766
41.358 475
41.37811 452.008223772478
41.39822 483.99157589212
41.41834 434.932593441408
41.43845 450.888530207652
41.45856 478.032578713509
41.47868 431.03865033672
41.49879 424.993684604236
41.51891 440.007468102012
41.53902 444.98729387591
41.55913 421.973127456294
41.57925 428.084482558618
41.59936 456.031662075221
41.61947 418.000836766916
41.63959 459.985189655287
41.6597 453
41.67982 448.991393472201
41.69993 434.99116671369
41.72004 443.028716362662
41.74016 442.061036632486
41.76027 407.995103470824
41.78038 439.988816100824
41.8005 419
41.82061 427.005038897728
41.84072 435.022445503387
41.86084 448.931504001375
41.88095 397.989224956552
41.90107 443.99665675637
41.92118 403.994991830942
41.94129 458.988880243484
41.96141 420.978450879719
41.98152 425.048858504991
42.00163 474.008909667939
42.02175 448.99687704856
42.04186 470.025515566802
42.06198 432.995438723577
42.08209 482.983444981726
42.1022 460
42.12232 430.034239370258
42.14243 496.040652727269
42.16254 465.928721490404
42.18266 461.972025816055
42.20277 472.003347204122
42.22289 478.977117825527
42.243 532
42.26311 497.007654023779
42.28323 583.13952441507
42.30334 650.138283637504
42.32345 721.888932029771
42.34357 743.950566761859
42.36368 809.913698575298
42.38379 889.971211335355
42.40391 913.996944861523
42.42402 894.98176951215
42.44414 878.949110765312
42.46425 833.844313522407
42.48436 764.135690985696
42.50448 719.008709798393
42.52459 724.008452625765
42.5447 661
42.56482 563.92631959836
42.58493 524.978536508157
42.60505 501.864592682162
42.62516 439.05046826918
42.64527 447.012643985749
42.66539 417.003262262268
42.6855 439
42.70561 423.992479657803
42.72573 426.0161970676
42.74584 434.003392011422
42.76595 429.021448467891
42.78607 427.977900365662
42.80618 435.032512986698
42.8263 389
42.84641 428.007524799621
42.86652 393.955432098805
42.88664 366.962390077607
42.90675 369.880112610528
42.92686 422.017944639528
42.94698 372.005395472125
42.96709 424.980356900743
42.98721 404.973397361312
43.00732 355.967620306312
43.02743 350.028031530319
43.04755 376.043587630828
43.06766 383.974353863011
43.08777 392.031682653225
43.10789 352.011801757929
43.128 362
43.14812 377.997316204691
43.16823 363.985999316305
43.18834 375.062397077608
43.20846 404.986673673386
43.22857 388.029015572161
43.24868 377.01288095688
43.2688 364
43.28891 383.016910956309
43.30902 403.984830084245
43.32914 357.904106052801
43.34925 341.944923056839
43.36937 376.974971867965
43.38948 373.993104732502
43.40959 399.987841205404
43.42971 399.986718337204
43.44982 363.974456327744
43.46993 354.991749017318
43.49005 354.044372541826
43.51016 380.976114763542
43.53028 370.017969613328
43.55039 365.992405280318
43.5705 376
43.59062 345.021962273415
43.61073 398.004509588848
43.63084 354.990881725134
43.65096 397.970065065415
43.67107 371.011635822696
43.69119 392.999551148519
43.7113 359
43.73141 351.000143557368
43.75153 354.023365214908
43.77164 372.000294593279
43.79175 353.047488910413
43.81187 354.962254012859
43.83198 379.004192273014
43.85209 354.005611666716
43.87221 368.008099368065
43.89232 373.003087408157
43.91244 371.966714834018
43.93255 352.001745816812
43.95266 371.972436749791
43.97278 379.97238038348
43.99289 415.996500841635
44.013 393
44.03312 389.982262755167
44.05323 362.997050355864
44.07335 379.989773304351
44.09346 363.957665972669
44.11357 407.995514033144
44.13369 373.002929897735
44.1538 401
44.17391 366.994934459804
44.19403 389.007872779797
44.21414 368.989734287914
44.23426 391.951971601809
44.25437 389.047000415145
44.27448 354.01193288386
44.2946 368
44.31471 372.000355267164
44.33482 384.02872570866
44.35494 419.049448854596
44.37505 408.139352431806
44.39516 359.955528529372
44.41528 430.965344210043
44.43539 406.011680522396
44.45551 410.999531159485
44.47562 389.979259873266
44.49573 384.005051383112
44.51585 394.048207954858
44.53596 412.988196500341
44.55607 394.064545721413
44.57619 352.007851816078
44.5963 365
44.61642 369.992552532087
44.63653 370.038289531949
44.65664 403.007938753734
44.67676 377.040666039641
44.69687 381.977771501441
44.71698 390.997193171404
44.7371 392
44.75721 402.007341782061
44.77732 402.970222352228
44.79744 364.987865420482
44.81755 396.910246711061
44.83767 410.005070688072
44.85778 404.001364263388
44.87789 406.001564205047
44.89801 393.9920214203
44.91812 386.007286178991
44.93823 399.002678863998
44.95835 391.001042970108
44.97846 407.95348692202
44.99858 421.004042454115
45.01869 413.994547039355
45.0388 431
45.05892 405.001414782771
45.07903 424.979551194549
45.09914 379.956404830243
45.11926 408.89451975869
45.13937 440.015354668183
45.15949 410.004237214862
45.1796 434
45.19971 438.995123469708
45.21983 430.001340686007
45.23994 441.024483052179
45.26005 437.072040701892
45.28017 428.899170385808
45.30028 517.001749870274
45.32039 436.019403422089
45.34051 484.029156157087
45.36062 494.981454777383
45.38074 487.049708670504
45.40085 519.98491744499
45.42096 489.98367185656
45.44108 531.990769013485
45.46119 498.010523290359
45.4813 498
45.50142 451.99009117584
45.52153 488.05498298739
45.54165 491.956232265216
45.56176 494.892106509272
45.58187 556.011000656266
45.60199 487.023925894301
45.6221 512
45.64221 562.001008333383
45.66233 546.039024315146
45.68244 629.188840349951
45.70256 695.913672727423
45.72267 722.98119061767
45.74278 717.030494554367
45.7629 697
45.78301 752.003537815743
45.80312 695.9365577161
45.82324 652.902472067601
45.84335 593.120524458157
45.86346 571.999121874499
45.88358 568.028334893134
45.90369 521.019604705262
45.92381 503.997052518794
45.94392 486.961247161048
45.96403 438.950205272366
45.98415 436.048827795542
46.00426 449.03008452654
46.02437 426.979530168351
46.04449 460.003513423566
46.0646 417
46.08472 439.005558406107
46.10483 408.953450844488
46.12494 403.022512367269
46.14506 419.962653210792
46.16517 421.048558137619
46.18528 382.002399344814
46.2054 420
46.22551 423.986355440215
46.24563 390.975774655354
46.26574 389.981103285025
46.28585 369.02882319504
46.30597 382.947884065231
46.32608 417.98131729018
46.34619 411.012891059774
46.36631 394.00644267896
46.38642 412.980234880078
46.40653 364.969137175078
46.42665 399.151701364155
46.44676 439.003205314473
46.46688 403.042760440217
46.48699 385.992770792704
46.5071 407
46.52722 383.992509504887
46.54733 402.027640763136
46.56744 401.974809275936
46.58756 395.971979390945
46.60767 416.002408036001
46.62779 386.018610096144
46.6479 378
46.66801 430.010059849988
46.68813 411.975731635477
46.70824 413.99397442583
46.72835 415.900143156837
46.74847 457.042943485196
46.76858 381.029384658706
46.78869 423.976327403104
46.80881 425.987156885581
46.82892 408.007693019625
46.84904 421.966012787958
46.86915 380.948366915
46.88926 388.997506842925
46.90938 375.002116642686
46.92949 389.994926252118
46.9496 391
46.96972 401.988431658937
46.98983 369.961221074841
47.00995 361.989238536169
47.03006 365.93804709635
47.05017 410.960218542056
47.07029 406.008725555735
47.0904 400
47.11051 407.990676651502
47.13063 368.95724937452
47.15074 375.06880533715
47.17086 405.003696268288
47.19097 379.023043451418
47.21108 388.984602171145
47.2312 388
47.25131 376.011667654662
47.27142 415.006675416126
47.29154 387.971229236974
47.31165 399.984746622701
47.33176 384.043707448814
47.35188 382.969460781937
47.37199 427.984563681748
47.39211 428.991661243853
47.41222 400.955227939811
47.43233 361.993650826201
47.45245 397.125237541427
47.47256 423.028560726106
47.49267 391.016817515589
47.51279 405.995920040244
47.5329 392
47.55302 382.997013149865
47.57313 382.000839884542
47.59324 385.013472849094
47.61336 391.995445499648
47.63347 392.988078945983
47.65358 405.992332102319
47.6737 403
47.69381 394.997215115519
47.71393 399.028659965196
47.73404 416.989701745622
47.75415 397.011000674435
47.77427 417.961391279756
47.79438 425.014969692744
47.81449 398.012722938718
47.83461 388.003154826548
47.85472 399.003198877497
47.87483 391.989167057845
47.89495 394.027054910559
47.91506 399.030240669151
47.93518 387.968282929898
47.95529 443.988814778077
47.9754 413
47.99552 385.990444478515
48.01563 379.979326938618
48.03574 366.009916041614
48.05586 398.89950367155
48.07597 417.080969593736
48.09609 345.995986274953
48.1162 418
48.13631 374.989903555351
48.15643 402.01265082456
48.17654 373.966289059706
48.19665 391.927623042859
48.21677 400.032051698412
48.23688 372.999998284563
48.257 392
48.27711 373.005386660503
48.29722 400.986522632856
48.31734 356.990462028651
48.33745 398.06040573897
48.35756 378.058248921335
48.37768 378.964395335879
48.39779 426.98360565058
48.4179 423
48.43802 400.028210003609
48.45813 444.982549926394
48.47825 384.932870464781
48.49836 414.940942387795
48.51847 408.033909364354
48.53859 397.99489038626
48.5587 409
48.57881 388.01067715072
48.59893 431.9978985732
48.61904 391.991561500322
48.63916 418.046969257888
48.65927 363.978187132335
48.67938 441.963637378654
48.6995 404
48.71961 397.996729384221
48.73972 380.997736568003
48.75984 398.031383982775
48.77995 387.105915741993
48.80006 352.960901737035
48.82018 399.000584269218
48.84029 358.999542133466
48.86041 405.007328447012
48.88052 378.999977047014
48.90063 411.005290213924
48.92075 389.038949083146
48.94086 436.976744279673
48.96097 405.02189716448
48.98109 419.003595069283
49.0012 378
49.02132 372.01579463548
49.04143 391.019301249933
49.06154 395.002641900617
49.08166 393.024259697526
49.10177 375.018661126738
49.12188 373.994890392356
49.142 388
49.16211 405.983623679266
49.18223 355.002595046379
49.20234 419.130418025136
49.22245 433.074600876162
49.24257 392.03997225277
49.26268 395.974172662129
49.28279 419.996587016381
49.30291 409.994358888084
49.32302 406.999537750373
49.34313 406.001788424748
49.36325 402.959308459456
49.38336 384.997377447724
49.40348 406.976918059653
49.42359 410.009503633515
49.4437 399
49.46382 443.000898191674
49.48393 393.928041034235
49.50404 391.072079089061
49.52416 433.954305030591
49.54427 416.079786633661
49.56439 361.013875333618
49.5845 381
49.60461 428.996028352722
49.62473 394.016360316574
49.64484 442.007055781261
49.66495 399.024826830387
49.68507 432.98604808022
49.70518 397.033018600064
49.7253 415
49.74541 473.993419113128
49.76552 415.986520403055
49.78564 467.09300475421
49.80575 464.933229303337
49.82586 446.99861737513
49.84598 464.975871960974
49.86609 484.991903070494
49.8862 510
49.90632 553.004976636265
49.92643 548.071959679878
49.94655 653.255259095305
49.96666 735.793349442447
49.98677 862.835029210115
50.00689 953.94615924942
50.027 1099
50.04711 1256.06939018868
50.06723 1382.18881106995
50.08734 1489.10628988266
50.10746 1486.056421427
50.12757 1430.17463953132
50.14768 1271.14738747641
50.1678 1158
50.18791 1034.93357374297
50.20802 940.989841944135
50.22814 992.090976647178
50.24825 960.28618185269
50.26837 812.186387402719
50.28848 722.099138911973
50.30859 590.070890772474
50.32871 483.977945697234
50.34882 481.995948123782
50.36893 445.920106866849
50.38905 414.03556467926
50.40916 444.019047556816
50.42927 394.053883495704
50.44939 401.986187924146
50.4695 427
50.48962 435.978461608218
50.50973 397.963440252089
50.52984 404.047459993856
50.54996 421.998072981877
50.57007 413.996924422155
50.59018 425.99731406078
50.6103 407
50.63041 386.006222794871
50.65053 411.998154280177
50.67064 381.960514812935
50.69075 391.948955657342
50.71087 398.021204860611
50.73098 385.981664099902
50.75109 417.99983067091
50.77121 388.994695723399
50.79132 416.036275402624
50.81143 436.008619154886
50.83155 421.896183548319
50.85166 378.024888785687
50.87178 402.96502422117
50.89189 415.00852686133
50.912 401
50.93212 453.02099660105
50.95223 419.917571896841
50.97234 384.991761627924
50.99246 398.982543256084
51.01257 398.98363487321
51.03269 424.987437394757
51.0528 434
51.07291 408.977447790707
51.09303 367.985585903289
51.11314 389.048253912534
51.13325 391.045528389496
51.15337 366.029924574295
51.17348 367.970732300119
51.1936 398
51.21371 374.999320538167
51.23382 394.998297507235
51.25394 377.028147467746
51.27405 409.032088471354
51.29416 354.062698928913
51.31428 363.996481327124
51.33439 350.995835500255
51.3545 383
51.37462 384.010914784926
51.39473 394.958573419862
51.41485 357.047110085112
51.43496 419.946676799738
51.45507 387.054449146514
51.47519 376.006438365991
51.4953 363
51.51541 395.002497876467
51.53553 364.954633355101
51.55564 352.981502989399
51.57576 343.990711999801
51.59587 356.99597486569
51.61598 347.006323518497
51.6361 360
51.65621 390.004261226227
51.67632 368.961158240017
51.69644 352.067044307967
51.71655 410.925782905945
51.73667 386.076629343436
51.75678 344.025172220074
51.77689 352.973428839754
51.79701 410.004718574774
51.81712 367.953705154002
51.83723 361.044464524633
51.85735 394.013585970142
51.87746 372.037046362901
51.89757 373.986428954754
51.91769 379.996908426577
51.9378 379
51.95792 360.009578544608
51.97803 379.975439055372
51.99814 345.021845261604
52.01826 396.953883944872
52.03837 372.034343203116
52.05848 377.98829064028
52.0786 378
52.09871 375.001758528038
52.11883 377.987939129778
52.13894 366.003436842554
52.15905 376.011992450127
52.17917 354.027430222362
52.19928 353.987784849265
52.21939 364.998895382331
52.23951 362.001431491262
52.25962 375.016227712215
52.27974 369.911977369541
52.29985 320.996038119663
52.31996 373.876090034464
52.34008 394.028702921719
52.36019 351.007771913015
52.3803 380
52.40042 404.980616670803
52.42053 359.952972339342
52.44064 366.05727096272
52.46076 387.005448898195
52.48087 368.017985448103
52.50099 370.000076354887
52.5211 364
52.54121 368.997277378883
52.56133 355.995859134867
52.58144 370.039230317979
52.60155 379.017744970823
52.62167 366.004858433873
52.64178 376.986005986485
52.6619 382
52.68201 380.0074552724
52.70212 395.987133443951
52.72224 369.007302455968
52.74235 399.97480473403
52.76246 394.933010384381
52.78258 448.99822824634
52.80269 399.014188760741
52.8228 415
52.84292 397.984648173455
52.86303 407.04122567391
52.88315 431.009849923936
52.90326 411.062340857241
52.92337 400.953049213663
52.94349 450.987481924488
52.9636 433
52.98371 401.986123641236
53.00383 386.009965411872
53.02394 406.026529075459
53.04406 406.000111562311
53.06417 420.952577011631
53.08428 439.027956836296
53.1044 389
53.12451 424.021675073759
53.14462 436.98481918325
53.16474 425.040721966298
53.18485 452.05368568973
53.20497 392.049312894922
53.22508 410.969676466367
53.24519 417.006903355455
53.26531 399.996068524902
53.28542 406.0124715895
53.30553 413.999635732593
53.32565 417.053367216432
53.34576 442.997416426869
53.36587 414.053454880104
53.38599 403.987588833109
53.4061 442
53.42622 432.982465256101
53.44633 431.026350514178
53.46644 457.038032902374
53.48656 461.008335556433
53.50667 454.017086087917
53.52678 448.986082893901
53.5469 474
53.56701 478.005700221229
53.58713 503.038537844821
53.60724 504.932553830218
53.62735 465.009979819772
53.64747 483.023601122235
53.66758 441.004473078128
53.68769 486.977337789319
53.70781 493.990689695033
53.72792 465.966469286216
53.74804 459.096835807744
53.76815 523.025927791241
53.78826 475.084010533902
53.80838 473.988400956645
53.82849 477.997757463502
53.8486 479
53.86872 461.003271691677
53.88883 479.002459678905
53.90894 470.033845845395
53.92906 504.983961661674
53.94917 474.055920299726
53.96929 464.989165539494
53.9894 488
54.00951 460.998621383318
54.02963 488.028205230355
54.04974 479.968084601441
54.06985 469.028866563844
54.08997 448.049709698407
54.11008 426.981227545882
54.1302 462
54.15031 450.025750408533
54.17042 541.030338014141
54.19054 479.832447952178
54.21065 441.975848525741
54.23076 467.980361314989
54.25088 464.980075128913
54.27099 495.004507654512
54.29111 455.994714834581
54.31122 485.021607291773
54.33133 473.966573776643
54.35145 465.019708914184
54.37156 471.036174827083
54.39167 443.997330477817
54.41179 472.991669321341
54.4319 479
54.45201 520.991180743526
54.47213 453.939662679175
54.49224 477.095424895859
54.51236 494.062465240289
54.53247 453.987518955377
54.55258 505.966646268327
54.5727 496
54.59281 516.030700259912
54.61292 564.976530530924
54.63304 486.891219286079
54.65315 499.88256257468
54.67327 539.962895040827
54.69338 560.963731098102
54.71349 625.956603555297
54.73361 690.000758924349
54.75372 642.957729868476
54.77383 671.166750531324
54.79395 788.076576509169
54.81406 753.972943487843
54.83417 831.930428863644
54.85429 792.04258847066
54.8744 725
54.89452 722.978658853859
54.91463 672.932244794645
54.93474 651.980480150422
54.95486 640.028131970428
54.97497 632.985826647353
54.99508 648.996981313604
55.0152 632
55.03531 610.990627941208
55.05543 574.893753184949
55.07554 496.923250287859
55.09565 518.857523170559
55.11577 564.980094177038
55.13588 547.026208827526
55.15599 550.97511709045
55.17611 595.986604430379
55.19622 533.003529471049
55.21634 607.091719685183
55.23645 591.971222234929
55.25656 606.005609424623
55.27668 595.965290023708
55.29679 660.986035894688
55.3169 625
55.33702 571.945424305066
55.35713 541.041096820296
55.37724 580.944195664962
55.39736 492.122540018383
55.41747 508.911902977416
55.43759 550.000374809478
55.4577 528
55.47781 544.990697317126
55.49793 495.966618133713
55.51804 501.959112676673
55.53815 449.089414708221
55.55827 456.955784705062
55.57838 486.968870842546
55.5985 499
55.61861 450.987976155453
55.63872 463.017463888505
55.65884 464.991847521778
55.67895 463.995450387539
55.69906 466.99444197752
55.71918 469.995022957592
55.73929 470.006866337415
55.75941 455.002619590731
55.77952 473.001780239968
55.79963 443.931964123595
55.81975 417.031439065466
55.83986 459.914929382789
55.85997 468.046215184825
55.88009 434.996822056158
55.9002 465
55.92031 427.993703086561
55.94043 459.054364017682
55.96054 470.991623478938
55.98066 466.991309004058
56.00077 472.015251650317
56.02088 443.035169989927
56.041 417
56.06111 425.017342551483
56.08122 457.996951294523
56.10134 424.954695146315
56.12145 441.885798445125
56.14157 472.029832851804
56.16168 418.03737912467
56.18179 415.998942616716
56.20191 415.009987507639
56.22202 444.001607322887
56.24213 407.928737801915
56.26225 397.120876405599
56.28236 458.987800585605
56.30248 412.028407774023
56.32259 418.007464457221
56.3427 386
56.36282 435.023328665029
56.38293 413.969110053907
56.40304 408.963053812859
56.42316 396.91270057362
56.44327 468.965578247386
56.46338 428.042422619585
56.4835 434
56.50361 463.990467394543
56.52373 418.983863486686
56.54384 453.059340816401
56.56395 453.016227381381
56.58407 452.01028104221
56.60418 428.040642231962
56.62429 400.991380663805
56.64441 453.023079998141
56.66452 458.971098611014
56.68464 424.971622462051
56.70475 441.080631100793
56.72486 466.979368131166
56.74498 459.020084519085
56.76509 440.005255116994
56.7852 446
56.80532 463.988914379244
56.82543 424.937277533828
56.84554 414.058534257444
56.86566 445.031288365257
56.88577 402.004127003747
56.90589 446.983898703293
56.926 434
56.94611 418.001743825523
56.96623 423.98010720992
56.98634 395.96746315441
57.00645 409.909119195537
57.02657 437.010307572197
57.04668 404.026504312995
57.0668 407
57.08691 431.006986682672
57.10702 425.977496526019
57.12714 402.984891836213
57.14725 411.972742446316
57.16736 411.024331843038
57.18748 399.997970018527
57.20759 423.978616769023
57.22771 463.007442839098
57.24782 441.951307392307
57.26793 406.014627403271
57.28805 442.024848469193
57.30816 404.110422800464
57.32827 374.983263586679
57.34839 407.988901846633
57.3685 412
57.38861 422.990265453923
57.40873 392.011511991105
57.42884 428.00801872604
57.44896 390.058754814576
57.46907 393.981641201694
57.48918 395.004669704442
57.5093 395
57.52941 397.987900353516
57.54952 371.015697210455
57.56964 424.07844028091
57.58975 424.036244072224
57.60987 416.007929681192
57.62998 410.006166547376
57.65009 403.004425631451
57.67021 406.014828777485
57.69032 440.000682811124
57.71043 414.991469203065
57.73055 421.921058128543
57.75066 365.033943464072
57.77078 398.968826134741
57.79089 406.991177763622
57.811 433
57.83112 404.977555169874
57.85123 403.000967722575
57.87134 402.021814029084
57.89146 411.040721059897
57.91157 363.06876541543
57.93168 352.969517931134
57.9518 397
57.97191 389.989597855089
57.99203 375.993062657811
58.01214 381.025042147246
58.03225 391.994470069096
58.05237 392.978495015896
58.07248 411.999942624894
58.09259 393.007226694094
58.11271 399.009469812048
58.13282 422.025259980321
58.15294 437.992770639963
58.17305 404.845366438738
58.19316 350.022406182422
58.21328 372.988294258657
58.23339 359.004352547854
58.2535 365
58.27362 349.984961803755
58.29373 359.064717853341
58.31385 411.061672903203
58.33396 402.027246300248
58.35407 397.018041964916
58.37419 370.016850145383
58.3943 364
58.41441 429.008174735953
58.43453 386.932135783995
58.45464 377.019308960352
58.47475 375.072434255103
58.49487 353.943497838
58.51498 425.969890102725
58.5351 402
58.55521 407.987159371473
58.57532 359.991807152333
58.59544 393.027760775295
58.61555 374.013845339955
58.63566 394.971696878539
58.65578 384.021052253556
58.67589 378.988831348791
58.69601 404.997137453797
58.71612 379.000483631845
58.73623 401.992462674682
58.75635 365.951435396092
58.77646 383.942081606858
58.79657 398.996924498694
58.81669 393.005097157856
58.8368 382
58.85691 377.005224314166
58.87703 390.995596025767
58.89714 374.990370869814
58.91726 390.955952782681
58.93737 396.031025868322
58.95748 379.971984754298
58.9776 435
58.99771 410.982704270825
59.01782 387.973341249216
59.03794 368.025843999176
59.05805 410.891954304595
59.07817 433.983728406124
59.09828 433.020816261218
59.11839 401.012992433627
59.13851 403.017602546861
59.15862 432.980659676628
59.17873 392.013726039309
59.19885 435.979951234574
59.21896 380.025665061965
59.23908 431.952427990444
59.25919 431.012595669433
59.2793 408
59.29942 411.039045208533
59.31953 456.008332844563
59.33964 424.960380863231
59.35976 439.948451145317
59.37987 445.035399443962
59.39998 418.993885069789
59.4201 440
59.44021 392.990114347251
59.46033 422.06222357168
59.48044 450.047810318861
59.50055 457.081481624922
59.52067 410.019265724572
59.54078 445.94918491714
59.56089 472.002685884079
59.58101 459.004798687246
59.60112 476.981951268209
59.62124 452.083373615249
59.64135 528.010328381296
59.66146 465.038752482877
59.68158 516.959330913353
59.70169 519.989545398593
59.7218 561
59.74192 547.031827868305
59.76203 640.152864201918
59.78215 706.087400650122
59.80226 736.905833063403
59.82237 821.816569296509
59.84249 932.975701477233
59.8626 955
59.88271 1101.06544154991
59.90283 1154.98908677064
59.92294 1118.90328817521
59.94305 1070.13086406956
59.96317 986.207586216191
59.98328 829.113109766977
60.0034 780
60.02351 757.999327370696
60.04362 781.032830891168
60.06374 804.014589650563
60.08385 776.191086056711
60.10396 683.124444841892
60.12408 662.015400565092
60.14419 603.057489689436
60.16431 482.970610090224
60.18442 473.965207450993
60.20453 424.032587293018
60.22465 500.064911320704
60.24476 446.11953916625
60.26487 429.993426158245
60.28499 424.011767430337
60.3051 402
60.32522 421.99259426632
60.34533 384.958672370399
60.36544 397.086498769524
60.38556 437.975192696441
60.40567 420.03694897968
60.42578 411.991494581707
60.4459 423
60.46601 409.993805011709
60.48612 410.011314707614
60.50624 419.993961058854
60.52635 407.020277196403
60.54647 414.969143491016
60.56658 425.020495049958
60.58669 388.00951353381
60.60681 403.015438753994
60.62692 426.008900198564
60.64703 419.976270734869
60.66715 409.009108089851
60.68726 414.03307410553
60.70738 382.018016727983
60.72749 393.985591102633
60.7476 413
60.76772 389.978330433127
60.78783 392.043328386828
60.80794 420.997489255389
60.82806 394.035430754451
60.84817 397.994534547373
60.86828 401.972977499592
60.8884 435
60.90851 402.990842368199
60.92863 418.036062098084
60.94874 423.969453936684
60.96885 401.033787569738
60.98897 406.97188992204
61.00908 414.02269326623
61.02919 389.989289308716
61.04931 438.004231034254
61.06942 392.95348084912
61.08954 380.009257626951
61.10965 385.010449541084
61.12976 393.959464496798
61.14988 404.028659062718
61.16999 364.996009727903
61.1901 416
61.21022 408.993679519188
61.23033 416.993930194479
61.25045 396.966423643438
61.27056 400.979911129387
61.29067 419.937177178899
61.31079 449.017221646633
61.3309 379
61.35101 406.00570224061
61.37113 375.957477604156
61.39124 380.049232043874
61.41135 410.915013371786
61.43147 427.030985238831
61.45158 396.992912720532
61.4717 444
61.49181 449.989904415979
61.51192 432.002144940349
61.53204 447.005450025044
61.55215 436.995336366006
61.57226 453.978684107816
61.59238 447.014519671643
61.61249 436.003134219771
61.63261 437.004866901273
61.65272 454.021083145064
61.67283 478.042510610136
61.69295 501.014550776636
61.71306 495.001924947556
61.73317 501.998503966536
61.75329 507.982086455136
61.7734 557
61.79352 538.977535099589
61.81363 534.002273415947
61.83374 530.985028733885
61.85386 526.984936298315
61.87397 540.989153754736
61.89408 528.033369899631
61.9142 504
61.93431 544.008732372458
61.95442 526.982781777348
61.97454 516.941641524265
61.99465 495.896703763001
62.01477 580.917878095119
62.03488 568.045062242715
62.05499 536.004351617519
62.07511 555.020504195759
62.09522 584.990888592856
62.11533 545.952570539252
62.13545 543.026020915888
62.15556 548.008073242957
62.17568 550.970468562863
62.19579 589.994421281899
62.2159 571
62.23602 592.052380614719
62.25613 631.980373134535
62.27624 574.897585907848
62.29636 553.035034947611
62.31647 539.974182157405
62.33659 569.001911044499
62.3567 540
62.37681 578.019060615921
62.39693 579.952973010081
62.41704 528.8816390723
62.43715 489.007868904569
62.45727 507.985785285072
62.47738 496.0137691062
62.49749 504.981690523939
62.51761 535.99328627868
62.53772 474.927381150448
62.55784 429.97522027317
62.57795 441.052483100135
62.59806 452.011941106151
62.61818 433.021100570936
62.63829 427.99063573245
62.6584 445
62.67852 408.996875820669
62.69863 431.987930261229
62.71875 390.953322429829
62.73886 415.930207077892
62.75897 424.033699317729
62.77909 395.003746514034
62.7992 417
62.81931 438.004918688237
62.83943 421.915964217723
62.85954 370.022369010472
62.87965 421.972254466559
62.89977 388.998430383553
62.91988 433.979735795006
62.94 414
62.96011 430.999969930436
62.98022 398.962643506222
63.00034 395.084387579787
63.02045 449.948993786451
63.04056 422.087073606222
63.06068 405.977580612157
63.08079 436.002270399023
63.10091 401.991969222717
63.12102 425.036105432301
63.14113 433.950590577749
63.16125 394.007488371506
63.18136 435.946367936707
63.20147 428.013506795269
63.22159 421.017801731207
63.2417 380
63.26182 432.035576785565
63.28193 422.966357876565
63.30204 406.959014797078
63.32216 389.987922906835
63.34227 405.01417605713
63.36238 382.988948506026
63.3825 425
63.40261 409.985295489398
63.42272 387.982490314268
63.44284 379.013933648466
63.46295 398.944318350496
63.48307 411.001084186333
63.50318 401.013304263843
63.52329 394.996908632277
63.54341 405.00023301773
63.56352 393.988925510803
63.58363 395.021052549693
63.60375 408.999336915687
63.62386 391.049549654284
63.64398 385.969158776165
63.66409 428.992668669961
63.6842 410
63.70432 417.020617100731
63.72443 437.023840990246
63.74454 441.980713285062
63.76466 430.99039674869
63.78477 441.018666666924
63.80489 409.010241451577
63.825 412
63.84511 418.008069768013
63.86523 453.075137662821
63.88534 498.04460430361
63.90545 506.946088886183
63.92557 536.98870016439
63.94568 516.024632711441
63.96579 522.975411940035
63.98591 577.004922936591
64.00602 535.950068767207
64.02614 507.967990010841
64.04625 505.053870121114
64.06636 532.991375500477
64.08648 500.053884267556
64.10659 458.006276614783
64.1267 479
64.14682 515.017354964426
64.16693 506.959041411332
64.18705 477.953409983934
64.20716 460.076024455536
64.22727 413.034479024292
64.24739 419.994844831462
64.2675 431
64.28761 452.97319409044
64.30773 356.937093488714
64.32784 397.109829523321
64.34796 417.99175118104
64.36807 414.031563574554
64.38818 391.000444396852
64.4083 418
64.42841 430.990663896492
64.44852 397.980331888039
64.46864 391.96197629835
64.48875 365.999117225111
64.50886 390.970567623757
64.52898 399.957587569622
64.54909 450.004192578796
64.56921 392.985228682874
64.58932 411.010341064197
64.60943 382.937217812458
64.62955 365.049728482598
64.64966 401.962333639316
64.66977 380.076028680416
64.68989 341.997512393643
64.71 377
64.73012 373.000719109207
64.75023 391.025974155507
64.77034 388.955321280612
64.79046 373.957405128106
64.81057 409.004543686771
64.83068 372.014824122875
64.8508 387
64.87091 358.995029636028
64.89102 383.031445781239
64.91114 400.012977475457
64.93125 403.987057245175
64.95137 398.049798141251
64.97148 361.99758716837
64.99159 392.995795846788
65.01171 375.001430343519
65.03182 395.989194568753
65.05193 360.997622465904
65.07205 396.043567610969
65.09216 383.999227641901
65.11228 401.00414749158
65.13239 376.003789105045
65.1525 397
65.17262 406.007239657229
65.19273 402.949671664617
65.21284 354.949108740672
65.23296 371.914745840771
65.25307 402.007262556139
65.27319 373.009987812101
65.2933 383
65.31341 407.004658626806
65.33353 397.969130980719
65.35364 381.996757562378
65.37375 384.036503537036
65.39387 361.999327593547
65.41398 380.996317166387
65.43409 366.001571643485
65.45421 393.022339383909
65.47432 410.95865574083
65.49444 344.954543486435
65.51455 376.071043299657
65.53466 374.008932526386
65.55478 382.989837091394
65.57489 381.007644866092
65.595 372
65.61512 405.014087346767
65.63523 393.986437481352
65.65535 393.97322052983
65.67546 373.021310809603
65.69557 385.955625960748
65.71569 403.009106703052
65.7358 378
65.75591 433.014895265111
65.77603 404.912656347874
65.79614 379.0841533147
65.81626 441.005869510257
65.83637 368.095362689414
65.85648 358.987758056363
65.8766 364
65.89671 365.999162536345
65.91682 358.989174252827
65.93694 359.048287212476
65.95705 392.961339469102
65.97716 371.100680805571
65.99728 337.978101825614
66.01739 390.988916096746
66.03751 363.983576148993
66.05762 346.977973082506
66.07773 327.015764154003
66.09785 352.995117833368
66.11796 331.975788144496
66.13807 382.935433229111
66.15819 383.015940514069
66.1783 347
66.19842 352.030822130074
66.21853 377.988167234589
66.23864 345.965155268505
66.25876 357.964404389912
66.27887 360.017970227644
66.29898 352.98473414191
66.3191 378
66.33921 371.010211340527
66.35933 404.991587338222
66.37944 350.883743224153
66.39955 334.926839224433
66.41967 381.94937486119
66.43978 381.026793678512
66.45989 348.013971680517
66.48001 346.017048934478
66.50012 382.996029827762
66.52023 358.026173595619
66.54035 409.030140915457
66.56046 368.071464895858
66.58058 365.997314636974
66.60069 357.003939667436
66.6208 353
66.64092 345.011998163929
66.66103 369.014755117697
66.68114 365.016463691806
66.70126 381.014039396397
66.72137 357.006179507704
66.74149 381.986867067064
66.7616 385
66.78171 360.990321830255
66.80183 363.043841465705
66.82194 383.942252756845
66.84205 334.000199247985
66.86217 373.005241747744
66.88228 329.000554072153
66.90239 379.986832028611
66.92251 362.998405484535
66.94262 395.031350721681
66.96274 395.952294663025
66.98285 361.913461988948
67.00296 350.943911792086
67.02308 397.97002413112
67.04319 396.00676157589
67.0633 388
67.08342 380.991539354719
67.10353 371.987665628845
67.12365 375.058814114982
67.14376 398.016670666623
67.16387 365.030288650876
67.18399 377.985385521265
67.2041 394
67.22421 377.00436667341
67.24433 401.998787450617
67.26444 383.024393874157
67.28456 418.000826970343
67.30467 376.047419402981
67.32478 388.95989574257
67.3449 414
67.36501 380.999027815293
67.38512 416.029360238166
67.40524 410.947779687954
67.42535 400.924444036934
67.44546 440.016387287146
67.46558 399.999885218598
67.48569 453.975341155781
67.50581 460.992358110751
67.52592 465.044741753802
67.54603 529.059171366517
67.56615 536.022900544721
67.58626 578.854880318117
67.60637 653.921570767693
67.62649 694.967619292098
67.6466 763
67.66672 746.031602928129
67.68683 820.045090260602
67.70694 778.892221065623
67.72706 750.046121010637
67.74717 709.093341049879
67.76728 652.020455811782
67.7874 641
67.80751 561.994231892963
67.82763 624.082106936457
67.84774 642.06214655016
67.86785 695.911749229428
67.88797 696.017219435832
67.90808 690.007210994544
67.92819 672.015648307259
67.94831 651.008025530631
67.96842 703.059744283241
67.98853 730.975470419673
68.00865 704.021246053642
68.02876 753.898656129422
68.04888 801.919140168137
68.06899 902.964746783834
68.0891 936
68.10922 999.067267810334
68.12933 1006.85807480493
68.14944 865.827210822956
68.16956 854.031880768308
68.18967 816.993308806195
68.20979 874.969822828573
68.2299 907
68.25001 947.031866475396
68.27013 982.923588781385
68.29024 865.795147904844
68.31035 818.077666708742
68.33047 764.115118347108
68.35058 678.079686850736
68.3707 602
68.39081 535.002702841409
68.41092 589.02785171853
68.43104 563.939000539453
68.45115 550.952175053575
68.47126 521.04203352579
68.49138 519.989058340323
68.51149 519.014384777252
68.5316 464
68.55172 419.985085848035
68.57183 427.018434825013
68.59195 423.944019863279
68.61206 390.065651439189
68.63217 375.983842968946
68.65229 399.990303285401
68.6724 400
68.69251 386.002832481709
68.71263 406.017974976801
68.73274 400.982069729055
68.75286 396.011811667323
68.77297 379.049413395532
68.79308 353.987626584507
68.8132 387
68.83331 369.00199332096
68.85342 404.027795827822
68.87354 411.020225452483
68.89365 421.043692088333
68.91376 385.03549769134
68.93388 389.007304305922
68.95399 364.007835371024
68.97411 370.006619898482
68.99422 368.977576548271
69.01433 338.975777139416
69.03445 345.038868796512
69.05456 363.943379213
69.07467 391.983164855471
69.09479 388.000703735052
69.1149 401
69.13502 407.975928433362
69.15513 370.97802295669
69.17524 383.016550352542
69.19536 379.98324535977
69.21547 389.035848496676
69.23558 349.005074892449
69.2557 381
69.27581 371.996677238475
69.29593 385.027749164555
69.31604 391.984560462374
69.33615 375.043264258283
69.35627 378.942638133828
69.37638 426.980672512503
69.39649 416.002465424749
69.41661 423.995699908502
69.43672 395.979551516951
69.45683 398.019340635318
69.47695 403.981838937284
69.49706 386.039005721652
69.51718 383.974267234511
69.53729 411.00446540241
69.5574 374
69.57752 384.00734875216
69.59763 369.967432065223
69.61774 372.087592882415
69.63786 421.997200619373
69.65797 381.03444385992
69.67809 395.993701033849
69.6982 384
69.71831 370.993407814178
69.73843 367.030815965717
69.75854 397.017504384728
69.77865 378.056449463513
69.79877 376.967137664325
69.81888 398.005495319348
69.839 370
69.85911 377.012737667738
69.87922 408.032200110188
69.89934 422.965878471677
69.91945 387.94016745504
69.93956 377.048352079004
69.95968 354.97757772689
69.97979 416.973173781862
69.9999 424
70.02002 396.007907525474
70.04013 429.021769146276
70.06025 409.938973026682
70.08036 389.071751603763
70.10047 361.962566785582
70.12059 413.994881657213
70.1407 382
70.16081 415.008631730168
70.18093 393.959184361425
70.20104 388.022248143876
70.22116 401.987002331783
70.24127 392.037930658751
70.26138 358.036576588277
70.2815 345
70.30161 390.003417309617
70.32172 360.989011823462
70.34184 381.02078562247
70.36195 371.99448701176
70.38207 380.033408146357
70.40218 347.98457003662
70.42229 404.982547176001
70.44241 385.979224860689
70.46252 351.973151792618
70.48263 340.01756028569
70.50275 364.039927753197
70.52286 363.014040027566
70.54297 365.973030046828
70.56309 372.019062897438
70.5832 316
70.60332 354.042825385739
70.62343 365.988570675604
70.64354 357.999065344485
70.66366 357.034530359126
70.68377 330.020949630935
70.70388 340.974781735684
70.724 365
70.74411 377.006115129073
70.76423 383.985393542894
70.78434 362.969619393798
70.80445 358.01744604
70.82457 358.953087876514
70.84468 402.984003345165
70.86479 386.007245360844
70.88491 382.991118524357
70.90502 352.986980168345
70.92513 368.037824699967
70.94525 379.981724889329
70.96536 364.015728670924
70.98548 370.987992424725
71.00559 366.017102605196
71.0257 329
71.04582 363.027113554864
71.06593 364.99898146766
71.08604 365.969119637363
71.10616 338.035760147259
71.12627 344.963237088509
71.14639 366.99684917817
71.1665 358
71.18661 353.999188372639
71.20673 348.985723482229
71.22684 343.013733682863
71.24695 355.992811365001
71.26707 344.023121568685
71.28718 343.977051175631
71.3073 372
71.32741 355.992290937195
71.34752 351.994937255436
71.36764 342.9937035375
71.38775 353.94132926522
71.40786 370.020451275911
71.42798 347.003183555034
71.44809 363.99752328932
71.4682 351
71.48832 366.019644783432
71.50843 376.000972407417
71.52855 368.966603842758
71.54866 348.06100245656
71.56877 321.011458573032
71.58889 328.997915947584
71.609 333
71.62911 372.008523946897
71.64923 370.023166631963
71.66934 389.950024204643
71.68946 341.003535578908
71.70957 380.991679992066
71.72968 341.020078871898
71.7498 360
71.76991 352.00260811973
71.79002 372.003090565259
71.81014 361.018452035642
71.83025 381.032803084326
71.85037 349.984302315288
71.87048 399.972348921249
71.89059 386.00672279347
71.91071 395.005597735517
71.93082 390.983522623076
71.95093 374.992494572804
71.97105 384.039280071138
71.99116 394.996499245809
72.01127 384.034230955937
72.03139 365.998480147619
72.0515 388
72.07162 390.981364972296
72.09173 371.001829255769
72.11184 384.991971085636
72.13196 359.041482174795
72.15207 364.958830602193
72.17218 392.987680917921
72.1923 393
72.21241 403.996342927857
72.23253 377.96621552301
72.25264 373.010007440953
72.27275 383.949328202117
72.29287 400.008468035566
72.31298 377.018408936418
72.33309 373.00067876281
72.35321 374.007444321646
72.37332 390.995544943054
72.39344 366.963865011721
72.41355 367.013165908678
72.43366 368.000016314797
72.45378 365.011230781784
72.47389 358.990953211618
72.494 387
72.51412 359.96706427065
72.53423 343.998535678488
72.55434 355.04406202011
72.57446 378.965890689276
72.59457 379.028299247208
72.61469 362.994611095931
72.6348 386
72.65491 360.998467566165
72.67503 394.059482788537
72.69514 404.951207893086
72.71525 369.041116901611
72.73537 376.989735502043
72.75548 371.004934811668
72.7756 379
72.79571 399.006553633186
72.81582 405.006314648144
72.83594 404.958999456893
72.85605 380.989606457752
72.87616 404.992037030261
72.89628 382.016810137791
72.91639 382.002710216862
72.9365 357
72.95662 347.045515726852
72.97673 418.05451351056
72.99685 401.93223556094
73.01696 383.064076641185
73.03707 348.008352135795
73.05719 372.987910751947
73.0773 388
73.09741 424.007568483295
73.11753 409.96522024265
73.13764 395.988157899205
73.15776 392.013501601541
73.17787 392.963989944709
73.19798 418.011804140402
73.2181 391
73.23821 447.014243348957
73.25832 421.960953032266
73.27844 420.09455865312
73.29855 479.943506291096
73.31867 460.02800831164
73.33878 473.965881161161
73.35889 500.99774731868
73.37901 490.999344256904
73.39912 506.015733113457
73.41923 514.01050318542
73.43935 524.025007630241
73.45946 528.010526451491
73.47957 502.081893827586
73.49969 449.005984222994
73.5198 465
73.53992 429.987609417993
73.56003 450.019625439528
73.58014 445.00940790838
73.60026 465.968706676642
73.62037 467.998214082225
73.64048 472.999520142233
73.6606 465
73.68071 448.988007223753
73.70083 419.960454847556
73.72094 404.996355588981
73.74105 396.094182336877
73.76117 349.021521908564
73.78128 381.947035756125
73.80139 403.018178635194
73.82151 347.995599009128
73.84162 382.009047093926
73.86174 352.974733880431
73.88185 369.007526751246
73.90196 347.034384908255
73.92208 359.961039374544
73.94219 392.002222259155
73.9623 372
73.98242 405.987169682181
74.00253 336.897602605637
74.02264 327.100837106473
74.04276 381.998805314969
74.06287 344.003871278093
74.08299 384.990851263264
74.1031 363
74.12321 377.006684630747
74.14333 373.989790561118
74.16344 378.033816646363
74.18355 387.054907478204
74.20367 343.050150380318
74.22378 336.993673452275
74.2439 349
74.26401 376.003065338826
74.28412 361.988237717324
74.30424 363.004335413389
74.32435 356.036765779009
74.34446 355.928473196919
74.36458 389.030154955486
74.38469 327.000704882714
74.40481 389.017778293727
74.42492 366.978339106685
74.44503 369.991722064739
74.46515 347.967281537299
74.48526 354.97377979525
74.50537 366.973976366956
74.52549 374.012909430999
74.5456 337
74.56571 364.005049741244
74.58583 348.998362333541
74.60594 376.060657007715
74.62606 379.06123946259
74.64617 347.987275831946
74.66628 380.00063091054
74.6864 345
74.70651 376.02374776671
74.72662 396.979843135964
74.74674 361.982493806859
74.76685 381.974102915147
74.78697 363.044454055942
74.80708 342.011156132941
74.82719 344.989767737897
74.84731 366.000433755905
74.86742 351.996906354478
74.88753 368.026367845652
74.90765 363.921150123345
74.92776 341.938168245182
74.94787 392.012573138848
74.96799 332.013339771227
74.9881 362
75.00822 343.960376073644
