3.00117 20252
3.02128 19606
3.0414 18900
3.06151 18295
3.08162 17777
3.10174 17505
3.12185 16847
3.14197 16232
3.16208 15850
3.18219 15644
3.20231 15150
3.22242 14703
3.24253 14186
3.26265 13645
3.28276 13338
3.30288 12796
3.32299 12242
3.3431 11933
3.36322 11814
3.38333 11244
3.40344 10765
3.42356 10612
3.44367 9985
3.46379 10079
3.4839 9443
3.50401 9032
3.52413 8918
3.54424 8485
3.56435 8249
3.58447 7993
3.60458 7698
3.62469 7411
3.64481 7030
3.66492 7048
3.68504 6718
3.70515 6225
3.72526 6067
3.74538 5762
3.76549 5715
3.7856 5313
3.80572 5117
3.82583 4901
3.84595 4658
3.86606 4627
3.88617 4376
3.90629 4032
3.9264 3865
3.94651 3778
3.96663 3791
3.98674 3543
4.00686 3293
4.02697 3178
4.04708 2953
4.0672 2910
4.08731 2830
4.10742 2636
4.12754 2573
4.14765 2407
4.16776 2405
4.18788 2407
4.20799 2171
4.22811 2160
4.24822 1943
4.26833 2023
4.28845 1906
4.30856 1768
4.32867 1721
4.34879 1599
4.3689 1767
4.38902 1720
4.40913 1582
4.42924 1525
4.44936 1489
4.46947 1400
4.48958 1578
4.5097 1407
4.52981 1355
4.54992 1346
4.57004 1323
4.59015 1336
4.61027 1298
4.63038 1217
4.65049 1137
4.67061 1234
4.69072 1230
4.71083 1074
4.73095 1101
4.75106 1020
4.77118 1078
4.79129 1083
4.8114 974
4.83152 1016
4.85163 995
4.87174 990
4.89186 920
4.91197 934
4.93209 866
4.9522 821
4.97231 833
4.99243 877
5.01254 853
5.03265 811
5.05277 762
5.07288 750
5.09299 831
5.11311 677
5.13322 726
5.15334 720
5.17345 671
5.19356 703
5.21368 677
5.23379 640
5.2539 653
5.27402 647
5.29413 639
5.31425 524
5.33436 595
5.35447 541
5.37459 564
5.3947 620
5.41481 530
5.43493 540
5.45504 533
5.47516 552
5.49527 571
5.51538 488
5.5355 533
5.55561 508
5.57572 505
5.59584 511
5.61595 465
5.63606 503
5.65618 442
5.67629 443
5.69641 436
5.71652 435
5.73663 427
5.75675 427
5.77686 445
5.79697 459
5.81709 402
5.8372 416
5.85732 418
5.87743 453
5.89754 399
5.91766 415
5.93777 412
5.95788 408
5.978 391
5.99811 395
6.01823 401
6.03834 365
6.05845 400
6.07857 381
6.09868 398
6.11879 414
6.13891 376
6.15902 393
6.17913 376
6.19925 398
6.21936 404
6.23948 375
6.25959 385
6.2797 405
6.29982 380
6.31993 421
6.34004 369
6.36016 350
6.38027 399
6.40039 339
6.4205 351
6.44061 366
6.46073 359
6.48084 407
6.50095 382
6.52107 339
6.54118 405
6.56129 351
6.58141 351
6.60152 376
6.62164 374
6.64175 337
6.66186 401
6.68198 354
6.70209 340
6.7222 402
6.74232 368
6.76243 337
6.78255 318
6.80266 366
6.82277 353
6.84289 309
6.863 322
6.88311 371
6.90323 306
6.92334 352
6.94346 376
6.96357 340
6.98368 332
7.0038 319
7.02391 348
7.04402 350
7.06414 314
7.08425 368
7.10436 351
7.12448 328
7.14459 362
7.16471 333
7.18482 359
7.20493 347
7.22505 344
7.24516 352
7.26527 356
7.28539 356
7.3055 310
7.32562 350
7.34573 349
7.36584 332
7.38596 355
7.40607 318
7.42618 351
7.4463 374
7.46641 341
7.48653 348
7.50664 344
7.52675 382
7.54687 387
7.56698 399
7.58709 330
7.60721 324
7.62732 336
7.64743 347
7.66755 369
7.68766 364
7.70778 353
7.72789 355
7.748 352
7.76812 336
7.78823 329
7.80834 313
7.82846 354
7.84857 362
7.86869 324
7.8888 349
7.90891 351
7.92903 337
7.94914 329
7.96925 322
7.98937 343
8.00948 333
8.0296 362
8.04971 322
8.06982 344
8.08994 362
8.11005 334
8.13016 364
8.15028 337
8.17039 344
8.1905 333
8.21062 354
8.23073 350
8.25085 327
8.27096 353
8.29107 352
8.31119 358
8.3313 359
8.35141 355
8.37153 334
8.39164 344
8.41176 368
8.43187 348
8.45198 339
8.4721 357
8.49221 378
8.51232 359
8.53244 305
8.55255 323
8.57266 365
8.59278 350
8.61289 329
8.63301 342
8.65312 331
8.67323 356
8.69335 346
8.71346 353
8.73357 339
8.75369 365
8.7738 367
8.79392 355
8.81403 361
8.83414 337
8.85426 341
8.87437 325
8.89448 389
8.9146 331
8.93471 346
8.95483 330
8.97494 360
8.99505 365
9.01517 366
9.03528 347
9.05539 366
9.07551 358
9.09562 354
9.11573 351
9.13585 345
9.15596 353
9.17608 362
9.19619 371
9.2163 351
9.23642 357
9.25653 308
9.27664 327
9.29676 339
9.31687 362
9.33699 369
9.3571 351
9.37721 337
9.39733 323
9.41744 339
9.43755 330
9.45767 345
9.47778 390
9.4979 359
9.51801 352
9.53812 368
9.55824 341
9.57835 335
9.59846 357
9.61858 273
9.63869 345
9.6588 361
9.67892 361
9.69903 353
9.71915 355
9.73926 365
9.75937 351
9.77949 358
9.7996 381
9.81971 384
9.83983 338
9.85994 329
9.88006 361
9.90017 347
9.92028 331
9.9404 363
9.96051 348
9.98062 327
10.00074 373
10.02085 336
10.04097 342
10.06108 378
10.08119 338
10.10131 340
10.12142 320
10.14153 337
10.16165 376
10.18176 327
10.20187 345
10.22199 326
10.2421 296
10.26222 340
10.28233 365
10.30244 344
10.32256 362
10.34267 372
10.36278 365
10.3829 343
10.40301 367
10.42313 356
10.44324 329
10.46335 370
10.48347 356
10.50358 343
10.52369 325
10.54381 318
10.56392 333
10.58403 335
10.60415 386
10.62426 355
10.64438 363
10.66449 365
10.6846 399
10.70472 388
10.72483 358
10.74494 371
10.76506 333
10.78517 335
10.80529 302
10.8254 351
10.84551 336
10.86563 371
10.88574 339
10.90585 321
10.92597 370
10.94608 309
10.9662 349
10.98631 341
11.00642 347
11.02654 369
11.04665 348
11.06676 340
11.08688 356
11.10699 350
11.1271 326
11.14722 358
11.16733 375
11.18745 353
11.20756 352
11.22767 375
11.24779 316
11.2679 360
11.28801 334
11.30813 358
11.32824 353
11.34836 355
11.36847 333
11.38858 393
11.4087 378
11.42881 355
11.44892 362
11.46904 345
11.48915 388
11.50927 351
11.52938 348
11.54949 384
11.56961 401
11.58972 375
11.60983 365
11.62995 362
11.65006 407
11.67017 382
11.69029 384
11.7104 343
11.73052 398
11.75063 366
11.77074 357
11.79086 378
11.81097 319
11.83108 420
11.8512 364
11.87131 395
11.89143 402
11.91154 438
11.93165 419
11.95177 420
11.97188 430
11.99199 440
12.01211 424
12.03222 480
12.05234 447
12.07245 449
12.09256 489
12.11268 506
12.13279 511
12.1529 509
12.17302 559
12.19313 565
12.21324 561
12.23336 530
12.25347 560
12.27359 543
12.2937 536
12.31381 525
12.33393 586
12.35404 559
12.37415 536
12.39427 514
12.41438 513
12.4345 491
12.45461 447
12.47472 444
12.49484 414
12.51495 472
12.53506 404
12.55518 391
12.57529 436
12.5954 432
12.61552 407
12.63563 383
12.65575 413
12.67586 369
12.69597 387
12.71609 366
12.7362 356
12.75631 349
12.77643 357
12.79654 377
12.81666 394
12.83677 320
12.85688 303
12.877 347
12.89711 374
12.91722 345
12.93734 345
12.95745 365
12.97757 331
12.99768 361
13.01779 340
13.03791 381
13.05802 339
13.07813 321
13.09825 345
13.11836 305
13.13847 291
13.15859 344
13.1787 364
13.19882 381
13.21893 318
13.23904 345
13.25916 307
13.27927 308
13.29938 349
13.3195 316
13.33961 329
13.35973 321
13.37984 328
13.39995 325
13.42007 326
13.44018 320
13.46029 339
13.48041 339
13.50052 297
13.52064 299
13.54075 327
13.56086 316
13.58098 339
13.60109 361
13.6212 298
13.64132 330
13.66143 332
13.68154 349
13.70166 356
13.72177 303
13.74189 335
13.762 324
13.78211 312
13.80223 372
13.82234 326
13.84245 324
13.86257 346
13.88268 370
13.9028 344
13.92291 283
13.94302 311
13.96314 319
13.98325 313
14.00336 354
14.02348 347
14.04359 319
14.06371 324
14.08382 347
14.10393 334
14.12405 319
14.14416 318
14.16427 319
14.18439 303
14.2045 369
14.22461 315
14.24473 315
14.26484 314
14.28496 311
14.30507 314
14.32518 329
14.3453 333
14.36541 307
14.38552 332
14.40564 292
14.42575 328
14.44587 334
14.46598 314
14.48609 313
14.50621 296
14.52632 333
14.54643 303
14.56655 292
14.58666 293
14.60677 326
14.62689 326
14.647 326
14.66712 331
14.68723 325
14.70734 292
14.72746 308
14.74757 297
14.76768 304
14.7878 309
14.80791 309
14.82803 344
14.84814 309
14.86825 276
14.88837 352
14.90848 287
14.92859 273
14.94871 323
14.96882 302
14.98894 319
15.00905 308
15.02916 305
15.04928 343
15.06939 313
15.0895 303
15.10962 315
15.12973 303
15.14984 299
15.16996 297
15.19007 307
15.21019 292
15.2303 302
15.25041 282
15.27053 311
15.29064 335
15.31075 337
15.33087 317
15.35098 268
15.3711 301
15.39121 301
15.41132 333
15.43144 323
15.45155 312
15.47166 308
15.49178 314
15.51189 302
15.53201 319
15.55212 326
15.57223 323
15.59235 302
15.61246 314
15.63257 288
15.65269 289
15.6728 298
15.69291 282
15.71303 334
15.73314 271
15.75326 294
15.77337 364
15.79348 293
15.8136 317
15.83371 288
15.85382 302
15.87394 315
15.89405 320
15.91417 317
15.93428 303
15.95439 292
15.97451 309
15.99462 327
16.01473 307
16.03485 323
16.05496 310
16.07508 304
16.09519 333
16.1153 292
16.13542 314
16.15553 318
16.17564 292
16.19576 312
16.21587 350
16.23598 312
16.2561 301
16.27621 287
16.29633 317
16.31644 327
16.33655 286
16.35667 263
16.37678 303
16.39689 333
16.41701 318
16.43712 290
16.45724 318
16.47735 314
16.49746 307
16.51758 309
16.53769 295
16.5578 281
16.57792 316
16.59803 302
16.61814 310
16.63826 278
16.65837 335
16.67849 269
16.6986 279
16.71871 304
16.73883 309
16.75894 293
16.77905 315
16.79917 361
16.81928 294
16.8394 281
16.85951 297
16.87962 288
16.89974 310
16.91985 311
16.93996 306
16.96008 303
16.98019 295
17.00031 288
17.02042 280
17.04053 317
17.06065 310
17.08076 342
17.10087 298
17.12099 291
17.1411 287
17.16121 293
17.18133 282
17.20144 302
17.22156 280
17.24167 303
17.26178 315
17.2819 326
17.30201 299
17.32212 295
17.34224 317
17.36235 301
17.38247 287
17.40258 301
17.42269 326
17.44281 317
17.46292 329
17.48303 294
17.50315 318
17.52326 304
17.54338 298
17.56349 298
17.5836 317
17.60372 308
17.62383 324
17.64394 323
17.66406 302
17.68417 305
17.70428 337
17.7244 317
17.74451 289
17.76463 301
17.78474 310
17.80485 336
17.82497 333
17.84508 327
17.86519 277
17.88531 309
17.90542 336
17.92554 343
17.94565 329
17.96576 312
17.98588 319
18.00599 315
18.0261 342
18.04622 302
18.06633 325
18.08645 311
18.10656 306
18.12667 333
18.14679 319
18.1669 331
18.18701 365
18.20713 343
18.22724 327
18.24735 344
18.26747 359
18.28758 297
18.3077 333
18.32781 348
18.34792 325
18.36804 334
18.38815 342
18.40826 344
18.42838 344
18.44849 341
18.46861 339
18.48872 315
18.50883 344
18.52895 289
18.54906 335
18.56917 337
18.58929 317
18.6094 319
18.62951 316
18.64963 321
18.66974 294
18.68986 270
18.70997 352
18.73008 314
18.7502 335
18.77031 308
18.79042 348
18.81054 335
18.83065 328
18.85077 323
18.87088 307
18.89099 302
18.91111 338
18.93122 299
18.95133 309
18.97145 271
18.99156 289
19.01168 341
19.03179 314
19.0519 329
19.07202 328
19.09213 321
19.11224 297
19.13236 325
19.15247 329
19.17258 326
19.1927 332
19.21281 357
19.23293 320
19.25304 320
19.27315 312
19.29327 327
19.31338 332
19.33349 303
19.35361 323
19.37372 338
19.39384 326
19.41395 308
19.43406 333
19.45418 358
19.47429 344
19.4944 349
19.51452 320
19.53463 346
19.55475 376
19.57486 360
19.59497 379
19.61509 384
19.6352 422
19.65531 425
19.67543 394
19.69554 443
19.71565 447
19.73577 500
19.75588 517
19.776 544
19.79611 503
19.81622 529
19.83634 581
19.85645 554
19.87656 557
19.89668 548
19.91679 529
19.93691 549
19.95702 540
19.97713 503
19.99725 542
20.01736 537
20.03747 528
20.05759 548
20.0777 553
20.09782 591
20.11793 513
20.13804 488
20.15816 504
20.17827 599
20.19838 552
20.2185 534
20.23861 525
20.25872 523
20.27884 549
20.29895 563
20.31907 552
20.33918 500
20.35929 501
20.37941 654
20.39952 598
20.41963 542
20.43975 580
20.45986 645
20.47998 587
20.50009 571
20.5202 602
20.54032 612
20.56043 639
20.58054 679
20.60066 754
20.62077 801
20.64088 995
20.661 1129
20.68111 1477
20.70123 2000
20.72134 2507
20.74145 3207
20.76157 3988
20.78168 4767
20.80179 5371
20.82191 5022
20.84202 4579
20.86214 3998
20.88225 2918
20.90236 2188
20.92248 1478
20.94259 1106
20.9627 891
20.98282 732
21.00293 651
21.02305 592
21.04316 632
21.06327 607
21.08339 556
21.1035 589
21.12361 574
21.14373 532
21.16384 590
21.18395 523
21.20407 556
21.22418 554
21.2443 562
21.26441 570
21.28452 562
21.30464 505
21.32475 553
21.34486 544
21.36498 502
21.38509 576
21.40521 549
21.42532 512
21.44543 530
21.46555 486
21.48566 523
21.50577 498
21.52589 478
21.546 489
21.56612 501
21.58623 476
21.60634 458
21.62646 465
21.64657 453
21.66668 452
21.6868 452
21.70691 436
21.72702 485
21.74714 422
21.76725 447
21.78737 454
21.80748 393
21.82759 452
21.84771 408
21.86782 427
21.88793 458
21.90805 470
21.92816 426
21.94828 448
21.96839 418
21.9885 466
22.00862 432
22.02873 443
22.04884 427
22.06896 427
22.08907 395
22.10919 429
22.1293 409
22.14941 396
22.16953 379
22.18964 427
22.20975 376
22.22987 420
22.24998 388
22.27009 404
22.29021 427
22.31032 404
22.33044 392
22.35055 379
22.37066 390
22.39078 381
22.41089 403
22.431 384
22.45112 410
22.47123 383
22.49135 397
22.51146 387
22.53157 401
22.55169 414
22.5718 383
22.59191 435
22.61203 384
22.63214 416
22.65225 402
22.67237 383
22.69248 389
22.7126 370
22.73271 382
22.75282 401
22.77294 394
22.79305 400
22.81316 369
22.83328 388
22.85339 383
22.87351 410
22.89362 411
22.91373 364
22.93385 420
22.95396 411
22.97407 386
22.99419 396
23.0143 361
23.03442 400
23.05453 354
23.07464 366
23.09476 378
23.11487 411
23.13498 362
23.1551 364
23.17521 396
23.19532 356
23.21544 367
23.23555 387
23.25567 402
23.27578 390
23.29589 363
23.31601 376
23.33612 364
23.35623 358
23.37635 389
23.39646 422
23.41658 360
23.43669 366
23.4568 383
23.47692 404
23.49703 387
23.51714 395
23.53726 352
23.55737 376
23.57749 344
23.5976 396
23.61771 404
23.63783 371
23.65794 372
23.67805 374
23.69817 397
23.71828 397
23.73839 398
23.75851 402
23.77862 403
23.79874 457
23.81885 414
23.83896 417
23.85908 427
23.87919 426
23.8993 427
23.91942 433
23.93953 415
23.95965 476
23.97976 463
23.99987 430
24.01999 475
24.0401 391
24.06021 428
24.08033 411
24.10044 419
24.12056 450
24.14067 421
24.16078 463
24.1809 439
24.20101 458
24.22112 429
24.24124 383
24.26135 448
24.28146 374
24.30158 420
24.32169 429
24.34181 408
24.36192 441
24.38203 396
24.40215 423
24.42226 438
24.44237 387
24.46249 398
24.4826 395
24.50272 454
24.52283 427
24.54294 442
24.56306 430
24.58317 444
24.60328 440
24.6234 463
24.64351 479
24.66362 471
24.68374 466
24.70385 502
24.72397 477
24.74408 519
24.76419 511
24.78431 519
24.80442 543
24.82453 534
24.84465 515
24.86476 502
24.88488 540
24.90499 553
24.9251 514
24.94522 513
24.96533 516
24.98544 502
25.00556 504
25.02567 499
25.04579 531
25.0659 474
25.08601 449
25.10613 497
25.12624 497
25.14635 426
25.16647 471
25.18658 531
25.20669 458
25.22681 452
25.24692 456
25.26704 444
25.28715 444
25.30726 441
25.32738 460
25.34749 469
25.3676 462
25.38772 447
25.40783 418
25.42795 436
25.44806 429
25.46817 437
25.48829 394
25.5084 399
25.52851 408
25.54863 398
25.56874 379
25.58886 430
25.60897 451
25.62908 439
25.6492 445
25.66931 491
25.68942 513
25.70954 499
25.72965 495
25.74976 510
25.76988 500
25.78999 501
25.81011 516
25.83022 530
25.85033 594
25.87045 557
25.89056 505
25.91067 537
25.93079 569
25.9509 577
25.97102 546
25.99113 567
26.01124 583
26.03136 579
26.05147 633
26.07158 627
26.0917 641
26.11181 709
26.13193 736
26.15204 748
26.17215 786
26.19227 795
26.21238 886
26.23249 919
26.25261 979
26.27272 1055
26.29283 1176
26.31295 1225
26.33306 1411
26.35318 1595
26.37329 1926
26.3934 2510
26.41352 3168
26.43363 4146
26.45374 5732
26.47386 7747
26.49397 10593
26.51409 13902
26.5342 17137
26.55431 19915
26.57443 21816
26.59454 21873
26.61465 20021
26.63477 17119
26.65488 13291
26.67499 9797
26.69511 6906
26.71522 4516
26.73534 3005
26.75545 2067
26.77556 1632
26.79568 1273
26.81579 1154
26.8359 1069
26.85602 1028
26.87613 903
26.89625 858
26.91636 776
26.93647 738
26.95659 725
26.9767 687
26.99681 639
27.01693 613
27.03704 601
27.05716 592
27.07727 562
27.09738 529
27.1175 488
27.13761 531
27.15772 504
27.17784 494
27.19795 502
27.21806 532
27.23818 511
27.25829 454
27.27841 480
27.29852 485
27.31863 503
27.33875 491
27.35886 496
27.37897 493
27.39909 486
27.4192 455
27.43932 457
27.45943 414
27.47954 419
27.49966 490
27.51977 454
27.53988 430
27.56 405
27.58011 452
27.60023 391
27.62034 426
27.64045 425
27.66057 398
27.68068 417
27.70079 404
27.72091 415
27.74102 413
27.76113 399
27.78125 420
27.80136 398
27.82148 396
27.84159 426
27.8617 361
27.88182 437
27.90193 408
27.92204 421
27.94216 396
27.96227 379
27.98239 429
28.0025 426
28.02261 440
28.04273 379
28.06284 369
28.08295 410
28.10307 370
28.12318 369
28.1433 409
28.16341 390
28.18352 375
28.20364 370
28.22375 371
28.24386 375
28.26398 373
28.28409 387
28.3042 379
28.32432 367
28.34443 396
28.36455 358
28.38466 358
28.40477 382
28.42489 386
28.445 339
28.46511 388
28.48523 367
28.50534 369
28.52546 376
28.54557 398
28.56568 366
28.5858 386
28.60591 377
28.62602 391
28.64614 376
28.66625 374
28.68636 376
28.70648 379
28.72659 322
28.74671 371
28.76682 354
28.78693 376
28.80705 356
28.82716 379
28.84727 334
28.86739 381
28.8875 373
28.90762 355
28.92773 334
28.94784 360
28.96796 372
28.98807 360
29.00818 372
29.0283 371
29.04841 388
29.06853 325
29.08864 402
29.10875 371
29.12887 371
29.14898 353
29.16909 354
29.18921 331
29.20932 358
29.22943 340
29.24955 359
29.26966 352
29.28978 334
29.30989 351
29.33 325
29.35012 336
29.37023 374
29.39034 347
29.41046 401
29.43057 332
29.45069 394
29.4708 375
29.49091 350
29.51103 351
29.53114 333
29.55125 324
29.57137 351
29.59148 320
29.6116 353
29.63171 332
29.65182 346
29.67194 341
29.69205 349
29.71216 382
29.73228 350
29.75239 383
29.7725 329
29.79262 346
29.81273 374
29.83285 353
29.85296 361
29.87307 342
29.89319 337
29.9133 353
29.93341 320
29.95353 343
29.97364 370
29.99376 335
30.01387 348
30.03398 334
30.0541 342
30.07421 363
30.09432 345
30.11444 352
30.13455 320
30.15467 347
30.17478 351
30.19489 366
30.21501 352
30.23512 356
30.25523 368
30.27535 387
30.29546 332
30.31557 351
30.33569 374
30.3558 358
30.37592 310
30.39603 357
30.41614 359
30.43626 373
30.45637 352
30.47648 347
30.4966 375
30.51671 343
30.53683 343
30.55694 311
30.57705 347
30.59717 363
30.61728 328
30.63739 343
30.65751 327
30.67762 371
30.69773 343
30.71785 323
30.73796 336
30.75808 335
30.77819 318
30.7983 349
30.81842 335
30.83853 327
30.85864 346
30.87876 334
30.89887 324
30.91899 366
30.9391 355
30.95921 366
30.97933 347
30.99944 329
31.01955 330
31.03967 311
31.05978 309
31.0799 350
31.10001 322
31.12012 357
31.14024 309
31.16035 337
31.18046 314
31.20058 332
31.22069 337
31.2408 311
31.26092 324
31.28103 280
31.30115 349
31.32126 333
31.34137 356
31.36149 340
31.3816 347
31.40171 347
31.42183 312
31.44194 322
31.46206 328
31.48217 318
31.50228 319
31.5224 337
31.54251 369
31.56262 297
31.58274 352
31.60285 341
31.62297 299
31.64308 325
31.66319 344
31.68331 308
31.70342 307
31.72353 312
31.74365 331
31.76376 334
31.78387 347
31.80399 346
31.8241 327
31.84422 312
31.86433 329
31.88444 347
31.90456 325
31.92467 310
31.94478 322
31.9649 320
31.98501 352
32.00513 336
32.02524 307
32.04535 350
32.06547 353
32.08558 317
32.10569 339
32.12581 341
32.14592 382
32.16604 321
32.18615 333
32.20626 344
32.22638 319
32.24649 315
32.2666 260
32.28672 362
32.30683 327
32.32694 301
32.34706 369
32.36717 323
32.38729 344
32.4074 346
32.42751 351
32.44763 338
32.46774 314
32.48785 348
32.50797 367
32.52808 366
32.5482 355
32.56831 336
32.58842 385
32.60854 358
32.62865 357
32.64876 376
32.66888 370
32.68899 377
32.7091 345
32.72922 350
32.74933 381
32.76945 332
32.78956 373
32.80967 403
32.82979 368
32.8499 421
32.87001 369
32.89013 403
32.91024 441
32.93036 390
32.95047 433
32.97058 383
32.9907 432
33.01081 421
33.03092 426
33.05104 441
33.07115 480
33.09127 453
33.11138 466
33.13149 495
33.15161 500
33.17172 411
33.19183 468
33.21195 481
33.23206 428
33.25217 501
33.27229 465
33.2924 433
33.31252 438
33.33263 476
33.35274 419
33.37286 380
33.39297 464
33.41308 424
33.4332 395
33.45331 407
33.47343 415
33.49354 416
33.51365 386
33.53377 417
33.55388 419
33.57399 368
33.59411 378
33.61422 353
33.63434 389
33.65445 379
33.67456 385
33.69468 334
33.71479 391
33.7349 328
33.75502 397
33.77513 342
33.79524 403
33.81536 360
33.83547 404
33.85559 358
33.8757 346
33.89581 342
33.91593 352
33.93604 333
33.95615 358
33.97627 343
33.99638 365
34.0165 369
34.03661 345
34.05672 359
34.07684 367
34.09695 334
34.11706 349
34.13718 315
34.15729 339
34.17741 328
34.19752 305
34.21763 328
34.23775 313
34.25786 342
34.27797 330
34.29809 340
34.3182 355
34.33831 321
34.35843 350
34.37854 326
34.39866 330
34.41877 344
34.43888 388
34.459 363
34.47911 362
34.49922 357
34.51934 372
34.53945 349
34.55957 391
34.57968 398
34.59979 386
34.61991 389
34.64002 402
34.66013 408
34.68025 361
34.70036 420
34.72047 407
34.74059 426
34.7607 402
34.78082 445
34.80093 440
34.82104 442
34.84116 437
34.86127 463
34.88138 432
34.9015 485
34.92161 434
34.94173 481
34.96184 478
34.98195 452
35.00207 424
35.02218 408
35.04229 446
35.06241 419
35.08252 449
35.10264 438
35.12275 422
35.14286 411
35.16298 426
35.18309 473
35.2032 421
35.22332 430
35.24343 397
35.26354 413
35.28366 439
35.30377 436
35.32389 456
35.344 416
35.36411 426
35.38423 453
35.40434 456
35.42445 458
35.44457 475
35.46468 467
35.4848 513
35.50491 481
35.52502 493
35.54514 503
35.56525 495
35.58536 542
35.60548 540
35.62559 537
35.64571 590
35.66582 505
35.68593 560
35.70605 581
35.72616 548
35.74627 519
35.76639 554
35.7865 577
35.80661 530
35.82673 546
35.84684 520
35.86696 554
35.88707 516
35.90718 518
35.9273 504
35.94741 540
35.96752 501
35.98764 507
36.00775 506
36.02787 428
36.04798 457
36.06809 445
36.08821 448
36.10832 454
36.12843 429
36.14855 471
36.16866 456
36.18878 500
36.20889 469
36.229 512
36.24912 507
36.26923 577
36.28934 567
36.30946 683
36.32957 751
36.34968 838
36.3698 991
36.38991 1162
36.41003 1415
36.43014 1528
36.45025 1706
36.47037 1798
36.49048 1776
36.51059 1707
36.53071 1571
36.55082 1315
36.57094 1183
36.59105 987
36.61116 842
36.63128 733
36.65139 577
36.6715 494
36.69162 469
36.71173 453
36.73184 435
36.75196 392
36.77207 426
36.79219 428
36.8123 419
36.83241 426
36.85253 373
36.87264 419
36.89275 418
36.91287 394
36.93298 401
36.9531 442
36.97321 415
36.99332 429
37.01344 404
37.03355 411
37.05366 401
37.07378 390
37.09389 395
37.11401 405
37.13412 403
37.15423 385
37.17435 394
37.19446 392
37.21457 361
37.23469 384
37.2548 416
37.27491 381
37.29503 377
37.31514 360
37.33526 382
37.35537 366
37.37548 388
37.3956 353
37.41571 383
37.43582 396
37.45594 376
37.47605 406
37.49617 374
37.51628 441
37.53639 357
37.55651 351
37.57662 393
37.59673 389
37.61685 388
37.63696 394
37.65708 369
37.67719 386
37.6973 357
37.71742 355
37.73753 381
37.75764 396
37.77776 402
37.79787 340
37.81798 386
37.8381 398
37.85821 359
37.87833 366
37.89844 342
37.91855 366
37.93867 387
37.95878 393
37.97889 383
37.99901 406
38.01912 386
38.03924 366
38.05935 383
38.07946 393
38.09958 372
38.11969 377
38.1398 363
38.15992 394
38.18003 432
38.20015 354
38.22026 456
38.24037 422
38.26049 409
38.2806 438
38.30071 416
38.32083 403
38.34094 437
38.36105 428
38.38117 419
38.40128 414
38.4214 426
38.44151 429
38.46162 407
38.48174 430
38.50185 410
38.52196 437
38.54208 443
38.56219 390
38.58231 408
38.60242 404
38.62253 420
38.64265 412
38.66276 382
38.68287 388
38.70299 369
38.7231 386
38.74321 356
38.76333 373
38.78344 331
38.80356 363
38.82367 345
38.84378 395
38.8639 413
38.88401 372
38.90412 388
38.92424 378
38.94435 400
38.96447 381
38.98458 388
39.00469 405
39.02481 431
39.04492 400
39.06503 403
39.08515 441
39.10526 419
39.12538 432
39.14549 443
39.1656 513
39.18572 498
39.20583 548
39.22594 576
39.24606 667
39.26617 793
39.28628 823
39.3064 965
39.32651 1102
39.34663 1390
39.36674 1542
39.38685 1668
39.40697 1636
39.42708 1570
39.44719 1435
39.46731 1293
39.48742 1103
39.50754 993
39.52765 863
39.54776 706
39.56788 633
39.58799 501
39.6081 441
39.62822 412
39.64833 370
39.66845 418
39.68856 421
39.70867 379
39.72879 358
39.7489 344
39.76901 391
39.78913 333
39.80924 358
39.82935 353
39.84947 331
39.86958 334
39.8897 360
39.90981 412
39.92992 376
39.95004 379
39.97015 360
39.99026 412
40.01038 397
40.03049 434
40.05061 432
40.07072 561
40.09083 531
40.11095 619
40.13106 707
40.15117 749
40.17129 849
40.1914 956
40.21152 915
40.23163 918
40.25174 915
40.27186 870
40.29197 785
40.31208 708
40.3322 673
40.35231 636
40.37242 519
40.39254 477
40.41265 470
40.43277 403
40.45288 351
40.47299 393
40.49311 365
40.51322 386
40.53333 351
40.55345 374
40.57356 362
40.59368 361
40.61379 398
40.6339 345
40.65402 348
40.67413 370
40.69424 374
40.71436 365
40.73447 357
40.75458 365
40.7747 386
40.79481 381
40.81493 371
40.83504 429
40.85515 361
40.87527 405
40.89538 354
40.91549 388
40.93561 380
40.95572 348
40.97584 363
40.99595 396
41.01606 400
41.03618 379
41.05629 390
41.0764 389
41.09652 391
41.11663 340
41.13675 392
41.15686 380
41.17697 349
41.19709 327
41.2172 383
41.23731 367
41.25743 372
41.27754 365
41.29765 363
41.31777 388
41.33788 352
41.358 359
41.37811 336
41.39822 325
41.41834 361
41.43845 302
41.45856 360
41.47868 345
41.49879 326
41.51891 389
41.53902 333
41.55913 350
41.57925 350
41.59936 326
41.61947 308
41.63959 354
41.6597 335
41.67982 351
41.69993 342
41.72004 335
41.74016 340
41.76027 338
41.78038 325
41.8005 338
41.82061 346
41.84072 346
41.86084 337
41.88095 350
41.90107 380
41.92118 327
41.94129 322
41.96141 348
41.98152 400
42.00163 328
42.02175 359
42.04186 334
42.06198 335
42.08209 391
42.1022 365
42.12232 389
42.14243 384
42.16254 414
42.18266 498
42.20277 489
42.22289 517
42.243 601
42.26311 681
42.28323 777
42.30334 938
42.32345 1093
42.34357 1170
42.36368 1289
42.38379 1377
42.40391 1200
42.42402 1136
42.44414 962
42.46425 969
42.48436 841
42.50448 801
42.52459 634
42.5447 581
42.56482 457
42.58493 416
42.60505 362
42.62516 351
42.64527 350
42.66539 329
42.6855 312
42.70561 345
42.72573 326
42.74584 328
42.76595 326
42.78607 328
42.80618 278
42.8263 275
42.84641 323
42.86652 326
42.88664 343
42.90675 289
42.92686 344
42.94698 298
42.96709 298
42.98721 305
43.00732 279
43.02743 315
43.04755 295
43.06766 280
43.08777 318
43.10789 299
43.128 294
43.14812 291
43.16823 321
43.18834 326
43.20846 317
43.22857 278
43.24868 319
43.2688 299
43.28891 283
43.30902 300
43.32914 308
43.34925 315
43.36937 256
43.38948 286
43.40959 321
43.42971 324
43.44982 312
43.46993 277
43.49005 331
43.51016 304
43.53028 304
43.55039 301
43.5705 294
43.59062 305
43.61073 308
43.63084 283
43.65096 318
43.67107 275
43.69119 319
43.7113 275
43.73141 311
43.75153 283
43.77164 317
43.79175 304
43.81187 306
43.83198 313
43.85209 307
43.87221 342
43.89232 286
43.91244 306
43.93255 293
43.95266 321
43.97278 290
43.99289 293
44.013 311
44.03312 338
44.05323 292
44.07335 304
44.09346 297
44.11357 304
44.13369 325
44.1538 301
44.17391 288
44.19403 324
44.21414 321
44.23426 340
44.25437 350
44.27448 280
44.2946 304
44.31471 306
44.33482 308
44.35494 300
44.37505 308
44.39516 313
44.41528 278
44.43539 326
44.45551 301
44.47562 310
44.49573 292
44.51585 320
44.53596 286
44.55607 344
44.57619 304
44.5963 280
44.61642 348
44.63653 277
44.65664 280
44.67676 312
44.69687 325
44.71698 286
44.7371 288
44.75721 314
44.77732 307
44.79744 284
44.81755 278
44.83767 302
44.85778 347
44.87789 345
44.89801 317
44.91812 321
44.93823 303
44.95835 329
44.97846 292
44.99858 327
45.01869 322
45.0388 334
45.05892 305
45.07903 308
45.09914 325
45.11926 316
45.13937 308
45.15949 322
45.1796 311
45.19971 323
45.21983 318
45.23994 333
45.26005 306
45.28017 340
45.30028 348
45.32039 343
45.34051 330
45.36062 327
45.38074 343
45.40085 369
45.42096 374
45.44108 367
45.46119 377
45.4813 365
45.50142 441
45.52153 438
45.54165 419
45.56176 490
45.58187 501
45.60199 539
45.6221 603
45.64221 694
45.66233 753
45.68244 875
45.70256 863
45.72267 884
45.74278 853
45.7629 847
45.78301 716
45.80312 709
45.82324 675
45.84335 601
45.86346 553
45.88358 486
45.90369 455
45.92381 418
45.94392 399
45.96403 350
45.98415 352
46.00426 312
46.02437 335
46.04449 317
46.0646 343
46.08472 295
46.10483 304
46.12494 318
46.14506 335
46.16517 300
46.18528 295
46.2054 302
46.22551 294
46.24563 322
46.26574 307
46.28585 277
46.30597 322
46.32608 327
46.34619 292
46.36631 315
46.38642 282
46.40653 309
46.42665 292
46.44676 302
46.46688 328
46.48699 276
46.5071 298
46.52722 314
46.54733 320
46.56744 307
46.58756 329
46.60767 339
46.62779 301
46.6479 289
46.66801 325
46.68813 307
46.70824 311
46.72835 337
46.74847 302
46.76858 289
46.78869 327
46.80881 335
46.82892 286
46.84904 318
46.86915 286
46.88926 319
46.90938 304
46.92949 303
46.9496 290
46.96972 298
46.98983 318
47.00995 298
47.03006 292
47.05017 296
47.07029 322
47.0904 300
47.11051 327
47.13063 320
47.15074 285
47.17086 312
47.19097 297
47.21108 306
47.2312 288
47.25131 306
47.27142 321
47.29154 306
47.31165 303
47.33176 295
47.35188 282
47.37199 303
47.39211 284
47.41222 274
47.43233 274
47.45245 290
47.47256 309
47.49267 281
47.51279 296
47.5329 318
47.55302 337
47.57313 294
47.59324 287
47.61336 274
47.63347 300
47.65358 274
47.6737 302
47.69381 334
47.71393 285
47.73404 283
47.75415 286
47.77427 331
47.79438 312
47.81449 294
47.83461 301
47.85472 331
47.87483 308
47.89495 314
47.91506 316
47.93518 326
47.95529 298
47.9754 280
47.99552 303
48.01563 297
48.03574 286
48.05586 300
48.07597 274
48.09609 274
48.1162 311
48.13631 285
48.15643 319
48.17654 325
48.19665 299
48.21677 301
48.23688 323
48.257 311
48.27711 290
48.29722 298
48.31734 325
48.33745 315
48.35756 288
48.37768 309
48.39779 286
48.4179 297
48.43802 291
48.45813 292
48.47825 295
48.49836 329
48.51847 303
48.53859 286
48.5587 293
48.57881 316
48.59893 297
48.61904 298
48.63916 316
48.65927 300
48.67938 314
48.6995 307
48.71961 300
48.73972 305
48.75984 307
48.77995 314
48.80006 312
48.82018 318
48.84029 284
48.86041 310
48.88052 305
48.90063 290
48.92075 309
48.94086 303
48.96097 351
48.98109 345
49.0012 308
49.02132 318
49.04143 312
49.06154 321
49.08166 310
49.10177 344
49.12188 340
49.142 336
49.16211 330
49.18223 354
49.20234 319
49.22245 363
49.24257 335
49.26268 312
49.28279 364
49.30291 340
49.32302 352
49.34313 404
49.36325 355
49.38336 325
49.40348 343
49.42359 345
49.4437 364
49.46382 382
49.48393 369
49.50404 389
49.52416 405
49.54427 366
49.56439 407
49.5845 387
49.60461 360
49.62473 383
49.64484 385
49.66495 385
49.68507 417
49.70518 483
49.7253 461
49.74541 452
49.76552 478
49.78564 495
49.80575 534
49.82586 573
49.84598 629
49.86609 707
49.8862 719
49.90632 880
49.92643 1071
49.94655 1215
49.96666 1479
49.98677 1792
50.00689 1902
50.027 2201
50.04711 2499
50.06723 2409
50.08734 2322
50.10746 2114
50.12757 1899
50.14768 1649
50.1678 1492
50.18791 1399
50.20802 1371
50.22814 1122
50.24825 963
50.26837 799
50.28848 620
50.30859 492
50.32871 418
50.34882 406
50.36893 396
50.38905 382
50.40916 404
50.42927 355
50.44939 398
50.4695 367
50.48962 413
50.50973 396
50.52984 377
50.54996 388
50.57007 394
50.59018 377
50.6103 381
50.63041 370
50.65053 345
50.67064 341
50.69075 337
50.71087 351
50.73098 337
50.75109 318
50.77121 320
50.79132 343
50.81143 319
50.83155 281
50.85166 314
50.87178 314
50.89189 335
50.912 293
50.93212 289
50.95223 309
50.97234 304
50.99246 301
51.01257 303
51.03269 318
51.0528 323
51.07291 305
51.09303 309
51.11314 304
51.13325 276
51.15337 297
51.17348 315
51.1936 349
51.21371 311
51.23382 300
51.25394 299
51.27405 299
51.29416 346
51.31428 266
51.33439 286
51.3545 277
51.37462 270
51.39473 257
51.41485 267
51.43496 320
51.45507 273
51.47519 286
51.4953 294
51.51541 284
51.53553 324
51.55564 295
51.57576 300
51.59587 283
51.61598 337
51.6361 280
51.65621 304
51.67632 291
51.69644 295
51.71655 283
51.73667 266
51.75678 292
51.77689 262
51.79701 305
51.81712 307
51.83723 284
51.85735 315
51.87746 302
51.89757 287
51.91769 285
51.9378 282
51.95792 298
51.97803 293
51.99814 275
52.01826 322
52.03837 289
52.05848 278
52.0786 260
52.09871 290
52.11883 272
52.13894 272
52.15905 274
52.17917 255
52.19928 288
52.21939 257
52.23951 282
52.25962 293
52.27974 300
52.29985 291
52.31996 277
52.34008 278
52.36019 291
52.3803 301
52.40042 295
52.42053 286
52.44064 289
52.46076 288
52.48087 273
52.50099 257
52.5211 300
52.54121 278
52.56133 294
52.58144 271
52.60155 306
52.62167 294
52.64178 294
52.6619 305
52.68201 278
52.70212 284
52.72224 284
52.74235 287
52.76246 275
52.78258 287
52.80269 277
52.8228 289
52.84292 263
52.86303 285
52.88315 279
52.90326 291
52.92337 345
52.94349 299
52.9636 290
52.98371 301
53.00383 285
53.02394 273
53.04406 303
53.06417 300
53.08428 295
53.1044 306
53.12451 277
53.14462 316
53.16474 313
53.18485 302
53.20497 311
53.22508 285
53.24519 330
53.26531 351
53.28542 316
53.30553 337
53.32565 309
53.34576 306
53.36587 324
53.38599 337
53.4061 314
53.42622 333
53.44633 291
53.46644 319
53.48656 311
53.50667 305
53.52678 333
53.5469 337
53.56701 384
53.58713 340
53.60724 310
53.62735 387
53.64747 347
53.66758 316
53.68769 371
53.70781 337
53.72792 368
53.74804 378
53.76815 374
53.78826 341
53.80838 398
53.82849 366
53.8486 392
53.86872 388
53.88883 367
53.90894 421
53.92906 406
53.94917 379
53.96929 388
53.9894 371
54.00951 391
54.02963 359
54.04974 423
54.06985 370
54.08997 364
54.11008 418
54.1302 399
54.15031 374
54.17042 396
54.19054 434
54.21065 397
54.23076 416
54.25088 448
54.27099 406
54.29111 417
54.31122 426
54.33133 407
54.35145 390
54.37156 427
54.39167 411
54.41179 401
54.4319 403
54.45201 381
54.47213 419
54.49224 421
54.51236 415
54.53247 444
54.55258 442
54.5727 475
54.59281 483
54.61292 496
54.63304 582
54.65315 579
54.67327 626
54.69338 683
54.71349 769
54.73361 831
54.75372 887
54.77383 996
54.79395 963
54.81406 966
54.83417 916
54.85429 856
54.8744 766
54.89452 761
54.91463 692
54.93474 707
54.95486 690
54.97497 587
54.99508 592
55.0152 510
55.03531 493
55.05543 453
55.07554 438
55.09565 465
55.11577 470
55.13588 438
55.15599 523
55.17611 553
55.19622 534
55.21634 620
55.23645 651
55.25656 607
55.27668 583
55.29679 538
55.3169 496
55.33702 423
55.35713 503
55.37724 433
55.39736 485
55.41747 407
55.43759 465
55.4577 414
55.47781 367
55.49793 382
55.51804 338
55.53815 341
55.55827 352
55.57838 319
55.5985 332
55.61861 351
55.63872 323
55.65884 297
55.67895 310
55.69906 322
55.71918 350
55.73929 298
55.75941 337
55.77952 356
55.79963 304
55.81975 361
55.83986 340
55.85997 327
55.88009 313
55.9002 325
55.92031 319
55.94043 317
55.96054 306
55.98066 323
56.00077 300
56.02088 299
56.041 315
56.06111 307
56.08122 318
56.10134 319
56.12145 344
56.14157 300
56.16168 304
56.18179 304
56.20191 363
56.22202 302
56.24213 332
56.26225 300
56.28236 318
56.30248 342
56.32259 316
56.3427 329
56.36282 292
56.38293 306
56.40304 325
56.42316 321
56.44327 275
56.46338 316
56.4835 297
56.50361 291
56.52373 285
56.54384 290
56.56395 329
56.58407 279
56.60418 309
56.62429 304
56.64441 297
56.66452 360
56.68464 329
56.70475 313
56.72486 301
56.74498 309
56.76509 316
56.7852 251
56.80532 279
56.82543 301
56.84554 288
56.86566 310
56.88577 279
56.90589 280
56.926 322
56.94611 309
56.96623 300
56.98634 319
57.00645 324
57.02657 312
57.04668 346
57.0668 309
57.08691 324
57.10702 318
57.12714 356
57.14725 324
57.16736 311
57.18748 315
57.20759 325
57.22771 331
57.24782 326
57.26793 317
57.28805 325
57.30816 295
57.32827 335
57.34839 317
57.3685 307
57.38861 290
57.40873 287
57.42884 312
57.44896 312
57.46907 316
57.48918 304
57.5093 307
57.52941 315
57.54952 318
57.56964 308
57.58975 295
57.60987 303
57.62998 301
57.65009 313
57.67021 308
57.69032 295
57.71043 310
57.73055 290
57.75066 296
57.77078 307
57.79089 308
57.811 296
57.83112 308
57.85123 286
57.87134 288
57.89146 317
57.91157 301
57.93168 342
57.9518 344
57.97191 330
57.99203 310
58.01214 303
58.03225 341
58.05237 319
58.07248 273
58.09259 276
58.11271 300
58.13282 306
58.15294 293
58.17305 289
58.19316 319
58.21328 313
58.23339 295
58.2535 328
58.27362 267
58.29373 295
58.31385 313
58.33396 280
58.35407 270
58.37419 301
58.3943 306
58.41441 311
58.43453 301
58.45464 310
58.47475 266
58.49487 264
58.51498 291
58.5351 309
58.55521 292
58.57532 299
58.59544 292
58.61555 289
58.63566 286
58.65578 298
58.67589 296
58.69601 267
58.71612 291
58.73623 279
58.75635 281
58.77646 276
58.79657 311
58.81669 292
58.8368 308
58.85691 286
58.87703 299
58.89714 305
58.91726 290
58.93737 278
58.95748 275
58.9776 301
58.99771 296
59.01782 301
59.03794 290
59.05805 298
59.07817 326
59.09828 292
59.11839 302
59.13851 316
59.15862 310
59.17873 316
59.19885 320
59.21896 296
59.23908 314
59.25919 304
59.2793 306
59.29942 278
59.31953 328
59.33964 351
59.35976 318
59.37987 350
59.39998 340
59.4201 324
59.44021 337
59.46033 348
59.48044 340
59.50055 343
59.52067 390
59.54078 411
59.56089 386
59.58101 412
59.60112 440
59.62124 449
59.64135 494
59.66146 547
59.68158 603
59.70169 677
59.7218 776
59.74192 865
59.76203 985
59.78215 1175
59.80226 1311
59.82237 1446
59.84249 1548
59.8626 1699
59.88271 1635
59.90283 1519
59.92294 1437
59.94305 1200
59.96317 1144
59.98328 1064
60.0034 1040
60.02351 1032
60.04362 977
60.06374 869
60.08385 744
60.10396 631
60.12408 595
60.14419 461
60.16431 406
60.18442 382
60.20453 364
60.22465 336
60.24476 353
60.26487 323
60.28499 317
60.3051 332
60.32522 312
60.34533 286
60.36544 300
60.38556 300
60.40567 294
60.42578 299
60.4459 294
60.46601 322
60.48612 312
60.50624 292
60.52635 278
60.54647 313
60.56658 291
60.58669 314
60.60681 315
60.62692 295
60.64703 293
60.66715 285
60.68726 287
60.70738 287
60.72749 290
60.7476 285
60.76772 337
60.78783 289
60.80794 289
60.82806 299
60.84817 302
60.86828 288
60.8884 301
60.90851 281
60.92863 289
60.94874 256
60.96885 277
60.98897 296
61.00908 285
61.02919 308
61.04931 267
61.06942 271
61.08954 274
61.10965 280
61.12976 318
61.14988 283
61.16999 289
61.1901 280
61.21022 278
61.23033 282
61.25045 291
61.27056 302
61.29067 293
61.31079 276
61.3309 266
61.35101 295
61.37113 287
61.39124 273
61.41135 298
61.43147 285
61.45158 294
61.4717 295
61.49181 324
61.51192 292
61.53204 283
61.55215 336
61.57226 307
61.59238 316
61.61249 335
61.63261 310
61.65272 309
61.67283 318
61.69295 329
61.71306 325
61.73317 334
61.75329 310
61.7734 315
61.79352 318
61.81363 369
61.83374 343
61.85386 314
61.87397 343
61.89408 304
61.9142 354
61.93431 355
61.95442 339
61.97454 357
61.99465 355
62.01477 365
62.03488 383
62.05499 383
62.07511 362
62.09522 395
62.11533 345
62.13545 362
62.15556 386
62.17568 391
62.19579 386
62.2159 407
62.23602 355
62.25613 375
62.27624 400
62.29636 372
62.31647 370
62.33659 386
62.3567 380
62.37681 390
62.39693 363
62.41704 350
62.43715 353
62.45727 378
62.47738 365
62.49749 354
62.51761 341
62.53772 342
62.55784 335
62.57795 331
62.59806 343
62.61818 331
62.63829 366
62.6584 299
62.67852 326
62.69863 326
62.71875 295
62.73886 363
62.75897 306
62.77909 333
62.7992 291
62.81931 316
62.83943 311
62.85954 321
62.87965 313
62.89977 311
62.91988 312
62.94 271
62.96011 321
62.98022 273
63.00034 310
63.02045 339
63.04056 342
63.06068 323
63.08079 309
63.10091 298
63.12102 322
63.14113 299
63.16125 293
63.18136 296
63.20147 335
63.22159 329
63.2417 307
63.26182 327
63.28193 279
63.30204 305
63.32216 328
63.34227 286
63.36238 338
63.3825 307
63.40261 337
63.42272 309
63.44284 310
63.46295 342
63.48307 312
63.50318 339
63.52329 301
63.54341 320
63.56352 346
63.58363 319
63.60375 330
63.62386 319
63.64398 338
63.66409 331
63.6842 328
63.70432 333
63.72443 360
63.74454 363
63.76466 384
63.78477 378
63.80489 431
63.825 423
63.84511 468
63.86523 503
63.88534 496
63.90545 541
63.92557 519
63.94568 564
63.96579 550
63.98591 560
64.00602 483
64.02614 439
64.04625 452
64.06636 421
64.08648 448
64.10659 419
64.1267 460
64.14682 439
64.16693 396
64.18705 406
64.20716 339
64.22727 385
64.24739 337
64.2675 352
64.28761 351
64.30773 319
64.32784 340
64.34796 341
64.36807 347
64.38818 330
64.4083 312
64.42841 283
64.44852 305
64.46864 317
64.48875 300
64.50886 300
64.52898 328
64.54909 280
64.56921 324
64.58932 317
64.60943 329
64.62955 299
64.64966 292
64.66977 304
64.68989 332
64.71 294
64.73012 287
64.75023 299
64.77034 289
64.79046 307
64.81057 328
64.83068 295
64.8508 270
64.87091 288
64.89102 288
64.91114 276
64.93125 288
64.95137 285
64.97148 265
64.99159 301
65.01171 271
65.03182 274
65.05193 290
65.07205 315
65.09216 267
65.11228 286
65.13239 286
65.1525 278
65.17262 290
65.19273 274
65.21284 264
65.23296 264
65.25307 266
65.27319 288
65.2933 274
65.31341 315
65.33353 309
65.35364 268
65.37375 300
65.39387 291
65.41398 266
65.43409 309
65.45421 316
65.47432 292
65.49444 322
65.51455 301
65.53466 296
65.55478 299
65.57489 286
65.595 328
65.61512 354
65.63523 324
65.65535 352
65.67546 358
65.69557 324
65.71569 353
65.7358 335
65.75591 340
65.77603 323
65.79614 321
65.81626 321
65.83637 309
65.85648 309
65.8766 321
65.89671 299
65.91682 332
65.93694 294
65.95705 286
65.97716 286
65.99728 280
66.01739 278
66.03751 261
66.05762 297
66.07773 296
66.09785 280
66.11796 284
66.13807 272
66.15819 270
66.1783 288
66.19842 282
66.21853 272
66.23864 284
66.25876 271
66.27887 268
66.29898 293
66.3191 275
66.33921 301
66.35933 302
66.37944 272
66.39955 316
66.41967 279
66.43978 270
66.45989 286
66.48001 280
66.50012 261
66.52023 292
66.54035 309
66.56046 279
66.58058 285
66.60069 289
66.6208 306
66.64092 272
66.66103 281
66.68114 297
66.70126 304
66.72137 277
66.74149 296
66.7616 289
66.78171 281
66.80183 281
66.82194 286
66.84205 290
66.86217 267
66.88228 296
66.90239 266
66.92251 269
66.94262 273
66.96274 292
66.98285 276
67.00296 317
67.02308 305
67.04319 277
67.0633 298
67.08342 275
67.10353 298
67.12365 310
67.14376 304
67.16387 303
67.18399 308
67.2041 304
67.22421 361
67.24433 313
67.26444 354
67.28456 343
67.30467 311
67.32478 355
67.3449 327
67.36501 359
67.38512 355
67.40524 399
67.42535 432
67.44546 453
67.46558 488
67.48569 530
67.50581 602
67.52592 668
67.54603 699
67.56615 721
67.58626 831
67.60637 1016
67.62649 1058
67.6466 1087
67.66672 1089
67.68683 985
67.70694 955
67.72706 909
67.74717 822
67.76728 768
67.7874 811
67.80751 802
67.82763 870
67.84774 901
67.86785 853
67.88797 844
67.90808 867
67.92819 884
67.94831 957
67.96842 1077
67.98853 1141
68.00865 1206
68.02876 1256
68.04888 1463
68.06899 1434
68.0891 1448
68.10922 1290
68.12933 1149
68.14944 1260
68.16956 1192
68.18967 1230
68.20979 1226
68.2299 1278
68.25001 1298
68.27013 1171
68.29024 1035
68.31035 897
68.33047 771
68.35058 703
68.3707 706
68.39081 650
68.41092 615
68.43104 605
68.45115 572
68.47126 510
68.49138 440
68.51149 444
68.5316 366
68.55172 355
68.57183 317
68.59195 320
68.61206 322
68.63217 309
68.65229 307
68.6724 339
68.69251 316
68.71263 303
68.73274 289
68.75286 307
68.77297 260
68.79308 288
68.8132 300
68.83331 256
68.85342 312
68.87354 304
68.89365 300
68.91376 292
68.93388 291
68.95399 275
68.97411 322
68.99422 285
69.01433 254
69.03445 282
69.05456 283
69.07467 277
69.09479 272
69.1149 273
69.13502 265
69.15513 264
69.17524 284
69.19536 291
69.21547 282
69.23558 299
69.2557 272
69.27581 292
69.29593 289
69.31604 276
69.33615 299
69.35627 280
69.37638 287
69.39649 270
69.41661 288
69.43672 269
69.45683 282
69.47695 268
69.49706 263
69.51718 261
69.53729 268
69.5574 322
69.57752 287
69.59763 276
69.61774 303
69.63786 245
69.65797 286
69.67809 263
69.6982 283
69.71831 281
69.73843 266
69.75854 271
69.77865 302
69.79877 273
69.81888 269
69.839 293
69.85911 258
69.87922 256
69.89934 249
69.91945 262
69.93956 291
69.95968 287
69.97979 255
69.9999 279
70.02002 280
70.04013 271
70.06025 261
70.08036 268
70.10047 295
70.12059 255
70.1407 279
70.16081 269
70.18093 266
70.20104 269
70.22116 271
70.24127 288
70.26138 264
70.2815 291
70.30161 278
70.32172 240
70.34184 270
70.36195 247
70.38207 234
70.40218 269
70.42229 242
70.44241 260
70.46252 289
70.48263 258
70.50275 304
70.52286 306
70.54297 312
70.56309 301
70.5832 257
70.60332 267
70.62343 266
70.64354 290
70.66366 242
70.68377 264
70.70388 285
70.724 261
70.74411 265
70.76423 302
70.78434 257
70.80445 264
70.82457 278
70.84468 271
70.86479 258
70.88491 267
70.90502 286
70.92513 282
70.94525 279
70.96536 278
70.98548 234
71.00559 275
71.0257 268
71.04582 270
71.06593 279
71.08604 242
71.10616 245
71.12627 278
71.14639 254
71.1665 276
71.18661 258
71.20673 278
71.22684 257
71.24695 268
71.26707 252
71.28718 289
71.3073 270
71.32741 265
71.34752 269
71.36764 269
71.38775 299
71.40786 277
71.42798 258
71.44809 258
71.4682 264
71.48832 306
71.50843 251
71.52855 270
71.54866 258
71.56877 291
71.58889 261
71.609 231
71.62911 278
71.64923 258
71.66934 300
71.68946 305
71.70957 314
71.72968 258
71.7498 256
71.76991 275
71.79002 274
71.81014 280
71.83025 309
71.85037 263
71.87048 267
71.89059 288
71.91071 261
71.93082 253
71.95093 273
71.97105 279
71.99116 267
72.01127 317
72.03139 297
72.0515 284
72.07162 261
72.09173 277
72.11184 278
72.13196 284
72.15207 284
72.17218 260
72.1923 266
72.21241 278
72.23253 293
72.25264 271
72.27275 290
72.29287 273
72.31298 283
72.33309 277
72.35321 276
72.37332 282
72.39344 256
72.41355 250
72.43366 243
72.45378 239
72.47389 289
72.494 271
72.51412 269
72.53423 271
72.55434 278
72.57446 303
72.59457 272
72.61469 300
72.6348 265
72.65491 295
72.67503 302
72.69514 281
72.71525 290
72.73537 285
72.75548 293
72.7756 253
72.79571 259
72.81582 293
72.83594 263
72.85605 296
72.87616 279
72.89628 281
72.91639 287
72.9365 269
72.95662 262
72.97673 285
72.99685 283
73.01696 281
73.03707 318
73.05719 310
73.0773 301
73.09741 299
73.11753 313
73.13764 289
73.15776 338
73.17787 332
73.19798 346
73.2181 392
73.23821 392
73.25832 417
73.27844 392
73.29855 436
73.31867 507
73.33878 542
73.35889 534
73.37901 538
73.39912 566
73.41923 529
73.43935 481
73.45946 453
73.47957 391
73.49969 408
73.5198 413
73.53992 428
73.56003 431
73.58014 386
73.60026 409
73.62037 379
73.64048 375
73.6606 341
73.68071 325
73.70083 327
73.72094 319
73.74105 290
73.76117 287
73.78128 278
73.80139 291
73.82151 253
73.84162 290
73.86174 271
73.88185 282
73.90196 270
73.92208 271
73.94219 254
73.9623 244
73.98242 261
74.00253 263
74.02264 264
74.04276 288
74.06287 255
74.08299 273
74.1031 268
74.12321 255
74.14333 284
74.16344 261
74.18355 261
74.20367 298
74.22378 286
74.2439 264
74.26401 257
74.28412 253
74.30424 275
74.32435 254
74.34446 269
74.36458 232
74.38469 253
74.40481 242
74.42492 270
74.44503 246
74.46515 281
74.48526 252
74.50537 249
74.52549 288
74.5456 246
74.56571 247
74.58583 278
74.60594 276
74.62606 246
74.64617 245
74.66628 263
74.6864 287
74.70651 269
74.72662 242
74.74674 266
74.76685 283
74.78697 263
74.80708 266
74.82719 258
74.84731 241
74.86742 251
74.88753 274
74.90765 286
74.92776 265
74.94787 292
74.96799 256
74.9881 280
75.00822 290
