3.00117 20656
3.02128 19590
3.0414 19478
3.06151 18779
3.08162 18252
3.10174 17935
3.12185 17083
3.14197 16998
3.16208 16215
3.18219 15890
3.20231 15446
3.22242 14951
3.24253 14511
3.26265 14093
3.28276 13475
3.30288 13556
3.32299 12879
3.3431 12578
3.36322 12092
3.38333 11640
3.40344 11484
3.42356 10699
3.44367 10565
3.46379 10097
3.4839 9625
3.50401 9671
3.52413 9104
3.54424 9000
3.56435 8677
3.58447 8172
3.60458 8070
3.62469 7602
3.64481 7379
3.66492 7134
3.68504 6753
3.70515 6830
3.72526 6134
3.74538 6148
3.76549 5847
3.7856 5679
3.80572 5491
3.82583 5071
3.84595 5056
3.86606 4632
3.88617 4634
3.90629 4438
3.9264 4125
3.94651 4102
3.96663 3908
3.98674 3737
4.00686 3824
4.02697 3303
4.04708 3332
4.0672 3147
4.08731 2889
4.10742 3123
4.12754 2684
4.14765 2727
4.16776 2600
4.18788 2500
4.20799 2516
4.22811 2233
4.24822 2140
4.26833 2241
4.28845 2079
4.30856 2078
4.32867 1846
4.34879 1932
4.3689 1825
4.38902 1882
4.40913 1910
4.42924 1699
4.44936 1671
4.46947 1740
4.48958 1644
4.5097 1756
4.52981 1469
4.54992 1529
4.57004 1426
4.59015 1428
4.61027 1514
4.63038 1362
4.65049 1340
4.67061 1366
4.69072 1386
4.71083 1288
4.73095 1263
4.75106 1200
4.77118 1255
4.79129 1222
4.8114 1148
4.83152 1084
4.85163 1099
4.87174 1108
4.89186 1099
4.91197 1044
4.93209 1076
4.9522 1025
4.97231 1014
4.99243 1012
5.01254 1013
5.03265 899
5.05277 968
5.07288 932
5.09299 912
5.11311 885
5.13322 885
5.15334 837
5.17345 892
5.19356 803
5.21368 816
5.23379 848
5.2539 786
5.27402 809
5.29413 830
5.31425 715
5.33436 796
5.35447 756
5.37459 717
5.3947 721
5.41481 661
5.43493 648
5.45504 642
5.47516 630
5.49527 664
5.51538 691
5.5355 649
5.55561 621
5.57572 633
5.59584 627
5.61595 635
5.63606 611
5.65618 627
5.67629 601
5.69641 625
5.71652 574
5.73663 580
5.75675 557
5.77686 543
5.79697 617
5.81709 577
5.8372 547
5.85732 554
5.87743 578
5.89754 547
5.91766 535
5.93777 586
5.95788 533
5.978 501
5.99811 517
6.01823 525
6.03834 475
6.05845 510
6.07857 548
6.09868 582
6.11879 515
6.13891 489
6.15902 497
6.17913 465
6.19925 519
6.21936 516
6.23948 525
6.25959 472
6.2797 498
6.29982 498
6.31993 480
6.34004 529
6.36016 473
6.38027 481
6.40039 518
6.4205 478
6.44061 435
6.46073 484
6.48084 485
6.50095 487
6.52107 469
6.54118 490
6.56129 465
6.58141 493
6.60152 431
6.62164 437
6.64175 458
6.66186 490
6.68198 464
6.70209 495
6.7222 546
6.74232 454
6.76243 460
6.78255 462
6.80266 484
6.82277 457
6.84289 501
6.863 445
6.88311 463
6.90323 476
6.92334 474
6.94346 479
6.96357 496
6.98368 432
7.0038 467
7.02391 492
7.04402 445
7.06414 453
7.08425 446
7.10436 465
7.12448 446
7.14459 459
7.16471 477
7.18482 424
7.20493 443
7.22505 440
7.24516 478
7.26527 455
7.28539 450
7.3055 458
7.32562 496
7.34573 444
7.36584 488
7.38596 431
7.40607 467
7.42618 443
7.4463 493
7.46641 492
7.48653 447
7.50664 416
7.52675 458
7.54687 468
7.56698 469
7.58709 464
7.60721 460
7.62732 444
7.64743 437
7.66755 449
7.68766 492
7.70778 426
7.72789 461
7.748 449
7.76812 451
7.78823 460
7.80834 448
7.82846 438
7.84857 458
7.86869 432
7.8888 459
7.90891 445
7.92903 444
7.94914 447
7.96925 472
7.98937 458
8.00948 430
8.0296 451
8.04971 439
8.06982 455
8.08994 466
8.11005 432
8.13016 427
8.15028 468
8.17039 464
8.1905 464
8.21062 455
8.23073 506
8.25085 442
8.27096 415
8.29107 467
8.31119 453
8.3313 425
8.35141 443
8.37153 417
8.39164 399
8.41176 416
8.43187 455
8.45198 457
8.4721 464
8.49221 442
8.51232 458
8.53244 494
8.55255 459
8.57266 454
8.59278 487
8.61289 444
8.63301 413
8.65312 444
8.67323 462
8.69335 434
8.71346 488
8.73357 445
8.75369 449
8.7738 460
8.79392 421
8.81403 453
8.83414 432
8.85426 433
8.87437 417
8.89448 398
8.9146 441
8.93471 441
8.95483 446
8.97494 446
8.99505 459
9.01517 401
9.03528 411
9.05539 432
9.07551 446
9.09562 443
9.11573 413
9.13585 405
9.15596 481
9.17608 467
9.19619 474
9.2163 434
9.23642 441
9.25653 433
9.27664 460
9.29676 433
9.31687 497
9.33699 442
9.3571 425
9.37721 426
9.39733 437
9.41744 474
9.43755 409
9.45767 466
9.47778 422
9.4979 394
9.51801 428
9.53812 411
9.55824 395
9.57835 416
9.59846 464
9.61858 496
9.63869 454
9.6588 461
9.67892 409
9.69903 476
9.71915 487
9.73926 413
9.75937 442
9.77949 422
9.7996 425
9.81971 430
9.83983 467
9.85994 402
9.88006 467
9.90017 433
9.92028 426
9.9404 442
9.96051 465
9.98062 413
10.00074 440
10.02085 433
10.04097 426
10.06108 460
10.08119 455
10.10131 436
10.12142 466
10.14153 420
10.16165 412
10.18176 433
10.20187 456
10.22199 443
10.2421 460
10.26222 456
10.28233 469
10.30244 443
10.32256 466
10.34267 481
10.36278 430
10.3829 454
10.40301 456
10.42313 418
10.44324 442
10.46335 459
10.48347 476
10.50358 452
10.52369 439
10.54381 438
10.56392 413
10.58403 447
10.60415 432
10.62426 457
10.64438 431
10.66449 434
10.6846 476
10.70472 444
10.72483 455
10.74494 481
10.76506 446
10.78517 448
10.80529 431
10.8254 471
10.84551 492
10.86563 492
10.88574 429
10.90585 457
10.92597 462
10.94608 453
10.9662 429
10.98631 465
11.00642 503
11.02654 463
11.04665 433
11.06676 502
11.08688 431
11.10699 493
11.1271 503
11.14722 459
11.16733 475
11.18745 467
11.20756 454
11.22767 486
11.24779 439
11.2679 456
11.28801 448
11.30813 463
11.32824 501
11.34836 492
11.36847 449
11.38858 522
11.4087 561
11.42881 527
11.44892 532
11.46904 533
11.48915 499
11.50927 519
11.52938 543
11.54949 504
11.56961 514
11.58972 583
11.60983 538
11.62995 532
11.65006 561
11.67017 557
11.69029 585
11.7104 588
11.73052 634
11.75063 571
11.77074 623
11.79086 682
11.81097 730
11.83108 662
11.8512 724
11.87131 755
11.89143 803
11.91154 789
11.93165 811
11.95177 893
11.97188 963
11.99199 1006
12.01211 1043
12.03222 1135
12.05234 1254
12.07245 1152
12.09256 1254
12.11268 1369
12.13279 1399
12.1529 1392
12.17302 1431
12.19313 1404
12.21324 1387
12.23336 1445
12.25347 1396
12.27359 1336
12.2937 1359
12.31381 1298
12.33393 1185
12.35404 1143
12.37415 1036
12.39427 1020
12.41438 973
12.4345 909
12.45461 845
12.47472 771
12.49484 786
12.51495 728
12.53506 646
12.55518 687
12.57529 676
12.5954 617
12.61552 592
12.63563 572
12.65575 532
12.67586 542
12.69597 574
12.71609 513
12.7362 498
12.75631 483
12.77643 493
12.79654 480
12.81666 467
12.83677 511
12.85688 455
12.877 498
12.89711 479
12.91722 435
12.93734 490
12.95745 441
12.97757 453
12.99768 415
13.01779 467
13.03791 449
13.05802 394
13.07813 440
13.09825 449
13.11836 425
13.13847 442
13.15859 381
13.1787 440
13.19882 424
13.21893 410
13.23904 431
13.25916 438
13.27927 447
13.29938 432
13.3195 441
13.33961 423
13.35973 401
13.37984 442
13.39995 428
13.42007 433
13.44018 404
13.46029 442
13.48041 445
13.50052 441
13.52064 415
13.54075 411
13.56086 426
13.58098 415
13.60109 425
13.6212 398
13.64132 462
13.66143 408
13.68154 411
13.70166 432
13.72177 408
13.74189 405
13.762 362
13.78211 406
13.80223 393
13.82234 427
13.84245 405
13.86257 384
13.88268 423
13.9028 429
13.92291 377
13.94302 424
13.96314 409
13.98325 372
14.00336 404
14.02348 417
14.04359 399
14.06371 372
14.08382 437
14.10393 417
14.12405 395
14.14416 375
14.16427 403
14.18439 431
14.2045 372
14.22461 392
14.24473 412
14.26484 422
14.28496 456
14.30507 371
14.32518 406
14.3453 416
14.36541 414
14.38552 366
14.40564 412
14.42575 376
14.44587 399
14.46598 421
14.48609 444
14.50621 414
14.52632 413
14.54643 401
14.56655 433
14.58666 395
14.60677 372
14.62689 431
14.647 414
14.66712 423
14.68723 403
14.70734 363
14.72746 422
14.74757 416
14.76768 413
14.7878 395
14.80791 421
14.82803 383
14.84814 406
14.86825 396
14.88837 386
14.90848 387
14.92859 396
14.94871 359
14.96882 402
14.98894 385
15.00905 408
15.02916 391
15.04928 415
15.06939 384
15.0895 404
15.10962 391
15.12973 375
15.14984 388
15.16996 418
15.19007 410
15.21019 367
15.2303 336
15.25041 395
15.27053 390
15.29064 432
15.31075 367
15.33087 447
15.35098 376
15.3711 439
15.39121 367
15.41132 402
15.43144 377
15.45155 374
15.47166 396
15.49178 405
15.51189 393
15.53201 413
15.55212 422
15.57223 370
15.59235 414
15.61246 416
15.63257 380
15.65269 433
15.6728 377
15.69291 405
15.71303 411
15.73314 425
15.75326 382
15.77337 370
15.79348 404
15.8136 378
15.83371 409
15.85382 398
15.87394 432
15.89405 440
15.91417 401
15.93428 374
15.95439 365
15.97451 405
15.99462 380
16.01473 383
16.03485 396
16.05496 397
16.07508 396
16.09519 359
16.1153 396
16.13542 360
16.15553 375
16.17564 416
16.19576 400
16.21587 383
16.23598 396
16.2561 390
16.27621 374
16.29633 340
16.31644 397
16.33655 396
16.35667 423
16.37678 408
16.39689 386
16.41701 370
16.43712 383
16.45724 369
16.47735 415
16.49746 437
16.51758 398
16.53769 359
16.5578 388
16.57792 354
16.59803 403
16.61814 371
16.63826 390
16.65837 400
16.67849 403
16.6986 434
16.71871 426
16.73883 412
16.75894 391
16.77905 406
16.79917 399
16.81928 427
16.8394 414
16.85951 413
16.87962 379
16.89974 359
16.91985 402
16.93996 360
16.96008 407
16.98019 352
17.00031 425
17.02042 396
17.04053 421
17.06065 379
17.08076 399
17.10087 407
17.12099 395
17.1411 401
17.16121 405
17.18133 410
17.20144 428
17.22156 416
17.24167 366
17.26178 391
17.2819 419
17.30201 430
17.32212 397
17.34224 430
17.36235 404
17.38247 404
17.40258 409
17.42269 398
17.44281 378
17.46292 420
17.48303 431
17.50315 418
17.52326 379
17.54338 369
17.56349 419
17.5836 409
17.60372 423
17.62383 448
17.64394 397
17.66406 439
17.68417 439
17.70428 444
17.7244 417
17.74451 454
17.76463 406
17.78474 424
17.80485 428
17.82497 441
17.84508 428
17.86519 403
17.88531 418
17.90542 428
17.92554 429
17.94565 441
17.96576 395
17.98588 385
18.00599 429
18.0261 396
18.04622 399
18.06633 382
18.08645 403
18.10656 410
18.12667 409
18.14679 393
18.1669 400
18.18701 366
18.20713 406
18.22724 484
18.24735 384
18.26747 417
18.28758 409
18.3077 411
18.32781 388
18.34792 418
18.36804 420
18.38815 400
18.40826 452
18.42838 369
18.44849 392
18.46861 408
18.48872 404
18.50883 421
18.52895 368
18.54906 385
18.56917 409
18.58929 370
18.6094 412
18.62951 391
18.64963 394
18.66974 350
18.68986 388
18.70997 398
18.73008 398
18.7502 408
18.77031 407
18.79042 410
18.81054 412
18.83065 397
18.85077 431
18.87088 391
18.89099 418
18.91111 428
18.93122 428
18.95133 402
18.97145 408
18.99156 406
19.01168 404
19.03179 476
19.0519 446
19.07202 435
19.09213 402
19.11224 404
19.13236 431
19.15247 468
19.17258 410
19.1927 446
19.21281 420
19.23293 442
19.25304 404
19.27315 429
19.29327 469
19.31338 441
19.33349 413
19.35361 458
19.37372 460
19.39384 448
19.41395 479
19.43406 454
19.45418 557
19.47429 529
19.4944 591
19.51452 533
19.53463 654
19.55475 638
19.57486 698
19.59497 728
19.61509 757
19.6352 837
19.65531 893
19.67543 931
19.69554 1010
19.71565 1008
19.73577 991
19.75588 1084
19.776 1067
19.79611 1065
19.81622 1084
19.83634 1090
19.85645 997
19.87656 1030
19.89668 997
19.91679 925
19.93691 982
19.95702 969
19.97713 950
19.99725 987
20.01736 1038
20.03747 908
20.05759 987
20.0777 914
20.09782 1024
20.11793 924
20.13804 991
20.15816 1013
20.17827 978
20.19838 942
20.2185 953
20.23861 994
20.25872 1038
20.27884 1014
20.29895 970
20.31907 986
20.33918 986
20.35929 1012
20.37941 968
20.39952 1037
20.41963 1009
20.43975 962
20.45986 1014
20.47998 1064
20.50009 1053
20.5202 1089
20.54032 1171
20.56043 1197
20.58054 1293
20.60066 1372
20.62077 1441
20.64088 1549
20.661 1649
20.68111 1745
20.70123 1801
20.72134 1927
20.74145 1905
20.76157 1887
20.78168 1831
20.80179 1589
20.82191 1506
20.84202 1303
20.86214 1282
20.88225 1190
20.90236 1132
20.92248 1020
20.94259 1030
20.9627 1006
20.98282 1073
21.00293 1081
21.02305 1044
21.04316 1073
21.06327 1100
21.08339 1170
21.1035 1097
21.12361 1120
21.14373 1068
21.16384 1176
21.18395 1058
21.20407 1127
21.22418 1139
21.2443 1083
21.26441 1097
21.28452 973
21.30464 1072
21.32475 999
21.34486 976
21.36498 960
21.38509 927
21.40521 904
21.42532 879
21.44543 877
21.46555 852
21.48566 789
21.50577 816
21.52589 802
21.546 812
21.56612 800
21.58623 758
21.60634 733
21.62646 768
21.64657 735
21.66668 744
21.6868 763
21.70691 750
21.72702 692
21.74714 703
21.76725 678
21.78737 729
21.80748 722
21.82759 714
21.84771 730
21.86782 735
21.88793 691
21.90805 683
21.92816 712
21.94828 630
21.96839 677
21.9885 640
22.00862 651
22.02873 715
22.04884 646
22.06896 698
22.08907 681
22.10919 660
22.1293 670
22.14941 697
22.16953 666
22.18964 616
22.20975 639
22.22987 686
22.24998 615
22.27009 688
22.29021 624
22.31032 640
22.33044 606
22.35055 666
22.37066 656
22.39078 631
22.41089 602
22.431 639
22.45112 612
22.47123 631
22.49135 661
22.51146 604
22.53157 607
22.55169 584
22.5718 595
22.59191 593
22.61203 617
22.63214 596
22.65225 603
22.67237 586
22.69248 567
22.7126 518
22.73271 580
22.75282 599
22.77294 601
22.79305 642
22.81316 629
22.83328 614
22.85339 648
22.87351 573
22.89362 534
22.91373 595
22.93385 591
22.95396 567
22.97407 599
22.99419 571
23.0143 543
23.03442 583
23.05453 546
23.07464 595
23.09476 581
23.11487 577
23.13498 605
23.1551 588
23.17521 561
23.19532 578
23.21544 648
23.23555 536
23.25567 543
23.27578 575
23.29589 557
23.31601 561
23.33612 572
23.35623 569
23.37635 598
23.39646 585
23.41658 557
23.43669 586
23.4568 598
23.47692 563
23.49703 570
23.51714 571
23.53726 634
23.55737 563
23.57749 581
23.5976 599
23.61771 561
23.63783 600
23.65794 566
23.67805 566
23.69817 619
23.71828 621
23.73839 605
23.75851 615
23.77862 611
23.79874 597
23.81885 602
23.83896 659
23.85908 578
23.87919 584
23.8993 592
23.91942 614
23.93953 629
23.95965 594
23.97976 639
23.99987 626
24.01999 637
24.0401 637
24.06021 663
24.08033 641
24.10044 655
24.12056 654
24.14067 659
24.16078 631
24.1809 697
24.20101 657
24.22112 622
24.24124 679
24.26135 684
24.28146 695
24.30158 705
24.32169 741
24.34181 738
24.36192 759
24.38203 774
24.40215 768
24.42226 798
24.44237 843
24.46249 852
24.4826 899
24.50272 935
24.52283 961
24.54294 996
24.56306 1046
24.58317 1048
24.60328 1077
24.6234 1122
24.64351 1111
24.66362 1192
24.68374 1119
24.70385 1196
24.72397 1230
24.74408 1189
24.76419 1210
24.78431 1169
24.80442 1160
24.82453 1122
24.84465 1130
24.86476 1055
24.88488 1050
24.90499 1017
24.9251 940
24.94522 966
24.96533 869
24.98544 819
25.00556 825
25.02567 859
25.04579 874
25.0659 766
25.08601 754
25.10613 771
25.12624 742
25.14635 667
25.16647 705
25.18658 733
25.20669 727
25.22681 688
25.24692 623
25.26704 671
25.28715 642
25.30726 604
25.32738 636
25.34749 641
25.3676 612
25.38772 622
25.40783 576
25.42795 592
25.44806 603
25.46817 543
25.48829 616
25.5084 582
25.52851 611
25.54863 565
25.56874 624
25.58886 584
25.60897 587
25.62908 576
25.6492 605
25.66931 621
25.68942 585
25.70954 634
25.72965 588
25.74976 631
25.76988 625
25.78999 629
25.81011 582
25.83022 620
25.85033 614
25.87045 625
25.89056 634
25.91067 676
25.93079 620
25.9509 655
25.97102 652
25.99113 622
26.01124 652
26.03136 672
26.05147 681
26.07158 775
26.0917 749
26.11181 820
26.13193 884
26.15204 835
26.17215 919
26.19227 997
26.21238 1106
26.23249 1166
26.25261 1312
26.27272 1580
26.29283 1791
26.31295 1920
26.33306 2256
26.35318 2626
26.37329 3060
26.3934 3429
26.41352 3853
26.43363 4324
26.45374 4547
26.47386 5073
26.49397 5173
26.51409 5069
26.5342 4889
26.55431 4408
26.57443 3938
26.59454 3393
26.61465 2814
26.63477 2186
26.65488 1778
26.67499 1327
26.69511 1080
26.71522 926
26.73534 862
26.75545 761
26.77556 750
26.79568 630
26.81579 670
26.8359 662
26.85602 651
26.87613 647
26.89625 594
26.91636 610
26.93647 601
26.95659 566
26.9767 560
26.99681 546
27.01693 536
27.03704 545
27.05716 532
27.07727 556
27.09738 565
27.1175 559
27.13761 510
27.15772 527
27.17784 490
27.19795 540
27.21806 497
27.23818 507
27.25829 526
27.27841 512
27.29852 559
27.31863 503
27.33875 530
27.35886 492
27.37897 517
27.39909 552
27.4192 513
27.43932 537
27.45943 536
27.47954 511
27.49966 495
27.51977 509
27.53988 463
27.56 528
27.58011 502
27.60023 499
27.62034 480
27.64045 514
27.66057 438
27.68068 493
27.70079 468
27.72091 470
27.74102 497
27.76113 490
27.78125 461
27.80136 465
27.82148 494
27.84159 482
27.8617 516
27.88182 498
27.90193 495
27.92204 492
27.94216 467
27.96227 493
27.98239 448
28.0025 486
28.02261 479
28.04273 448
28.06284 473
28.08295 505
28.10307 501
28.12318 490
28.1433 495
28.16341 494
28.18352 478
28.20364 447
28.22375 459
28.24386 463
28.26398 479
28.28409 496
28.3042 461
28.32432 484
28.34443 485
28.36455 464
28.38466 436
28.40477 461
28.42489 499
28.445 491
28.46511 441
28.48523 414
28.50534 458
28.52546 462
28.54557 466
28.56568 468
28.5858 524
28.60591 416
28.62602 520
28.64614 486
28.66625 468
28.68636 473
28.70648 488
28.72659 471
28.74671 421
28.76682 441
28.78693 433
28.80705 464
28.82716 458
28.84727 436
28.86739 419
28.8875 461
28.90762 482
28.92773 479
28.94784 432
28.96796 453
28.98807 459
29.00818 468
29.0283 464
29.04841 454
29.06853 439
29.08864 445
29.10875 431
29.12887 460
29.14898 425
29.16909 462
29.18921 415
29.20932 444
29.22943 467
29.24955 462
29.26966 473
29.28978 477
29.30989 450
29.33 439
29.35012 436
29.37023 458
29.39034 454
29.41046 454
29.43057 410
29.45069 453
29.4708 468
29.49091 402
29.51103 472
29.53114 456
29.55125 452
29.57137 462
29.59148 477
29.6116 451
29.63171 413
29.65182 501
29.67194 460
29.69205 430
29.71216 459
29.73228 422
29.75239 453
29.7725 450
29.79262 432
29.81273 449
29.83285 438
29.85296 478
29.87307 433
29.89319 465
29.9133 420
29.93341 453
29.95353 459
29.97364 430
29.99376 450
30.01387 433
30.03398 450
30.0541 399
30.07421 433
30.09432 462
30.11444 446
30.13455 437
30.15467 473
30.17478 476
30.19489 445
30.21501 445
30.23512 446
30.25523 436
30.27535 419
30.29546 410
30.31557 466
30.33569 398
30.3558 466
30.37592 410
30.39603 424
30.41614 437
30.43626 404
30.45637 428
30.47648 480
30.4966 459
30.51671 415
30.53683 453
30.55694 465
30.57705 477
30.59717 430
30.61728 462
30.63739 464
30.65751 399
30.67762 482
30.69773 458
30.71785 438
30.73796 444
30.75808 464
30.77819 404
30.7983 459
30.81842 429
30.83853 449
30.85864 436
30.87876 454
30.89887 425
30.91899 445
30.9391 457
30.95921 427
30.97933 422
30.99944 408
31.01955 458
31.03967 444
31.05978 444
31.0799 421
31.10001 449
31.12012 444
31.14024 450
31.16035 430
31.18046 435
31.20058 433
31.22069 439
31.2408 472
31.26092 483
31.28103 444
31.30115 482
31.32126 405
31.34137 463
31.36149 453
31.3816 427
31.40171 448
31.42183 437
31.44194 419
31.46206 413
31.48217 426
31.50228 408
31.5224 418
31.54251 436
31.56262 433
31.58274 429
31.60285 433
31.62297 440
31.64308 421
31.66319 451
31.68331 442
31.70342 447
31.72353 427
31.74365 424
31.76376 436
31.78387 413
31.80399 434
31.8241 440
31.84422 491
31.86433 444
31.88444 415
31.90456 480
31.92467 381
31.94478 467
31.9649 427
31.98501 482
32.00513 454
32.02524 402
32.04535 468
32.06547 462
32.08558 457
32.10569 452
32.12581 449
32.14592 454
32.16604 483
32.18615 443
32.20626 460
32.22638 447
32.24649 504
32.2666 489
32.28672 486
32.30683 503
32.32694 483
32.34706 504
32.36717 493
32.38729 489
32.4074 513
32.42751 504
32.44763 486
32.46774 526
32.48785 479
32.50797 508
32.52808 459
32.5482 493
32.56831 540
32.58842 467
32.60854 479
32.62865 487
32.64876 478
32.66888 493
32.68899 448
32.7091 538
32.72922 498
32.74933 493
32.76945 530
32.78956 539
32.80967 498
32.82979 527
32.8499 523
32.87001 540
32.89013 512
32.91024 567
32.93036 568
32.95047 551
32.97058 548
32.9907 587
33.01081 528
33.03092 540
33.05104 518
33.07115 542
33.09127 546
33.11138 537
33.13149 590
33.15161 550
33.17172 579
33.19183 565
33.21195 560
33.23206 567
33.25217 593
33.27229 621
33.2924 572
33.31252 597
33.33263 545
33.35274 519
33.37286 527
33.39297 544
33.41308 523
33.4332 513
33.45331 519
33.47343 515
33.49354 524
33.51365 542
33.53377 504
33.55388 490
33.57399 528
33.59411 504
33.61422 496
33.63434 473
33.65445 479
33.67456 499
33.69468 487
33.71479 437
33.7349 443
33.75502 467
33.77513 493
33.79524 466
33.81536 473
33.83547 454
33.85559 444
33.8757 501
33.89581 451
33.91593 496
33.93604 483
33.95615 440
33.97627 450
33.99638 456
34.0165 491
34.03661 496
34.05672 455
34.07684 519
34.09695 493
34.11706 473
34.13718 500
34.15729 508
34.17741 496
34.19752 493
34.21763 484
34.23775 492
34.25786 472
34.27797 541
34.29809 517
34.3182 494
34.33831 503
34.35843 532
34.37854 519
34.39866 531
34.41877 534
34.43888 524
34.459 573
34.47911 568
34.49922 621
34.51934 603
34.53945 565
34.55957 623
34.57968 633
34.59979 687
34.61991 699
34.64002 783
34.66013 772
34.68025 749
34.70036 796
34.72047 805
34.74059 843
34.7607 882
34.78082 904
34.80093 878
34.82104 848
34.84116 900
34.86127 838
34.88138 835
34.9015 873
34.92161 843
34.94173 804
34.96184 755
34.98195 731
35.00207 748
35.02218 748
35.04229 698
35.06241 720
35.08252 684
35.10264 713
35.12275 739
35.14286 765
35.16298 710
35.18309 766
35.2032 730
35.22332 732
35.24343 756
35.26354 744
35.28366 722
35.30377 704
35.32389 695
35.344 734
35.36411 712
35.38423 718
35.40434 778
35.42445 783
35.44457 748
35.46468 775
35.4848 734
35.50491 815
35.52502 786
35.54514 787
35.56525 782
35.58536 797
35.60548 843
35.62559 828
35.64571 816
35.66582 856
35.68593 819
35.70605 825
35.72616 827
35.74627 812
35.76639 817
35.7865 810
35.80661 822
35.82673 828
35.84684 837
35.86696 784
35.88707 766
35.90718 726
35.9273 757
35.94741 716
35.96752 746
35.98764 683
36.00775 676
36.02787 715
36.04798 677
36.06809 663
36.08821 636
36.10832 646
36.12843 643
36.14855 712
36.16866 704
36.18878 703
36.20889 742
36.229 729
36.24912 769
36.26923 764
36.28934 848
36.30946 772
36.32957 819
36.34968 843
36.3698 906
36.38991 877
36.41003 901
36.43014 893
36.45025 897
36.47037 859
36.49048 839
36.51059 811
36.53071 809
36.55082 758
36.57094 713
36.59105 754
36.61116 720
36.63128 758
36.65139 751
36.6715 720
36.69162 792
36.71173 740
36.73184 722
36.75196 745
36.77207 743
36.79219 727
36.8123 734
36.83241 661
36.85253 739
36.87264 724
36.89275 657
36.91287 659
36.93298 585
36.9531 638
36.97321 641
36.99332 618
37.01344 542
37.03355 568
37.05366 578
37.07378 585
37.09389 527
37.11401 526
37.13412 536
37.15423 589
37.17435 532
37.19446 594
37.21457 536
37.23469 572
37.2548 565
37.27491 585
37.29503 564
37.31514 549
37.33526 550
37.35537 581
37.37548 548
37.3956 601
37.41571 590
37.43582 606
37.45594 585
37.47605 597
37.49617 586
37.51628 608
37.53639 604
37.55651 576
37.57662 629
37.59673 610
37.61685 615
37.63696 628
37.65708 655
37.67719 594
37.6973 688
37.71742 658
37.73753 622
37.75764 642
37.77776 644
37.79787 635
37.81798 644
37.8381 696
37.85821 622
37.87833 689
37.89844 690
37.91855 735
37.93867 713
37.95878 731
37.97889 756
37.99901 774
38.01912 767
38.03924 749
38.05935 787
38.07946 861
38.09958 856
38.11969 912
38.1398 939
38.15992 842
38.18003 812
38.20015 841
38.22026 889
38.24037 862
38.26049 901
38.2806 841
38.30071 853
38.32083 888
38.34094 857
38.36105 809
38.38117 782
38.40128 788
38.4214 816
38.44151 840
38.46162 747
38.48174 731
38.50185 786
38.52196 737
38.54208 702
38.56219 731
38.58231 689
38.60242 698
38.62253 718
38.64265 672
38.66276 676
38.68287 724
38.70299 664
38.7231 667
38.74321 679
38.76333 609
38.78344 719
38.80356 657
38.82367 662
38.84378 701
38.8639 723
38.88401 745
38.90412 671
38.92424 711
38.94435 708
38.96447 741
38.98458 742
39.00469 728
39.02481 755
39.04492 801
39.06503 785
39.08515 718
39.10526 720
39.12538 784
39.14549 768
39.1656 808
39.18572 836
39.20583 822
39.22594 831
39.24606 850
39.26617 799
39.28628 858
39.3064 850
39.32651 845
39.34663 866
39.36674 788
39.38685 828
39.40697 745
39.42708 741
39.44719 654
39.46731 641
39.48742 656
39.50754 582
39.52765 553
39.54776 565
39.56788 574
39.58799 531
39.6081 527
39.62822 535
39.64833 521
39.66845 556
39.68856 545
39.70867 564
39.72879 502
39.7489 554
39.76901 527
39.78913 544
39.80924 537
39.82935 554
39.84947 569
39.86958 565
39.8897 533
39.90981 550
39.92992 543
39.95004 574
39.97015 611
39.99026 659
40.01038 592
40.03049 660
40.05061 639
40.07072 641
40.09083 640
40.11095 665
40.13106 689
40.15117 707
40.17129 710
40.1914 692
40.21152 601
40.23163 638
40.25174 606
40.27186 600
40.29197 545
40.31208 555
40.3322 557
40.35231 516
40.37242 567
40.39254 511
40.41265 525
40.43277 543
40.45288 499
40.47299 498
40.49311 508
40.51322 485
40.53333 519
40.55345 512
40.57356 565
40.59368 495
40.61379 495
40.6339 508
40.65402 521
40.67413 494
40.69424 534
40.71436 548
40.73447 560
40.75458 515
40.7747 519
40.79481 539
40.81493 523
40.83504 541
40.85515 553
40.87527 520
40.89538 554
40.91549 530
40.93561 496
40.95572 504
40.97584 518
40.99595 571
41.01606 556
41.03618 547
41.05629 520
41.0764 536
41.09652 497
41.11663 544
41.13675 510
41.15686 533
41.17697 492
41.19709 545
41.2172 570
41.23731 543
41.25743 521
41.27754 556
41.29765 530
41.31777 586
41.33788 487
41.358 526
41.37811 481
41.39822 513
41.41834 498
41.43845 537
41.45856 516
41.47868 509
41.49879 497
41.51891 512
41.53902 488
41.55913 495
41.57925 464
41.59936 497
41.61947 470
41.63959 492
41.6597 431
41.67982 456
41.69993 441
41.72004 446
41.74016 476
41.76027 451
41.78038 491
41.8005 463
41.82061 457
41.84072 455
41.86084 470
41.88095 501
41.90107 465
41.92118 476
41.94129 462
41.96141 462
41.98152 476
42.00163 496
42.02175 521
42.04186 516
42.06198 508
42.08209 459
42.1022 527
42.12232 555
42.14243 549
42.16254 571
42.18266 587
42.20277 615
42.22289 603
42.243 600
42.26311 616
42.28323 623
42.30334 675
42.32345 603
42.34357 636
42.36368 623
42.38379 591
42.40391 556
42.42402 517
42.44414 506
42.46425 475
42.48436 471
42.50448 488
42.52459 493
42.5447 465
42.56482 431
42.58493 448
42.60505 442
42.62516 450
42.64527 395
42.66539 435
42.6855 458
42.70561 441
42.72573 438
42.74584 406
42.76595 491
42.78607 432
42.80618 452
42.8263 405
42.84641 421
42.86652 461
42.88664 422
42.90675 444
42.92686 429
42.94698 433
42.96709 384
42.98721 461
43.00732 417
43.02743 411
43.04755 446
43.06766 429
43.08777 462
43.10789 435
43.128 461
43.14812 435
43.16823 441
43.18834 432
43.20846 414
43.22857 466
43.24868 454
43.2688 448
43.28891 448
43.30902 438
43.32914 421
43.34925 446
43.36937 442
43.38948 436
43.40959 401
43.42971 448
43.44982 447
43.46993 429
43.49005 405
43.51016 429
43.53028 452
43.55039 454
43.5705 437
43.59062 434
43.61073 439
43.63084 405
43.65096 428
43.67107 410
43.69119 440
43.7113 436
43.73141 405
43.75153 408
43.77164 400
43.79175 410
43.81187 414
43.83198 426
43.85209 446
43.87221 411
43.89232 420
43.91244 402
43.93255 432
43.95266 395
43.97278 445
43.99289 439
44.013 443
44.03312 421
44.05323 458
44.07335 446
44.09346 429
44.11357 442
44.13369 435
44.1538 442
44.17391 408
44.19403 434
44.21414 412
44.23426 412
44.25437 420
44.27448 444
44.2946 437
44.31471 444
44.33482 407
44.35494 461
44.37505 465
44.39516 417
44.41528 436
44.43539 450
44.45551 442
44.47562 485
44.49573 420
44.51585 449
44.53596 468
44.55607 438
44.57619 472
44.5963 468
44.61642 474
44.63653 457
44.65664 506
44.67676 464
44.69687 418
44.71698 468
44.7371 486
44.75721 454
44.77732 475
44.79744 484
44.81755 463
44.83767 472
44.85778 483
44.87789 435
44.89801 534
44.91812 477
44.93823 486
44.95835 506
44.97846 517
44.99858 530
45.01869 519
45.0388 563
45.05892 449
45.07903 506
45.09914 516
45.11926 553
45.13937 538
45.15949 562
45.1796 519
45.19971 545
45.21983 564
45.23994 552
45.26005 566
45.28017 543
45.30028 559
45.32039 605
45.34051 527
45.36062 549
45.38074 564
45.40085 566
45.42096 633
45.44108 622
45.46119 599
45.4813 592
45.50142 626
45.52153 626
45.54165 628
45.56176 615
45.58187 613
45.60199 624
45.6221 627
45.64221 649
45.66233 623
45.68244 609
45.70256 598
45.72267 565
45.74278 601
45.7629 569
45.78301 579
45.80312 572
45.82324 591
45.84335 469
45.86346 469
45.88358 516
45.90369 496
45.92381 522
45.94392 445
45.96403 455
45.98415 492
46.00426 443
46.02437 463
46.04449 440
46.0646 452
46.08472 462
46.10483 471
46.12494 429
46.14506 484
46.16517 478
46.18528 519
46.2054 476
46.22551 438
46.24563 484
46.26574 474
46.28585 467
46.30597 503
46.32608 470
46.34619 447
46.36631 470
46.38642 487
46.40653 490
46.42665 479
46.44676 436
46.46688 428
46.48699 478
46.5071 487
46.52722 490
46.54733 513
46.56744 480
46.58756 486
46.60767 450
46.62779 461
46.6479 499
46.66801 467
46.68813 468
46.70824 452
46.72835 457
46.74847 506
46.76858 482
46.78869 449
46.80881 486
46.82892 460
46.84904 485
46.86915 456
46.88926 486
46.90938 446
46.92949 444
46.9496 492
46.96972 476
46.98983 486
47.00995 461
47.03006 452
47.05017 477
47.07029 454
47.0904 457
47.11051 424
47.13063 449
47.15074 456
47.17086 459
47.19097 457
47.21108 436
47.2312 482
47.25131 485
47.27142 482
47.29154 505
47.31165 479
47.33176 502
47.35188 473
47.37199 484
47.39211 499
47.41222 484
47.43233 447
47.45245 487
47.47256 456
47.49267 466
47.51279 511
47.5329 467
47.55302 494
47.57313 489
47.59324 494
47.61336 515
47.63347 493
47.65358 503
47.6737 477
47.69381 471
47.71393 479
47.73404 486
47.75415 450
47.77427 480
47.79438 469
47.81449 462
47.83461 480
47.85472 474
47.87483 494
47.89495 485
47.91506 464
47.93518 500
47.95529 470
47.9754 492
47.99552 472
48.01563 479
48.03574 443
48.05586 481
48.07597 422
48.09609 462
48.1162 445
48.13631 442
48.15643 428
48.17654 460
48.19665 448
48.21677 476
48.23688 466
48.257 458
48.27711 464
48.29722 434
48.31734 436
48.33745 493
48.35756 433
48.37768 457
48.39779 481
48.4179 495
48.43802 442
48.45813 479
48.47825 434
48.49836 476
48.51847 454
48.53859 464
48.5587 451
48.57881 480
48.59893 465
48.61904 454
48.63916 432
48.65927 470
48.67938 491
48.6995 466
48.71961 479
48.73972 435
48.75984 456
48.77995 458
48.80006 486
48.82018 415
48.84029 451
48.86041 445
48.88052 449
48.90063 471
48.92075 479
48.94086 460
48.96097 467
48.98109 473
49.0012 451
49.02132 503
49.04143 457
49.06154 469
49.08166 453
49.10177 492
49.12188 459
49.142 474
49.16211 457
49.18223 478
49.20234 496
49.22245 490
49.24257 519
49.26268 536
49.28279 468
49.30291 496
49.32302 462
49.34313 502
49.36325 492
49.38336 501
49.40348 488
49.42359 478
49.4437 493
49.46382 465
49.48393 518
49.50404 501
49.52416 511
49.54427 528
49.56439 512
49.5845 503
49.60461 510
49.62473 550
49.64484 543
49.66495 572
49.68507 587
49.70518 543
49.7253 569
49.74541 554
49.76552 614
49.78564 614
49.80575 682
49.82586 695
49.84598 695
49.86609 779
49.8862 839
49.90632 823
49.92643 876
49.94655 875
49.96666 907
49.98677 928
50.00689 940
50.027 898
50.04711 839
50.06723 800
50.08734 809
50.10746 712
50.12757 706
50.14768 644
50.1678 649
50.18791 588
50.20802 561
50.22814 543
50.24825 559
50.26837 503
50.28848 515
50.30859 465
50.32871 448
50.34882 508
50.36893 500
50.38905 448
50.40916 463
50.42927 485
50.44939 494
50.4695 440
50.48962 488
50.50973 489
50.52984 422
50.54996 503
50.57007 471
50.59018 507
50.6103 483
50.63041 526
50.65053 468
50.67064 495
50.69075 480
50.71087 495
50.73098 479
50.75109 475
50.77121 513
50.79132 492
50.81143 482
50.83155 457
50.85166 471
50.87178 485
50.89189 481
50.912 468
50.93212 465
50.95223 488
50.97234 436
50.99246 434
51.01257 456
51.03269 467
51.0528 481
51.07291 427
51.09303 499
51.11314 442
51.13325 426
51.15337 461
51.17348 436
51.1936 481
51.21371 428
51.23382 423
51.25394 415
51.27405 484
51.29416 456
51.31428 413
51.33439 430
51.3545 432
51.37462 412
51.39473 444
51.41485 431
51.43496 417
51.45507 416
51.47519 439
51.4953 395
51.51541 417
51.53553 396
51.55564 466
51.57576 402
51.59587 428
51.61598 388
51.6361 407
51.65621 430
51.67632 403
51.69644 432
51.71655 420
51.73667 430
51.75678 425
51.77689 426
51.79701 413
51.81712 421
51.83723 441
51.85735 391
51.87746 459
51.89757 433
51.91769 405
51.9378 406
51.95792 426
51.97803 406
51.99814 390
52.01826 425
52.03837 427
52.05848 387
52.0786 420
52.09871 410
52.11883 431
52.13894 422
52.15905 446
52.17917 444
52.19928 431
52.21939 423
52.23951 435
52.25962 430
52.27974 430
52.29985 407
52.31996 460
52.34008 424
52.36019 418
52.3803 408
52.40042 438
52.42053 435
52.44064 398
52.46076 451
52.48087 425
52.50099 453
52.5211 460
52.54121 455
52.56133 410
52.58144 412
52.60155 421
52.62167 461
52.64178 469
52.6619 443
52.68201 433
52.70212 450
52.72224 438
52.74235 441
52.76246 474
52.78258 424
52.80269 474
52.8228 453
52.84292 482
52.86303 478
52.88315 477
52.90326 456
52.92337 459
52.94349 461
52.9636 507
52.98371 495
53.00383 527
53.02394 477
53.04406 508
53.06417 499
53.08428 502
53.1044 487
53.12451 478
53.14462 525
53.16474 525
53.18485 536
53.20497 518
53.22508 542
53.24519 510
53.26531 511
53.28542 541
53.30553 557
53.32565 565
53.34576 586
53.36587 526
53.38599 543
53.4061 538
53.42622 545
53.44633 581
53.46644 537
53.48656 542
53.50667 536
53.52678 540
53.5469 514
53.56701 517
53.58713 459
53.60724 529
53.62735 506
53.64747 518
53.66758 530
53.68769 528
53.70781 541
53.72792 510
53.74804 540
53.76815 572
53.78826 564
53.80838 527
53.82849 498
53.8486 537
53.86872 553
53.88883 503
53.90894 563
53.92906 544
53.94917 591
53.96929 577
53.9894 536
54.00951 565
54.02963 608
54.04974 596
54.06985 512
54.08997 596
54.11008 588
54.1302 614
54.15031 587
54.17042 539
54.19054 595
54.21065 596
54.23076 584
54.25088 600
54.27099 569
54.29111 574
54.31122 630
54.33133 625
54.35145 636
54.37156 603
54.39167 605
54.41179 594
54.4319 628
54.45201 668
54.47213 642
54.49224 654
54.51236 623
54.53247 653
54.55258 605
54.5727 652
54.59281 682
54.61292 700
54.63304 720
54.65315 701
54.67327 736
54.69338 746
54.71349 754
54.73361 805
54.75372 779
54.77383 735
54.79395 748
54.81406 730
54.83417 725
54.85429 649
54.8744 642
54.89452 699
54.91463 668
54.93474 669
54.95486 615
54.97497 704
54.99508 651
55.0152 616
55.03531 668
55.05543 657
55.07554 707
55.09565 653
55.11577 669
55.13588 632
55.15599 648
55.17611 642
55.19622 648
55.21634 604
55.23645 629
55.25656 675
55.27668 625
55.29679 598
55.3169 622
55.33702 567
55.35713 566
55.37724 542
55.39736 599
55.41747 604
55.43759 555
55.4577 561
55.47781 582
55.49793 581
55.51804 560
55.53815 557
55.55827 539
55.57838 520
55.5985 540
55.61861 546
55.63872 565
55.65884 537
55.67895 537
55.69906 534
55.71918 540
55.73929 478
55.75941 520
55.77952 492
55.79963 501
55.81975 542
55.83986 505
55.85997 489
55.88009 505
55.9002 507
55.92031 535
55.94043 578
55.96054 512
55.98066 459
56.00077 541
56.02088 532
56.041 506
56.06111 483
56.08122 504
56.10134 536
56.12145 529
56.14157 491
56.16168 509
56.18179 536
56.20191 477
56.22202 519
56.24213 510
56.26225 484
56.28236 497
56.30248 507
56.32259 516
56.3427 559
56.36282 498
56.38293 550
56.40304 484
56.42316 482
56.44327 537
56.46338 494
56.4835 552
56.50361 534
56.52373 516
56.54384 476
56.56395 513
56.58407 514
56.60418 503
56.62429 480
56.64441 521
56.66452 507
56.68464 515
56.70475 507
56.72486 508
56.74498 534
56.76509 510
56.7852 448
56.80532 474
56.82543 481
56.84554 468
56.86566 489
56.88577 510
56.90589 458
56.926 462
56.94611 483
56.96623 445
56.98634 423
57.00645 473
57.02657 462
57.04668 501
57.0668 507
57.08691 477
57.10702 501
57.12714 498
57.14725 464
57.16736 470
57.18748 488
57.20759 515
57.22771 494
57.24782 512
57.26793 442
57.28805 474
57.30816 486
57.32827 481
57.34839 494
57.3685 493
57.38861 438
57.40873 453
57.42884 472
57.44896 445
57.46907 450
57.48918 442
57.5093 521
57.52941 429
57.54952 459
57.56964 483
57.58975 473
57.60987 464
57.62998 487
57.65009 454
57.67021 485
57.69032 448
57.71043 455
57.73055 461
57.75066 475
57.77078 514
57.79089 481
57.811 461
57.83112 468
57.85123 505
57.87134 498
57.89146 439
57.91157 438
57.93168 449
57.9518 471
57.97191 446
57.99203 456
58.01214 446
58.03225 475
58.05237 473
58.07248 472
58.09259 459
58.11271 493
58.13282 439
58.15294 460
58.17305 459
58.19316 461
58.21328 474
58.23339 452
58.2535 472
58.27362 442
58.29373 469
58.31385 470
58.33396 453
58.35407 447
58.37419 464
58.3943 452
58.41441 417
58.43453 446
58.45464 448
58.47475 444
58.49487 484
58.51498 486
58.5351 463
58.55521 448
58.57532 457
58.59544 445
58.61555 465
58.63566 422
58.65578 456
58.67589 445
58.69601 485
58.71612 447
58.73623 444
58.75635 440
58.77646 419
58.79657 469
58.81669 444
58.8368 492
58.85691 474
58.87703 482
58.89714 479
58.91726 493
58.93737 519
58.95748 494
58.9776 486
58.99771 519
59.01782 493
59.03794 527
59.05805 473
59.07817 473
59.09828 523
59.11839 503
59.13851 522
59.15862 488
59.17873 499
59.19885 493
59.21896 530
59.23908 461
59.25919 564
59.2793 532
59.29942 497
59.31953 507
59.33964 517
59.35976 555
59.37987 578
59.39998 512
59.4201 588
59.44021 560
59.46033 553
59.48044 545
59.50055 569
59.52067 604
59.54078 604
59.56089 595
59.58101 653
59.60112 620
59.62124 643
59.64135 717
59.66146 701
59.68158 683
59.70169 727
59.7218 735
59.74192 732
59.76203 731
59.78215 791
59.80226 827
59.82237 787
59.84249 777
59.8626 756
59.88271 729
59.90283 704
59.92294 720
59.94305 636
59.96317 643
59.98328 617
60.0034 591
60.02351 587
60.04362 525
60.06374 560
60.08385 534
60.10396 495
60.12408 511
60.14419 480
60.16431 480
60.18442 471
60.20453 488
60.22465 465
60.24476 451
60.26487 452
60.28499 481
60.3051 450
60.32522 461
60.34533 485
60.36544 494
60.38556 460
60.40567 437
60.42578 407
60.4459 450
60.46601 421
60.48612 431
60.50624 467
60.52635 447
60.54647 460
60.56658 417
60.58669 451
60.60681 476
60.62692 433
60.64703 498
60.66715 488
60.68726 451
60.70738 443
60.72749 465
60.7476 444
60.76772 463
60.78783 427
60.80794 437
60.82806 474
60.84817 467
60.86828 422
60.8884 456
60.90851 471
60.92863 440
60.94874 474
60.96885 446
60.98897 450
61.00908 454
61.02919 451
61.04931 418
61.06942 479
61.08954 464
61.10965 457
61.12976 428
61.14988 455
61.16999 460
61.1901 444
61.21022 505
61.23033 506
61.25045 503
61.27056 481
61.29067 492
61.31079 455
61.3309 471
61.35101 499
61.37113 486
61.39124 443
61.41135 533
61.43147 525
61.45158 498
61.4717 500
61.49181 538
61.51192 515
61.53204 563
61.55215 543
61.57226 539
61.59238 553
61.61249 545
61.63261 542
61.65272 578
61.67283 569
61.69295 581
61.71306 606
61.73317 613
61.75329 618
61.7734 567
61.79352 622
61.81363 581
61.83374 624
61.85386 684
61.87397 632
61.89408 664
61.9142 665
61.93431 691
61.95442 688
61.97454 731
61.99465 723
62.01477 724
62.03488 762
62.05499 767
62.07511 698
62.09522 716
62.11533 694
62.13545 745
62.15556 731
62.17568 722
62.19579 730
62.2159 677
62.23602 689
62.25613 659
62.27624 646
62.29636 664
62.31647 653
62.33659 649
62.3567 600
62.37681 603
62.39693 552
62.41704 596
62.43715 566
62.45727 575
62.47738 550
62.49749 544
62.51761 519
62.53772 502
62.55784 477
62.57795 486
62.59806 496
62.61818 485
62.63829 514
62.6584 513
62.67852 471
62.69863 470
62.71875 470
62.73886 517
62.75897 460
62.77909 481
62.7992 467
62.81931 492
62.83943 465
62.85954 482
62.87965 499
62.89977 477
62.91988 475
62.94 474
62.96011 475
62.98022 457
63.00034 469
63.02045 503
63.04056 474
63.06068 472
63.08079 511
63.10091 487
63.12102 540
63.14113 461
63.16125 489
63.18136 465
63.20147 472
63.22159 495
63.2417 518
63.26182 488
63.28193 520
63.30204 491
63.32216 465
63.34227 500
63.36238 501
63.3825 474
63.40261 504
63.42272 492
63.44284 485
63.46295 487
63.48307 558
63.50318 524
63.52329 530
63.54341 539
63.56352 508
63.58363 531
63.60375 497
63.62386 479
63.64398 527
63.66409 490
63.6842 588
63.70432 525
63.72443 538
63.74454 518
63.76466 520
63.78477 550
63.80489 523
63.825 542
63.84511 580
63.86523 548
63.88534 600
63.90545 560
63.92557 533
63.94568 581
63.96579 568
63.98591 548
64.00602 519
64.02614 567
64.04625 528
64.06636 517
64.08648 481
64.10659 525
64.1267 522
64.14682 520
64.16693 501
64.18705 457
64.20716 471
64.22727 470
64.24739 447
64.2675 490
64.28761 448
64.30773 472
64.32784 433
64.34796 484
64.36807 453
64.38818 440
64.4083 449
64.42841 434
64.44852 465
64.46864 443
64.48875 432
64.50886 451
64.52898 456
64.54909 458
64.56921 418
64.58932 472
64.60943 406
64.62955 448
64.64966 422
64.66977 431
64.68989 441
64.71 414
64.73012 440
64.75023 428
64.77034 443
64.79046 447
64.81057 450
64.83068 456
64.8508 431
64.87091 425
64.89102 448
64.91114 415
64.93125 466
64.95137 425
64.97148 417
64.99159 454
65.01171 433
65.03182 450
65.05193 440
65.07205 431
65.09216 455
65.11228 413
65.13239 428
65.1525 429
65.17262 411
65.19273 443
65.21284 432
65.23296 368
65.25307 445
65.27319 439
65.2933 440
65.31341 480
65.33353 440
65.35364 436
65.37375 468
65.39387 422
65.41398 433
65.43409 486
65.45421 453
65.47432 438
65.49444 445
65.51455 446
65.53466 444
65.55478 459
65.57489 462
65.595 482
65.61512 461
65.63523 452
65.65535 446
65.67546 434
65.69557 474
65.71569 419
65.7358 428
65.75591 415
65.77603 417
65.79614 439
65.81626 420
65.83637 439
65.85648 405
65.8766 451
65.89671 476
65.91682 439
65.93694 422
65.95705 433
65.97716 424
65.99728 432
66.01739 392
66.03751 429
66.05762 451
66.07773 467
66.09785 428
66.11796 418
66.13807 395
66.15819 453
66.1783 459
66.19842 424
66.21853 463
66.23864 422
66.25876 438
66.27887 467
66.29898 415
66.3191 431
66.33921 424
66.35933 430
66.37944 440
66.39955 445
66.41967 417
66.43978 438
66.45989 419
66.48001 433
66.50012 449
66.52023 436
66.54035 436
66.56046 434
66.58058 463
66.60069 402
66.6208 435
66.64092 419
66.66103 398
66.68114 453
66.70126 416
66.72137 427
66.74149 422
66.7616 451
66.78171 480
66.80183 417
66.82194 471
66.84205 483
66.86217 437
66.88228 460
66.90239 470
66.92251 414
66.94262 480
66.96274 449
66.98285 475
67.00296 499
67.02308 494
67.04319 447
67.0633 436
67.08342 438
67.10353 448
67.12365 488
67.14376 492
67.16387 449
67.18399 453
67.2041 497
67.22421 494
67.24433 498
67.26444 475
67.28456 526
67.30467 508
67.32478 511
67.3449 481
67.36501 548
67.38512 490
67.40524 547
67.42535 558
67.44546 566
67.46558 597
67.48569 573
67.50581 632
67.52592 632
67.54603 613
67.56615 674
67.58626 678
67.60637 624
67.62649 658
67.6466 628
67.66672 661
67.68683 633
67.70694 639
67.72706 633
67.74717 657
67.76728 615
67.7874 601
67.80751 627
67.82763 638
67.84774 625
67.86785 671
67.88797 691
67.90808 703
67.92819 718
67.94831 745
67.96842 758
67.98853 769
68.00865 762
68.02876 752
68.04888 755
68.06899 731
68.0891 719
68.10922 670
68.12933 671
68.14944 717
68.16956 705
68.18967 696
68.20979 638
68.2299 635
68.25001 615
68.27013 585
68.29024 523
68.31035 526
68.33047 509
68.35058 490
68.3707 531
68.39081 487
68.41092 463
68.43104 450
68.45115 469
68.47126 463
68.49138 496
68.51149 481
68.5316 456
68.55172 477
68.57183 460
68.59195 498
68.61206 462
68.63217 488
68.65229 463
68.6724 454
68.69251 438
68.71263 502
68.73274 474
68.75286 459
68.77297 430
68.79308 446
68.8132 435
68.83331 424
68.85342 464
68.87354 446
68.89365 461
68.91376 471
68.93388 460
68.95399 460
68.97411 438
68.99422 435
69.01433 387
69.03445 436
69.05456 400
69.07467 423
69.09479 419
69.1149 417
69.13502 439
69.15513 458
69.17524 450
69.19536 424
69.21547 416
69.23558 458
69.2557 428
69.27581 460
69.29593 398
69.31604 451
69.33615 475
69.35627 456
69.37638 443
69.39649 430
69.41661 439
69.43672 458
69.45683 459
69.47695 430
69.49706 459
69.51718 486
69.53729 388
69.5574 426
69.57752 428
69.59763 413
69.61774 430
69.63786 406
69.65797 428
69.67809 426
69.6982 419
69.71831 455
69.73843 457
69.75854 442
69.77865 426
69.79877 457
69.81888 432
69.839 450
69.85911 449
69.87922 436
69.89934 490
69.91945 469
69.93956 506
69.95968 417
69.97979 426
69.9999 445
70.02002 456
70.04013 434
70.06025 444
70.08036 425
70.10047 448
70.12059 451
70.1407 430
70.16081 429
70.18093 445
70.20104 430
70.22116 429
70.24127 406
70.26138 431
70.2815 439
70.30161 411
70.32172 421
70.34184 433
70.36195 429
70.38207 425
70.40218 406
70.42229 421
70.44241 456
70.46252 449
70.48263 461
70.50275 452
70.52286 442
70.54297 395
70.56309 410
70.5832 422
70.60332 399
70.62343 397
70.64354 381
70.66366 430
70.68377 433
70.70388 413
70.724 461
70.74411 442
70.76423 399
70.78434 461
70.80445 410
70.82457 418
70.84468 406
70.86479 417
70.88491 430
70.90502 398
70.92513 421
70.94525 445
70.96536 418
70.98548 423
71.00559 401
71.0257 403
71.04582 436
71.06593 421
71.08604 409
71.10616 441
71.12627 444
71.14639 442
71.1665 415
71.18661 425
71.20673 429
71.22684 424
71.24695 438
71.26707 441
71.28718 421
71.3073 466
71.32741 414
71.34752 445
71.36764 440
71.38775 453
71.40786 450
71.42798 436
71.44809 463
71.4682 466
71.48832 437
71.50843 457
71.52855 437
71.54866 461
71.56877 450
71.58889 464
71.609 441
71.62911 455
71.64923 428
71.66934 463
71.68946 451
71.70957 454
71.72968 480
71.7498 438
71.76991 462
71.79002 476
71.81014 495
71.83025 460
71.85037 462
71.87048 482
71.89059 473
71.91071 422
71.93082 476
71.95093 439
71.97105 451
71.99116 435
72.01127 473
72.03139 457
72.0515 481
72.07162 415
72.09173 466
72.11184 452
72.13196 458
72.15207 468
72.17218 482
72.1923 444
72.21241 473
72.23253 442
72.25264 454
72.27275 457
72.29287 409
72.31298 414
72.33309 456
72.35321 416
72.37332 439
72.39344 431
72.41355 419
72.43366 464
72.45378 469
72.47389 448
72.494 446
72.51412 453
72.53423 409
72.55434 439
72.57446 430
72.59457 412
72.61469 435
72.6348 455
72.65491 421
72.67503 445
72.69514 429
72.71525 462
72.73537 453
72.75548 468
72.7756 455
72.79571 433
72.81582 472
72.83594 444
72.85605 454
72.87616 458
72.89628 492
72.91639 467
72.9365 466
72.95662 491
72.97673 453
72.99685 464
73.01696 492
73.03707 480
73.05719 477
73.0773 495
73.09741 453
73.11753 487
73.13764 483
73.15776 528
73.17787 461
73.19798 544
73.2181 534
73.23821 518
73.25832 544
73.27844 566
73.29855 543
73.31867 542
73.33878 532
73.35889 515
73.37901 548
73.39912 523
73.41923 504
73.43935 507
73.45946 517
73.47957 495
73.49969 509
73.5198 501
73.53992 482
73.56003 487
73.58014 468
73.60026 495
73.62037 496
73.64048 440
73.6606 427
73.68071 471
73.70083 495
73.72094 471
73.74105 443
73.76117 446
73.78128 483
73.80139 472
73.82151 422
73.84162 470
73.86174 448
73.88185 411
73.90196 446
73.92208 408
73.94219 436
73.9623 438
73.98242 456
74.00253 430
74.02264 453
74.04276 468
74.06287 432
74.08299 426
74.1031 441
74.12321 428
74.14333 390
74.16344 439
74.18355 458
74.20367 411
74.22378 429
74.2439 422
74.26401 432
74.28412 436
74.30424 452
74.32435 411
74.34446 425
74.36458 399
74.38469 421
74.40481 406
74.42492 427
74.44503 433
74.46515 421
74.48526 418
74.50537 438
74.52549 363
74.5456 408
74.56571 417
74.58583 437
74.60594 430
74.62606 457
74.64617 464
74.66628 447
74.6864 431
74.70651 426
74.72662 394
74.74674 404
74.76685 455
74.78697 467
74.80708 430
74.82719 458
74.84731 438
74.86742 428
74.88753 450
74.90765 419
74.92776 425
74.94787 448
74.96799 452
74.9881 443
75.00822 429
