3.00117 19044
3.02128 18483
3.0414 18077
3.06151 17498
3.08162 16726
3.10174 16691
3.12185 16169
3.14197 15311
3.16208 15304
3.18219 14453
3.20231 14610
3.22242 13957
3.24253 13467
3.26265 13336
3.28276 12629
3.30288 12261
3.32299 12032
3.3431 11500
3.36322 11198
3.38333 10584
3.40344 10640
3.42356 10080
3.44367 9900
3.46379 9632
3.4839 9059
3.50401 8985
3.52413 8537
3.54424 8255
3.56435 7915
3.58447 7576
3.60458 7394
3.62469 6901
3.64481 6727
3.66492 6592
3.68504 6102
3.70515 6126
3.72526 5702
3.74538 5524
3.76549 5534
3.7856 5012
3.80572 5083
3.82583 4760
3.84595 4487
3.86606 4320
3.88617 4058
3.90629 3824
3.9264 3691
3.94651 3488
3.96663 3485
3.98674 3158
4.00686 3247
4.02697 2989
4.04708 2883
4.0672 2821
4.08731 2733
4.10742 2597
4.12754 2419
4.14765 2207
4.16776 2297
4.18788 2104
4.20799 2188
4.22811 2140
4.24822 1907
4.26833 1868
4.28845 1675
4.30856 1693
4.32867 1796
4.34879 1573
4.3689 1538
4.38902 1549
4.40913 1466
4.42924 1516
4.44936 1374
4.46947 1301
4.48958 1353
4.5097 1319
4.52981 1226
4.54992 1143
4.57004 1188
4.59015 1087
4.61027 1104
4.63038 1176
4.65049 1034
4.67061 1053
4.69072 1046
4.71083 979
4.73095 1015
4.75106 939
4.77118 998
4.79129 884
4.8114 879
4.83152 955
4.85163 821
4.87174 829
4.89186 780
4.91197 726
4.93209 866
4.9522 729
4.97231 773
4.99243 681
5.01254 701
5.03265 747
5.05277 619
5.07288 629
5.09299 623
5.11311 607
5.13322 654
5.15334 564
5.17345 547
5.19356 589
5.21368 598
5.23379 577
5.2539 562
5.27402 497
5.29413 577
5.31425 538
5.33436 496
5.35447 465
5.37459 470
5.3947 535
5.41481 439
5.43493 453
5.45504 436
5.47516 480
5.49527 434
5.51538 413
5.5355 424
5.55561 397
5.57572 358
5.59584 402
5.61595 401
5.63606 365
5.65618 354
5.67629 343
5.69641 374
5.71652 392
5.73663 373
5.75675 335
5.77686 334
5.79697 344
5.81709 348
5.8372 287
5.85732 337
5.87743 306
5.89754 308
5.91766 337
5.93777 322
5.95788 344
5.978 351
5.99811 339
6.01823 338
6.03834 279
6.05845 310
6.07857 266
6.09868 261
6.11879 300
6.13891 264
6.15902 283
6.17913 312
6.19925 250
6.21936 315
6.23948 280
6.25959 272
6.2797 304
6.29982 291
6.31993 281
6.34004 259
6.36016 287
6.38027 274
6.40039 285
6.4205 264
6.44061 256
6.46073 286
6.48084 268
6.50095 279
6.52107 303
6.54118 286
6.56129 274
6.58141 255
6.60152 255
6.62164 253
6.64175 271
6.66186 266
6.68198 251
6.70209 254
6.7222 247
6.74232 267
6.76243 255
6.78255 254
6.80266 265
6.82277 286
6.84289 271
6.863 268
6.88311 309
6.90323 233
6.92334 232
6.94346 287
6.96357 284
6.98368 287
7.0038 265
7.02391 242
7.04402 281
7.06414 277
7.08425 254
7.10436 247
7.12448 253
7.14459 283
7.16471 269
7.18482 275
7.20493 283
7.22505 284
7.24516 249
7.26527 237
7.28539 240
7.3055 272
7.32562 257
7.34573 275
7.36584 269
7.38596 231
7.40607 255
7.42618 237
7.4463 262
7.46641 280
7.48653 285
7.50664 272
7.52675 252
7.54687 270
7.56698 246
7.58709 250
7.60721 262
7.62732 271
7.64743 295
7.66755 256
7.68766 281
7.70778 255
7.72789 278
7.748 240
7.76812 299
7.78823 271
7.80834 282
7.82846 272
7.84857 268
7.86869 278
7.8888 283
7.90891 249
7.92903 264
7.94914 269
7.96925 269
7.98937 261
8.00948 285
8.0296 222
8.04971 266
8.06982 253
8.08994 277
8.11005 225
8.13016 276
8.15028 232
8.17039 286
8.1905 267
8.21062 275
8.23073 273
8.25085 290
8.27096 268
8.29107 240
8.31119 294
8.3313 290
8.35141 291
8.37153 285
8.39164 260
8.41176 292
8.43187 301
8.45198 292
8.4721 307
8.49221 291
8.51232 288
8.53244 278
8.55255 277
8.57266 271
8.59278 289
8.61289 289
8.63301 279
8.65312 273
8.67323 247
8.69335 274
8.71346 293
8.73357 291
8.75369 234
8.7738 274
8.79392 318
8.81403 290
8.83414 269
8.85426 276
8.87437 249
8.89448 274
8.9146 284
8.93471 274
8.95483 289
8.97494 288
8.99505 286
9.01517 286
9.03528 275
9.05539 283
9.07551 277
9.09562 291
9.11573 281
9.13585 267
9.15596 242
9.17608 279
9.19619 284
9.2163 303
9.23642 245
9.25653 269
9.27664 271
9.29676 256
9.31687 275
9.33699 252
9.3571 306
9.37721 282
9.39733 292
9.41744 236
9.43755 282
9.45767 276
9.47778 273
9.4979 279
9.51801 258
9.53812 261
9.55824 263
9.57835 290
9.59846 255
9.61858 268
9.63869 299
9.6588 273
9.67892 300
9.69903 287
9.71915 307
9.73926 280
9.75937 283
9.77949 267
9.7996 287
9.81971 262
9.83983 279
9.85994 298
9.88006 290
9.90017 283
9.92028 261
9.9404 243
9.96051 273
9.98062 282
10.00074 294
10.02085 275
10.04097 286
10.06108 257
10.08119 281
10.10131 273
10.12142 303
10.14153 316
10.16165 304
10.18176 252
10.20187 243
10.22199 280
10.2421 295
10.26222 306
10.28233 292
10.30244 327
10.32256 303
10.34267 292
10.36278 301
10.3829 285
10.40301 282
10.42313 324
10.44324 283
10.46335 315
10.48347 311
10.50358 290
10.52369 295
10.54381 293
10.56392 291
10.58403 304
10.60415 290
10.62426 277
10.64438 306
10.66449 294
10.6846 295
10.70472 269
10.72483 295
10.74494 291
10.76506 278
10.78517 277
10.80529 260
10.8254 271
10.84551 290
10.86563 268
10.88574 274
10.90585 292
10.92597 241
10.94608 253
10.9662 269
10.98631 299
11.00642 285
11.02654 260
11.04665 263
11.06676 249
11.08688 315
11.10699 262
11.1271 268
11.14722 312
11.16733 331
11.18745 287
11.20756 262
11.22767 255
11.24779 256
11.2679 300
11.28801 274
11.30813 308
11.32824 301
11.34836 296
11.36847 299
11.38858 307
11.4087 306
11.42881 298
11.44892 290
11.46904 271
11.48915 247
11.50927 282
11.52938 256
11.54949 299
11.56961 273
11.58972 293
11.60983 267
11.62995 295
11.65006 285
11.67017 309
11.69029 288
11.7104 278
11.73052 319
11.75063 329
11.77074 301
11.79086 314
11.81097 290
11.83108 302
11.8512 325
11.87131 305
11.89143 289
11.91154 340
11.93165 281
11.95177 322
11.97188 330
11.99199 342
12.01211 297
12.03222 352
12.05234 342
12.07245 368
12.09256 329
12.11268 333
12.13279 383
12.1529 385
12.17302 407
12.19313 382
12.21324 472
12.23336 419
12.25347 483
12.27359 463
12.2937 446
12.31381 477
12.33393 476
12.35404 450
12.37415 456
12.39427 397
12.41438 421
12.4345 407
12.45461 363
12.47472 348
12.49484 319
12.51495 342
12.53506 296
12.55518 300
12.57529 310
12.5954 315
12.61552 291
12.63563 288
12.65575 344
12.67586 294
12.69597 296
12.71609 255
12.7362 297
12.75631 294
12.77643 297
12.79654 262
12.81666 269
12.83677 271
12.85688 277
12.877 270
12.89711 282
12.91722 300
12.93734 255
12.95745 262
12.97757 276
12.99768 300
13.01779 258
13.03791 302
13.05802 277
13.07813 261
13.09825 272
13.11836 252
13.13847 243
13.15859 271
13.1787 258
13.19882 229
13.21893 254
13.23904 244
13.25916 239
13.27927 278
13.29938 301
13.3195 248
13.33961 234
13.35973 254
13.37984 262
13.39995 241
13.42007 242
13.44018 258
13.46029 247
13.48041 269
13.50052 247
13.52064 263
13.54075 257
13.56086 274
13.58098 266
13.60109 299
13.6212 247
13.64132 284
13.66143 293
13.68154 277
13.70166 269
13.72177 292
13.74189 238
13.762 289
13.78211 264
13.80223 254
13.82234 256
13.84245 234
13.86257 267
13.88268 254
13.9028 273
13.92291 251
13.94302 246
13.96314 286
13.98325 248
14.00336 242
14.02348 256
14.04359 275
14.06371 278
14.08382 273
14.10393 246
14.12405 233
14.14416 229
14.16427 217
14.18439 228
14.2045 250
14.22461 238
14.24473 247
14.26484 265
14.28496 254
14.30507 239
14.32518 264
14.3453 257
14.36541 249
14.38552 230
14.40564 267
14.42575 245
14.44587 284
14.46598 253
14.48609 253
14.50621 256
14.52632 262
14.54643 240
14.56655 241
14.58666 225
14.60677 257
14.62689 234
14.647 229
14.66712 266
14.68723 247
14.70734 235
14.72746 243
14.74757 243
14.76768 246
14.7878 228
14.80791 231
14.82803 249
14.84814 256
14.86825 227
14.88837 247
14.90848 258
14.92859 212
14.94871 261
14.96882 241
14.98894 255
15.00905 221
15.02916 254
15.04928 300
15.06939 267
15.0895 247
15.10962 260
15.12973 258
15.14984 259
15.16996 266
15.19007 234
15.21019 259
15.2303 269
15.25041 251
15.27053 232
15.29064 230
15.31075 255
15.33087 254
15.35098 246
15.3711 239
15.39121 265
15.41132 242
15.43144 240
15.45155 214
15.47166 236
15.49178 236
15.51189 248
15.53201 267
15.55212 243
15.57223 214
15.59235 268
15.61246 253
15.63257 249
15.65269 284
15.6728 232
15.69291 219
15.71303 244
15.73314 221
15.75326 237
15.77337 237
15.79348 233
15.8136 241
15.83371 260
15.85382 250
15.87394 234
15.89405 216
15.91417 214
15.93428 242
15.95439 240
15.97451 235
15.99462 238
16.01473 237
16.03485 265
16.05496 232
16.07508 244
16.09519 235
16.1153 248
16.13542 251
16.15553 236
16.17564 246
16.19576 231
16.21587 252
16.23598 250
16.2561 249
16.27621 275
16.29633 217
16.31644 218
16.33655 222
16.35667 246
16.37678 230
16.39689 260
16.41701 244
16.43712 259
16.45724 284
16.47735 258
16.49746 239
16.51758 213
16.53769 230
16.5578 249
16.57792 232
16.59803 247
16.61814 257
16.63826 218
16.65837 240
16.67849 254
16.6986 219
16.71871 258
16.73883 236
16.75894 227
16.77905 254
16.79917 226
16.81928 204
16.8394 232
16.85951 262
16.87962 243
16.89974 247
16.91985 221
16.93996 212
16.96008 230
16.98019 215
17.00031 243
17.02042 218
17.04053 239
17.06065 255
17.08076 251
17.10087 232
17.12099 240
17.1411 237
17.16121 236
17.18133 240
17.20144 219
17.22156 264
17.24167 225
17.26178 257
17.2819 260
17.30201 218
17.32212 221
17.34224 224
17.36235 245
17.38247 242
17.40258 252
17.42269 245
17.44281 250
17.46292 268
17.48303 255
17.50315 236
17.52326 225
17.54338 238
17.56349 258
17.5836 223
17.60372 242
17.62383 248
17.64394 279
17.66406 241
17.68417 257
17.70428 246
17.7244 288
17.74451 244
17.76463 259
17.78474 264
17.80485 269
17.82497 255
17.84508 240
17.86519 233
17.88531 248
17.90542 253
17.92554 264
17.94565 269
17.96576 255
17.98588 233
18.00599 216
18.0261 245
18.04622 240
18.06633 264
18.08645 247
18.10656 239
18.12667 237
18.14679 226
18.1669 231
18.18701 228
18.20713 214
18.22724 219
18.24735 242
18.26747 249
18.28758 237
18.3077 231
18.32781 217
18.34792 230
18.36804 238
18.38815 233
18.40826 223
18.42838 236
18.44849 249
18.46861 263
18.48872 248
18.50883 263
18.52895 224
18.54906 251
18.56917 298
18.58929 226
18.6094 255
18.62951 231
18.64963 244
18.66974 227
18.68986 264
18.70997 245
18.73008 268
18.7502 252
18.77031 245
18.79042 236
18.81054 285
18.83065 256
18.85077 246
18.87088 237
18.89099 256
18.91111 257
18.93122 263
18.95133 272
18.97145 269
18.99156 251
19.01168 255
19.03179 251
19.0519 243
19.07202 251
19.09213 268
19.11224 262
19.13236 253
19.15247 227
19.17258 219
19.1927 234
19.21281 229
19.23293 242
19.25304 263
19.27315 239
19.29327 249
19.31338 271
19.33349 249
19.35361 283
19.37372 257
19.39384 250
19.41395 243
19.43406 276
19.45418 274
19.47429 273
19.4944 297
19.51452 272
19.53463 285
19.55475 253
19.57486 276
19.59497 305
19.61509 287
19.6352 310
19.65531 339
19.67543 338
19.69554 356
19.71565 362
19.73577 347
19.75588 378
19.776 381
19.79611 385
19.81622 395
19.83634 393
19.85645 407
19.87656 382
19.89668 404
19.91679 418
19.93691 375
19.95702 383
19.97713 439
19.99725 385
20.01736 408
20.03747 403
20.05759 385
20.0777 354
20.09782 392
20.11793 418
20.13804 400
20.15816 393
20.17827 386
20.19838 421
20.2185 420
20.23861 413
20.25872 420
20.27884 395
20.29895 387
20.31907 459
20.33918 429
20.35929 416
20.37941 521
20.39952 449
20.41963 468
20.43975 516
20.45986 487
20.47998 530
20.50009 552
20.5202 557
20.54032 659
20.56043 723
20.58054 818
20.60066 888
20.62077 1086
20.64088 1345
20.661 1580
20.68111 1952
20.70123 2371
20.72134 2726
20.74145 3265
20.76157 3641
20.78168 4201
20.80179 4452
20.82191 4644
20.84202 4439
20.86214 4056
20.88225 3236
20.90236 2434
20.92248 1915
20.94259 1386
20.9627 1025
20.98282 831
21.00293 705
21.02305 608
21.04316 574
21.06327 523
21.08339 573
21.1035 555
21.12361 538
21.14373 530
21.16384 543
21.18395 539
21.20407 529
21.22418 527
21.2443 531
21.26441 544
21.28452 476
21.30464 483
21.32475 482
21.34486 475
21.36498 471
21.38509 482
21.40521 468
21.42532 425
21.44543 470
21.46555 446
21.48566 363
21.50577 409
21.52589 408
21.546 394
21.56612 437
21.58623 380
21.60634 371
21.62646 367
21.64657 329
21.66668 345
21.6868 355
21.70691 360
21.72702 382
21.74714 351
21.76725 330
21.78737 340
21.80748 319
21.82759 347
21.84771 333
21.86782 343
21.88793 344
21.90805 347
21.92816 328
21.94828 302
21.96839 361
21.9885 355
22.00862 321
22.02873 340
22.04884 301
22.06896 328
22.08907 310
22.10919 307
22.1293 303
22.14941 362
22.16953 305
22.18964 308
22.20975 313
22.22987 296
22.24998 313
22.27009 352
22.29021 304
22.31032 343
22.33044 326
22.35055 306
22.37066 287
22.39078 317
22.41089 282
22.431 301
22.45112 326
22.47123 330
22.49135 309
22.51146 317
22.53157 319
22.55169 328
22.5718 344
22.59191 309
22.61203 287
22.63214 320
22.65225 337
22.67237 263
22.69248 300
22.7126 294
22.73271 320
22.75282 293
22.77294 321
22.79305 283
22.81316 290
22.83328 307
22.85339 311
22.87351 312
22.89362 286
22.91373 296
22.93385 302
22.95396 270
22.97407 310
22.99419 325
23.0143 323
23.03442 301
23.05453 308
23.07464 321
23.09476 296
23.11487 315
23.13498 293
23.1551 328
23.17521 307
23.19532 295
23.21544 301
23.23555 270
23.25567 312
23.27578 317
23.29589 285
23.31601 314
23.33612 275
23.35623 294
23.37635 309
23.39646 345
23.41658 299
23.43669 286
23.4568 303
23.47692 278
23.49703 296
23.51714 278
23.53726 289
23.55737 317
23.57749 310
23.5976 316
23.61771 317
23.63783 318
23.65794 306
23.67805 305
23.69817 345
23.71828 324
23.73839 353
23.75851 327
23.77862 311
23.79874 309
23.81885 344
23.83896 350
23.85908 342
23.87919 333
23.8993 347
23.91942 317
23.93953 359
23.95965 344
23.97976 389
23.99987 365
24.01999 349
24.0401 308
24.06021 300
24.08033 305
24.10044 306
24.12056 337
24.14067 295
24.16078 306
24.1809 294
24.20101 291
24.22112 313
24.24124 274
24.26135 298
24.28146 332
24.30158 292
24.32169 304
24.34181 336
24.36192 309
24.38203 317
24.40215 323
24.42226 342
24.44237 314
24.46249 313
24.4826 309
24.50272 334
24.52283 310
24.54294 298
24.56306 357
24.58317 319
24.60328 325
24.6234 359
24.64351 368
24.66362 376
24.68374 395
24.70385 400
24.72397 418
24.74408 411
24.76419 406
24.78431 397
24.80442 435
24.82453 434
24.84465 441
24.86476 402
24.88488 404
24.90499 445
24.9251 411
24.94522 395
24.96533 381
24.98544 366
25.00556 358
25.02567 376
25.04579 359
25.0659 370
25.08601 358
25.10613 369
25.12624 338
25.14635 380
25.16647 348
25.18658 347
25.20669 368
25.22681 367
25.24692 334
25.26704 331
25.28715 352
25.30726 340
25.32738 371
25.34749 346
25.3676 328
25.38772 362
25.40783 362
25.42795 369
25.44806 334
25.46817 399
25.48829 379
25.5084 359
25.52851 354
25.54863 363
25.56874 418
25.58886 395
25.60897 397
25.62908 426
25.6492 457
25.66931 420
25.68942 461
25.70954 445
25.72965 464
25.74976 405
25.76988 473
25.78999 462
25.81011 501
25.83022 455
25.85033 471
25.87045 516
25.89056 474
25.91067 489
25.93079 494
25.9509 495
25.97102 494
25.99113 557
26.01124 569
26.03136 574
26.05147 631
26.07158 602
26.0917 674
26.11181 726
26.13193 760
26.15204 847
26.17215 909
26.19227 979
26.21238 1094
26.23249 1129
26.25261 1368
26.27272 1640
26.29283 1879
26.31295 2072
26.33306 2578
26.35318 3143
26.37329 3820
26.3934 4723
26.41352 5919
26.43363 7133
26.45374 8769
26.47386 10434
26.49397 12524
26.51409 14920
26.5342 16714
26.55431 18464
26.57443 20009
26.59454 20302
26.61465 20040
26.63477 18136
26.65488 14743
26.67499 11596
26.69511 8990
26.71522 6491
26.73534 4351
26.75545 3029
26.77556 2043
26.79568 1703
26.81579 1282
26.8359 1114
26.85602 1033
26.87613 914
26.89625 853
26.91636 829
26.93647 763
26.95659 726
26.9767 667
26.99681 643
27.01693 581
27.03704 542
27.05716 535
27.07727 517
27.09738 516
27.1175 536
27.13761 476
27.15772 512
27.17784 518
27.19795 465
27.21806 452
27.23818 439
27.25829 502
27.27841 509
27.29852 453
27.31863 473
27.33875 478
27.35886 518
27.37897 532
27.39909 489
27.4192 500
27.43932 523
27.45943 434
27.47954 485
27.49966 443
27.51977 462
27.53988 407
27.56 385
27.58011 413
27.60023 413
27.62034 315
27.64045 400
27.66057 376
27.68068 360
27.70079 343
27.72091 371
27.74102 345
27.76113 361
27.78125 362
27.80136 374
27.82148 357
27.84159 362
27.8617 346
27.88182 363
27.90193 342
27.92204 355
27.94216 349
27.96227 320
27.98239 336
28.0025 370
28.02261 322
28.04273 303
28.06284 339
28.08295 307
28.10307 316
28.12318 315
28.1433 348
28.16341 321
28.18352 315
28.20364 320
28.22375 331
28.24386 318
28.26398 286
28.28409 291
28.3042 307
28.32432 299
28.34443 309
28.36455 309
28.38466 280
28.40477 320
28.42489 323
28.445 299
28.46511 264
28.48523 311
28.50534 282
28.52546 301
28.54557 298
28.56568 301
28.5858 288
28.60591 278
28.62602 272
28.64614 285
28.66625 285
28.68636 322
28.70648 286
28.72659 283
28.74671 285
28.76682 298
28.78693 315
28.80705 293
28.82716 304
28.84727 315
28.86739 312
28.8875 287
28.90762 301
28.92773 297
28.94784 293
28.96796 290
28.98807 283
29.00818 286
29.0283 246
29.04841 302
29.06853 289
29.08864 284
29.10875 278
29.12887 310
29.14898 257
29.16909 286
29.18921 292
29.20932 289
29.22943 258
29.24955 287
29.26966 290
29.28978 320
29.30989 252
29.33 302
29.35012 279
29.37023 292
29.39034 265
29.41046 317
29.43057 290
29.45069 287
29.4708 274
29.49091 302
29.51103 300
29.53114 303
29.55125 288
29.57137 275
29.59148 274
29.6116 293
29.63171 304
29.65182 294
29.67194 293
29.69205 279
29.71216 303
29.73228 287
29.75239 302
29.7725 290
29.79262 306
29.81273 278
29.83285 270
29.85296 257
29.87307 294
29.89319 275
29.9133 262
29.93341 287
29.95353 306
29.97364 309
29.99376 289
30.01387 299
30.03398 280
30.0541 281
30.07421 295
30.09432 310
30.11444 311
30.13455 310
30.15467 302
30.17478 322
30.19489 298
30.21501 271
30.23512 281
30.25523 297
30.27535 289
30.29546 259
30.31557 306
30.33569 322
30.3558 300
30.37592 286
30.39603 270
30.41614 271
30.43626 301
30.45637 297
30.47648 303
30.4966 292
30.51671 284
30.53683 282
30.55694 242
30.57705 279
30.59717 295
30.61728 280
30.63739 260
30.65751 289
30.67762 294
30.69773 330
30.71785 279
30.73796 287
30.75808 291
30.77819 279
30.7983 295
30.81842 292
30.83853 301
30.85864 299
30.87876 278
30.89887 261
30.91899 247
30.9391 292
30.95921 285
30.97933 295
30.99944 278
31.01955 236
31.03967 252
31.05978 284
31.0799 274
31.10001 278
31.12012 287
31.14024 238
31.16035 272
31.18046 256
31.20058 283
31.22069 268
31.2408 248
31.26092 269
31.28103 257
31.30115 250
31.32126 267
31.34137 262
31.36149 282
31.3816 287
31.40171 249
31.42183 277
31.44194 282
31.46206 263
31.48217 263
31.50228 263
31.5224 261
31.54251 287
31.56262 261
31.58274 271
31.60285 236
31.62297 244
31.64308 266
31.66319 238
31.68331 274
31.70342 285
31.72353 305
31.74365 243
31.76376 248
31.78387 228
31.80399 293
31.8241 284
31.84422 259
31.86433 279
31.88444 225
31.90456 234
31.92467 219
31.94478 242
31.9649 273
31.98501 248
32.00513 269
32.02524 302
32.04535 265
32.06547 277
32.08558 260
32.10569 279
32.12581 273
32.14592 254
32.16604 287
32.18615 267
32.20626 274
32.22638 246
32.24649 241
32.2666 272
32.28672 275
32.30683 264
32.32694 280
32.34706 285
32.36717 303
32.38729 285
32.4074 290
32.42751 281
32.44763 255
32.46774 281
32.48785 316
32.50797 299
32.52808 315
32.5482 300
32.56831 287
32.58842 279
32.60854 245
32.62865 272
32.64876 294
32.66888 289
32.68899 281
32.7091 282
32.72922 308
32.74933 260
32.76945 284
32.78956 259
32.80967 272
32.82979 289
32.8499 277
32.87001 287
32.89013 307
32.91024 283
32.93036 312
32.95047 285
32.97058 298
32.9907 283
33.01081 293
33.03092 288
33.05104 301
33.07115 287
33.09127 281
33.11138 304
33.13149 301
33.15161 316
33.17172 304
33.19183 316
33.21195 289
33.23206 326
33.25217 299
33.27229 291
33.2924 316
33.31252 310
33.33263 337
33.35274 310
33.37286 320
33.39297 303
33.41308 278
33.4332 356
33.45331 282
33.47343 323
33.49354 318
33.51365 303
33.53377 287
33.55388 257
33.57399 284
33.59411 291
33.61422 272
33.63434 293
33.65445 275
33.67456 280
33.69468 286
33.71479 272
33.7349 259
33.75502 231
33.77513 293
33.79524 249
33.81536 262
33.83547 247
33.85559 261
33.8757 241
33.89581 256
33.91593 248
33.93604 258
33.95615 267
33.97627 270
33.99638 252
34.0165 258
34.03661 267
34.05672 287
34.07684 266
34.09695 283
34.11706 279
34.13718 257
34.15729 269
34.17741 283
34.19752 272
34.21763 282
34.23775 271
34.25786 256
34.27797 268
34.29809 260
34.3182 263
34.33831 315
34.35843 277
34.37854 264
34.39866 250
34.41877 266
34.43888 269
34.459 290
34.47911 251
34.49922 294
34.51934 259
34.53945 296
34.55957 241
34.57968 307
34.59979 340
34.61991 292
34.64002 326
34.66013 326
34.68025 357
34.70036 309
34.72047 345
34.74059 310
34.7607 340
34.78082 350
34.80093 351
34.82104 352
34.84116 367
34.86127 319
34.88138 364
34.9015 375
34.92161 343
34.94173 330
34.96184 323
34.98195 354
35.00207 333
35.02218 329
35.04229 311
35.06241 344
35.08252 365
35.10264 333
35.12275 328
35.14286 339
35.16298 335
35.18309 355
35.2032 324
35.22332 316
35.24343 341
35.26354 329
35.28366 352
35.30377 337
35.32389 325
35.344 353
35.36411 328
35.38423 318
35.40434 375
35.42445 351
35.44457 372
35.46468 332
35.4848 349
35.50491 354
35.52502 366
35.54514 319
35.56525 370
35.58536 371
35.60548 385
35.62559 328
35.64571 349
35.66582 386
35.68593 366
35.70605 382
35.72616 358
35.74627 349
35.76639 369
35.7865 370
35.80661 376
35.82673 361
35.84684 361
35.86696 328
35.88707 382
35.90718 367
35.9273 357
35.94741 347
35.96752 361
35.98764 383
36.00775 350
36.02787 362
36.04798 392
36.06809 378
36.08821 366
36.10832 380
36.12843 438
36.14855 432
36.16866 431
36.18878 492
36.20889 509
36.229 499
36.24912 515
36.26923 617
36.28934 684
36.30946 795
36.32957 811
36.34968 986
36.3698 1094
36.38991 1158
36.41003 1243
36.43014 1373
36.45025 1529
36.47037 1577
36.49048 1579
36.51059 1489
36.53071 1381
36.55082 1334
36.57094 1177
36.59105 931
36.61116 845
36.63128 717
36.65139 606
36.6715 539
36.69162 503
36.71173 427
36.73184 425
36.75196 399
36.77207 378
36.79219 401
36.8123 341
36.83241 377
36.85253 324
36.87264 392
36.89275 395
36.91287 382
36.93298 365
36.9531 333
36.97321 350
36.99332 305
37.01344 350
37.03355 307
37.05366 356
37.07378 325
37.09389 326
37.11401 304
37.13412 324
37.15423 274
37.17435 294
37.19446 296
37.21457 302
37.23469 277
37.2548 255
37.27491 261
37.29503 289
37.31514 301
37.33526 268
37.35537 260
37.37548 274
37.3956 245
37.41571 296
37.43582 285
37.45594 302
37.47605 306
37.49617 266
37.51628 289
37.53639 281
37.55651 280
37.57662 282
37.59673 286
37.61685 292
37.63696 283
37.65708 294
37.67719 296
37.6973 314
37.71742 335
37.73753 293
37.75764 288
37.77776 297
37.79787 271
37.81798 273
37.8381 288
37.85821 262
37.87833 280
37.89844 275
37.91855 294
37.93867 284
37.95878 261
37.97889 279
37.99901 288
38.01912 283
38.03924 286
38.05935 296
38.07946 305
38.09958 324
38.11969 314
38.1398 341
38.15992 331
38.18003 332
38.20015 317
38.22026 319
38.24037 336
38.26049 300
38.2806 363
38.30071 353
38.32083 339
38.34094 326
38.36105 372
38.38117 353
38.40128 364
38.4214 332
38.44151 369
38.46162 332
38.48174 348
38.50185 301
38.52196 334
38.54208 305
38.56219 315
38.58231 310
38.60242 311
38.62253 325
38.64265 318
38.66276 287
38.68287 294
38.70299 327
38.7231 319
38.74321 295
38.76333 316
38.78344 281
38.80356 312
38.82367 289
38.84378 320
38.8639 273
38.88401 311
38.90412 304
38.92424 324
38.94435 327
38.96447 294
38.98458 354
39.00469 369
39.02481 366
39.04492 368
39.06503 371
39.08515 371
39.10526 449
39.12538 483
39.14549 507
39.1656 533
39.18572 598
39.20583 647
39.22594 740
39.24606 815
39.26617 859
39.28628 1084
39.3064 1130
39.32651 1124
39.34663 1329
39.36674 1490
39.38685 1518
39.40697 1482
39.42708 1471
39.44719 1330
39.46731 1223
39.48742 1088
39.50754 904
39.52765 810
39.54776 714
39.56788 618
39.58799 511
39.6081 476
39.62822 387
39.64833 327
39.66845 331
39.68856 331
39.70867 313
39.72879 307
39.7489 309
39.76901 311
39.78913 326
39.80924 301
39.82935 296
39.84947 284
39.86958 321
39.8897 346
39.90981 368
39.92992 320
39.95004 386
39.97015 374
39.99026 415
40.01038 454
40.03049 450
40.05061 464
40.07072 551
40.09083 575
40.11095 628
40.13106 686
40.15117 686
40.17129 730
40.1914 835
40.21152 883
40.23163 848
40.25174 826
40.27186 823
40.29197 748
40.31208 667
40.3322 590
40.35231 521
40.37242 474
40.39254 447
40.41265 386
40.43277 310
40.45288 314
40.47299 328
40.49311 300
40.51322 334
40.53333 289
40.55345 250
40.57356 302
40.59368 282
40.61379 280
40.6339 301
40.65402 280
40.67413 293
40.69424 276
40.71436 259
40.73447 279
40.75458 287
40.7747 288
40.79481 305
40.81493 258
40.83504 328
40.85515 287
40.87527 281
40.89538 305
40.91549 313
40.93561 287
40.95572 289
40.97584 294
40.99595 301
41.01606 276
41.03618 269
41.05629 298
41.0764 270
41.09652 297
41.11663 268
41.13675 265
41.15686 283
41.17697 314
41.19709 277
41.2172 311
41.23731 304
41.25743 294
41.27754 264
41.29765 292
41.31777 274
41.33788 266
41.358 314
41.37811 280
41.39822 293
41.41834 268
41.43845 320
41.45856 272
41.47868 289
41.49879 253
41.51891 262
41.53902 305
41.55913 284
41.57925 249
41.59936 264
41.61947 296
41.63959 305
41.6597 275
41.67982 264
41.69993 280
41.72004 283
41.74016 288
41.76027 267
41.78038 292
41.8005 301
41.82061 265
41.84072 278
41.86084 272
41.88095 286
41.90107 283
41.92118 280
41.94129 293
41.96141 274
41.98152 296
42.00163 310
42.02175 316
42.04186 278
42.06198 332
42.08209 351
42.1022 396
42.12232 410
42.14243 459
42.16254 458
42.18266 533
42.20277 577
42.22289 589
42.243 684
42.26311 713
42.28323 779
42.30334 847
42.32345 948
42.34357 985
42.36368 1063
42.38379 1106
42.40391 1068
42.42402 1027
42.44414 956
42.46425 852
42.48436 794
42.50448 692
42.52459 644
42.5447 546
42.56482 467
42.58493 377
42.60505 355
42.62516 320
42.64527 315
42.66539 302
42.6855 280
42.70561 265
42.72573 271
42.74584 250
42.76595 272
42.78607 241
42.80618 254
42.8263 218
42.84641 259
42.86652 231
42.88664 239
42.90675 261
42.92686 234
42.94698 233
42.96709 245
42.98721 282
43.00732 249
43.02743 225
43.04755 224
43.06766 222
43.08777 214
43.10789 245
43.128 239
43.14812 229
43.16823 258
43.18834 228
43.20846 245
43.22857 232
43.24868 231
43.2688 250
43.28891 241
43.30902 232
43.32914 238
43.34925 219
43.36937 232
43.38948 239
43.40959 253
43.42971 266
43.44982 250
43.46993 251
43.49005 249
43.51016 235
43.53028 258
43.55039 248
43.5705 233
43.59062 243
43.61073 246
43.63084 237
43.65096 244
43.67107 236
43.69119 235
43.7113 216
43.73141 209
43.75153 236
43.77164 237
43.79175 229
43.81187 226
43.83198 217
43.85209 234
43.87221 229
43.89232 209
43.91244 225
43.93255 224
43.95266 245
43.97278 225
43.99289 257
44.013 248
44.03312 226
44.05323 256
44.07335 230
44.09346 236
44.11357 246
44.13369 233
44.1538 246
44.17391 242
44.19403 213
44.21414 239
44.23426 229
44.25437 250
44.27448 245
44.2946 245
44.31471 253
44.33482 237
44.35494 218
44.37505 232
44.39516 236
44.41528 241
44.43539 231
44.45551 232
44.47562 242
44.49573 256
44.51585 219
44.53596 218
44.55607 240
44.57619 224
44.5963 228
44.61642 213
44.63653 212
44.65664 235
44.67676 231
44.69687 242
44.71698 209
44.7371 237
44.75721 239
44.77732 243
44.79744 222
44.81755 264
44.83767 245
44.85778 272
44.87789 237
44.89801 229
44.91812 239
44.93823 203
44.95835 243
44.97846 222
44.99858 237
45.01869 228
45.0388 235
45.05892 265
45.07903 253
45.09914 244
45.11926 269
45.13937 244
45.15949 253
45.1796 287
45.19971 274
45.21983 267
45.23994 285
45.26005 244
45.28017 256
45.30028 277
45.32039 300
45.34051 301
45.36062 312
45.38074 320
45.40085 319
45.42096 327
45.44108 346
45.46119 362
45.4813 388
45.50142 402
45.52153 409
45.54165 464
45.56176 434
45.58187 518
45.60199 607
45.6221 601
45.64221 634
45.66233 706
45.68244 791
45.70256 730
45.72267 768
45.74278 815
45.7629 746
45.78301 692
45.80312 673
45.82324 567
45.84335 488
45.86346 471
45.88358 463
45.90369 369
45.92381 353
45.94392 335
45.96403 312
45.98415 289
46.00426 253
46.02437 266
46.04449 229
46.0646 255
46.08472 280
46.10483 264
46.12494 241
46.14506 240
46.16517 244
46.18528 222
46.2054 254
46.22551 238
46.24563 230
46.26574 251
46.28585 226
46.30597 218
46.32608 229
46.34619 257
46.36631 225
46.38642 254
46.40653 233
46.42665 209
46.44676 260
46.46688 225
46.48699 233
46.5071 258
46.52722 229
46.54733 199
46.56744 254
46.58756 218
46.60767 233
46.62779 233
46.6479 250
46.66801 258
46.68813 230
46.70824 255
46.72835 215
46.74847 234
46.76858 232
46.78869 195
46.80881 255
46.82892 243
46.84904 222
46.86915 253
46.88926 230
46.90938 238
46.92949 213
46.9496 243
46.96972 236
46.98983 205
47.00995 236
47.03006 234
47.05017 241
47.07029 220
47.0904 248
47.11051 244
47.13063 221
47.15074 248
47.17086 230
47.19097 224
47.21108 254
47.2312 215
47.25131 247
47.27142 245
47.29154 252
47.31165 246
47.33176 231
47.35188 234
47.37199 246
47.39211 216
47.41222 244
47.43233 236
47.45245 213
47.47256 223
47.49267 237
47.51279 234
47.5329 237
47.55302 231
47.57313 239
47.59324 230
47.61336 201
47.63347 216
47.65358 224
47.6737 243
47.69381 231
47.71393 237
47.73404 267
47.75415 247
47.77427 252
47.79438 255
47.81449 250
47.83461 199
47.85472 245
47.87483 222
47.89495 281
47.91506 282
47.93518 236
47.95529 223
47.9754 254
47.99552 241
48.01563 240
48.03574 233
48.05586 227
48.07597 240
48.09609 202
48.1162 238
48.13631 228
48.15643 248
48.17654 243
48.19665 250
48.21677 231
48.23688 277
48.257 233
48.27711 242
48.29722 236
48.31734 230
48.33745 251
48.35756 251
48.37768 235
48.39779 228
48.4179 237
48.43802 235
48.45813 242
48.47825 237
48.49836 243
48.51847 219
48.53859 238
48.5587 237
48.57881 276
48.59893 260
48.61904 228
48.63916 244
48.65927 256
48.67938 240
48.6995 255
48.71961 240
48.73972 217
48.75984 225
48.77995 248
48.80006 243
48.82018 249
48.84029 265
48.86041 262
48.88052 255
48.90063 258
48.92075 252
48.94086 242
48.96097 246
48.98109 226
49.0012 267
49.02132 263
49.04143 268
49.06154 251
49.08166 259
49.10177 261
49.12188 246
49.142 254
49.16211 242
49.18223 237
49.20234 267
49.22245 236
49.24257 222
49.26268 290
49.28279 237
49.30291 276
49.32302 252
49.34313 262
49.36325 276
49.38336 249
49.40348 232
49.42359 296
49.4437 280
49.46382 292
49.48393 273
49.50404 281
49.52416 313
49.54427 319
49.56439 300
49.5845 324
49.60461 345
49.62473 372
49.64484 396
49.66495 374
49.68507 409
49.70518 431
49.7253 500
49.74541 538
49.76552 544
49.78564 623
49.80575 725
49.82586 770
49.84598 815
49.86609 979
49.8862 1105
49.90632 1228
49.92643 1368
49.94655 1513
49.96666 1618
49.98677 1736
50.00689 1892
50.027 2049
50.04711 2100
50.06723 2161
50.08734 2166
50.10746 2079
50.12757 1930
50.14768 1607
50.1678 1525
50.18791 1279
50.20802 1270
50.22814 1129
50.24825 944
50.26837 797
50.28848 670
50.30859 536
50.32871 476
50.34882 426
50.36893 382
50.38905 371
50.40916 360
50.42927 327
50.44939 348
50.4695 315
50.48962 303
50.50973 290
50.52984 310
50.54996 321
50.57007 319
50.59018 285
50.6103 297
50.63041 289
50.65053 281
50.67064 309
50.69075 278
50.71087 263
50.73098 284
50.75109 241
50.77121 279
50.79132 258
50.81143 262
50.83155 272
50.85166 255
50.87178 235
50.89189 273
50.912 267
50.93212 236
50.95223 252
50.97234 261
50.99246 250
51.01257 243
51.03269 267
51.0528 236
51.07291 244
51.09303 239
51.11314 241
51.13325 237
51.15337 250
51.17348 252
51.1936 245
51.21371 244
51.23382 238
51.25394 250
51.27405 219
51.29416 232
51.31428 240
51.33439 236
51.3545 237
51.37462 246
51.39473 231
51.41485 203
51.43496 202
51.45507 229
51.47519 238
51.4953 225
51.51541 204
51.53553 219
51.55564 209
51.57576 229
51.59587 233
51.61598 225
51.6361 218
51.65621 221
51.67632 242
51.69644 199
51.71655 219
51.73667 235
51.75678 243
51.77689 259
51.79701 200
51.81712 212
51.83723 206
51.85735 245
51.87746 212
51.89757 239
51.91769 231
51.9378 228
51.95792 223
51.97803 224
51.99814 232
52.01826 225
52.03837 240
52.05848 218
52.0786 212
52.09871 236
52.11883 223
52.13894 216
52.15905 216
52.17917 189
52.19928 215
52.21939 247
52.23951 222
52.25962 242
52.27974 236
52.29985 211
52.31996 243
52.34008 204
52.36019 238
52.3803 222
52.40042 233
52.42053 217
52.44064 238
52.46076 218
52.48087 220
52.50099 226
52.5211 215
52.54121 253
52.56133 228
52.58144 232
52.60155 253
52.62167 241
52.64178 220
52.6619 226
52.68201 238
52.70212 238
52.72224 234
52.74235 256
52.76246 228
52.78258 242
52.80269 255
52.8228 242
52.84292 249
52.86303 233
52.88315 232
52.90326 241
52.92337 251
52.94349 267
52.9636 247
52.98371 233
53.00383 261
53.02394 267
53.04406 269
53.06417 249
53.08428 248
53.1044 254
53.12451 251
53.14462 249
53.16474 238
53.18485 238
53.20497 260
53.22508 257
53.24519 292
53.26531 274
53.28542 256
53.30553 258
53.32565 228
53.34576 269
53.36587 284
53.38599 281
53.4061 295
53.42622 308
53.44633 267
53.46644 282
53.48656 279
53.50667 279
53.52678 274
53.5469 257
53.56701 266
53.58713 300
53.60724 279
53.62735 285
53.64747 282
53.66758 299
53.68769 261
53.70781 292
53.72792 264
53.74804 287
53.76815 290
53.78826 259
53.80838 269
53.82849 296
53.8486 250
53.86872 274
53.88883 252
53.90894 312
53.92906 266
53.94917 269
53.96929 277
53.9894 274
54.00951 277
54.02963 261
54.04974 292
54.06985 278
54.08997 281
54.11008 274
54.1302 251
54.15031 275
54.17042 281
54.19054 301
54.21065 262
54.23076 302
54.25088 295
54.27099 304
54.29111 293
54.31122 293
54.33133 271
54.35145 318
54.37156 292
54.39167 322
54.41179 316
54.4319 372
54.45201 379
54.47213 343
54.49224 363
54.51236 374
54.53247 393
54.55258 386
54.5727 435
54.59281 473
54.61292 502
54.63304 556
54.65315 562
54.67327 632
54.69338 646
54.71349 710
54.73361 741
54.75372 755
54.77383 799
54.79395 787
54.81406 816
54.83417 822
54.85429 806
54.8744 711
54.89452 628
54.91463 622
54.93474 591
54.95486 528
54.97497 553
54.99508 541
55.0152 528
55.03531 476
55.05543 447
55.07554 466
55.09565 407
55.11577 408
55.13588 446
55.15599 440
55.17611 503
55.19622 435
55.21634 463
55.23645 526
55.25656 481
55.27668 499
55.29679 496
55.3169 446
55.33702 439
55.35713 395
55.37724 387
55.39736 385
55.41747 372
55.43759 350
55.4577 362
55.47781 327
55.49793 321
55.51804 285
55.53815 285
55.55827 259
55.57838 281
55.5985 249
55.61861 276
55.63872 295
55.65884 233
55.67895 254
55.69906 241
55.71918 228
55.73929 272
55.75941 239
55.77952 268
55.79963 250
55.81975 259
55.83986 237
55.85997 216
55.88009 264
55.9002 246
55.92031 230
55.94043 224
55.96054 218
55.98066 240
56.00077 266
56.02088 229
56.041 227
56.06111 240
56.08122 273
56.10134 256
56.12145 226
56.14157 230
56.16168 220
56.18179 239
56.20191 246
56.22202 241
56.24213 243
56.26225 241
56.28236 241
56.30248 223
56.32259 231
56.3427 237
56.36282 240
56.38293 224
56.40304 234
56.42316 263
56.44327 216
56.46338 228
56.4835 232
56.50361 234
56.52373 215
56.54384 244
56.56395 237
56.58407 245
56.60418 233
56.62429 230
56.64441 225
56.66452 233
56.68464 252
56.70475 249
56.72486 222
56.74498 242
56.76509 247
56.7852 239
56.80532 239
56.82543 235
56.84554 226
56.86566 240
56.88577 236
56.90589 231
56.926 233
56.94611 248
56.96623 236
56.98634 239
57.00645 220
57.02657 268
57.04668 247
57.0668 260
57.08691 246
57.10702 259
57.12714 249
57.14725 280
57.16736 259
57.18748 259
57.20759 241
57.22771 269
57.24782 255
57.26793 234
57.28805 249
57.30816 245
57.32827 232
57.34839 264
57.3685 251
57.38861 245
57.40873 220
57.42884 246
57.44896 222
57.46907 219
57.48918 228
57.5093 236
57.52941 237
57.54952 210
57.56964 227
57.58975 227
57.60987 228
57.62998 222
57.65009 228
57.67021 197
57.69032 216
57.71043 221
57.73055 224
57.75066 238
57.77078 226
57.79089 237
57.811 239
57.83112 232
57.85123 243
57.87134 235
57.89146 239
57.91157 223
57.93168 225
57.9518 246
57.97191 221
57.99203 243
58.01214 238
58.03225 226
58.05237 258
58.07248 226
58.09259 242
58.11271 228
58.13282 218
58.15294 260
58.17305 239
58.19316 238
58.21328 222
58.23339 212
58.2535 211
58.27362 203
58.29373 220
58.31385 236
58.33396 232
58.35407 251
58.37419 233
58.3943 221
58.41441 240
58.43453 230
58.45464 220
58.47475 237
58.49487 225
58.51498 227
58.5351 239
58.55521 242
58.57532 243
58.59544 211
58.61555 247
58.63566 228
58.65578 239
58.67589 236
58.69601 253
58.71612 246
58.73623 237
58.75635 234
58.77646 266
58.79657 235
58.81669 223
58.8368 220
58.85691 236
58.87703 211
58.89714 239
58.91726 236
58.93737 240
58.95748 236
58.9776 242
58.99771 216
59.01782 260
59.03794 236
59.05805 225
59.07817 268
59.09828 239
59.11839 232
59.13851 239
59.15862 261
59.17873 258
59.19885 281
59.21896 240
59.23908 264
59.25919 245
59.2793 237
59.29942 288
59.31953 261
59.33964 297
59.35976 283
59.37987 319
59.39998 314
59.4201 333
59.44021 334
59.46033 331
59.48044 393
59.50055 376
59.52067 414
59.54078 423
59.56089 498
59.58101 496
59.60112 535
59.62124 620
59.64135 678
59.66146 697
59.68158 781
59.70169 839
59.7218 910
59.74192 1015
59.76203 1095
59.78215 1150
59.80226 1273
59.82237 1381
59.84249 1410
59.8626 1478
59.88271 1439
59.90283 1453
59.92294 1412
59.94305 1277
59.96317 1108
59.98328 964
60.0034 944
60.02351 818
60.04362 849
60.06374 735
60.08385 660
60.10396 602
60.12408 549
60.14419 458
60.16431 399
60.18442 348
60.20453 321
60.22465 304
60.24476 278
60.26487 278
60.28499 241
60.3051 294
60.32522 261
60.34533 225
60.36544 272
60.38556 226
60.40567 286
60.42578 264
60.4459 225
60.46601 233
60.48612 217
60.50624 243
60.52635 259
60.54647 208
60.56658 248
60.58669 232
60.60681 234
60.62692 247
60.64703 267
60.66715 252
60.68726 235
60.70738 214
60.72749 209
60.7476 236
60.76772 250
60.78783 237
60.80794 224
60.82806 241
60.84817 241
60.86828 225
60.8884 220
60.90851 227
60.92863 232
60.94874 239
60.96885 261
60.98897 230
61.00908 242
61.02919 226
61.04931 241
61.06942 243
61.08954 271
61.10965 236
61.12976 230
61.14988 233
61.16999 207
61.1901 239
61.21022 258
61.23033 210
61.25045 254
61.27056 236
61.29067 258
61.31079 245
61.3309 246
61.35101 263
61.37113 229
61.39124 203
61.41135 270
61.43147 228
61.45158 253
61.4717 254
61.49181 239
61.51192 275
61.53204 222
61.55215 241
61.57226 251
61.59238 252
61.61249 253
61.63261 255
61.65272 260
61.67283 260
61.69295 263
61.71306 252
61.73317 268
61.75329 267
61.7734 263
61.79352 267
61.81363 262
61.83374 262
61.85386 244
61.87397 248
61.89408 252
61.9142 256
61.93431 256
61.95442 260
61.97454 276
61.99465 265
62.01477 251
62.03488 265
62.05499 317
62.07511 294
62.09522 273
62.11533 287
62.13545 292
62.15556 291
62.17568 268
62.19579 254
62.2159 293
62.23602 278
62.25613 284
62.27624 282
62.29636 285
62.31647 285
62.33659 277
62.3567 252
62.37681 264
62.39693 260
62.41704 241
62.43715 253
62.45727 256
62.47738 255
62.49749 256
62.51761 234
62.53772 214
62.55784 246
62.57795 267
62.59806 230
62.61818 235
62.63829 225
62.6584 216
62.67852 231
62.69863 249
62.71875 225
62.73886 252
62.75897 229
62.77909 215
62.7992 227
62.81931 217
62.83943 216
62.85954 240
62.87965 226
62.89977 222
62.91988 229
62.94 230
62.96011 208
62.98022 197
63.00034 230
63.02045 249
63.04056 226
63.06068 250
63.08079 219
63.10091 230
63.12102 230
63.14113 258
63.16125 251
63.18136 241
63.20147 239
63.22159 241
63.2417 240
63.26182 243
63.28193 254
63.30204 244
63.32216 256
63.34227 268
63.36238 238
63.3825 242
63.40261 241
63.42272 281
63.44284 240
63.46295 209
63.48307 221
63.50318 278
63.52329 225
63.54341 235
63.56352 250
63.58363 259
63.60375 298
63.62386 281
63.64398 285
63.66409 276
63.6842 297
63.70432 300
63.72443 341
63.74454 301
63.76466 337
63.78477 356
63.80489 385
63.825 375
63.84511 386
63.86523 409
63.88534 432
63.90545 405
63.92557 469
63.94568 442
63.96579 474
63.98591 439
64.00602 474
64.02614 414
64.04625 414
64.06636 340
64.08648 367
64.10659 355
64.1267 339
64.14682 333
64.16693 313
64.18705 314
64.20716 285
64.22727 289
64.24739 296
64.2675 242
64.28761 236
64.30773 221
64.32784 218
64.34796 242
64.36807 244
64.38818 251
64.4083 259
64.42841 222
64.44852 223
64.46864 246
64.48875 206
64.50886 227
64.52898 232
64.54909 255
64.56921 229
64.58932 238
64.60943 238
64.62955 226
64.64966 223
64.66977 239
64.68989 209
64.71 220
64.73012 205
64.75023 211
64.77034 222
64.79046 252
64.81057 200
64.83068 190
64.8508 229
64.87091 205
64.89102 225
64.91114 212
64.93125 224
64.95137 230
64.97148 224
64.99159 216
65.01171 222
65.03182 226
65.05193 215
65.07205 223
65.09216 224
65.11228 200
65.13239 245
65.1525 231
65.17262 204
65.19273 220
65.21284 222
65.23296 206
65.25307 208
65.27319 228
65.2933 208
65.31341 216
65.33353 215
65.35364 212
65.37375 215
65.39387 239
65.41398 202
65.43409 221
65.45421 237
65.47432 262
65.49444 246
65.51455 273
65.53466 218
65.55478 234
65.57489 258
65.595 259
65.61512 263
65.63523 274
65.65535 283
65.67546 276
65.69557 256
65.71569 264
65.7358 262
65.75591 266
65.77603 248
65.79614 230
65.81626 270
65.83637 245
65.85648 238
65.8766 217
65.89671 233
65.91682 218
65.93694 260
65.95705 217
65.97716 241
65.99728 229
66.01739 216
66.03751 229
66.05762 217
66.07773 208
66.09785 240
66.11796 221
66.13807 234
66.15819 221
66.1783 239
66.19842 215
66.21853 205
66.23864 215
66.25876 221
66.27887 243
66.29898 197
66.3191 229
66.33921 237
66.35933 233
66.37944 188
66.39955 208
66.41967 224
66.43978 256
66.45989 191
66.48001 233
66.50012 223
66.52023 224
66.54035 241
66.56046 253
66.58058 228
66.60069 214
66.6208 214
66.64092 220
66.66103 221
66.68114 210
66.70126 246
66.72137 225
66.74149 263
66.7616 218
66.78171 212
66.80183 215
66.82194 237
66.84205 230
66.86217 242
66.88228 234
66.90239 267
66.92251 226
66.94262 253
66.96274 253
66.98285 218
67.00296 236
67.02308 242
67.04319 242
67.0633 265
67.08342 268
67.10353 259
67.12365 241
67.14376 278
67.16387 257
67.18399 278
67.2041 272
67.22421 294
67.24433 300
67.26444 297
67.28456 344
67.30467 353
67.32478 382
67.3449 343
67.36501 425
67.38512 434
67.40524 460
67.42535 479
67.44546 554
67.46558 557
67.48569 588
67.50581 667
67.52592 751
67.54603 806
67.56615 844
67.58626 870
67.60637 924
67.62649 960
67.6466 967
67.66672 975
67.68683 1035
67.70694 999
67.72706 946
67.74717 917
67.76728 943
67.7874 906
67.80751 943
67.82763 927
67.84774 922
67.86785 957
67.88797 999
67.90808 1043
67.92819 1099
67.94831 1043
67.96842 1127
67.98853 1241
68.00865 1250
68.02876 1312
68.04888 1420
68.06899 1403
68.0891 1448
68.10922 1375
68.12933 1280
68.14944 1289
68.16956 1318
68.18967 1217
68.20979 1193
68.2299 1170
68.25001 1098
68.27013 1078
68.29024 985
68.31035 863
68.33047 806
68.35058 715
68.3707 596
68.39081 593
68.41092 575
68.43104 478
68.45115 487
68.47126 457
68.49138 428
68.51149 384
68.5316 329
68.55172 329
68.57183 279
68.59195 281
68.61206 259
68.63217 265
68.65229 285
68.6724 247
68.69251 269
68.71263 229
68.73274 243
68.75286 235
68.77297 224
68.79308 269
68.8132 258
68.83331 241
68.85342 236
68.87354 235
68.89365 234
68.91376 238
68.93388 249
68.95399 228
68.97411 246
68.99422 222
69.01433 226
69.03445 231
69.05456 248
69.07467 226
69.09479 247
69.1149 220
69.13502 221
69.15513 254
69.17524 212
69.19536 210
69.21547 241
69.23558 234
69.2557 224
69.27581 238
69.29593 226
69.31604 230
69.33615 224
69.35627 223
69.37638 217
69.39649 211
69.41661 222
69.43672 195
69.45683 210
69.47695 235
69.49706 244
69.51718 214
69.53729 203
69.5574 229
69.57752 230
69.59763 223
69.61774 208
69.63786 237
69.65797 215
69.67809 224
69.6982 225
69.71831 198
69.73843 211
69.75854 214
69.77865 218
69.79877 219
69.81888 193
69.839 226
69.85911 229
69.87922 231
69.89934 218
69.91945 233
69.93956 248
69.95968 238
69.97979 229
69.9999 237
70.02002 203
70.04013 225
70.06025 229
70.08036 213
70.10047 220
70.12059 210
70.1407 215
70.16081 236
70.18093 211
70.20104 240
70.22116 219
70.24127 209
70.26138 220
70.2815 212
70.30161 220
70.32172 186
70.34184 207
70.36195 226
70.38207 213
70.40218 219
70.42229 197
70.44241 204
70.46252 241
70.48263 181
70.50275 217
70.52286 199
70.54297 205
70.56309 216
70.5832 201
70.60332 186
70.62343 216
70.64354 214
70.66366 220
70.68377 201
70.70388 199
70.724 183
70.74411 235
70.76423 229
70.78434 220
70.80445 169
70.82457 209
70.84468 242
70.86479 217
70.88491 219
70.90502 215
70.92513 224
70.94525 193
70.96536 223
70.98548 219
71.00559 205
71.0257 225
71.04582 197
71.06593 215
71.08604 207
71.10616 216
71.12627 217
71.14639 207
71.1665 204
71.18661 194
71.20673 213
71.22684 217
71.24695 211
71.26707 220
71.28718 205
71.3073 196
71.32741 196
71.34752 216
71.36764 213
71.38775 224
71.40786 195
71.42798 207
71.44809 221
71.4682 204
71.48832 190
71.50843 172
71.52855 216
71.54866 198
71.56877 218
71.58889 221
71.609 205
71.62911 213
71.64923 227
71.66934 241
71.68946 214
71.70957 212
71.72968 234
71.7498 233
71.76991 240
71.79002 208
71.81014 249
71.83025 212
71.85037 218
71.87048 214
71.89059 222
71.91071 206
71.93082 247
71.95093 186
71.97105 209
71.99116 211
72.01127 217
72.03139 225
72.0515 211
72.07162 228
72.09173 209
72.11184 220
72.13196 224
72.15207 224
72.17218 198
72.1923 221
72.21241 217
72.23253 220
72.25264 223
72.27275 221
72.29287 208
72.31298 224
72.33309 230
72.35321 220
72.37332 213
72.39344 194
72.41355 194
72.43366 215
72.45378 217
72.47389 217
72.494 213
72.51412 215
72.53423 229
72.55434 197
72.57446 197
72.59457 213
72.61469 223
72.6348 200
72.65491 210
72.67503 215
72.69514 223
72.71525 237
72.73537 216
72.75548 207
72.7756 198
72.79571 208
72.81582 220
72.83594 204
72.85605 229
72.87616 209
72.89628 222
72.91639 232
72.9365 211
72.95662 245
72.97673 229
72.99685 212
73.01696 266
73.03707 254
73.05719 280
73.0773 302
73.09741 283
73.11753 257
73.13764 303
73.15776 283
73.17787 322
73.19798 383
73.2181 373
73.23821 371
73.25832 423
73.27844 418
73.29855 466
73.31867 452
73.33878 475
73.35889 455
73.37901 457
73.39912 460
73.41923 456
73.43935 443
73.45946 370
73.47957 380
73.49969 340
73.5198 368
73.53992 337
73.56003 334
73.58014 350
73.60026 304
73.62037 330
73.64048 310
73.6606 301
73.68071 278
73.70083 271
73.72094 242
73.74105 215
73.76117 227
73.78128 255
73.80139 222
73.82151 208
73.84162 218
73.86174 205
73.88185 229
73.90196 216
73.92208 199
73.94219 202
73.9623 205
73.98242 215
74.00253 211
74.02264 196
74.04276 232
74.06287 209
74.08299 196
74.1031 209
74.12321 228
74.14333 206
74.16344 199
74.18355 210
74.20367 189
74.22378 203
74.2439 198
74.26401 202
74.28412 223
74.30424 209
74.32435 194
74.34446 203
74.36458 221
74.38469 197
74.40481 198
74.42492 186
74.44503 209
74.46515 181
74.48526 233
74.50537 208
74.52549 227
74.5456 198
74.56571 197
74.58583 227
74.60594 214
74.62606 226
74.64617 222
74.66628 223
74.6864 199
74.70651 219
74.72662 180
74.74674 216
74.76685 187
74.78697 231
74.80708 196
74.82719 229
74.84731 223
74.86742 202
74.88753 197
74.90765 201
74.92776 245
74.94787 189
74.96799 193
74.9881 227
75.00822 223
