3.00117 36629
3.02128 35803
3.0414 35381
3.06151 34295
3.08162 33653
3.10174 33205
3.12185 32501
3.14197 31905
3.16208 30957
3.18219 30006
3.20231 29666
3.22242 28979
3.24253 28261
3.26265 27685
3.28276 27308
3.30288 26343
3.32299 25818
3.3431 25586
3.36322 25096
3.38333 24471
3.40344 23745
3.42356 23083
3.44367 22514
3.46379 21819
3.4839 21375
3.50401 21013
3.52413 20300
3.54424 20259
3.56435 19480
3.58447 19069
3.60458 18515
3.62469 18317
3.64481 17589
3.66492 16941
3.68504 17063
3.70515 16174
3.72526 15791
3.74538 15393
3.76549 14953
3.7856 14604
3.80572 14374
3.82583 13820
3.84595 13417
3.86606 13020
3.88617 12700
3.90629 12256
3.9264 11904
3.94651 11593
3.96663 11403
3.98674 10950
4.00686 10811
4.02697 10305
4.04708 10178
4.0672 9710
4.08731 9481
4.10742 9085
4.12754 8953
4.14765 8392
4.16776 8245
4.18788 8119
4.20799 7860
4.22811 7541
4.24822 7369
4.26833 7119
4.28845 6795
4.30856 6645
4.32867 6417
4.34879 6138
4.3689 5950
4.38902 5859
4.40913 5508
4.42924 5465
4.44936 5259
4.46947 5098
4.48958 4849
4.5097 4739
4.52981 4589
4.54992 4503
4.57004 4374
4.59015 4268
4.61027 4208
4.63038 3917
4.65049 3876
4.67061 3713
4.69072 3519
4.71083 3441
4.73095 3401
4.75106 3187
4.77118 3121
4.79129 3117
4.8114 3008
4.83152 2933
4.85163 2781
4.87174 2761
4.89186 2556
4.91197 2643
4.93209 2575
4.9522 2414
4.97231 2411
4.99243 2181
5.01254 2154
5.03265 2182
5.05277 2021
5.07288 1983
5.09299 1946
5.11311 1921
5.13322 1887
5.15334 1726
5.17345 1753
5.19356 1615
5.21368 1600
5.23379 1522
5.2539 1459
5.27402 1505
5.29413 1377
5.31425 1397
5.33436 1367
5.35447 1257
5.37459 1258
5.3947 1179
5.41481 1142
5.43493 1098
5.45504 1058
5.47516 1009
5.49527 1041
5.51538 967
5.5355 908
5.55561 902
5.57572 938
5.59584 931
5.61595 829
5.63606 854
5.65618 836
5.67629 802
5.69641 670
5.71652 661
5.73663 678
5.75675 746
5.77686 684
5.79697 660
5.81709 639
5.8372 642
5.85732 564
5.87743 627
5.89754 549
5.91766 597
5.93777 582
5.95788 579
5.978 577
5.99811 541
6.01823 470
6.03834 513
6.05845 523
6.07857 501
6.09868 483
6.11879 501
6.13891 512
6.15902 488
6.17913 494
6.19925 447
6.21936 465
6.23948 473
6.25959 478
6.2797 527
6.29982 457
6.31993 467
6.34004 473
6.36016 457
6.38027 447
6.40039 429
6.4205 476
6.44061 437
6.46073 459
6.48084 381
6.50095 452
6.52107 457
6.54118 418
6.56129 418
6.58141 413
6.60152 432
6.62164 376
6.64175 383
6.66186 409
6.68198 410
6.70209 391
6.7222 385
6.74232 385
6.76243 380
6.78255 404
6.80266 362
6.82277 412
6.84289 384
6.863 375
6.88311 395
6.90323 355
6.92334 336
6.94346 406
6.96357 367
6.98368 353
7.0038 334
7.02391 383
7.04402 326
7.06414 377
7.08425 378
7.10436 363
7.12448 339
7.14459 348
7.16471 357
7.18482 370
7.20493 369
7.22505 351
7.24516 366
7.26527 360
7.28539 301
7.3055 345
7.32562 347
7.34573 419
7.36584 372
7.38596 334
7.40607 365
7.42618 370
7.4463 367
7.46641 340
7.48653 319
7.50664 341
7.52675 324
7.54687 364
7.56698 332
7.58709 341
7.60721 339
7.62732 370
7.64743 336
7.66755 353
7.68766 371
7.70778 353
7.72789 329
7.748 360
7.76812 389
7.78823 362
7.80834 340
7.82846 333
7.84857 323
7.86869 339
7.8888 359
7.90891 329
7.92903 335
7.94914 363
7.96925 366
7.98937 363
8.00948 328
8.0296 367
8.04971 331
8.06982 395
8.08994 348
8.11005 371
8.13016 330
8.15028 364
8.17039 370
8.1905 364
8.21062 356
8.23073 312
8.25085 353
8.27096 326
8.29107 329
8.31119 324
8.3313 371
8.35141 329
8.37153 324
8.39164 370
8.41176 353
8.43187 357
8.45198 344
8.4721 382
8.49221 306
8.51232 344
8.53244 334
8.55255 370
8.57266 351
8.59278 341
8.61289 377
8.63301 363
8.65312 371
8.67323 399
8.69335 375
8.71346 393
8.73357 429
8.75369 413
8.7738 435
8.79392 483
8.81403 491
8.83414 486
8.85426 442
8.87437 469
8.89448 473
8.9146 454
8.93471 414
8.95483 407
8.97494 384
8.99505 349
9.01517 343
9.03528 338
9.05539 384
9.07551 347
9.09562 327
9.11573 356
9.13585 321
9.15596 329
9.17608 355
9.19619 336
9.2163 344
9.23642 369
9.25653 340
9.27664 272
9.29676 384
9.31687 310
9.33699 329
9.3571 333
9.37721 365
9.39733 304
9.41744 359
9.43755 308
9.45767 320
9.47778 319
9.4979 373
9.51801 343
9.53812 351
9.55824 360
9.57835 350
9.59846 334
9.61858 359
9.63869 324
9.6588 320
9.67892 331
9.69903 342
9.71915 348
9.73926 327
9.75937 349
9.77949 341
9.7996 347
9.81971 331
9.83983 336
9.85994 309
9.88006 351
9.90017 347
9.92028 343
9.9404 370
9.96051 303
9.98062 369
10.00074 350
10.02085 348
10.04097 368
10.06108 337
10.08119 298
10.10131 360
10.12142 292
10.14153 321
10.16165 344
10.18176 343
10.20187 333
10.22199 331
10.2421 340
10.26222 336
10.28233 329
10.30244 297
10.32256 331
10.34267 332
10.36278 351
10.3829 317
10.40301 352
10.42313 340
10.44324 328
10.46335 298
10.48347 352
10.50358 360
10.52369 336
10.54381 355
10.56392 312
10.58403 336
10.60415 303
10.62426 310
10.64438 278
10.66449 347
10.6846 330
10.70472 321
10.72483 342
10.74494 317
10.76506 318
10.78517 333
10.80529 324
10.8254 326
10.84551 334
10.86563 332
10.88574 327
10.90585 317
10.92597 342
10.94608 335
10.9662 319
10.98631 299
11.00642 336
11.02654 335
11.04665 336
11.06676 337
11.08688 342
11.10699 312
11.1271 334
11.14722 340
11.16733 312
11.18745 347
11.20756 338
11.22767 364
11.24779 377
11.2679 370
11.28801 371
11.30813 342
11.32824 363
11.34836 342
11.36847 321
11.38858 351
11.4087 339
11.42881 340
11.44892 355
11.46904 313
11.48915 373
11.50927 337
11.52938 327
11.54949 338
11.56961 328
11.58972 340
11.60983 355
11.62995 344
11.65006 352
11.67017 348
11.69029 383
11.7104 320
11.73052 356
11.75063 324
11.77074 371
11.79086 311
11.81097 330
11.83108 374
11.8512 360
11.87131 346
11.89143 363
11.91154 343
11.93165 401
11.95177 395
11.97188 348
11.99199 370
12.01211 359
12.03222 370
12.05234 375
12.07245 387
12.09256 348
12.11268 356
12.13279 395
12.1529 424
12.17302 384
12.19313 377
12.21324 407
12.23336 425
12.25347 432
12.27359 415
12.2937 354
12.31381 439
12.33393 421
12.35404 413
12.37415 433
12.39427 419
12.41438 394
12.4345 418
12.45461 395
12.47472 386
12.49484 360
12.51495 362
12.53506 353
12.55518 317
12.57529 349
12.5954 288
12.61552 332
12.63563 348
12.65575 335
12.67586 319
12.69597 316
12.71609 306
12.7362 308
12.75631 329
12.77643 321
12.79654 293
12.81666 280
12.83677 322
12.85688 322
12.877 264
12.89711 312
12.91722 334
12.93734 328
12.95745 295
12.97757 310
12.99768 292
13.01779 282
13.03791 294
13.05802 330
13.07813 321
13.09825 298
13.11836 291
13.13847 328
13.15859 295
13.1787 317
13.19882 325
13.21893 319
13.23904 308
13.25916 304
13.27927 320
13.29938 329
13.3195 317
13.33961 336
13.35973 314
13.37984 308
13.39995 296
13.42007 303
13.44018 345
13.46029 305
13.48041 345
13.50052 344
13.52064 317
13.54075 372
13.56086 320
13.58098 364
13.60109 350
13.6212 350
13.64132 346
13.66143 375
13.68154 340
13.70166 356
13.72177 410
13.74189 380
13.762 450
13.78211 439
13.80223 455
13.82234 482
13.84245 459
13.86257 411
13.88268 411
13.9028 419
13.92291 387
13.94302 379
13.96314 349
13.98325 319
14.00336 331
14.02348 336
14.04359 313
14.06371 319
14.08382 331
14.10393 309
14.12405 327
14.14416 323
14.16427 293
14.18439 312
14.2045 307
14.22461 301
14.24473 298
14.26484 286
14.28496 328
14.30507 277
14.32518 276
14.3453 306
14.36541 303
14.38552 302
14.40564 293
14.42575 283
14.44587 293
14.46598 302
14.48609 258
14.50621 259
14.52632 306
14.54643 289
14.56655 297
14.58666 315
14.60677 260
14.62689 296
14.647 294
14.66712 300
14.68723 322
14.70734 274
14.72746 297
14.74757 294
14.76768 313
14.7878 307
14.80791 308
14.82803 308
14.84814 345
14.86825 335
14.88837 337
14.90848 305
14.92859 322
14.94871 369
14.96882 367
14.98894 306
15.00905 333
15.02916 353
15.04928 314
15.06939 289
15.0895 289
15.10962 308
15.12973 290
15.14984 306
15.16996 318
15.19007 297
15.21019 323
15.2303 318
15.25041 309
15.27053 327
15.29064 302
15.31075 317
15.33087 304
15.35098 310
15.3711 253
15.39121 276
15.41132 302
15.43144 283
15.45155 272
15.47166 293
15.49178 279
15.51189 277
15.53201 316
15.55212 295
15.57223 305
15.59235 296
15.61246 302
15.63257 291
15.65269 316
15.6728 282
15.69291 257
15.71303 304
15.73314 310
15.75326 301
15.77337 307
15.79348 331
15.8136 279
15.83371 307
15.85382 332
15.87394 307
15.89405 305
15.91417 331
15.93428 290
15.95439 296
15.97451 261
15.99462 274
16.01473 282
16.03485 254
16.05496 258
16.07508 265
16.09519 278
16.1153 300
16.13542 287
16.15553 267
16.17564 286
16.19576 284
16.21587 289
16.23598 283
16.2561 297
16.27621 286
16.29633 271
16.31644 261
16.33655 252
16.35667 267
16.37678 305
16.39689 288
16.41701 284
16.43712 258
16.45724 268
16.47735 296
16.49746 277
16.51758 249
16.53769 297
16.5578 254
16.57792 248
16.59803 310
16.61814 292
16.63826 262
16.65837 281
16.67849 333
16.6986 310
16.71871 250
16.73883 285
16.75894 245
16.77905 279
16.79917 269
16.81928 255
16.8394 303
16.85951 279
16.87962 273
16.89974 285
16.91985 294
16.93996 270
16.96008 265
16.98019 304
17.00031 284
17.02042 295
17.04053 275
17.06065 251
17.08076 281
17.10087 287
17.12099 272
17.1411 268
17.16121 268
17.18133 262
17.20144 267
17.22156 302
17.24167 267
17.26178 317
17.2819 272
17.30201 291
17.32212 287
17.34224 281
17.36235 275
17.38247 283
17.40258 258
17.42269 285
17.44281 290
17.46292 301
17.48303 266
17.50315 318
17.52326 255
17.54338 284
17.56349 295
17.5836 281
17.60372 298
17.62383 265
17.64394 312
17.66406 274
17.68417 355
17.70428 321
17.7244 336
17.74451 316
17.76463 320
17.78474 297
17.80485 312
17.82497 316
17.84508 308
17.86519 300
17.88531 281
17.90542 277
17.92554 277
17.94565 270
17.96576 272
17.98588 314
18.00599 314
18.0261 290
18.04622 272
18.06633 306
18.08645 289
18.10656 325
18.12667 276
18.14679 270
18.1669 266
18.18701 312
18.20713 275
18.22724 285
18.24735 262
18.26747 284
18.28758 279
18.3077 310
18.32781 299
18.34792 267
18.36804 283
18.38815 260
18.40826 294
18.42838 261
18.44849 243
18.46861 315
18.48872 270
18.50883 288
18.52895 254
18.54906 312
18.56917 319
18.58929 295
18.6094 280
18.62951 309
18.64963 293
18.66974 272
18.68986 301
18.70997 278
18.73008 313
18.7502 268
18.77031 269
18.79042 271
18.81054 270
18.83065 291
18.85077 279
18.87088 310
18.89099 294
18.91111 262
18.93122 279
18.95133 266
18.97145 255
18.99156 301
19.01168 300
19.03179 324
19.0519 268
19.07202 258
19.09213 346
19.11224 304
19.13236 276
19.15247 307
19.17258 309
19.1927 311
19.21281 331
19.23293 321
19.25304 302
19.27315 303
19.29327 308
19.31338 293
19.33349 337
19.35361 291
19.37372 353
19.39384 327
19.41395 354
19.43406 325
19.45418 363
19.47429 358
19.4944 366
19.51452 378
19.53463 397
19.55475 404
19.57486 463
19.59497 448
19.61509 412
19.6352 446
19.65531 472
19.67543 473
19.69554 487
19.71565 544
19.73577 507
19.75588 533
19.776 592
19.79611 538
19.81622 516
19.83634 559
19.85645 535
19.87656 519
19.89668 512
19.91679 512
19.93691 516
19.95702 493
19.97713 474
19.99725 545
20.01736 453
20.03747 494
20.05759 417
20.0777 435
20.09782 440
20.11793 459
20.13804 437
20.15816 503
20.17827 451
20.19838 473
20.2185 440
20.23861 473
20.25872 438
20.27884 466
20.29895 434
20.31907 446
20.33918 435
20.35929 470
20.37941 485
20.39952 449
20.41963 501
20.43975 484
20.45986 517
20.47998 548
20.50009 493
20.5202 500
20.54032 514
20.56043 511
20.58054 594
20.60066 599
20.62077 666
20.64088 759
20.661 850
20.68111 1092
20.70123 1304
20.72134 1615
20.74145 2098
20.76157 2450
20.78168 2794
20.80179 2940
20.82191 3101
20.84202 2686
20.86214 2269
20.88225 1920
20.90236 1372
20.92248 1028
20.94259 860
20.9627 792
20.98282 753
21.00293 642
21.02305 645
21.04316 561
21.06327 496
21.08339 528
21.1035 510
21.12361 464
21.14373 528
21.16384 496
21.18395 446
21.20407 453
21.22418 521
21.2443 469
21.26441 480
21.28452 472
21.30464 496
21.32475 452
21.34486 459
21.36498 423
21.38509 446
21.40521 470
21.42532 500
21.44543 483
21.46555 492
21.48566 478
21.50577 528
21.52589 477
21.546 467
21.56612 507
21.58623 471
21.60634 444
21.62646 493
21.64657 461
21.66668 459
21.6868 441
21.70691 416
21.72702 401
21.74714 429
21.76725 437
21.78737 463
21.80748 518
21.82759 503
21.84771 566
21.86782 576
21.88793 725
21.90805 789
21.92816 817
21.94828 933
21.96839 1016
21.9885 954
22.00862 975
22.02873 907
22.04884 799
22.06896 687
22.08907 586
22.10919 515
22.1293 458
22.14941 429
22.16953 410
22.18964 401
22.20975 412
22.22987 427
22.24998 418
22.27009 426
22.29021 391
22.31032 452
22.33044 399
22.35055 433
22.37066 403
22.39078 413
22.41089 419
22.431 375
22.45112 412
22.47123 382
22.49135 391
22.51146 386
22.53157 355
22.55169 375
22.5718 381
22.59191 370
22.61203 392
22.63214 391
22.65225 362
22.67237 410
22.69248 410
22.7126 460
22.73271 432
22.75282 419
22.77294 447
22.79305 420
22.81316 479
22.83328 446
22.85339 478
22.87351 473
22.89362 477
22.91373 500
22.93385 493
22.95396 505
22.97407 510
22.99419 496
23.0143 532
23.03442 511
23.05453 506
23.07464 442
23.09476 457
23.11487 433
23.13498 451
23.1551 444
23.17521 431
23.19532 428
23.21544 400
23.23555 396
23.25567 456
23.27578 413
23.29589 480
23.31601 436
23.33612 484
23.35623 503
23.37635 554
23.39646 606
23.41658 607
23.43669 736
23.4568 864
23.47692 810
23.49703 772
23.51714 767
23.53726 756
23.55737 657
23.57749 586
23.5976 581
23.61771 553
23.63783 520
23.65794 555
23.67805 545
23.69817 489
23.71828 552
23.73839 548
23.75851 483
23.77862 479
23.79874 470
23.81885 472
23.83896 474
23.85908 530
23.87919 499
23.8993 489
23.91942 505
23.93953 503
23.95965 536
23.97976 529
23.99987 627
24.01999 575
24.0401 613
24.06021 708
24.08033 753
24.10044 760
24.12056 798
24.14067 825
24.16078 818
24.1809 824
24.20101 805
24.22112 823
24.24124 802
24.26135 785
24.28146 686
24.30158 609
24.32169 573
24.34181 552
24.36192 456
24.38203 461
24.40215 439
24.42226 431
24.44237 444
24.46249 410
24.4826 403
24.50272 414
24.52283 398
24.54294 431
24.56306 436
24.58317 410
24.60328 484
24.6234 404
24.64351 445
24.66362 480
24.68374 393
24.70385 458
24.72397 450
24.74408 469
24.76419 439
24.78431 453
24.80442 453
24.82453 432
24.84465 426
24.86476 512
24.88488 481
24.90499 428
24.9251 432
24.94522 462
24.96533 402
24.98544 406
25.00556 412
25.02567 429
25.04579 390
25.0659 439
25.08601 414
25.10613 415
25.12624 406
25.14635 385
25.16647 443
25.18658 452
25.20669 427
25.22681 467
25.24692 487
25.26704 522
25.28715 561
25.30726 506
25.32738 558
25.34749 590
25.3676 570
25.38772 539
25.40783 585
25.42795 616
25.44806 610
25.46817 573
25.48829 616
25.5084 657
25.52851 606
25.54863 574
25.56874 600
25.58886 544
25.60897 555
25.62908 570
25.6492 505
25.66931 514
25.68942 488
25.70954 496
25.72965 474
25.74976 446
25.76988 485
25.78999 487
25.81011 438
25.83022 471
25.85033 509
25.87045 441
25.89056 487
25.91067 478
25.93079 447
25.9509 482
25.97102 486
25.99113 481
26.01124 509
26.03136 537
26.05147 500
26.07158 512
26.0917 538
26.11181 535
26.13193 597
26.15204 634
26.17215 650
26.19227 655
26.21238 682
26.23249 758
26.25261 790
26.27272 862
26.29283 1025
26.31295 1032
26.33306 1197
26.35318 1487
26.37329 1701
26.3934 2022
26.41352 2427
26.43363 3005
26.45374 4030
26.47386 5312
26.49397 6734
26.51409 8759
26.5342 10271
26.55431 11596
26.57443 12698
26.59454 12398
26.61465 11077
26.63477 9239
26.65488 7318
26.67499 5453
26.69511 3755
26.71522 2543
26.73534 1787
26.75545 1321
26.77556 1068
26.79568 954
26.81579 956
26.8359 945
26.85602 839
26.87613 815
26.89625 795
26.91636 754
26.93647 763
26.95659 814
26.9767 738
26.99681 773
27.01693 763
27.03704 661
27.05716 742
27.07727 661
27.09738 649
27.1175 555
27.13761 553
27.15772 599
27.17784 588
27.19795 550
27.21806 505
27.23818 610
27.25829 617
27.27841 608
27.29852 733
27.31863 750
27.33875 788
27.35886 901
27.37897 965
27.39909 998
27.4192 1071
27.43932 1113
27.45943 962
27.47954 981
27.49966 1016
27.51977 877
27.53988 896
27.56 891
27.58011 950
27.60023 1015
27.62034 1074
27.64045 1131
27.66057 1236
27.68068 1227
27.70079 1266
27.72091 1275
27.74102 1308
27.76113 1248
27.78125 1263
27.80136 1460
27.82148 1600
27.84159 1604
27.8617 1644
27.88182 1647
27.90193 1523
27.92204 1460
27.94216 1233
27.96227 1026
27.98239 884
28.0025 877
28.02261 856
28.04273 757
28.06284 760
28.08295 741
28.10307 751
28.12318 728
28.1433 657
28.16341 628
28.18352 633
28.20364 646
28.22375 663
28.24386 694
28.26398 597
28.28409 492
28.3042 542
28.32432 481
28.34443 462
28.36455 402
28.38466 382
28.40477 344
28.42489 392
28.445 387
28.46511 393
28.48523 360
28.50534 353
28.52546 378
28.54557 330
28.56568 347
28.5858 337
28.60591 341
28.62602 361
28.64614 352
28.66625 365
28.68636 352
28.70648 338
28.72659 330
28.74671 330
28.76682 344
28.78693 362
28.80705 288
28.82716 350
28.84727 339
28.86739 337
28.8875 323
28.90762 340
28.92773 349
28.94784 320
28.96796 357
28.98807 320
29.00818 348
29.0283 347
29.04841 358
29.06853 337
29.08864 335
29.10875 364
29.12887 357
29.14898 301
29.16909 335
29.18921 358
29.20932 349
29.22943 329
29.24955 360
29.26966 385
29.28978 368
29.30989 350
29.33 348
29.35012 393
29.37023 374
29.39034 375
29.41046 393
29.43057 364
29.45069 350
29.4708 389
29.49091 388
29.51103 378
29.53114 376
29.55125 395
29.57137 390
29.59148 395
29.6116 423
29.63171 410
29.65182 442
29.67194 430
29.69205 471
29.71216 478
29.73228 460
29.75239 463
29.7725 513
29.79262 475
29.81273 518
29.83285 504
29.85296 456
29.87307 474
29.89319 424
29.9133 530
29.93341 483
29.95353 489
29.97364 576
29.99376 495
30.01387 587
30.03398 582
30.0541 595
30.07421 594
30.09432 583
30.11444 587
30.13455 562
30.15467 546
30.17478 557
30.19489 461
30.21501 487
30.23512 451
30.25523 441
30.27535 460
30.29546 431
30.31557 476
30.33569 492
30.3558 510
30.37592 535
30.39603 557
30.41614 557
30.43626 584
30.45637 553
30.47648 498
30.4966 502
30.51671 502
30.53683 466
30.55694 420
30.57705 380
30.59717 398
30.61728 394
30.63739 423
30.65751 436
30.67762 437
30.69773 425
30.71785 437
30.73796 461
30.75808 421
30.77819 456
30.7983 410
30.81842 420
30.83853 377
30.85864 385
30.87876 369
30.89887 397
30.91899 349
30.9391 360
30.95921 390
30.97933 363
30.99944 357
31.01955 381
31.03967 369
31.05978 400
31.0799 432
31.10001 420
31.12012 491
31.14024 449
31.16035 454
31.18046 451
31.20058 425
31.22069 409
31.2408 380
31.26092 381
31.28103 363
31.30115 336
31.32126 288
31.34137 324
31.36149 346
31.3816 345
31.40171 368
31.42183 306
31.44194 359
31.46206 359
31.48217 325
31.50228 361
31.5224 276
31.54251 342
31.56262 290
31.58274 305
31.60285 297
31.62297 307
31.64308 323
31.66319 322
31.68331 323
31.70342 324
31.72353 323
31.74365 285
31.76376 285
31.78387 321
31.80399 313
31.8241 313
31.84422 336
31.86433 313
31.88444 318
31.90456 345
31.92467 335
31.94478 352
31.9649 345
31.98501 334
32.00513 376
32.02524 349
32.04535 344
32.06547 363
32.08558 322
32.10569 346
32.12581 345
32.14592 330
32.16604 343
32.18615 357
32.20626 356
32.22638 345
32.24649 359
32.2666 353
32.28672 364
32.30683 318
32.32694 372
32.34706 315
32.36717 318
32.38729 358
32.4074 338
32.42751 349
32.44763 354
32.46774 308
32.48785 337
32.50797 354
32.52808 339
32.5482 320
32.56831 331
32.58842 348
32.60854 313
32.62865 349
32.64876 325
32.66888 315
32.68899 347
32.7091 345
32.72922 359
32.74933 329
32.76945 351
32.78956 363
32.80967 345
32.82979 360
32.8499 387
32.87001 371
32.89013 364
32.91024 426
32.93036 419
32.95047 386
32.97058 467
32.9907 470
33.01081 505
33.03092 535
33.05104 526
33.07115 615
33.09127 579
33.11138 547
33.13149 551
33.15161 544
33.17172 470
33.19183 469
33.21195 415
33.23206 388
33.25217 368
33.27229 369
33.2924 393
33.31252 337
33.33263 314
33.35274 349
33.37286 342
33.39297 333
33.41308 316
33.4332 305
33.45331 305
33.47343 331
33.49354 307
33.51365 313
33.53377 337
33.55388 326
33.57399 324
33.59411 323
33.61422 321
33.63434 322
33.65445 338
33.67456 316
33.69468 350
33.71479 332
33.7349 322
33.75502 337
33.77513 308
33.79524 381
33.81536 351
33.83547 385
33.85559 349
33.8757 386
33.89581 372
33.91593 346
33.93604 369
33.95615 354
33.97627 361
33.99638 340
34.0165 349
34.03661 340
34.05672 354
34.07684 338
34.09695 326
34.11706 333
34.13718 346
34.15729 372
34.17741 366
34.19752 400
34.21763 367
34.23775 362
34.25786 373
34.27797 408
34.29809 380
34.3182 399
34.33831 398
34.35843 385
34.37854 382
34.39866 431
34.41877 442
34.43888 388
34.459 382
34.47911 380
34.49922 373
34.51934 359
34.53945 426
34.55957 404
34.57968 444
34.59979 448
34.61991 433
34.64002 486
34.66013 487
34.68025 506
34.70036 523
34.72047 536
34.74059 517
34.7607 521
34.78082 549
34.80093 584
34.82104 581
34.84116 522
34.86127 550
34.88138 638
34.9015 578
34.92161 572
34.94173 566
34.96184 574
34.98195 578
35.00207 590
35.02218 525
35.04229 500
35.06241 475
35.08252 526
35.10264 484
35.12275 453
35.14286 477
35.16298 485
35.18309 458
35.2032 452
35.22332 451
35.24343 455
35.26354 464
35.28366 477
35.30377 449
35.32389 458
35.344 485
35.36411 490
35.38423 486
35.40434 507
35.42445 484
35.44457 541
35.46468 568
35.4848 588
35.50491 573
35.52502 591
35.54514 583
35.56525 593
35.58536 561
35.60548 533
35.62559 542
35.64571 532
35.66582 521
35.68593 510
35.70605 498
35.72616 525
35.74627 449
35.76639 472
35.7865 443
35.80661 408
35.82673 440
35.84684 465
35.86696 446
35.88707 430
35.90718 432
35.9273 407
35.94741 408
35.96752 413
35.98764 393
36.00775 439
36.02787 399
36.04798 396
36.06809 378
36.08821 429
36.10832 360
36.12843 443
36.14855 389
36.16866 367
36.18878 441
36.20889 425
36.229 454
36.24912 457
36.26923 453
36.28934 492
36.30946 578
36.32957 592
36.34968 633
36.3698 710
36.38991 873
36.41003 907
36.43014 1090
36.45025 1093
36.47037 1186
36.49048 1077
36.51059 1110
36.53071 1018
36.55082 906
36.57094 840
36.59105 759
36.61116 645
36.63128 584
36.65139 545
36.6715 529
36.69162 471
36.71173 506
36.73184 446
36.75196 391
36.77207 456
36.79219 409
36.8123 414
36.83241 443
36.85253 409
36.87264 392
36.89275 437
36.91287 390
36.93298 396
36.9531 422
36.97321 368
36.99332 404
37.01344 403
37.03355 411
37.05366 401
37.07378 396
37.09389 382
37.11401 388
37.13412 357
37.15423 404
37.17435 411
37.19446 398
37.21457 425
37.23469 446
37.2548 402
37.27491 426
37.29503 382
37.31514 392
37.33526 403
37.35537 385
37.37548 421
37.3956 423
37.41571 372
37.43582 441
37.45594 416
37.47605 410
37.49617 415
37.51628 471
37.53639 428
37.55651 427
37.57662 426
37.59673 425
37.61685 454
37.63696 462
37.65708 388
37.67719 395
37.6973 360
37.71742 379
37.73753 342
37.75764 344
37.77776 345
37.79787 331
37.81798 332
37.8381 304
37.85821 325
37.87833 354
37.89844 341
37.91855 304
37.93867 326
37.95878 325
37.97889 328
37.99901 292
38.01912 318
38.03924 336
38.05935 358
38.07946 343
38.09958 355
38.11969 356
38.1398 355
38.15992 300
38.18003 323
38.20015 345
38.22026 371
38.24037 348
38.26049 352
38.2806 352
38.30071 359
38.32083 390
38.34094 353
38.36105 386
38.38117 336
38.40128 324
38.4214 351
38.44151 366
38.46162 375
38.48174 355
38.50185 382
38.52196 377
38.54208 431
38.56219 356
38.58231 387
38.60242 419
38.62253 360
38.64265 377
38.66276 372
38.68287 389
38.70299 408
38.7231 390
38.74321 381
38.76333 391
38.78344 392
38.80356 395
38.82367 366
38.84378 352
38.8639 351
38.88401 355
38.90412 323
38.92424 332
38.94435 363
38.96447 341
38.98458 317
39.00469 346
39.02481 337
39.04492 367
39.06503 360
39.08515 370
39.10526 406
39.12538 340
39.14549 380
39.1656 417
39.18572 433
39.20583 448
39.22594 496
39.24606 522
39.26617 618
39.28628 643
39.3064 765
39.32651 829
39.34663 871
39.36674 1008
39.38685 1010
39.40697 1109
39.42708 1062
39.44719 945
39.46731 837
39.48742 723
39.50754 685
39.52765 597
39.54776 512
39.56788 477
39.58799 373
39.6081 382
39.62822 312
39.64833 367
39.66845 328
39.68856 351
39.70867 337
39.72879 327
39.7489 357
39.76901 340
39.78913 322
39.80924 357
39.82935 343
39.84947 345
39.86958 356
39.8897 356
39.90981 363
39.92992 353
39.95004 353
39.97015 375
39.99026 355
40.01038 415
40.03049 433
40.05061 411
40.07072 412
40.09083 502
40.11095 499
40.13106 547
40.15117 591
40.17129 618
40.1914 719
40.21152 686
40.23163 673
40.25174 587
40.27186 574
40.29197 579
40.31208 544
40.3322 486
40.35231 483
40.37242 423
40.39254 382
40.41265 386
40.43277 358
40.45288 353
40.47299 369
40.49311 345
40.51322 340
40.53333 327
40.55345 346
40.57356 345
40.59368 352
40.61379 347
40.6339 331
40.65402 345
40.67413 327
40.69424 355
40.71436 388
40.73447 384
40.75458 344
40.7747 394
40.79481 355
40.81493 399
40.83504 398
40.85515 409
40.87527 364
40.89538 385
40.91549 350
40.93561 369
40.95572 331
40.97584 347
40.99595 352
41.01606 363
41.03618 324
41.05629 377
41.0764 338
41.09652 387
41.11663 361
41.13675 345
41.15686 356
41.17697 366
41.19709 366
41.2172 361
41.23731 361
41.25743 310
41.27754 347
41.29765 360
41.31777 347
41.33788 298
41.358 295
41.37811 323
41.39822 301
41.41834 338
41.43845 320
41.45856 354
41.47868 348
41.49879 321
41.51891 353
41.53902 332
41.55913 325
41.57925 355
41.59936 356
41.61947 362
41.63959 354
41.6597 357
41.67982 406
41.69993 403
41.72004 360
41.74016 388
41.76027 398
41.78038 392
41.8005 352
41.82061 384
41.84072 351
41.86084 382
41.88095 348
41.90107 345
41.92118 357
41.94129 329
41.96141 355
41.98152 309
42.00163 312
42.02175 348
42.04186 346
42.06198 356
42.08209 358
42.1022 352
42.12232 413
42.14243 403
42.16254 380
42.18266 439
42.20277 452
42.22289 465
42.243 536
42.26311 577
42.28323 669
42.30334 739
42.32345 726
42.34357 873
42.36368 852
42.38379 961
42.40391 870
42.42402 835
42.44414 765
42.46425 648
42.48436 661
42.50448 569
42.52459 550
42.5447 509
42.56482 449
42.58493 450
42.60505 409
42.62516 378
42.64527 362
42.66539 352
42.6855 313
42.70561 354
42.72573 353
42.74584 353
42.76595 334
42.78607 324
42.80618 324
42.8263 296
42.84641 275
42.86652 303
42.88664 309
42.90675 308
42.92686 313
42.94698 304
42.96709 311
42.98721 311
43.00732 295
43.02743 295
43.04755 280
43.06766 298
43.08777 291
43.10789 312
43.128 323
43.14812 295
43.16823 304
43.18834 302
43.20846 298
43.22857 305
43.24868 315
43.2688 294
43.28891 308
43.30902 324
43.32914 300
43.34925 291
43.36937 344
43.38948 356
43.40959 328
43.42971 342
43.44982 317
43.46993 304
43.49005 342
43.51016 335
43.53028 323
43.55039 282
43.5705 335
43.59062 307
43.61073 294
43.63084 298
43.65096 263
43.67107 271
43.69119 282
43.7113 293
43.73141 306
43.75153 325
43.77164 297
43.79175 286
43.81187 295
43.83198 293
43.85209 314
43.87221 312
43.89232 281
43.91244 317
43.93255 282
43.95266 320
43.97278 281
43.99289 288
44.013 283
44.03312 259
44.05323 277
44.07335 282
44.09346 268
44.11357 306
44.13369 265
44.1538 272
44.17391 291
44.19403 307
44.21414 334
44.23426 312
44.25437 299
44.27448 297
44.2946 303
44.31471 301
44.33482 274
44.35494 286
44.37505 290
44.39516 302
44.41528 297
44.43539 326
44.45551 280
44.47562 278
44.49573 281
44.51585 312
44.53596 277
44.55607 283
44.57619 284
44.5963 311
44.61642 276
44.63653 286
44.65664 313
44.67676 267
44.69687 285
44.71698 273
44.7371 291
44.75721 247
44.77732 312
44.79744 277
44.81755 308
44.83767 317
44.85778 300
44.87789 290
44.89801 306
44.91812 291
44.93823 269
44.95835 294
44.97846 295
44.99858 269
45.01869 292
45.0388 303
45.05892 324
45.07903 289
45.09914 347
45.11926 304
45.13937 310
45.15949 300
45.1796 336
45.19971 310
45.21983 306
45.23994 352
45.26005 345
45.28017 353
45.30028 359
45.32039 331
45.34051 333
45.36062 362
45.38074 353
45.40085 382
45.42096 384
45.44108 365
45.46119 360
45.4813 368
45.50142 367
45.52153 424
45.54165 417
45.56176 406
45.58187 451
45.60199 463
45.6221 510
45.64221 553
45.66233 602
45.68244 619
45.70256 646
45.72267 675
45.74278 636
45.7629 629
45.78301 597
45.80312 506
45.82324 462
45.84335 443
45.86346 490
45.88358 456
45.90369 428
45.92381 383
45.94392 330
45.96403 337
45.98415 323
46.00426 328
46.02437 304
46.04449 303
46.0646 297
46.08472 284
46.10483 325
46.12494 301
46.14506 282
46.16517 303
46.18528 325
46.2054 307
46.22551 291
46.24563 289
46.26574 294
46.28585 296
46.30597 278
46.32608 291
46.34619 329
46.36631 314
46.38642 324
46.40653 289
46.42665 311
46.44676 299
46.46688 288
46.48699 334
46.5071 284
46.52722 273
46.54733 286
46.56744 287
46.58756 297
46.60767 334
46.62779 276
46.6479 294
46.66801 304
46.68813 292
46.70824 305
46.72835 281
46.74847 296
46.76858 300
46.78869 295
46.80881 300
46.82892 276
46.84904 307
46.86915 292
46.88926 303
46.90938 292
46.92949 333
46.9496 320
46.96972 328
46.98983 309
47.00995 282
47.03006 316
47.05017 340
47.07029 308
47.0904 303
47.11051 323
47.13063 284
47.15074 310
47.17086 318
47.19097 341
47.21108 274
47.2312 297
47.25131 310
47.27142 281
47.29154 291
47.31165 282
47.33176 298
47.35188 301
47.37199 291
47.39211 307
47.41222 305
47.43233 321
47.45245 269
47.47256 271
47.49267 282
47.51279 308
47.5329 324
47.55302 282
47.57313 283
47.59324 306
47.61336 290
47.63347 289
47.65358 256
47.6737 297
47.69381 309
47.71393 318
47.73404 315
47.75415 315
47.77427 329
47.79438 319
47.81449 332
47.83461 357
47.85472 360
47.87483 311
47.89495 378
47.91506 343
47.93518 352
47.95529 359
47.9754 336
47.99552 339
48.01563 325
48.03574 344
48.05586 363
48.07597 354
48.09609 349
48.1162 333
48.13631 331
48.15643 304
48.17654 343
48.19665 308
48.21677 313
48.23688 305
48.257 319
48.27711 279
48.29722 313
48.31734 269
48.33745 296
48.35756 291
48.37768 294
48.39779 300
48.4179 298
48.43802 312
48.45813 271
48.47825 248
48.49836 312
48.51847 270
48.53859 294
48.5587 290
48.57881 277
48.59893 320
48.61904 293
48.63916 302
48.65927 309
48.67938 294
48.6995 314
48.71961 273
48.73972 295
48.75984 293
48.77995 303
48.80006 328
48.82018 337
48.84029 337
48.86041 289
48.88052 302
48.90063 337
48.92075 319
48.94086 309
48.96097 335
48.98109 339
49.0012 308
49.02132 336
49.04143 359
49.06154 373
49.08166 399
49.10177 413
49.12188 395
49.142 385
49.16211 368
49.18223 399
49.20234 348
49.22245 386
49.24257 418
49.26268 380
49.28279 393
49.30291 398
49.32302 424
49.34313 418
49.36325 432
49.38336 393
49.40348 392
49.42359 386
49.4437 390
49.46382 393
49.48393 392
49.50404 363
49.52416 394
49.54427 394
49.56439 399
49.5845 384
49.60461 396
49.62473 400
49.64484 395
49.66495 409
49.68507 419
49.70518 421
49.7253 456
49.74541 486
49.76552 506
49.78564 511
49.80575 524
49.82586 538
49.84598 596
49.86609 589
49.8862 742
49.90632 782
49.92643 817
49.94655 973
49.96666 1080
49.98677 1181
50.00689 1386
50.027 1438
50.04711 1549
50.06723 1595
50.08734 1549
50.10746 1464
50.12757 1225
50.14768 1054
50.1678 1036
50.18791 943
50.20802 876
50.22814 809
50.24825 731
50.26837 601
50.28848 450
50.30859 419
50.32871 410
50.34882 413
50.36893 405
50.38905 410
50.40916 415
50.42927 425
50.44939 424
50.4695 510
50.48962 447
50.50973 448
50.52984 437
50.54996 427
50.57007 403
50.59018 416
50.6103 374
50.63041 404
50.65053 404
50.67064 364
50.69075 367
50.71087 411
50.73098 380
50.75109 338
50.77121 341
50.79132 335
50.81143 326
50.83155 364
50.85166 352
50.87178 357
50.89189 379
50.912 366
50.93212 354
50.95223 370
50.97234 396
50.99246 409
51.01257 396
51.03269 402
51.0528 373
51.07291 398
51.09303 402
51.11314 426
51.13325 372
51.15337 371
51.17348 323
51.1936 368
51.21371 361
51.23382 330
51.25394 330
51.27405 321
51.29416 284
51.31428 267
51.33439 300
51.3545 302
51.37462 281
51.39473 259
51.41485 301
51.43496 270
51.45507 267
51.47519 276
51.4953 294
51.51541 270
51.53553 266
51.55564 281
51.57576 249
51.59587 268
51.61598 273
51.6361 276
51.65621 305
51.67632 276
51.69644 281
51.71655 327
51.73667 295
51.75678 266
51.77689 265
51.79701 262
51.81712 251
51.83723 270
51.85735 243
51.87746 293
51.89757 292
51.91769 298
51.9378 292
51.95792 302
51.97803 306
51.99814 325
52.01826 302
52.03837 307
52.05848 312
52.0786 295
52.09871 298
52.11883 326
52.13894 263
52.15905 269
52.17917 285
52.19928 299
52.21939 357
52.23951 295
52.25962 291
52.27974 284
52.29985 279
52.31996 268
52.34008 289
52.36019 310
52.3803 324
52.40042 356
52.42053 304
52.44064 305
52.46076 296
52.48087 317
52.50099 284
52.5211 296
52.54121 287
52.56133 294
52.58144 285
52.60155 288
52.62167 292
52.64178 277
52.6619 289
52.68201 318
52.70212 299
52.72224 315
52.74235 285
52.76246 293
52.78258 282
52.80269 288
52.8228 304
52.84292 331
52.86303 288
52.88315 280
52.90326 283
52.92337 319
52.94349 312
52.9636 320
52.98371 315
53.00383 330
53.02394 332
53.04406 341
53.06417 303
53.08428 346
53.1044 358
53.12451 338
53.14462 365
53.16474 326
53.18485 362
53.20497 349
53.22508 336
53.24519 334
53.26531 352
53.28542 304
53.30553 333
53.32565 345
53.34576 335
53.36587 289
53.38599 333
53.4061 301
53.42622 313
53.44633 339
53.46644 334
53.48656 330
53.50667 274
53.52678 318
53.5469 301
53.56701 328
53.58713 319
53.60724 322
53.62735 320
53.64747 318
53.66758 343
53.68769 337
53.70781 309
53.72792 330
53.74804 326
53.76815 355
53.78826 377
53.80838 354
53.82849 382
53.8486 365
53.86872 376
53.88883 358
53.90894 398
53.92906 413
53.94917 416
53.96929 434
53.9894 423
54.00951 422
54.02963 401
54.04974 379
54.06985 374
54.08997 386
54.11008 378
54.1302 386
54.15031 385
54.17042 375
54.19054 373
54.21065 388
54.23076 367
54.25088 374
54.27099 377
54.29111 379
54.31122 360
54.33133 353
54.35145 350
54.37156 333
54.39167 336
54.41179 356
54.4319 371
54.45201 314
54.47213 326
54.49224 360
54.51236 357
54.53247 362
54.55258 404
54.5727 371
54.59281 384
54.61292 420
54.63304 430
54.65315 465
54.67327 502
54.69338 488
54.71349 581
54.73361 600
54.75372 621
54.77383 636
54.79395 670
54.81406 632
54.83417 613
54.85429 594
54.8744 545
54.89452 526
54.91463 534
54.93474 543
54.95486 530
54.97497 500
54.99508 484
55.0152 443
55.03531 402
55.05543 383
55.07554 395
55.09565 393
55.11577 444
55.13588 418
55.15599 441
55.17611 435
55.19622 486
55.21634 465
55.23645 513
55.25656 485
55.27668 449
55.29679 440
55.3169 396
55.33702 392
55.35713 379
55.37724 393
55.39736 394
55.41747 379
55.43759 358
55.4577 372
55.47781 347
55.49793 336
55.51804 333
55.53815 357
55.55827 316
55.57838 346
55.5985 317
55.61861 344
55.63872 342
55.65884 328
55.67895 332
55.69906 378
55.71918 337
55.73929 319
55.75941 324
55.77952 328
55.79963 322
55.81975 334
55.83986 304
55.85997 316
55.88009 301
55.9002 309
55.92031 290
55.94043 290
55.96054 305
55.98066 287
56.00077 307
56.02088 286
56.041 285
56.06111 283
56.08122 272
56.10134 276
56.12145 295
56.14157 328
56.16168 290
56.18179 293
56.20191 296
56.22202 263
56.24213 313
56.26225 298
56.28236 277
56.30248 264
56.32259 272
56.3427 291
56.36282 288
56.38293 299
56.40304 289
56.42316 267
56.44327 271
56.46338 315
56.4835 288
56.50361 278
56.52373 310
56.54384 298
56.56395 274
56.58407 294
56.60418 307
56.62429 302
56.64441 284
56.66452 292
56.68464 287
56.70475 294
56.72486 274
56.74498 283
56.76509 288
56.7852 279
56.80532 279
56.82543 298
56.84554 275
56.86566 292
56.88577 290
56.90589 292
56.926 291
56.94611 308
56.96623 303
56.98634 266
57.00645 282
57.02657 298
57.04668 257
57.0668 305
57.08691 305
57.10702 317
57.12714 345
57.14725 313
57.16736 324
57.18748 276
57.20759 296
57.22771 314
57.24782 317
57.26793 306
57.28805 352
57.30816 332
57.32827 312
57.34839 288
57.3685 311
57.38861 307
57.40873 298
57.42884 299
57.44896 314
57.46907 308
57.48918 290
57.5093 326
57.52941 305
57.54952 319
57.56964 277
57.58975 324
57.60987 304
57.62998 297
57.65009 301
57.67021 309
57.69032 286
57.71043 280
57.73055 321
57.75066 292
57.77078 294
57.79089 265
57.811 287
57.83112 295
57.85123 295
57.87134 286
57.89146 319
57.91157 298
57.93168 284
57.9518 269
57.97191 299
57.99203 289
58.01214 315
58.03225 265
58.05237 297
58.07248 346
58.09259 289
58.11271 291
58.13282 291
58.15294 276
58.17305 290
58.19316 345
58.21328 285
58.23339 296
58.2535 315
58.27362 281
58.29373 274
58.31385 272
58.33396 283
58.35407 301
58.37419 311
58.3943 309
58.41441 307
58.43453 302
58.45464 295
58.47475 308
58.49487 328
58.51498 335
58.5351 297
58.55521 299
58.57532 328
58.59544 374
58.61555 353
58.63566 326
58.65578 312
58.67589 327
58.69601 298
58.71612 333
58.73623 318
58.75635 319
58.77646 261
58.79657 327
58.81669 272
58.8368 324
58.85691 301
58.87703 284
58.89714 292
58.91726 305
58.93737 319
58.95748 327
58.9776 299
58.99771 293
59.01782 277
59.03794 268
59.05805 329
59.07817 324
59.09828 304
59.11839 285
59.13851 320
59.15862 272
59.17873 289
59.19885 312
59.21896 299
59.23908 295
59.25919 284
59.2793 298
59.29942 314
59.31953 325
59.33964 299
59.35976 320
59.37987 292
59.39998 318
59.4201 317
59.44021 326
59.46033 328
59.48044 319
59.50055 325
59.52067 342
59.54078 334
59.56089 330
59.58101 370
59.60112 383
59.62124 396
59.64135 428
59.66146 451
59.68158 493
59.70169 510
59.7218 538
59.74192 655
59.76203 675
59.78215 748
59.80226 873
59.82237 929
59.84249 1037
59.8626 1085
59.88271 1067
59.90283 949
59.92294 893
59.94305 819
59.96317 776
59.98328 682
60.0034 634
60.02351 634
60.04362 643
60.06374 554
60.08385 563
60.10396 507
60.12408 445
60.14419 356
60.16431 385
60.18442 321
60.20453 335
60.22465 318
60.24476 340
60.26487 324
60.28499 348
60.3051 314
60.32522 302
60.34533 302
60.36544 314
60.38556 319
60.40567 296
60.42578 288
60.4459 336
60.46601 293
60.48612 329
60.50624 326
60.52635 286
60.54647 310
60.56658 317
60.58669 294
60.60681 282
60.62692 295
60.64703 296
60.66715 261
60.68726 321
60.70738 273
60.72749 297
60.7476 290
60.76772 311
60.78783 286
60.80794 300
60.82806 341
60.84817 313
60.86828 309
60.8884 264
60.90851 315
60.92863 285
60.94874 291
60.96885 321
60.98897 312
61.00908 314
61.02919 338
61.04931 298
61.06942 284
61.08954 292
61.10965 337
61.12976 317
61.14988 305
61.16999 301
61.1901 357
61.21022 303
61.23033 339
61.25045 375
61.27056 356
61.29067 350
61.31079 342
61.3309 342
61.35101 402
61.37113 384
61.39124 346
61.41135 350
61.43147 365
61.45158 332
61.4717 359
61.49181 334
61.51192 357
61.53204 380
61.55215 337
61.57226 333
61.59238 371
61.61249 342
61.63261 354
61.65272 336
61.67283 321
61.69295 322
61.71306 324
61.73317 323
61.75329 315
61.7734 328
61.79352 365
61.81363 361
61.83374 333
61.85386 365
61.87397 343
61.89408 363
61.9142 342
61.93431 352
61.95442 349
61.97454 379
61.99465 342
62.01477 355
62.03488 364
62.05499 357
62.07511 359
62.09522 368
62.11533 374
62.13545 411
62.15556 344
62.17568 370
62.19579 385
62.2159 371
62.23602 397
62.25613 396
62.27624 387
62.29636 403
62.31647 438
62.33659 424
62.3567 431
62.37681 411
62.39693 380
62.41704 367
62.43715 363
62.45727 337
62.47738 326
62.49749 326
62.51761 356
62.53772 337
62.55784 319
62.57795 326
62.59806 326
62.61818 302
62.63829 308
62.6584 306
62.67852 337
62.69863 302
62.71875 310
62.73886 310
62.75897 271
62.77909 322
62.7992 339
62.81931 309
62.83943 315
62.85954 301
62.87965 293
62.89977 297
62.91988 286
62.94 319
62.96011 288
62.98022 299
63.00034 305
63.02045 303
63.04056 284
63.06068 307
63.08079 299
63.10091 295
63.12102 327
63.14113 281
63.16125 296
63.18136 316
63.20147 307
63.22159 276
63.2417 317
63.26182 324
63.28193 319
63.30204 288
63.32216 291
63.34227 298
63.36238 301
63.3825 310
63.40261 327
63.42272 329
63.44284 322
63.46295 338
63.48307 357
63.50318 314
63.52329 358
63.54341 362
63.56352 346
63.58363 325
63.60375 327
63.62386 389
63.64398 351
63.66409 356
63.6842 380
63.70432 330
63.72443 383
63.74454 384
63.76466 407
63.78477 435
63.80489 432
63.825 464
63.84511 498
63.86523 466
63.88534 495
63.90545 517
63.92557 486
63.94568 526
63.96579 527
63.98591 493
64.00602 458
64.02614 429
64.04625 437
64.06636 420
64.08648 407
64.10659 364
64.1267 395
64.14682 386
64.16693 366
64.18705 363
64.20716 351
64.22727 332
64.24739 301
64.2675 305
64.28761 307
64.30773 298
64.32784 302
64.34796 275
64.36807 287
64.38818 304
64.4083 287
64.42841 280
64.44852 293
64.46864 302
64.48875 250
64.50886 314
64.52898 325
64.54909 315
64.56921 287
64.58932 269
64.60943 299
64.62955 284
64.64966 312
64.66977 297
64.68989 288
64.71 303
64.73012 292
64.75023 292
64.77034 293
64.79046 279
64.81057 278
64.83068 304
64.8508 303
64.87091 264
64.89102 270
64.91114 258
64.93125 288
64.95137 303
64.97148 332
64.99159 284
65.01171 296
65.03182 331
65.05193 273
65.07205 334
65.09216 346
65.11228 322
65.13239 350
65.1525 311
65.17262 332
65.19273 325
65.21284 321
65.23296 326
65.25307 329
65.27319 323
65.2933 293
65.31341 295
65.33353 337
65.35364 322
65.37375 337
65.39387 314
65.41398 303
65.43409 294
65.45421 286
65.47432 291
65.49444 303
65.51455 276
65.53466 300
65.55478 288
65.57489 286
65.595 304
65.61512 296
65.63523 317
65.65535 322
65.67546 293
65.69557 299
65.71569 308
65.7358 308
65.75591 306
65.77603 292
65.79614 301
65.81626 285
65.83637 296
65.85648 292
65.8766 337
65.89671 335
65.91682 297
65.93694 312
65.95705 340
65.97716 311
65.99728 251
66.01739 277
66.03751 266
66.05762 312
66.07773 303
66.09785 298
66.11796 279
66.13807 285
66.15819 273
66.1783 299
66.19842 301
66.21853 299
66.23864 286
66.25876 290
66.27887 328
66.29898 271
66.3191 282
66.33921 257
66.35933 250
66.37944 286
66.39955 286
66.41967 285
66.43978 304
66.45989 276
66.48001 276
66.50012 276
66.52023 293
66.54035 273
66.56046 243
66.58058 278
66.60069 267
66.6208 255
66.64092 239
66.66103 241
66.68114 245
66.70126 275
66.72137 265
66.74149 288
66.7616 289
66.78171 287
66.80183 268
66.82194 246
66.84205 259
66.86217 277
66.88228 280
66.90239 280
66.92251 274
66.94262 287
66.96274 283
66.98285 309
67.00296 299
67.02308 298
67.04319 286
67.0633 299
67.08342 306
67.10353 271
67.12365 295
67.14376 299
67.16387 303
67.18399 318
67.2041 316
67.22421 325
67.24433 318
67.26444 311
67.28456 325
67.30467 288
67.32478 335
67.3449 317
67.36501 324
67.38512 343
67.40524 344
67.42535 340
67.44546 383
67.46558 415
67.48569 461
67.50581 470
67.52592 476
67.54603 542
67.56615 573
67.58626 635
67.60637 678
67.62649 711
67.6466 676
67.66672 803
67.68683 773
67.70694 729
67.72706 627
67.74717 650
67.76728 583
67.7874 625
67.80751 636
67.82763 634
67.84774 618
67.86785 684
67.88797 630
67.90808 653
67.92819 650
67.94831 697
67.96842 772
67.98853 783
68.00865 825
68.02876 856
68.04888 898
68.06899 955
68.0891 944
68.10922 894
68.12933 817
68.14944 829
68.16956 804
68.18967 817
68.20979 877
68.2299 896
68.25001 889
68.27013 845
68.29024 803
68.31035 638
68.33047 532
68.35058 534
68.3707 516
68.39081 469
68.41092 509
68.43104 462
68.45115 476
68.47126 453
68.49138 416
68.51149 359
68.5316 330
68.55172 333
68.57183 292
68.59195 315
68.61206 289
68.63217 303
68.65229 278
68.6724 307
68.69251 290
68.71263 283
68.73274 304
68.75286 279
68.77297 284
68.79308 287
68.8132 301
68.83331 290
68.85342 316
68.87354 320
68.89365 290
68.91376 290
68.93388 286
68.95399 269
68.97411 276
68.99422 275
69.01433 299
69.03445 262
69.05456 283
69.07467 291
69.09479 299
69.1149 292
69.13502 296
69.15513 323
69.17524 300
69.19536 284
69.21547 303
69.23558 304
69.2557 323
69.27581 318
69.29593 330
69.31604 321
69.33615 347
69.35627 312
69.37638 348
69.39649 353
69.41661 343
69.43672 312
69.45683 326
69.47695 287
69.49706 305
69.51718 312
69.53729 325
69.5574 343
69.57752 322
69.59763 333
69.61774 317
69.63786 330
69.65797 305
69.67809 302
69.6982 308
69.71831 338
69.73843 275
69.75854 277
69.77865 309
69.79877 284
69.81888 293
69.839 301
69.85911 298
69.87922 304
69.89934 287
69.91945 252
69.93956 273
69.95968 284
69.97979 284
69.9999 290
70.02002 313
70.04013 302
70.06025 274
70.08036 300
70.10047 298
70.12059 292
70.1407 281
70.16081 258
70.18093 278
70.20104 273
70.22116 282
70.24127 257
70.26138 294
70.2815 237
70.30161 262
70.32172 275
70.34184 247
70.36195 248
70.38207 285
70.40218 253
70.42229 264
70.44241 275
70.46252 289
70.48263 260
70.50275 269
70.52286 302
70.54297 259
70.56309 262
70.5832 250
70.60332 273
70.62343 280
70.64354 272
70.66366 280
70.68377 258
70.70388 261
70.724 243
70.74411 243
70.76423 291
70.78434 259
70.80445 285
70.82457 286
70.84468 301
70.86479 283
70.88491 299
70.90502 271
70.92513 272
70.94525 259
70.96536 254
70.98548 291
71.00559 278
71.0257 272
71.04582 248
71.06593 280
71.08604 263
71.10616 264
71.12627 265
71.14639 241
71.1665 287
71.18661 276
71.20673 276
71.22684 261
71.24695 295
71.26707 256
71.28718 283
71.3073 284
71.32741 286
71.34752 292
71.36764 312
71.38775 295
71.40786 256
71.42798 310
71.44809 277
71.4682 285
71.48832 250
71.50843 282
71.52855 288
71.54866 270
71.56877 277
71.58889 288
71.609 290
71.62911 290
71.64923 295
71.66934 284
71.68946 267
71.70957 270
71.72968 293
71.7498 274
71.76991 269
71.79002 288
71.81014 279
71.83025 280
71.85037 309
71.87048 286
71.89059 307
71.91071 272
71.93082 276
71.95093 275
71.97105 262
71.99116 277
72.01127 282
72.03139 257
72.0515 289
72.07162 299
72.09173 318
72.11184 292
72.13196 282
72.15207 285
72.17218 270
72.1923 267
72.21241 285
72.23253 314
72.25264 275
72.27275 298
72.29287 273
72.31298 281
72.33309 299
72.35321 261
72.37332 285
72.39344 292
72.41355 291
72.43366 288
72.45378 266
72.47389 290
72.494 300
72.51412 276
72.53423 283
72.55434 288
72.57446 278
72.59457 278
72.61469 278
72.6348 276
72.65491 291
72.67503 286
72.69514 295
72.71525 282
72.73537 279
72.75548 301
72.7756 244
72.79571 266
72.81582 261
72.83594 257
72.85605 279
72.87616 287
72.89628 301
72.91639 291
72.9365 293
72.95662 269
72.97673 279
72.99685 275
73.01696 295
73.03707 293
73.05719 279
73.0773 325
73.09741 278
73.11753 273
73.13764 297
73.15776 303
73.17787 296
73.19798 305
73.2181 329
73.23821 312
73.25832 341
73.27844 386
73.29855 362
73.31867 426
73.33878 406
73.35889 419
73.37901 453
73.39912 401
73.41923 445
73.43935 379
73.45946 376
73.47957 342
73.49969 373
73.5198 338
73.53992 361
73.56003 363
73.58014 385
73.60026 362
73.62037 338
73.64048 315
73.6606 332
73.68071 303
73.70083 291
73.72094 344
73.74105 313
73.76117 294
73.78128 341
73.80139 322
73.82151 318
73.84162 329
73.86174 279
73.88185 278
73.90196 289
73.92208 327
73.94219 297
73.9623 280
73.98242 307
74.00253 285
74.02264 273
74.04276 313
74.06287 287
74.08299 281
74.1031 298
74.12321 300
74.14333 283
74.16344 299
74.18355 299
74.20367 265
74.22378 315
74.2439 264
74.26401 304
74.28412 279
74.30424 276
74.32435 268
74.34446 272
74.36458 297
74.38469 269
74.40481 279
74.42492 284
74.44503 284
74.46515 290
74.48526 322
74.50537 287
74.52549 277
74.5456 290
74.56571 316
74.58583 291
74.60594 272
74.62606 308
74.64617 287
74.66628 279
74.6864 320
74.70651 313
74.72662 318
74.74674 284
74.76685 320
74.78697 297
74.80708 296
74.82719 298
74.84731 306
74.86742 288
74.88753 321
74.90765 268
74.92776 277
74.94787 289
74.96799 291
74.9881 266
75.00822 290
