3.00117 22355
3.02128 21619
3.0414 21195
3.06151 20872
3.08162 20084
3.10174 19572
3.12185 19028
3.14197 18448
3.16208 18177
3.18219 17313
3.20231 16734
3.22242 16645
3.24253 16239
3.26265 15860
3.28276 15196
3.30288 14785
3.32299 14641
3.3431 13634
3.36322 13881
3.38333 13056
3.40344 12675
3.42356 12195
3.44367 11930
3.46379 11712
3.4839 10815
3.50401 10855
3.52413 10547
3.54424 9933
3.56435 9817
3.58447 9169
3.60458 9082
3.62469 9025
3.64481 8284
3.66492 8290
3.68504 7807
3.70515 7550
3.72526 7524
3.74538 6893
3.76549 6739
3.7856 6678
3.80572 6183
3.82583 6119
3.84595 5577
3.86606 5494
3.88617 5252
3.90629 5074
3.9264 4990
3.94651 4548
3.96663 4427
3.98674 4169
4.00686 4056
4.02697 4152
4.04708 3580
4.0672 3696
4.08731 3460
4.10742 3310
4.12754 3223
4.14765 2944
4.16776 2888
4.18788 2755
4.20799 2671
4.22811 2773
4.24822 2410
4.26833 2352
4.28845 2383
4.30856 2211
4.32867 2150
4.34879 1978
4.3689 2022
4.38902 1949
4.40913 1821
4.42924 1898
4.44936 1666
4.46947 1681
4.48958 1611
4.5097 1632
4.52981 1593
4.54992 1469
4.57004 1464
4.59015 1539
4.61027 1462
4.63038 1488
4.65049 1368
4.67061 1322
4.69072 1213
4.71083 1335
4.73095 1294
4.75106 1162
4.77118 1120
4.79129 1223
4.8114 1245
4.83152 1227
4.85163 1064
4.87174 1078
4.89186 1116
4.91197 1130
4.93209 1056
4.9522 958
4.97231 1008
4.99243 1040
5.01254 983
5.03265 904
5.05277 923
5.07288 849
5.09299 951
5.11311 890
5.13322 901
5.15334 799
5.17345 816
5.19356 912
5.21368 834
5.23379 783
5.2539 769
5.27402 745
5.29413 749
5.31425 700
5.33436 713
5.35447 760
5.37459 734
5.3947 680
5.41481 679
5.43493 691
5.45504 681
5.47516 643
5.49527 650
5.51538 640
5.5355 657
5.55561 645
5.57572 615
5.59584 646
5.61595 610
5.63606 603
5.65618 567
5.67629 569
5.69641 589
5.71652 582
5.73663 589
5.75675 552
5.77686 552
5.79697 491
5.81709 547
5.8372 541
5.85732 529
5.87743 497
5.89754 505
5.91766 573
5.93777 458
5.95788 529
5.978 538
5.99811 499
6.01823 515
6.03834 514
6.05845 493
6.07857 500
6.09868 519
6.11879 474
6.13891 485
6.15902 472
6.17913 494
6.19925 459
6.21936 462
6.23948 498
6.25959 468
6.2797 522
6.29982 497
6.31993 484
6.34004 492
6.36016 484
6.38027 468
6.40039 454
6.4205 482
6.44061 480
6.46073 470
6.48084 485
6.50095 460
6.52107 458
6.54118 456
6.56129 491
6.58141 490
6.60152 451
6.62164 464
6.64175 439
6.66186 476
6.68198 470
6.70209 451
6.7222 466
6.74232 456
6.76243 455
6.78255 482
6.80266 456
6.82277 478
6.84289 440
6.863 491
6.88311 459
6.90323 435
6.92334 477
6.94346 435
6.96357 422
6.98368 459
7.0038 490
7.02391 457
7.04402 464
7.06414 464
7.08425 427
7.10436 444
7.12448 463
7.14459 442
7.16471 445
7.18482 437
7.20493 501
7.22505 470
7.24516 454
7.26527 495
7.28539 439
7.3055 471
7.32562 431
7.34573 447
7.36584 429
7.38596 427
7.40607 480
7.42618 462
7.4463 518
7.46641 448
7.48653 455
7.50664 440
7.52675 490
7.54687 452
7.56698 474
7.58709 486
7.60721 493
7.62732 457
7.64743 492
7.66755 428
7.68766 481
7.70778 423
7.72789 424
7.748 471
7.76812 478
7.78823 459
7.80834 461
7.82846 450
7.84857 449
7.86869 441
7.8888 506
7.90891 481
7.92903 448
7.94914 455
7.96925 455
7.98937 469
8.00948 462
8.0296 449
8.04971 449
8.06982 485
8.08994 434
8.11005 482
8.13016 432
8.15028 437
8.17039 442
8.1905 489
8.21062 502
8.23073 503
8.25085 447
8.27096 438
8.29107 482
8.31119 439
8.3313 475
8.35141 450
8.37153 444
8.39164 488
8.41176 405
8.43187 480
8.45198 468
8.4721 478
8.49221 410
8.51232 492
8.53244 434
8.55255 425
8.57266 488
8.59278 492
8.61289 467
8.63301 473
8.65312 417
8.67323 518
8.69335 459
8.71346 499
8.73357 430
8.75369 516
8.7738 449
8.79392 468
8.81403 443
8.83414 457
8.85426 464
8.87437 479
8.89448 478
8.9146 501
8.93471 476
8.95483 462
8.97494 446
8.99505 503
9.01517 469
9.03528 429
9.05539 451
9.07551 447
9.09562 435
9.11573 455
9.13585 466
9.15596 481
9.17608 479
9.19619 461
9.2163 452
9.23642 480
9.25653 436
9.27664 457
9.29676 499
9.31687 495
9.33699 460
9.3571 490
9.37721 493
9.39733 477
9.41744 438
9.43755 458
9.45767 465
9.47778 466
9.4979 408
9.51801 425
9.53812 450
9.55824 444
9.57835 465
9.59846 473
9.61858 455
9.63869 458
9.6588 427
9.67892 459
9.69903 436
9.71915 481
9.73926 492
9.75937 472
9.77949 458
9.7996 435
9.81971 463
9.83983 435
9.85994 416
9.88006 453
9.90017 448
9.92028 451
9.9404 446
9.96051 458
9.98062 431
10.00074 469
10.02085 458
10.04097 498
10.06108 463
10.08119 434
10.10131 465
10.12142 476
10.14153 465
10.16165 447
10.18176 446
10.20187 464
10.22199 465
10.2421 460
10.26222 380
10.28233 463
10.30244 453
10.32256 481
10.34267 489
10.36278 423
10.3829 398
10.40301 433
10.42313 460
10.44324 415
10.46335 443
10.48347 430
10.50358 462
10.52369 431
10.54381 418
10.56392 466
10.58403 461
10.60415 450
10.62426 491
10.64438 414
10.66449 493
10.6846 485
10.70472 490
10.72483 501
10.74494 415
10.76506 431
10.78517 463
10.80529 463
10.8254 459
10.84551 452
10.86563 445
10.88574 433
10.90585 428
10.92597 440
10.94608 472
10.9662 479
10.98631 445
11.00642 423
11.02654 426
11.04665 413
11.06676 495
11.08688 447
11.10699 454
11.1271 444
11.14722 469
11.16733 424
11.18745 424
11.20756 468
11.22767 458
11.24779 462
11.2679 471
11.28801 404
11.30813 444
11.32824 452
11.34836 428
11.36847 418
11.38858 448
11.4087 468
11.42881 446
11.44892 461
11.46904 430
11.48915 459
11.50927 459
11.52938 489
11.54949 456
11.56961 429
11.58972 466
11.60983 418
11.62995 466
11.65006 440
11.67017 470
11.69029 457
11.7104 481
11.73052 471
11.75063 448
11.77074 472
11.79086 443
11.81097 472
11.83108 471
11.8512 470
11.87131 471
11.89143 450
11.91154 485
11.93165 426
11.95177 481
11.97188 410
11.99199 460
12.01211 421
12.03222 436
12.05234 477
12.07245 478
12.09256 481
12.11268 456
12.13279 457
12.1529 482
12.17302 449
12.19313 443
12.21324 473
12.23336 437
12.25347 450
12.27359 445
12.2937 472
12.31381 428
12.33393 495
12.35404 493
12.37415 518
12.39427 461
12.41438 484
12.4345 457
12.45461 496
12.47472 456
12.49484 448
12.51495 482
12.53506 461
12.55518 434
12.57529 457
12.5954 422
12.61552 450
12.63563 484
12.65575 427
12.67586 439
12.69597 475
12.71609 476
12.7362 479
12.75631 438
12.77643 457
12.79654 457
12.81666 493
12.83677 423
12.85688 434
12.877 447
12.89711 441
12.91722 418
12.93734 452
12.95745 462
12.97757 406
12.99768 432
13.01779 406
13.03791 425
13.05802 433
13.07813 425
13.09825 434
13.11836 436
13.13847 450
13.15859 476
13.1787 466
13.19882 460
13.21893 440
13.23904 420
13.25916 449
13.27927 386
13.29938 464
13.3195 469
13.33961 394
13.35973 471
13.37984 444
13.39995 441
13.42007 435
13.44018 417
13.46029 454
13.48041 417
13.50052 469
13.52064 416
13.54075 438
13.56086 426
13.58098 414
13.60109 419
13.6212 439
13.64132 485
13.66143 435
13.68154 437
13.70166 449
13.72177 436
13.74189 451
13.762 416
13.78211 463
13.80223 423
13.82234 478
13.84245 464
13.86257 428
13.88268 418
13.9028 425
13.92291 441
13.94302 451
13.96314 463
13.98325 462
14.00336 430
14.02348 462
14.04359 480
14.06371 419
14.08382 450
14.10393 386
14.12405 410
14.14416 451
14.16427 425
14.18439 468
14.2045 460
14.22461 438
14.24473 426
14.26484 454
14.28496 436
14.30507 388
14.32518 432
14.3453 453
14.36541 433
14.38552 421
14.40564 460
14.42575 451
14.44587 401
14.46598 462
14.48609 412
14.50621 421
14.52632 426
14.54643 402
14.56655 479
14.58666 447
14.60677 447
14.62689 433
14.647 416
14.66712 421
14.68723 419
14.70734 393
14.72746 456
14.74757 391
14.76768 408
14.7878 403
14.80791 424
14.82803 403
14.84814 411
14.86825 479
14.88837 418
14.90848 441
14.92859 415
14.94871 444
14.96882 436
14.98894 443
15.00905 431
15.02916 435
15.04928 472
15.06939 447
15.0895 444
15.10962 450
15.12973 451
15.14984 457
15.16996 436
15.19007 393
15.21019 385
15.2303 417
15.25041 464
15.27053 411
15.29064 402
15.31075 425
15.33087 466
15.35098 448
15.3711 428
15.39121 416
15.41132 419
15.43144 395
15.45155 402
15.47166 394
15.49178 420
15.51189 423
15.53201 400
15.55212 432
15.57223 407
15.59235 404
15.61246 411
15.63257 419
15.65269 440
15.6728 437
15.69291 455
15.71303 415
15.73314 408
15.75326 398
15.77337 452
15.79348 427
15.8136 404
15.83371 412
15.85382 437
15.87394 438
15.89405 455
15.91417 423
15.93428 433
15.95439 441
15.97451 461
15.99462 468
16.01473 402
16.03485 444
16.05496 438
16.07508 381
16.09519 458
16.1153 420
16.13542 418
16.15553 426
16.17564 443
16.19576 459
16.21587 408
16.23598 442
16.2561 389
16.27621 416
16.29633 394
16.31644 485
16.33655 429
16.35667 419
16.37678 456
16.39689 414
16.41701 428
16.43712 450
16.45724 395
16.47735 413
16.49746 442
16.51758 423
16.53769 429
16.5578 427
16.57792 465
16.59803 410
16.61814 444
16.63826 432
16.65837 387
16.67849 410
16.6986 394
16.71871 389
16.73883 399
16.75894 441
16.77905 424
16.79917 412
16.81928 428
16.8394 431
16.85951 410
16.87962 435
16.89974 413
16.91985 404
16.93996 486
16.96008 453
16.98019 421
17.00031 404
17.02042 431
17.04053 407
17.06065 462
17.08076 427
17.10087 463
17.12099 454
17.1411 412
17.16121 449
17.18133 437
17.20144 483
17.22156 441
17.24167 481
17.26178 420
17.2819 432
17.30201 460
17.32212 422
17.34224 410
17.36235 447
17.38247 437
17.40258 464
17.42269 404
17.44281 445
17.46292 417
17.48303 451
17.50315 434
17.52326 460
17.54338 448
17.56349 455
17.5836 440
17.60372 491
17.62383 444
17.64394 418
17.66406 436
17.68417 470
17.70428 433
17.7244 461
17.74451 471
17.76463 442
17.78474 433
17.80485 455
17.82497 422
17.84508 473
17.86519 435
17.88531 463
17.90542 460
17.92554 494
17.94565 432
17.96576 484
17.98588 436
18.00599 443
18.0261 493
18.04622 445
18.06633 498
18.08645 482
18.10656 448
18.12667 414
18.14679 397
18.1669 451
18.18701 453
18.20713 445
18.22724 451
18.24735 404
18.26747 423
18.28758 470
18.3077 433
18.32781 397
18.34792 428
18.36804 447
18.38815 467
18.40826 445
18.42838 481
18.44849 420
18.46861 422
18.48872 444
18.50883 440
18.52895 470
18.54906 443
18.56917 464
18.58929 487
18.6094 417
18.62951 428
18.64963 430
18.66974 438
18.68986 447
18.70997 451
18.73008 481
18.7502 399
18.77031 447
18.79042 452
18.81054 450
18.83065 471
18.85077 451
18.87088 417
18.89099 463
18.91111 482
18.93122 406
18.95133 444
18.97145 452
18.99156 440
19.01168 423
19.03179 480
19.0519 411
19.07202 451
19.09213 419
19.11224 421
19.13236 426
19.15247 434
19.17258 446
19.1927 432
19.21281 445
19.23293 417
19.25304 467
19.27315 464
19.29327 468
19.31338 439
19.33349 450
19.35361 478
19.37372 440
19.39384 457
19.41395 450
19.43406 435
19.45418 460
19.47429 471
19.4944 463
19.51452 498
19.53463 469
19.55475 455
19.57486 465
19.59497 461
19.61509 471
19.6352 509
19.65531 507
19.67543 531
19.69554 509
19.71565 483
19.73577 593
19.75588 555
19.776 536
19.79611 577
19.81622 582
19.83634 602
19.85645 566
19.87656 582
19.89668 631
19.91679 579
19.93691 555
19.95702 654
19.97713 581
19.99725 548
20.01736 588
20.03747 598
20.05759 584
20.0777 549
20.09782 563
20.11793 559
20.13804 512
20.15816 546
20.17827 591
20.19838 548
20.2185 561
20.23861 558
20.25872 538
20.27884 526
20.29895 560
20.31907 586
20.33918 534
20.35929 594
20.37941 568
20.39952 580
20.41963 560
20.43975 598
20.45986 562
20.47998 555
20.50009 562
20.5202 595
20.54032 611
20.56043 619
20.58054 623
20.60066 557
20.62077 613
20.64088 664
20.661 628
20.68111 721
20.70123 778
20.72134 815
20.74145 1024
20.76157 1289
20.78168 1677
20.80179 2351
20.82191 3204
20.84202 3860
20.86214 4202
20.88225 4003
20.90236 3620
20.92248 2917
20.94259 2148
20.9627 1526
20.98282 1084
21.00293 871
21.02305 744
21.04316 760
21.06327 739
21.08339 733
21.1035 687
21.12361 689
21.14373 693
21.16384 673
21.18395 683
21.20407 619
21.22418 658
21.2443 685
21.26441 643
21.28452 730
21.30464 764
21.32475 710
21.34486 648
21.36498 681
21.38509 678
21.40521 698
21.42532 709
21.44543 694
21.46555 656
21.48566 637
21.50577 621
21.52589 686
21.546 651
21.56612 657
21.58623 635
21.60634 640
21.62646 601
21.64657 617
21.66668 566
21.6868 614
21.70691 571
21.72702 572
21.74714 607
21.76725 549
21.78737 561
21.80748 527
21.82759 534
21.84771 604
21.86782 497
21.88793 550
21.90805 578
21.92816 529
21.94828 523
21.96839 515
21.9885 554
22.00862 558
22.02873 512
22.04884 535
22.06896 544
22.08907 529
22.10919 522
22.1293 485
22.14941 524
22.16953 537
22.18964 533
22.20975 503
22.22987 532
22.24998 500
22.27009 476
22.29021 517
22.31032 524
22.33044 560
22.35055 505
22.37066 490
22.39078 475
22.41089 494
22.431 540
22.45112 464
22.47123 512
22.49135 507
22.51146 554
22.53157 483
22.55169 465
22.5718 521
22.59191 510
22.61203 492
22.63214 541
22.65225 475
22.67237 564
22.69248 478
22.7126 474
22.73271 492
22.75282 475
22.77294 485
22.79305 478
22.81316 483
22.83328 518
22.85339 492
22.87351 480
22.89362 462
22.91373 486
22.93385 484
22.95396 520
22.97407 504
22.99419 488
23.0143 466
23.03442 462
23.05453 514
23.07464 505
23.09476 542
23.11487 509
23.13498 560
23.1551 517
23.17521 504
23.19532 484
23.21544 529
23.23555 513
23.25567 500
23.27578 489
23.29589 512
23.31601 510
23.33612 495
23.35623 508
23.37635 455
23.39646 545
23.41658 466
23.43669 500
23.4568 497
23.47692 479
23.49703 506
23.51714 482
23.53726 508
23.55737 471
23.57749 571
23.5976 515
23.61771 494
23.63783 520
23.65794 494
23.67805 532
23.69817 503
23.71828 473
23.73839 497
23.75851 468
23.77862 507
23.79874 540
23.81885 524
23.83896 520
23.85908 526
23.87919 525
23.8993 494
23.91942 520
23.93953 554
23.95965 589
23.97976 605
23.99987 578
24.01999 592
24.0401 599
24.06021 620
24.08033 584
24.10044 560
24.12056 537
24.14067 572
24.16078 579
24.1809 585
24.20101 553
24.22112 544
24.24124 581
24.26135 551
24.28146 540
24.30158 534
24.32169 596
24.34181 555
24.36192 522
24.38203 563
24.40215 566
24.42226 507
24.44237 546
24.46249 495
24.4826 514
24.50272 523
24.52283 514
24.54294 535
24.56306 472
24.58317 536
24.60328 502
24.6234 514
24.64351 518
24.66362 508
24.68374 525
24.70385 508
24.72397 537
24.74408 528
24.76419 550
24.78431 510
24.80442 529
24.82453 580
24.84465 525
24.86476 502
24.88488 518
24.90499 555
24.9251 504
24.94522 505
24.96533 478
24.98544 564
25.00556 490
25.02567 449
25.04579 547
25.0659 504
25.08601 540
25.10613 516
25.12624 553
25.14635 495
25.16647 512
25.18658 551
25.20669 538
25.22681 529
25.24692 526
25.26704 562
25.28715 583
25.30726 528
25.32738 557
25.34749 584
25.3676 534
25.38772 559
25.40783 494
25.42795 558
25.44806 515
25.46817 524
25.48829 546
25.5084 457
25.52851 529
25.54863 516
25.56874 558
25.58886 529
25.60897 551
25.62908 562
25.6492 552
25.66931 535
25.68942 551
25.70954 554
25.72965 583
25.74976 566
25.76988 585
25.78999 580
25.81011 637
25.83022 596
25.85033 552
25.87045 593
25.89056 587
25.91067 608
25.93079 591
25.9509 670
25.97102 601
25.99113 586
26.01124 587
26.03136 625
26.05147 608
26.07158 629
26.0917 614
26.11181 651
26.13193 698
26.15204 647
26.17215 665
26.19227 664
26.21238 685
26.23249 749
26.25261 766
26.27272 773
26.29283 778
26.31295 791
26.33306 857
26.35318 995
26.37329 953
26.3934 1076
26.41352 1192
26.43363 1264
26.45374 1345
26.47386 1744
26.49397 2277
26.51409 3164
26.5342 4491
26.55431 6770
26.57443 9573
26.59454 13056
26.61465 15960
26.63477 17658
26.65488 17271
26.67499 14636
26.69511 11851
26.71522 9040
26.73534 6517
26.75545 4106
26.77556 2634
26.79568 1750
26.81579 1498
26.8359 1214
26.85602 1137
26.87613 1128
26.89625 1026
26.91636 946
26.93647 1012
26.95659 872
26.9767 881
26.99681 821
27.01693 803
27.03704 821
27.05716 772
27.07727 727
27.09738 663
27.1175 697
27.13761 670
27.15772 636
27.17784 607
27.19795 575
27.21806 591
27.23818 622
27.25829 590
27.27841 629
27.29852 607
27.31863 606
27.33875 615
27.35886 580
27.37897 622
27.39909 643
27.4192 651
27.43932 661
27.45943 653
27.47954 636
27.49966 650
27.51977 599
27.53988 596
27.56 596
27.58011 564
27.60023 539
27.62034 548
27.64045 551
27.66057 568
27.68068 567
27.70079 517
27.72091 584
27.74102 604
27.76113 555
27.78125 520
27.80136 563
27.82148 528
27.84159 519
27.8617 550
27.88182 566
27.90193 603
27.92204 530
27.94216 502
27.96227 553
27.98239 559
28.0025 521
28.02261 550
28.04273 592
28.06284 550
28.08295 515
28.10307 539
28.12318 522
28.1433 529
28.16341 505
28.18352 525
28.20364 522
28.22375 548
28.24386 534
28.26398 506
28.28409 525
28.3042 505
28.32432 465
28.34443 474
28.36455 506
28.38466 487
28.40477 524
28.42489 512
28.445 506
28.46511 498
28.48523 503
28.50534 511
28.52546 494
28.54557 498
28.56568 480
28.5858 506
28.60591 485
28.62602 482
28.64614 513
28.66625 498
28.68636 515
28.70648 499
28.72659 516
28.74671 519
28.76682 518
28.78693 486
28.80705 489
28.82716 495
28.84727 490
28.86739 501
28.8875 520
28.90762 484
28.92773 528
28.94784 512
28.96796 482
28.98807 467
29.00818 513
29.0283 485
29.04841 515
29.06853 462
29.08864 483
29.10875 502
29.12887 530
29.14898 445
29.16909 470
29.18921 512
29.20932 534
29.22943 496
29.24955 499
29.26966 490
29.28978 495
29.30989 469
29.33 534
29.35012 590
29.37023 541
29.39034 598
29.41046 543
29.43057 587
29.45069 525
29.4708 566
29.49091 517
29.51103 512
29.53114 482
29.55125 525
29.57137 463
29.59148 465
29.6116 492
29.63171 493
29.65182 484
29.67194 477
29.69205 524
29.71216 467
29.73228 490
29.75239 475
29.7725 514
29.79262 476
29.81273 477
29.83285 502
29.85296 468
29.87307 467
29.89319 473
29.9133 523
29.93341 503
29.95353 496
29.97364 471
29.99376 488
30.01387 488
30.03398 508
30.0541 482
30.07421 499
30.09432 520
30.11444 453
30.13455 508
30.15467 494
30.17478 514
30.19489 487
30.21501 479
30.23512 489
30.25523 526
30.27535 471
30.29546 503
30.31557 499
30.33569 474
30.3558 511
30.37592 534
30.39603 499
30.41614 497
30.43626 489
30.45637 494
30.47648 491
30.4966 512
30.51671 530
30.53683 507
30.55694 491
30.57705 482
30.59717 474
30.61728 496
30.63739 484
30.65751 510
30.67762 546
30.69773 476
30.71785 491
30.73796 538
30.75808 498
30.77819 460
30.7983 445
30.81842 498
30.83853 511
30.85864 489
30.87876 513
30.89887 484
30.91899 467
30.9391 498
30.95921 498
30.97933 461
30.99944 491
31.01955 487
31.03967 503
31.05978 482
31.0799 482
31.10001 452
31.12012 503
31.14024 487
31.16035 444
31.18046 498
31.20058 489
31.22069 466
31.2408 486
31.26092 469
31.28103 509
31.30115 487
31.32126 507
31.34137 456
31.36149 497
31.3816 456
31.40171 475
31.42183 476
31.44194 473
31.46206 485
31.48217 477
31.50228 463
31.5224 498
31.54251 490
31.56262 469
31.58274 454
31.60285 467
31.62297 469
31.64308 488
31.66319 490
31.68331 486
31.70342 484
31.72353 438
31.74365 464
31.76376 464
31.78387 478
31.80399 465
31.8241 463
31.84422 453
31.86433 417
31.88444 478
31.90456 513
31.92467 497
31.94478 488
31.9649 449
31.98501 446
32.00513 494
32.02524 503
32.04535 467
32.06547 507
32.08558 503
32.10569 472
32.12581 481
32.14592 446
32.16604 533
32.18615 425
32.20626 474
32.22638 493
32.24649 491
32.2666 490
32.28672 500
32.30683 490
32.32694 499
32.34706 453
32.36717 491
32.38729 491
32.4074 494
32.42751 455
32.44763 494
32.46774 504
32.48785 522
32.50797 506
32.52808 499
32.5482 510
32.56831 504
32.58842 538
32.60854 529
32.62865 542
32.64876 526
32.66888 551
32.68899 544
32.7091 556
32.72922 529
32.74933 513
32.76945 535
32.78956 523
32.80967 579
32.82979 601
32.8499 536
32.87001 636
32.89013 560
32.91024 557
32.93036 577
32.95047 605
32.97058 602
32.9907 593
33.01081 607
33.03092 635
33.05104 651
33.07115 628
33.09127 614
33.11138 676
33.13149 640
33.15161 666
33.17172 669
33.19183 671
33.21195 696
33.23206 704
33.25217 635
33.27229 651
33.2924 619
33.31252 663
33.33263 621
33.35274 631
33.37286 650
33.39297 653
33.41308 620
33.4332 625
33.45331 638
33.47343 597
33.49354 604
33.51365 607
33.53377 607
33.55388 578
33.57399 644
33.59411 618
33.61422 602
33.63434 551
33.65445 566
33.67456 571
33.69468 545
33.71479 549
33.7349 543
33.75502 561
33.77513 569
33.79524 515
33.81536 549
33.83547 557
33.85559 561
33.8757 496
33.89581 497
33.91593 468
33.93604 572
33.95615 504
33.97627 525
33.99638 502
34.0165 495
34.03661 504
34.05672 514
34.07684 481
34.09695 487
34.11706 552
34.13718 510
34.15729 506
34.17741 517
34.19752 554
34.21763 529
34.23775 539
34.25786 497
34.27797 477
34.29809 543
34.3182 485
34.33831 525
34.35843 542
34.37854 505
34.39866 501
34.41877 532
34.43888 514
34.459 514
34.47911 535
34.49922 493
34.51934 517
34.53945 526
34.55957 545
34.57968 571
34.59979 525
34.61991 546
34.64002 538
34.66013 543
34.68025 575
34.70036 546
34.72047 553
34.74059 523
34.7607 569
34.78082 562
34.80093 578
34.82104 596
34.84116 604
34.86127 594
34.88138 649
34.9015 585
34.92161 588
34.94173 604
34.96184 613
34.98195 592
35.00207 624
35.02218 547
35.04229 591
35.06241 616
35.08252 629
35.10264 536
35.12275 584
35.14286 589
35.16298 570
35.18309 578
35.2032 564
35.22332 628
35.24343 614
35.26354 551
35.28366 597
35.30377 574
35.32389 559
35.344 579
35.36411 542
35.38423 587
35.40434 625
35.42445 584
35.44457 623
35.46468 615
35.4848 639
35.50491 621
35.52502 627
35.54514 652
35.56525 660
35.58536 697
35.60548 684
35.62559 695
35.64571 679
35.66582 718
35.68593 761
35.70605 712
35.72616 669
35.74627 718
35.76639 730
35.7865 739
35.80661 681
35.82673 709
35.84684 709
35.86696 650
35.88707 682
35.90718 656
35.9273 669
35.94741 607
35.96752 623
35.98764 591
36.00775 566
36.02787 639
36.04798 573
36.06809 579
36.08821 596
36.10832 553
36.12843 601
36.14855 559
36.16866 617
36.18878 604
36.20889 561
36.229 598
36.24912 586
36.26923 623
36.28934 570
36.30946 628
36.32957 590
36.34968 611
36.3698 659
36.38991 735
36.41003 747
36.43014 860
36.45025 1031
36.47037 1246
36.49048 1427
36.51059 1586
36.53071 1685
36.55082 1608
36.57094 1428
36.59105 1227
36.61116 1219
36.63128 1091
36.65139 934
36.6715 822
36.69162 696
36.71173 678
36.73184 677
36.75196 588
36.77207 648
36.79219 673
36.8123 607
36.83241 619
36.85253 594
36.87264 651
36.89275 625
36.91287 633
36.93298 564
36.9531 637
36.97321 629
36.99332 598
37.01344 630
37.03355 646
37.05366 662
37.07378 611
37.09389 617
37.11401 595
37.13412 582
37.15423 607
37.17435 633
37.19446 614
37.21457 555
37.23469 573
37.2548 609
37.27491 576
37.29503 541
37.31514 556
37.33526 514
37.35537 563
37.37548 508
37.3956 546
37.41571 525
37.43582 561
37.45594 466
37.47605 537
37.49617 487
37.51628 523
37.53639 524
37.55651 500
37.57662 446
37.59673 519
37.61685 548
37.63696 488
37.65708 484
37.67719 481
37.6973 500
37.71742 484
37.73753 526
37.75764 472
37.77776 495
37.79787 528
37.81798 503
37.8381 455
37.85821 518
37.87833 488
37.89844 436
37.91855 483
37.93867 448
37.95878 462
37.97889 465
37.99901 480
38.01912 493
38.03924 463
38.05935 469
38.07946 476
38.09958 452
38.11969 512
38.1398 512
38.15992 502
38.18003 484
38.20015 509
38.22026 484
38.24037 476
38.26049 466
38.2806 490
38.30071 448
38.32083 464
38.34094 457
38.36105 479
38.38117 476
38.40128 513
38.4214 508
38.44151 501
38.46162 490
38.48174 546
38.50185 477
38.52196 515
38.54208 461
38.56219 496
38.58231 471
38.60242 509
38.62253 487
38.64265 473
38.66276 470
38.68287 488
38.70299 495
38.7231 453
38.74321 456
38.76333 490
38.78344 491
38.80356 487
38.82367 469
38.84378 465
38.8639 455
38.88401 499
38.90412 466
38.92424 461
38.94435 459
38.96447 484
38.98458 511
39.00469 499
39.02481 495
39.04492 487
39.06503 445
39.08515 465
39.10526 482
39.12538 509
39.14549 461
39.1656 518
39.18572 478
39.20583 531
39.22594 497
39.24606 556
39.26617 587
39.28628 591
39.3064 623
39.32651 659
39.34663 793
39.36674 888
39.38685 1126
39.40697 1267
39.42708 1431
39.44719 1478
39.46731 1472
39.48742 1292
39.50754 1177
39.52765 1176
39.54776 1045
39.56788 908
39.58799 858
39.6081 731
39.62822 597
39.64833 544
39.66845 507
39.68856 504
39.70867 519
39.72879 499
39.7489 497
39.76901 470
39.78913 490
39.80924 471
39.82935 470
39.84947 490
39.86958 491
39.8897 483
39.90981 463
39.92992 483
39.95004 493
39.97015 503
39.99026 495
40.01038 477
40.03049 500
40.05061 480
40.07072 500
40.09083 534
40.11095 567
40.13106 589
40.15117 612
40.17129 654
40.1914 720
40.21152 819
40.23163 876
40.25174 944
40.27186 1004
40.29197 980
40.31208 896
40.3322 831
40.35231 783
40.37242 771
40.39254 756
40.41265 703
40.43277 623
40.45288 569
40.47299 569
40.49311 565
40.51322 537
40.53333 536
40.55345 538
40.57356 530
40.59368 543
40.61379 525
40.6339 523
40.65402 544
40.67413 513
40.69424 524
40.71436 542
40.73447 477
40.75458 491
40.7747 538
40.79481 539
40.81493 539
40.83504 516
40.85515 504
40.87527 537
40.89538 540
40.91549 560
40.93561 544
40.95572 582
40.97584 479
40.99595 518
41.01606 528
41.03618 457
41.05629 475
41.0764 532
41.09652 545
41.11663 497
41.13675 510
41.15686 504
41.17697 510
41.19709 522
41.2172 498
41.23731 524
41.25743 488
41.27754 506
41.29765 517
41.31777 492
41.33788 480
41.358 478
41.37811 492
41.39822 495
41.41834 532
41.43845 484
41.45856 532
41.47868 480
41.49879 511
41.51891 502
41.53902 480
41.55913 508
41.57925 514
41.59936 503
41.61947 511
41.63959 509
41.6597 517
41.67982 497
41.69993 512
41.72004 490
41.74016 520
41.76027 495
41.78038 546
41.8005 517
41.82061 478
41.84072 486
41.86084 515
41.88095 513
41.90107 504
41.92118 478
41.94129 445
41.96141 468
41.98152 447
42.00163 455
42.02175 462
42.04186 488
42.06198 489
42.08209 476
42.1022 488
42.12232 477
42.14243 513
42.16254 482
42.18266 468
42.20277 516
42.22289 543
42.243 552
42.26311 494
42.28323 551
42.30334 647
42.32345 682
42.34357 768
42.36368 921
42.38379 1085
42.40391 1160
42.42402 1171
42.44414 1092
42.46425 1082
42.48436 972
42.50448 909
42.52459 842
42.5447 806
42.56482 752
42.58493 650
42.60505 560
42.62516 503
42.64527 532
42.66539 507
42.6855 483
42.70561 495
42.72573 468
42.74584 462
42.76595 482
42.78607 460
42.80618 400
42.8263 449
42.84641 474
42.86652 467
42.88664 449
42.90675 454
42.92686 440
42.94698 460
42.96709 429
42.98721 449
43.00732 449
43.02743 435
43.04755 426
43.06766 438
43.08777 471
43.10789 432
43.128 463
43.14812 436
43.16823 483
43.18834 453
43.20846 423
43.22857 487
43.24868 480
43.2688 458
43.28891 508
43.30902 453
43.32914 433
43.34925 439
43.36937 476
43.38948 463
43.40959 441
43.42971 422
43.44982 439
43.46993 497
43.49005 464
43.51016 462
43.53028 454
43.55039 447
43.5705 455
43.59062 473
43.61073 440
43.63084 464
43.65096 431
43.67107 414
43.69119 451
43.7113 445
43.73141 469
43.75153 493
43.77164 408
43.79175 429
43.81187 417
43.83198 418
43.85209 453
43.87221 452
43.89232 444
43.91244 421
43.93255 470
43.95266 451
43.97278 418
43.99289 452
44.013 443
44.03312 424
44.05323 447
44.07335 481
44.09346 469
44.11357 462
44.13369 504
44.1538 425
44.17391 473
44.19403 451
44.21414 492
44.23426 452
44.25437 436
44.27448 449
44.2946 444
44.31471 484
44.33482 428
44.35494 447
44.37505 436
44.39516 462
44.41528 445
44.43539 429
44.45551 424
44.47562 441
44.49573 443
44.51585 445
44.53596 438
44.55607 412
44.57619 426
44.5963 455
44.61642 432
44.63653 447
44.65664 429
44.67676 445
44.69687 477
44.71698 454
44.7371 464
44.75721 455
44.77732 452
44.79744 485
44.81755 489
44.83767 444
44.85778 445
44.87789 454
44.89801 453
44.91812 488
44.93823 424
44.95835 405
44.97846 476
44.99858 408
45.01869 430
45.0388 456
45.05892 445
45.07903 439
45.09914 486
45.11926 456
45.13937 445
45.15949 446
45.1796 466
45.19971 483
45.21983 428
45.23994 433
45.26005 496
45.28017 461
45.30028 453
45.32039 465
45.34051 504
45.36062 441
45.38074 433
45.40085 484
45.42096 485
45.44108 460
45.46119 509
45.4813 467
45.50142 452
45.52153 475
45.54165 501
45.56176 507
45.58187 463
45.60199 496
45.6221 546
45.64221 555
45.66233 562
45.68244 685
45.70256 765
45.72267 827
45.74278 879
45.7629 948
45.78301 925
45.80312 819
45.82324 777
45.84335 760
45.86346 683
45.88358 670
45.90369 677
45.92381 650
45.94392 548
45.96403 524
45.98415 517
46.00426 446
46.02437 473
46.04449 426
46.0646 460
46.08472 427
46.10483 447
46.12494 481
46.14506 444
46.16517 420
46.18528 465
46.2054 433
46.22551 423
46.24563 462
46.26574 430
46.28585 464
46.30597 431
46.32608 421
46.34619 438
46.36631 382
46.38642 449
46.40653 418
46.42665 416
46.44676 417
46.46688 416
46.48699 431
46.5071 419
46.52722 462
46.54733 444
46.56744 445
46.58756 437
46.60767 415
46.62779 423
46.6479 401
46.66801 413
46.68813 423
46.70824 452
46.72835 448
46.74847 439
46.76858 445
46.78869 449
46.80881 443
46.82892 433
46.84904 438
46.86915 417
46.88926 414
46.90938 429
46.92949 435
46.9496 449
46.96972 448
46.98983 433
47.00995 427
47.03006 453
47.05017 426
47.07029 476
47.0904 423
47.11051 382
47.13063 474
47.15074 420
47.17086 441
47.19097 423
47.21108 447
47.2312 435
47.25131 463
47.27142 456
47.29154 446
47.31165 440
47.33176 419
47.35188 424
47.37199 460
47.39211 439
47.41222 438
47.43233 460
47.45245 438
47.47256 422
47.49267 470
47.51279 398
47.5329 470
47.55302 438
47.57313 463
47.59324 426
47.61336 471
47.63347 459
47.65358 441
47.6737 420
47.69381 423
47.71393 441
47.73404 413
47.75415 421
47.77427 460
47.79438 490
47.81449 409
47.83461 470
47.85472 480
47.87483 458
47.89495 467
47.91506 440
47.93518 395
47.95529 477
47.9754 449
47.99552 464
48.01563 494
48.03574 486
48.05586 458
48.07597 442
48.09609 458
48.1162 452
48.13631 476
48.15643 468
48.17654 411
48.19665 428
48.21677 465
48.23688 450
48.257 490
48.27711 444
48.29722 487
48.31734 428
48.33745 478
48.35756 468
48.37768 462
48.39779 471
48.4179 464
48.43802 450
48.45813 467
48.47825 464
48.49836 449
48.51847 410
48.53859 424
48.5587 480
48.57881 442
48.59893 483
48.61904 419
48.63916 436
48.65927 426
48.67938 468
48.6995 465
48.71961 486
48.73972 425
48.75984 449
48.77995 462
48.80006 438
48.82018 450
48.84029 482
48.86041 475
48.88052 479
48.90063 416
48.92075 488
48.94086 456
48.96097 482
48.98109 477
49.0012 444
49.02132 435
49.04143 431
49.06154 453
49.08166 421
49.10177 464
49.12188 445
49.142 477
49.16211 426
49.18223 480
49.20234 460
49.22245 487
49.24257 480
49.26268 481
49.28279 508
49.30291 439
49.32302 484
49.34313 506
49.36325 495
49.38336 531
49.40348 461
49.42359 491
49.4437 471
49.46382 450
49.48393 462
49.50404 480
49.52416 517
49.54427 515
49.56439 526
49.5845 521
49.60461 498
49.62473 528
49.64484 459
49.66495 501
49.68507 517
49.70518 529
49.7253 533
49.74541 512
49.76552 505
49.78564 499
49.80575 541
49.82586 575
49.84598 542
49.86609 551
49.8862 558
49.90632 568
49.92643 623
49.94655 698
49.96666 741
49.98677 853
50.00689 990
50.027 1257
50.04711 1459
50.06723 1742
50.08734 1976
50.10746 2190
50.12757 2057
50.14768 1844
50.1678 1545
50.18791 1371
50.20802 1352
50.22814 1365
50.24825 1265
50.26837 1142
50.28848 956
50.30859 844
50.32871 657
50.34882 615
50.36893 529
50.38905 538
50.40916 488
50.42927 520
50.44939 502
50.4695 519
50.48962 523
50.50973 480
50.52984 512
50.54996 554
50.57007 512
50.59018 512
50.6103 508
50.63041 496
50.65053 507
50.67064 489
50.69075 473
50.71087 491
50.73098 487
50.75109 462
50.77121 438
50.79132 472
50.81143 484
50.83155 474
50.85166 449
50.87178 463
50.89189 475
50.912 478
50.93212 467
50.95223 424
50.97234 467
50.99246 442
51.01257 469
51.03269 476
51.0528 455
51.07291 455
51.09303 442
51.11314 454
51.13325 462
51.15337 425
51.17348 413
51.1936 454
51.21371 453
51.23382 449
51.25394 437
51.27405 448
51.29416 426
51.31428 427
51.33439 450
51.3545 442
51.37462 427
51.39473 453
51.41485 467
51.43496 415
51.45507 418
51.47519 440
51.4953 437
51.51541 441
51.53553 441
51.55564 447
51.57576 431
51.59587 406
51.61598 398
51.6361 436
51.65621 416
51.67632 420
51.69644 445
51.71655 431
51.73667 431
51.75678 379
51.77689 452
51.79701 434
51.81712 422
51.83723 431
51.85735 447
51.87746 439
51.89757 400
51.91769 415
51.9378 408
51.95792 408
51.97803 414
51.99814 429
52.01826 425
52.03837 431
52.05848 454
52.0786 429
52.09871 430
52.11883 446
52.13894 440
52.15905 430
52.17917 454
52.19928 420
52.21939 470
52.23951 437
52.25962 450
52.27974 442
52.29985 459
52.31996 414
52.34008 427
52.36019 426
52.3803 459
52.40042 434
52.42053 417
52.44064 419
52.46076 430
52.48087 430
52.50099 432
52.5211 410
52.54121 437
52.56133 413
52.58144 459
52.60155 444
52.62167 442
52.64178 464
52.6619 416
52.68201 404
52.70212 414
52.72224 408
52.74235 426
52.76246 436
52.78258 426
52.80269 443
52.8228 436
52.84292 434
52.86303 443
52.88315 437
52.90326 452
52.92337 422
52.94349 429
52.9636 459
52.98371 404
53.00383 428
53.02394 444
53.04406 459
53.06417 449
53.08428 463
53.1044 433
53.12451 432
53.14462 489
53.16474 474
53.18485 492
53.20497 474
53.22508 453
53.24519 448
53.26531 455
53.28542 498
53.30553 474
53.32565 481
53.34576 501
53.36587 501
53.38599 484
53.4061 499
53.42622 486
53.44633 490
53.46644 495
53.48656 498
53.50667 515
53.52678 521
53.5469 511
53.56701 509
53.58713 532
53.60724 549
53.62735 584
53.64747 512
53.66758 548
53.68769 510
53.70781 512
53.72792 537
53.74804 491
53.76815 540
53.78826 570
53.80838 555
53.82849 543
53.8486 534
53.86872 542
53.88883 568
53.90894 537
53.92906 583
53.94917 557
53.96929 565
53.9894 554
54.00951 577
54.02963 535
54.04974 564
54.06985 577
54.08997 556
54.11008 568
54.1302 532
54.15031 543
54.17042 546
54.19054 585
54.21065 557
54.23076 580
54.25088 563
54.27099 555
54.29111 543
54.31122 558
54.33133 556
54.35145 528
54.37156 551
54.39167 525
54.41179 516
54.4319 551
54.45201 539
54.47213 485
54.49224 514
54.51236 529
54.53247 525
54.55258 548
54.5727 517
54.59281 499
54.61292 514
54.63304 551
54.65315 510
54.67327 534
54.69338 566
54.71349 612
54.73361 686
54.75372 696
54.77383 734
54.79395 812
54.81406 859
54.83417 910
54.85429 864
54.8744 859
54.89452 806
54.91463 748
54.93474 673
54.95486 707
54.97497 728
54.99508 702
55.0152 671
55.03531 665
55.05543 620
55.07554 549
55.09565 547
55.11577 499
55.13588 503
55.15599 501
55.17611 524
55.19622 592
55.21634 567
55.23645 604
55.25656 635
55.27668 681
55.29679 647
55.3169 628
55.33702 597
55.35713 578
55.37724 566
55.39736 562
55.41747 541
55.43759 559
55.4577 495
55.47781 543
55.49793 506
55.51804 492
55.53815 487
55.55827 509
55.57838 475
55.5985 490
55.61861 465
55.63872 474
55.65884 451
55.67895 432
55.69906 426
55.71918 448
55.73929 471
55.75941 402
55.77952 450
55.79963 400
55.81975 453
55.83986 409
55.85997 469
55.88009 427
55.9002 421
55.92031 443
55.94043 436
55.96054 427
55.98066 442
56.00077 429
56.02088 458
56.041 460
56.06111 494
56.08122 425
56.10134 451
56.12145 427
56.14157 440
56.16168 470
56.18179 456
56.20191 423
56.22202 470
56.24213 450
56.26225 475
56.28236 417
56.30248 396
56.32259 429
56.3427 380
56.36282 421
56.38293 422
56.40304 420
56.42316 412
56.44327 443
56.46338 379
56.4835 412
56.50361 436
56.52373 450
56.54384 429
56.56395 427
56.58407 416
56.60418 401
56.62429 415
56.64441 426
56.66452 461
56.68464 422
56.70475 443
56.72486 407
56.74498 454
56.76509 418
56.7852 446
56.80532 420
56.82543 444
56.84554 447
56.86566 409
56.88577 432
56.90589 450
56.926 444
56.94611 403
56.96623 417
56.98634 445
57.00645 431
57.02657 414
57.04668 411
57.0668 468
57.08691 462
57.10702 471
57.12714 453
57.14725 465
57.16736 446
57.18748 446
57.20759 492
57.22771 466
57.24782 467
57.26793 443
57.28805 449
57.30816 459
57.32827 460
57.34839 454
57.3685 450
57.38861 428
57.40873 427
57.42884 430
57.44896 462
57.46907 442
57.48918 405
57.5093 431
57.52941 441
57.54952 474
57.56964 430
57.58975 460
57.60987 441
57.62998 421
57.65009 450
57.67021 417
57.69032 455
57.71043 465
57.73055 429
57.75066 447
57.77078 453
57.79089 446
57.811 447
57.83112 443
57.85123 459
57.87134 412
57.89146 466
57.91157 424
57.93168 455
57.9518 435
57.97191 450
57.99203 485
58.01214 454
58.03225 393
58.05237 400
58.07248 463
58.09259 431
58.11271 455
58.13282 392
58.15294 445
58.17305 442
58.19316 404
58.21328 417
58.23339 421
58.2535 424
58.27362 445
58.29373 425
58.31385 423
58.33396 461
58.35407 416
58.37419 422
58.3943 433
58.41441 448
58.43453 428
58.45464 442
58.47475 423
58.49487 416
58.51498 440
58.5351 402
58.55521 422
58.57532 404
58.59544 411
58.61555 398
58.63566 414
58.65578 394
58.67589 425
58.69601 390
58.71612 390
58.73623 427
58.75635 456
58.77646 399
58.79657 378
58.81669 433
58.8368 375
58.85691 436
58.87703 424
58.89714 427
58.91726 418
58.93737 439
58.95748 413
58.9776 407
58.99771 440
59.01782 418
59.03794 384
59.05805 461
59.07817 421
59.09828 411
59.11839 395
59.13851 442
59.15862 440
59.17873 459
59.19885 450
59.21896 439
59.23908 451
59.25919 456
59.2793 457
59.29942 447
59.31953 487
59.33964 464
59.35976 403
59.37987 428
59.39998 469
59.4201 466
59.44021 466
59.46033 420
59.48044 463
59.50055 443
59.52067 488
59.54078 479
59.56089 509
59.58101 460
59.60112 488
59.62124 441
59.64135 506
59.66146 443
59.68158 495
59.70169 530
59.7218 604
59.74192 568
59.76203 592
59.78215 672
59.80226 736
59.82237 872
59.84249 1023
59.8626 1191
59.88271 1272
59.90283 1437
59.92294 1473
59.94305 1364
59.96317 1177
59.98328 1082
60.0034 924
60.02351 916
60.04362 934
60.06374 999
60.08385 985
60.10396 927
60.12408 783
60.14419 702
60.16431 619
60.18442 548
60.20453 494
60.22465 513
60.24476 445
60.26487 506
60.28499 471
60.3051 426
60.32522 462
60.34533 459
60.36544 433
60.38556 437
60.40567 435
60.42578 403
60.4459 431
60.46601 449
60.48612 408
60.50624 409
60.52635 464
60.54647 422
60.56658 460
60.58669 425
60.60681 428
60.62692 379
60.64703 448
60.66715 428
60.68726 463
60.70738 432
60.72749 439
60.7476 437
60.76772 436
60.78783 415
60.80794 416
60.82806 393
60.84817 404
60.86828 436
60.8884 470
60.90851 401
60.92863 421
60.94874 386
60.96885 428
60.98897 439
61.00908 406
61.02919 433
61.04931 428
61.06942 445
61.08954 435
61.10965 428
61.12976 441
61.14988 389
61.16999 447
61.1901 413
61.21022 427
61.23033 393
61.25045 389
61.27056 416
61.29067 420
61.31079 426
61.3309 446
61.35101 452
61.37113 418
61.39124 462
61.41135 421
61.43147 427
61.45158 431
61.4717 440
61.49181 448
61.51192 446
61.53204 464
61.55215 427
61.57226 434
61.59238 460
61.61249 482
61.63261 439
61.65272 479
61.67283 441
61.69295 464
61.71306 437
61.73317 448
61.75329 430
61.7734 481
61.79352 441
61.81363 466
61.83374 420
61.85386 484
61.87397 474
61.89408 469
61.9142 461
61.93431 467
61.95442 470
61.97454 413
61.99465 496
62.01477 458
62.03488 503
62.05499 486
62.07511 485
62.09522 475
62.11533 479
62.13545 479
62.15556 455
62.17568 463
62.19579 487
62.2159 463
62.23602 501
62.25613 448
62.27624 524
62.29636 499
62.31647 468
62.33659 470
62.3567 468
62.37681 495
62.39693 479
62.41704 492
62.43715 490
62.45727 435
62.47738 509
62.49749 505
62.51761 479
62.53772 459
62.55784 473
62.57795 469
62.59806 498
62.61818 503
62.63829 512
62.6584 522
62.67852 452
62.69863 470
62.71875 473
62.73886 451
62.75897 461
62.77909 443
62.7992 461
62.81931 481
62.83943 447
62.85954 483
62.87965 428
62.89977 435
62.91988 462
62.94 438
62.96011 452
62.98022 439
63.00034 461
63.02045 419
63.04056 429
63.06068 444
63.08079 457
63.10091 434
63.12102 450
63.14113 436
63.16125 410
63.18136 427
63.20147 425
63.22159 403
63.2417 394
63.26182 438
63.28193 451
63.30204 428
63.32216 436
63.34227 422
63.36238 415
63.3825 439
63.40261 458
63.42272 430
63.44284 440
63.46295 419
63.48307 446
63.50318 456
63.52329 443
63.54341 433
63.56352 401
63.58363 418
63.60375 417
63.62386 423
63.64398 469
63.66409 442
63.6842 464
63.70432 490
63.72443 440
63.74454 446
63.76466 441
63.78477 477
63.80489 468
63.825 469
63.84511 515
63.86523 502
63.88534 499
63.90545 527
63.92557 583
63.94568 598
63.96579 628
63.98591 655
64.00602 624
64.02614 639
64.04625 575
64.06636 548
64.08648 584
64.10659 521
64.1267 568
64.14682 544
64.16693 558
64.18705 554
64.20716 542
64.22727 516
64.24739 513
64.2675 502
64.28761 508
64.30773 497
64.32784 476
64.34796 451
64.36807 470
64.38818 464
64.4083 486
64.42841 485
64.44852 458
64.46864 455
64.48875 439
64.50886 434
64.52898 469
64.54909 440
64.56921 437
64.58932 427
64.60943 466
64.62955 438
64.64966 444
64.66977 449
64.68989 394
64.71 453
64.73012 429
64.75023 416
64.77034 400
64.79046 413
64.81057 420
64.83068 409
64.8508 421
64.87091 428
64.89102 463
64.91114 458
64.93125 410
64.95137 381
64.97148 406
64.99159 418
65.01171 411
65.03182 398
65.05193 389
65.07205 411
65.09216 427
65.11228 439
65.13239 417
65.1525 426
65.17262 394
65.19273 405
65.21284 406
65.23296 424
65.25307 390
65.27319 392
65.2933 421
65.31341 376
65.33353 378
65.35364 402
65.37375 409
65.39387 453
65.41398 432
65.43409 405
65.45421 392
65.47432 389
65.49444 378
65.51455 408
65.53466 379
65.55478 417
65.57489 416
65.595 421
65.61512 417
65.63523 416
65.65535 431
65.67546 420
65.69557 403
65.71569 468
65.7358 431
65.75591 419
65.77603 414
65.79614 405
65.81626 398
65.83637 389
65.85648 430
65.8766 419
65.89671 492
65.91682 464
65.93694 414
65.95705 427
65.97716 418
65.99728 410
66.01739 405
66.03751 396
66.05762 372
66.07773 427
66.09785 382
66.11796 372
66.13807 390
66.15819 399
66.1783 417
66.19842 405
66.21853 402
66.23864 438
66.25876 388
66.27887 412
66.29898 384
66.3191 386
66.33921 391
66.35933 369
66.37944 397
66.39955 406
66.41967 402
66.43978 374
66.45989 395
66.48001 403
66.50012 400
66.52023 429
66.54035 363
66.56046 433
66.58058 381
66.60069 401
66.6208 386
66.64092 400
66.66103 379
66.68114 401
66.70126 374
66.72137 420
66.74149 400
66.7616 373
66.78171 406
66.80183 418
66.82194 383
66.84205 378
66.86217 395
66.88228 414
66.90239 411
66.92251 403
66.94262 426
66.96274 414
66.98285 414
67.00296 401
67.02308 383
67.04319 415
67.0633 369
67.08342 420
67.10353 396
67.12365 381
67.14376 401
67.16387 411
67.18399 399
67.2041 410
67.22421 378
67.24433 415
67.26444 426
67.28456 421
67.30467 435
67.32478 434
67.3449 427
67.36501 397
67.38512 416
67.40524 420
67.42535 411
67.44546 455
67.46558 465
67.48569 474
67.50581 494
67.52592 490
67.54603 531
67.56615 576
67.58626 570
67.60637 617
67.62649 738
67.6466 845
67.66672 883
67.68683 894
67.70694 907
67.72706 912
67.74717 851
67.76728 754
67.7874 709
67.80751 737
67.82763 712
67.84774 716
67.86785 700
67.88797 768
67.90808 757
67.92819 743
67.94831 731
67.96842 668
67.98853 754
68.00865 817
68.02876 875
68.04888 970
68.06899 1062
68.0891 1115
68.10922 1164
68.12933 1049
68.14944 1047
68.16956 959
68.18967 982
68.20979 994
68.2299 1014
68.25001 1088
68.27013 1106
68.29024 1048
68.31035 1061
68.33047 937
68.35058 836
68.3707 701
68.39081 655
68.41092 686
68.43104 664
68.45115 631
68.47126 649
68.49138 613
68.51149 569
68.5316 511
68.55172 503
68.57183 459
68.59195 442
68.61206 476
68.63217 442
68.65229 438
68.6724 436
68.69251 416
68.71263 422
68.73274 412
68.75286 394
68.77297 410
68.79308 378
68.8132 405
68.83331 380
68.85342 373
68.87354 440
68.89365 436
68.91376 387
68.93388 402
68.95399 394
68.97411 379
68.99422 410
69.01433 378
69.03445 383
69.05456 378
69.07467 387
69.09479 366
69.1149 425
69.13502 379
69.15513 409
69.17524 403
69.19536 348
69.21547 392
69.23558 395
69.2557 427
69.27581 392
69.29593 411
69.31604 413
69.33615 393
69.35627 377
69.37638 403
69.39649 421
69.41661 421
69.43672 395
69.45683 379
69.47695 382
69.49706 356
69.51718 428
69.53729 399
69.5574 375
69.57752 419
69.59763 397
69.61774 399
69.63786 396
69.65797 403
69.67809 398
69.6982 387
69.71831 405
69.73843 401
69.75854 391
69.77865 401
69.79877 401
69.81888 388
69.839 385
69.85911 400
69.87922 373
69.89934 396
69.91945 385
69.93956 370
69.95968 410
69.97979 440
69.9999 385
70.02002 386
70.04013 379
70.06025 369
70.08036 371
70.10047 364
70.12059 375
70.1407 377
70.16081 400
70.18093 409
70.20104 397
70.22116 344
70.24127 386
70.26138 401
70.2815 403
70.30161 384
70.32172 407
70.34184 377
70.36195 381
70.38207 407
70.40218 382
70.42229 400
70.44241 366
70.46252 405
70.48263 392
70.50275 373
70.52286 362
70.54297 378
70.56309 411
70.5832 382
70.60332 347
70.62343 401
70.64354 409
70.66366 375
70.68377 348
70.70388 405
70.724 339
70.74411 394
70.76423 390
70.78434 385
70.80445 385
70.82457 412
70.84468 384
70.86479 372
70.88491 417
70.90502 390
70.92513 353
70.94525 356
70.96536 384
70.98548 383
71.00559 366
71.0257 387
71.04582 352
71.06593 369
71.08604 370
71.10616 383
71.12627 408
71.14639 395
71.1665 376
71.18661 373
71.20673 352
71.22684 361
71.24695 374
71.26707 362
71.28718 364
71.3073 402
71.32741 397
71.34752 348
71.36764 397
71.38775 370
71.40786 385
71.42798 383
71.44809 389
71.4682 410
71.48832 396
71.50843 380
71.52855 384
71.54866 411
71.56877 382
71.58889 386
71.609 411
71.62911 394
71.64923 365
71.66934 406
71.68946 372
71.70957 410
71.72968 374
71.7498 390
71.76991 362
71.79002 376
71.81014 385
71.83025 433
71.85037 374
71.87048 381
71.89059 440
71.91071 379
71.93082 379
71.95093 388
71.97105 372
71.99116 397
72.01127 415
72.03139 393
72.0515 381
72.07162 405
72.09173 367
72.11184 387
72.13196 348
72.15207 417
72.17218 441
72.1923 388
72.21241 385
72.23253 415
72.25264 404
72.27275 401
72.29287 391
72.31298 390
72.33309 416
72.35321 357
72.37332 375
72.39344 431
72.41355 371
72.43366 386
72.45378 369
72.47389 387
72.494 421
72.51412 378
72.53423 414
72.55434 389
72.57446 375
72.59457 381
72.61469 407
72.6348 352
72.65491 352
72.67503 356
72.69514 373
72.71525 380
72.73537 375
72.75548 401
72.7756 386
72.79571 382
72.81582 381
72.83594 347
72.85605 378
72.87616 394
72.89628 360
72.91639 395
72.9365 408
72.95662 383
72.97673 378
72.99685 390
73.01696 357
73.03707 376
73.05719 385
73.0773 424
73.09741 396
73.11753 350
73.13764 410
73.15776 364
73.17787 386
73.19798 368
73.2181 402
73.23821 397
73.25832 401
73.27844 459
73.29855 435
73.31867 461
73.33878 486
73.35889 506
73.37901 523
73.39912 524
73.41923 641
73.43935 559
73.45946 536
73.47957 545
73.49969 450
73.5198 463
73.53992 473
73.56003 465
73.58014 466
73.60026 474
73.62037 480
73.64048 487
73.6606 420
73.68071 436
73.70083 406
73.72094 392
73.74105 388
73.76117 397
73.78128 350
73.80139 329
73.82151 402
73.84162 385
73.86174 359
73.88185 364
73.90196 399
73.92208 401
73.94219 372
73.9623 386
73.98242 391
74.00253 364
74.02264 399
74.04276 394
74.06287 371
74.08299 347
74.1031 373
74.12321 358
74.14333 377
74.16344 374
74.18355 388
74.20367 380
74.22378 355
74.2439 356
74.26401 348
74.28412 376
74.30424 352
74.32435 372
74.34446 361
74.36458 318
74.38469 384
74.40481 379
74.42492 378
74.44503 375
74.46515 368
74.48526 386
74.50537 328
74.52549 377
74.5456 352
74.56571 327
74.58583 357
74.60594 364
74.62606 373
74.64617 394
74.66628 349
74.6864 418
74.70651 368
74.72662 396
74.74674 334
74.76685 405
74.78697 354
74.80708 366
74.82719 374
74.84731 362
74.86742 392
74.88753 384
74.90765 370
74.92776 378
74.94787 385
74.96799 371
74.9881 389
75.00822 344
