3.00117 20194
3.02128 20126
3.0414 18941
3.06151 18737
3.08162 18187
3.10174 17704
3.12185 17335
3.14197 16225
3.16208 16489
3.18219 15629
3.20231 15172
3.22242 15258
3.24253 14481
3.26265 14175
3.28276 13698
3.30288 13218
3.32299 12630
3.3431 12154
3.36322 11927
3.38333 11348
3.40344 11159
3.42356 10938
3.44367 10073
3.46379 10168
3.4839 9614
3.50401 9241
3.52413 8904
3.54424 8542
3.56435 8298
3.58447 7978
3.60458 7618
3.62469 7538
3.64481 7042
3.66492 6991
3.68504 6742
3.70515 6383
3.72526 6100
3.74538 5634
3.76549 5700
3.7856 5431
3.80572 5174
3.82583 4832
3.84595 4646
3.86606 4627
3.88617 4367
3.90629 4002
3.9264 3875
3.94651 3759
3.96663 3728
3.98674 3463
4.00686 3239
4.02697 3177
4.04708 2983
4.0672 2858
4.08731 2810
4.10742 2519
4.12754 2489
4.14765 2317
4.16776 2344
4.18788 2290
4.20799 2051
4.22811 2011
4.24822 1831
4.26833 1911
4.28845 1918
4.30856 1662
4.32867 1675
4.34879 1565
4.3689 1501
4.38902 1644
4.40913 1473
4.42924 1434
4.44936 1474
4.46947 1362
4.48958 1421
4.5097 1210
4.52981 1340
4.54992 1191
4.57004 1183
4.59015 1264
4.61027 1050
4.63038 1117
4.65049 1073
4.67061 1136
4.69072 1064
4.71083 993
4.73095 969
4.75106 915
4.77118 906
4.79129 880
4.8114 877
4.83152 883
4.85163 919
4.87174 842
4.89186 858
4.91197 779
4.93209 758
4.9522 721
4.97231 788
4.99243 768
5.01254 723
5.03265 680
5.05277 646
5.07288 719
5.09299 695
5.11311 585
5.13322 580
5.15334 647
5.17345 576
5.19356 604
5.21368 639
5.23379 519
5.2539 578
5.27402 527
5.29413 574
5.31425 501
5.33436 470
5.35447 505
5.37459 443
5.3947 473
5.41481 496
5.43493 446
5.45504 396
5.47516 461
5.49527 481
5.51538 407
5.5355 446
5.55561 386
5.57572 398
5.59584 394
5.61595 399
5.63606 375
5.65618 374
5.67629 377
5.69641 335
5.71652 333
5.73663 350
5.75675 345
5.77686 356
5.79697 311
5.81709 361
5.8372 326
5.85732 359
5.87743 327
5.89754 283
5.91766 315
5.93777 308
5.95788 283
5.978 322
5.99811 297
6.01823 294
6.03834 302
6.05845 283
6.07857 296
6.09868 327
6.11879 295
6.13891 273
6.15902 284
6.17913 294
6.19925 277
6.21936 285
6.23948 255
6.25959 273
6.2797 277
6.29982 272
6.31993 319
6.34004 269
6.36016 244
6.38027 247
6.40039 250
6.4205 271
6.44061 267
6.46073 248
6.48084 277
6.50095 296
6.52107 283
6.54118 307
6.56129 295
6.58141 273
6.60152 251
6.62164 260
6.64175 267
6.66186 279
6.68198 256
6.70209 244
6.7222 268
6.74232 226
6.76243 255
6.78255 249
6.80266 251
6.82277 235
6.84289 267
6.863 292
6.88311 249
6.90323 256
6.92334 222
6.94346 266
6.96357 259
6.98368 270
7.0038 272
7.02391 258
7.04402 257
7.06414 222
7.08425 256
7.10436 270
7.12448 280
7.14459 234
7.16471 268
7.18482 273
7.20493 256
7.22505 259
7.24516 251
7.26527 276
7.28539 230
7.3055 266
7.32562 250
7.34573 262
7.36584 269
7.38596 249
7.40607 251
7.42618 273
7.4463 273
7.46641 279
7.48653 240
7.50664 249
7.52675 248
7.54687 236
7.56698 242
7.58709 223
7.60721 252
7.62732 255
7.64743 246
7.66755 259
7.68766 233
7.70778 274
7.72789 215
7.748 266
7.76812 259
7.78823 279
7.80834 283
7.82846 281
7.84857 230
7.86869 243
7.8888 252
7.90891 259
7.92903 239
7.94914 263
7.96925 256
7.98937 267
8.00948 268
8.0296 253
8.04971 248
8.06982 237
8.08994 271
8.11005 258
8.13016 269
8.15028 239
8.17039 246
8.1905 255
8.21062 265
8.23073 247
8.25085 256
8.27096 242
8.29107 240
8.31119 253
8.3313 260
8.35141 297
8.37153 262
8.39164 273
8.41176 256
8.43187 251
8.45198 253
8.4721 242
8.49221 271
8.51232 230
8.53244 273
8.55255 231
8.57266 303
8.59278 249
8.61289 261
8.63301 262
8.65312 258
8.67323 251
8.69335 265
8.71346 282
8.73357 282
8.75369 288
8.7738 288
8.79392 280
8.81403 304
8.83414 257
8.85426 285
8.87437 278
8.89448 259
8.9146 285
8.93471 289
8.95483 264
8.97494 267
8.99505 234
9.01517 278
9.03528 253
9.05539 260
9.07551 276
9.09562 252
9.11573 272
9.13585 267
9.15596 298
9.17608 264
9.19619 240
9.2163 297
9.23642 241
9.25653 242
9.27664 250
9.29676 252
9.31687 279
9.33699 284
9.3571 273
9.37721 289
9.39733 279
9.41744 244
9.43755 272
9.45767 255
9.47778 305
9.4979 255
9.51801 249
9.53812 268
9.55824 241
9.57835 273
9.59846 248
9.61858 270
9.63869 251
9.6588 276
9.67892 295
9.69903 286
9.71915 280
9.73926 299
9.75937 306
9.77949 287
9.7996 302
9.81971 323
9.83983 301
9.85994 288
9.88006 274
9.90017 266
9.92028 261
9.9404 259
9.96051 250
9.98062 283
10.00074 266
10.02085 262
10.04097 275
10.06108 256
10.08119 274
10.10131 274
10.12142 255
10.14153 287
10.16165 249
10.18176 303
10.20187 269
10.22199 268
10.2421 258
10.26222 289
10.28233 292
10.30244 292
10.32256 298
10.34267 319
10.36278 291
10.3829 325
10.40301 371
10.42313 432
10.44324 450
10.46335 501
10.48347 527
10.50358 526
10.52369 559
10.54381 548
10.56392 417
10.58403 367
10.60415 384
10.62426 363
10.64438 331
10.66449 306
10.6846 280
10.70472 267
10.72483 296
10.74494 286
10.76506 244
10.78517 276
10.80529 274
10.8254 263
10.84551 248
10.86563 301
10.88574 256
10.90585 240
10.92597 253
10.94608 282
10.9662 260
10.98631 268
11.00642 283
11.02654 238
11.04665 288
11.06676 261
11.08688 236
11.10699 267
11.1271 246
11.14722 267
11.16733 273
11.18745 273
11.20756 256
11.22767 259
11.24779 246
11.2679 254
11.28801 263
11.30813 262
11.32824 256
11.34836 280
11.36847 281
11.38858 256
11.4087 250
11.42881 288
11.44892 249
11.46904 259
11.48915 267
11.50927 286
11.52938 273
11.54949 265
11.56961 253
11.58972 244
11.60983 230
11.62995 310
11.65006 258
11.67017 299
11.69029 284
11.7104 251
11.73052 257
11.75063 283
11.77074 299
11.79086 263
11.81097 275
11.83108 259
11.8512 266
11.87131 255
11.89143 271
11.91154 247
11.93165 247
11.95177 301
11.97188 277
11.99199 272
12.01211 254
12.03222 265
12.05234 253
12.07245 279
12.09256 251
12.11268 249
12.13279 282
12.1529 273
12.17302 239
12.19313 266
12.21324 246
12.23336 266
12.25347 276
12.27359 264
12.2937 259
12.31381 260
12.33393 250
12.35404 224
12.37415 257
12.39427 242
12.41438 241
12.4345 253
12.45461 256
12.47472 253
12.49484 270
12.51495 234
12.53506 271
12.55518 237
12.57529 260
12.5954 236
12.61552 257
12.63563 270
12.65575 266
12.67586 264
12.69597 277
12.71609 278
12.7362 253
12.75631 257
12.77643 271
12.79654 289
12.81666 266
12.83677 268
12.85688 267
12.877 241
12.89711 268
12.91722 254
12.93734 245
12.95745 263
12.97757 246
12.99768 246
13.01779 265
13.03791 265
13.05802 264
13.07813 248
13.09825 254
13.11836 277
13.13847 277
13.15859 255
13.1787 265
13.19882 254
13.21893 247
13.23904 274
13.25916 260
13.27927 282
13.29938 288
13.3195 283
13.33961 229
13.35973 269
13.37984 278
13.39995 282
13.42007 262
13.44018 270
13.46029 272
13.48041 287
13.50052 273
13.52064 267
13.54075 264
13.56086 262
13.58098 291
13.60109 296
13.6212 284
13.64132 269
13.66143 306
13.68154 344
13.70166 276
13.72177 276
13.74189 261
13.762 266
13.78211 244
13.80223 259
13.82234 289
13.84245 322
13.86257 327
13.88268 375
13.9028 305
13.92291 345
13.94302 287
13.96314 296
13.98325 270
14.00336 269
14.02348 248
14.04359 258
14.06371 256
14.08382 256
14.10393 259
14.12405 257
14.14416 258
14.16427 252
14.18439 250
14.2045 232
14.22461 249
14.24473 244
14.26484 248
14.28496 265
14.30507 276
14.32518 267
14.3453 254
14.36541 251
14.38552 251
14.40564 235
14.42575 273
14.44587 257
14.46598 273
14.48609 302
14.50621 256
14.52632 230
14.54643 260
14.56655 243
14.58666 263
14.60677 264
14.62689 247
14.647 253
14.66712 288
14.68723 241
14.70734 269
14.72746 254
14.74757 252
14.76768 256
14.7878 281
14.80791 231
14.82803 244
14.84814 232
14.86825 266
14.88837 262
14.90848 293
14.92859 288
14.94871 275
14.96882 309
14.98894 285
15.00905 272
15.02916 264
15.04928 272
15.06939 285
15.0895 280
15.10962 272
15.12973 286
15.14984 279
15.16996 251
15.19007 233
15.21019 267
15.2303 226
15.25041 254
15.27053 261
15.29064 235
15.31075 257
15.33087 247
15.35098 289
15.3711 206
15.39121 205
15.41132 265
15.43144 242
15.45155 255
15.47166 215
15.49178 265
15.51189 246
15.53201 270
15.55212 263
15.57223 233
15.59235 255
15.61246 248
15.63257 219
15.65269 263
15.6728 239
15.69291 219
15.71303 265
15.73314 262
15.75326 267
15.77337 227
15.79348 259
15.8136 237
15.83371 238
15.85382 238
15.87394 242
15.89405 259
15.91417 236
15.93428 221
15.95439 230
15.97451 226
15.99462 233
16.01473 224
16.03485 245
16.05496 250
16.07508 226
16.09519 258
16.1153 262
16.13542 227
16.15553 275
16.17564 225
16.19576 245
16.21587 238
16.23598 237
16.2561 217
16.27621 237
16.29633 210
16.31644 235
16.33655 243
16.35667 242
16.37678 277
16.39689 218
16.41701 252
16.43712 233
16.45724 242
16.47735 209
16.49746 213
16.51758 238
16.53769 228
16.5578 266
16.57792 271
16.59803 241
16.61814 242
16.63826 248
16.65837 224
16.67849 254
16.6986 224
16.71871 240
16.73883 247
16.75894 252
16.77905 251
16.79917 228
16.81928 259
16.8394 216
16.85951 245
16.87962 280
16.89974 284
16.91985 235
16.93996 215
16.96008 234
16.98019 266
17.00031 232
17.02042 228
17.04053 250
17.06065 255
17.08076 243
17.10087 245
17.12099 250
17.1411 239
17.16121 229
17.18133 241
17.20144 215
17.22156 216
17.24167 216
17.26178 205
17.2819 253
17.30201 246
17.32212 233
17.34224 248
17.36235 240
17.38247 236
17.40258 246
17.42269 273
17.44281 262
17.46292 267
17.48303 280
17.50315 284
17.52326 272
17.54338 275
17.56349 258
17.5836 236
17.60372 249
17.62383 283
17.64394 275
17.66406 282
17.68417 269
17.70428 254
17.7244 281
17.74451 243
17.76463 277
17.78474 238
17.80485 251
17.82497 244
17.84508 225
17.86519 207
17.88531 271
17.90542 250
17.92554 249
17.94565 254
17.96576 246
17.98588 264
18.00599 290
18.0261 282
18.04622 325
18.06633 261
18.08645 284
18.10656 254
18.12667 263
18.14679 257
18.1669 280
18.18701 240
18.20713 233
18.22724 252
18.24735 253
18.26747 256
18.28758 236
18.3077 230
18.32781 265
18.34792 268
18.36804 257
18.38815 262
18.40826 243
18.42838 245
18.44849 269
18.46861 222
18.48872 249
18.50883 217
18.52895 256
18.54906 244
18.56917 250
18.58929 215
18.6094 240
18.62951 237
18.64963 245
18.66974 242
18.68986 263
18.70997 238
18.73008 211
18.7502 232
18.77031 284
18.79042 257
18.81054 271
18.83065 241
18.85077 248
18.87088 249
18.89099 230
18.91111 243
18.93122 228
18.95133 271
18.97145 282
18.99156 266
19.01168 260
19.03179 250
19.0519 229
19.07202 266
19.09213 236
19.11224 270
19.13236 272
19.15247 253
19.17258 254
19.1927 273
19.21281 238
19.23293 276
19.25304 268
19.27315 271
19.29327 282
19.31338 248
19.33349 260
19.35361 291
19.37372 239
19.39384 269
19.41395 270
19.43406 295
19.45418 295
19.47429 280
19.4944 269
19.51452 257
19.53463 306
19.55475 287
19.57486 279
19.59497 309
19.61509 261
19.6352 316
19.65531 343
19.67543 293
19.69554 274
19.71565 237
19.73577 259
19.75588 270
19.776 295
19.79611 295
19.81622 299
19.83634 281
19.85645 298
19.87656 338
19.89668 290
19.91679 328
19.93691 290
19.95702 354
19.97713 362
19.99725 356
20.01736 332
20.03747 308
20.05759 283
20.0777 294
20.09782 285
20.11793 307
20.13804 284
20.15816 303
20.17827 294
20.19838 299
20.2185 317
20.23861 281
20.25872 289
20.27884 305
20.29895 272
20.31907 309
20.33918 298
20.35929 313
20.37941 311
20.39952 305
20.41963 328
20.43975 329
20.45986 322
20.47998 306
20.50009 323
20.5202 367
20.54032 370
20.56043 420
20.58054 358
20.60066 401
20.62077 390
20.64088 413
20.661 393
20.68111 453
20.70123 527
20.72134 629
20.74145 775
20.76157 1043
20.78168 1522
20.80179 2241
20.82191 3092
20.84202 4214
20.86214 5159
20.88225 5027
20.90236 4293
20.92248 3190
20.94259 2363
20.9627 1477
20.98282 1045
21.00293 836
21.02305 758
21.04316 698
21.06327 692
21.08339 622
21.1035 548
21.12361 535
21.14373 429
21.16384 385
21.18395 369
21.20407 350
21.22418 349
21.2443 355
21.26441 340
21.28452 338
21.30464 320
21.32475 298
21.34486 311
21.36498 302
21.38509 294
21.40521 320
21.42532 296
21.44543 305
21.46555 273
21.48566 324
21.50577 311
21.52589 266
21.546 277
21.56612 270
21.58623 303
21.60634 320
21.62646 299
21.64657 277
21.66668 275
21.6868 304
21.70691 278
21.72702 276
21.74714 283
21.76725 250
21.78737 314
21.80748 306
21.82759 356
21.84771 268
21.86782 328
21.88793 313
21.90805 361
21.92816 420
21.94828 424
21.96839 482
21.9885 571
22.00862 629
22.02873 727
22.04884 671
22.06896 576
22.08907 489
22.10919 476
22.1293 406
22.14941 376
22.16953 319
22.18964 343
22.20975 363
22.22987 327
22.24998 324
22.27009 314
22.29021 336
22.31032 370
22.33044 321
22.35055 330
22.37066 334
22.39078 286
22.41089 278
22.431 334
22.45112 324
22.47123 280
22.49135 322
22.51146 305
22.53157 286
22.55169 332
22.5718 316
22.59191 305
22.61203 293
22.63214 314
22.65225 307
22.67237 292
22.69248 301
22.7126 288
22.73271 317
22.75282 303
22.77294 299
22.79305 280
22.81316 304
22.83328 294
22.85339 305
22.87351 333
22.89362 339
22.91373 351
22.93385 383
22.95396 354
22.97407 350
22.99419 337
23.0143 330
23.03442 346
23.05453 325
23.07464 367
23.09476 344
23.11487 340
23.13498 331
23.1551 381
23.17521 391
23.19532 388
23.21544 367
23.23555 356
23.25567 373
23.27578 341
23.29589 317
23.31601 341
23.33612 348
23.35623 295
23.37635 352
23.39646 301
23.41658 347
23.43669 312
23.4568 336
23.47692 378
23.49703 378
23.51714 455
23.53726 474
23.55737 485
23.57749 562
23.5976 481
23.61771 567
23.63783 530
23.65794 509
23.67805 430
23.69817 432
23.71828 437
23.73839 414
23.75851 463
23.77862 460
23.79874 436
23.81885 520
23.83896 473
23.85908 485
23.87919 477
23.8993 463
23.91942 452
23.93953 441
23.95965 501
23.97976 512
23.99987 467
24.01999 488
24.0401 454
24.06021 480
24.08033 473
24.10044 362
24.12056 402
24.14067 405
24.16078 393
24.1809 415
24.20101 421
24.22112 428
24.24124 454
24.26135 441
24.28146 446
24.30158 452
24.32169 447
24.34181 498
24.36192 441
24.38203 417
24.40215 406
24.42226 377
24.44237 356
24.46249 302
24.4826 330
24.50272 346
24.52283 328
24.54294 315
24.56306 300
24.58317 356
24.60328 337
24.6234 300
24.64351 279
24.66362 299
24.68374 325
24.70385 302
24.72397 314
24.74408 320
24.76419 295
24.78431 303
24.80442 296
24.82453 338
24.84465 299
24.86476 282
24.88488 306
24.90499 288
24.9251 293
24.94522 309
24.96533 289
24.98544 287
25.00556 298
25.02567 296
25.04579 304
25.0659 293
25.08601 280
25.10613 271
25.12624 310
25.14635 303
25.16647 297
25.18658 318
25.20669 300
25.22681 306
25.24692 348
25.26704 315
25.28715 304
25.30726 305
25.32738 304
25.34749 349
25.3676 331
25.38772 315
25.40783 353
25.42795 367
25.44806 356
25.46817 413
25.48829 475
25.5084 457
25.52851 483
25.54863 510
25.56874 520
25.58886 579
25.60897 567
25.62908 526
25.6492 541
25.66931 550
25.68942 524
25.70954 486
25.72965 505
25.74976 455
25.76988 459
25.78999 460
25.81011 451
25.83022 447
25.85033 431
25.87045 433
25.89056 427
25.91067 413
25.93079 476
25.9509 436
25.97102 407
25.99113 438
26.01124 462
26.03136 458
26.05147 492
26.07158 493
26.0917 519
26.11181 538
26.13193 536
26.15204 548
26.17215 584
26.19227 595
26.21238 638
26.23249 674
26.25261 737
26.27272 741
26.29283 755
26.31295 773
26.33306 830
26.35318 961
26.37329 986
26.3934 1106
26.41352 1256
26.43363 1407
26.45374 1580
26.47386 1911
26.49397 2371
26.51409 3210
26.5342 4414
26.55431 6498
26.57443 9382
26.59454 13349
26.61465 18285
26.63477 22485
26.65488 22776
26.67499 18779
26.69511 14765
26.71522 12004
26.73534 8733
26.75545 5039
26.77556 2775
26.79568 1852
26.81579 1442
26.8359 1294
26.85602 1216
26.87613 1192
26.89625 1137
26.91636 1127
26.93647 1164
26.95659 1140
26.9767 1184
26.99681 1047
27.01693 971
27.03704 980
27.05716 949
27.07727 919
27.09738 866
27.1175 787
27.13761 790
27.15772 674
27.17784 720
27.19795 588
27.21806 606
27.23818 582
27.25829 529
27.27841 542
27.29852 540
27.31863 593
27.33875 623
27.35886 691
27.37897 702
27.39909 754
27.4192 890
27.43932 975
27.45943 1062
27.47954 1129
27.49966 1067
27.51977 959
27.53988 959
27.56 796
27.58011 731
27.60023 671
27.62034 571
27.64045 538
27.66057 614
27.68068 607
27.70079 650
27.72091 755
27.74102 775
27.76113 810
27.78125 828
27.80136 926
27.82148 966
27.84159 940
27.8617 925
27.88182 930
27.90193 1012
27.92204 999
27.94216 1054
27.96227 1088
27.98239 1064
28.0025 1040
28.02261 1012
28.04273 915
28.06284 747
28.08295 629
28.10307 559
28.12318 511
28.1433 484
28.16341 476
28.18352 446
28.20364 462
28.22375 426
28.24386 437
28.26398 461
28.28409 427
28.3042 466
28.32432 478
28.34443 471
28.36455 468
28.38466 456
28.40477 391
28.42489 433
28.445 425
28.46511 449
28.48523 457
28.50534 441
28.52546 423
28.54557 408
28.56568 389
28.5858 420
28.60591 402
28.62602 353
28.64614 356
28.66625 370
28.68636 363
28.70648 302
28.72659 307
28.74671 337
28.76682 323
28.78693 320
28.80705 294
28.82716 317
28.84727 307
28.86739 317
28.8875 313
28.90762 284
28.92773 311
28.94784 296
28.96796 296
28.98807 300
29.00818 302
29.0283 305
29.04841 300
29.06853 314
29.08864 306
29.10875 293
29.12887 296
29.14898 315
29.16909 294
29.18921 322
29.20932 325
29.22943 273
29.24955 301
29.26966 283
29.28978 317
29.30989 330
29.33 276
29.35012 306
29.37023 352
29.39034 303
29.41046 356
29.43057 386
29.45069 360
29.4708 368
29.49091 379
29.51103 341
29.53114 349
29.55125 316
29.57137 299
29.59148 323
29.6116 348
29.63171 322
29.65182 353
29.67194 378
29.69205 352
29.71216 375
29.73228 376
29.75239 420
29.7725 418
29.79262 411
29.81273 398
29.83285 417
29.85296 396
29.87307 414
29.89319 422
29.9133 433
29.93341 401
29.95353 407
29.97364 358
29.99376 399
30.01387 345
30.03398 362
30.0541 367
30.07421 403
30.09432 429
30.11444 399
30.13455 426
30.15467 426
30.17478 465
30.19489 465
30.21501 414
30.23512 494
30.25523 472
30.27535 452
30.29546 451
30.31557 459
30.33569 461
30.3558 511
30.37592 473
30.39603 462
30.41614 474
30.43626 482
30.45637 429
30.47648 438
30.4966 433
30.51671 413
30.53683 431
30.55694 389
30.57705 413
30.59717 365
30.61728 327
30.63739 376
30.65751 372
30.67762 356
30.69773 369
30.71785 378
30.73796 382
30.75808 470
30.77819 504
30.7983 518
30.81842 463
30.83853 493
30.85864 489
30.87876 492
30.89887 446
30.91899 442
30.9391 381
30.95921 362
30.97933 373
30.99944 320
31.01955 305
31.03967 324
31.05978 275
31.0799 312
31.10001 273
31.12012 296
31.14024 278
31.16035 297
31.18046 289
31.20058 299
31.22069 314
31.2408 296
31.26092 320
31.28103 317
31.30115 319
31.32126 320
31.34137 295
31.36149 315
31.3816 305
31.40171 350
31.42183 349
31.44194 314
31.46206 283
31.48217 311
31.50228 313
31.5224 299
31.54251 317
31.56262 277
31.58274 273
31.60285 303
31.62297 294
31.64308 286
31.66319 316
31.68331 325
31.70342 306
31.72353 335
31.74365 320
31.76376 272
31.78387 322
31.80399 320
31.8241 318
31.84422 332
31.86433 318
31.88444 356
31.90456 312
31.92467 281
31.94478 291
31.9649 289
31.98501 306
32.00513 276
32.02524 310
32.04535 323
32.06547 301
32.08558 311
32.10569 308
32.12581 331
32.14592 324
32.16604 328
32.18615 303
32.20626 309
32.22638 333
32.24649 336
32.2666 355
32.28672 342
32.30683 357
32.32694 368
32.34706 385
32.36717 382
32.38729 390
32.4074 408
32.42751 458
32.44763 504
32.46774 493
32.48785 571
32.50797 585
32.52808 624
32.5482 570
32.56831 617
32.58842 517
32.60854 541
32.62865 455
32.64876 485
32.66888 455
32.68899 425
32.7091 395
32.72922 426
32.74933 377
32.76945 346
32.78956 340
32.80967 354
32.82979 361
32.8499 374
32.87001 370
32.89013 415
32.91024 447
32.93036 460
32.95047 474
32.97058 476
32.9907 467
33.01081 485
33.03092 524
33.05104 465
33.07115 455
33.09127 467
33.11138 453
33.13149 392
33.15161 393
33.17172 378
33.19183 384
33.21195 386
33.23206 372
33.25217 352
33.27229 315
33.2924 341
33.31252 308
33.33263 308
33.35274 308
33.37286 308
33.39297 274
33.41308 296
33.4332 296
33.45331 283
33.47343 252
33.49354 275
33.51365 293
33.53377 262
33.55388 260
33.57399 259
33.59411 249
33.61422 241
33.63434 263
33.65445 278
33.67456 288
33.69468 292
33.71479 304
33.7349 300
33.75502 246
33.77513 290
33.79524 309
33.81536 320
33.83547 310
33.85559 297
33.8757 320
33.89581 294
33.91593 262
33.93604 315
33.95615 331
33.97627 291
33.99638 299
34.0165 280
34.03661 314
34.05672 291
34.07684 272
34.09695 274
34.11706 324
34.13718 288
34.15729 309
34.17741 283
34.19752 357
34.21763 343
34.23775 349
34.25786 329
34.27797 350
34.29809 324
34.3182 318
34.33831 361
34.35843 384
34.37854 360
34.39866 395
34.41877 393
34.43888 408
34.459 394
34.47911 429
34.49922 423
34.51934 374
34.53945 401
34.55957 379
34.57968 390
34.59979 368
34.61991 355
34.64002 353
34.66013 351
34.68025 378
34.70036 348
34.72047 350
34.74059 331
34.7607 359
34.78082 387
34.80093 362
34.82104 375
34.84116 356
34.86127 349
34.88138 368
34.9015 354
34.92161 351
34.94173 435
34.96184 414
34.98195 410
35.00207 398
35.02218 414
35.04229 420
35.06241 432
35.08252 410
35.10264 430
35.12275 478
35.14286 457
35.16298 501
35.18309 525
35.2032 540
35.22332 568
35.24343 598
35.26354 590
35.28366 596
35.30377 549
35.32389 530
35.344 563
35.36411 530
35.38423 504
35.40434 522
35.42445 450
35.44457 526
35.46468 442
35.4848 493
35.50491 492
35.52502 506
35.54514 514
35.56525 533
35.58536 527
35.60548 553
35.62559 504
35.64571 438
35.66582 417
35.68593 401
35.70605 403
35.72616 405
35.74627 387
35.76639 362
35.7865 334
35.80661 323
35.82673 323
35.84684 327
35.86696 327
35.88707 318
35.90718 307
35.9273 316
35.94741 302
35.96752 313
35.98764 332
36.00775 305
36.02787 315
36.04798 302
36.06809 323
36.08821 340
36.10832 329
36.12843 312
36.14855 309
36.16866 319
36.18878 284
36.20889 329
36.229 312
36.24912 325
36.26923 320
36.28934 320
36.30946 359
36.32957 354
36.34968 369
36.3698 418
36.38991 447
36.41003 535
36.43014 552
36.45025 745
36.47037 968
36.49048 1176
36.51059 1452
36.53071 1729
36.55082 1642
36.57094 1396
36.59105 1151
36.61116 1081
36.63128 968
36.65139 915
36.6715 712
36.69162 533
36.71173 407
36.73184 363
36.75196 348
36.77207 319
36.79219 302
36.8123 323
36.83241 329
36.85253 310
36.87264 326
36.89275 330
36.91287 302
36.93298 294
36.9531 316
36.97321 308
36.99332 334
37.01344 288
37.03355 298
37.05366 311
37.07378 285
37.09389 297
37.11401 286
37.13412 272
37.15423 305
37.17435 282
37.19446 257
37.21457 297
37.23469 289
37.2548 288
37.27491 298
37.29503 303
37.31514 279
37.33526 289
37.35537 299
37.37548 251
37.3956 305
37.41571 281
37.43582 263
37.45594 312
37.47605 304
37.49617 262
37.51628 338
37.53639 280
37.55651 328
37.57662 272
37.59673 292
37.61685 271
37.63696 305
37.65708 287
37.67719 319
37.6973 271
37.71742 310
37.73753 291
37.75764 300
37.77776 283
37.79787 280
37.81798 241
37.8381 274
37.85821 249
37.87833 228
37.89844 255
37.91855 253
37.93867 246
37.95878 258
37.97889 243
37.99901 262
38.01912 266
38.03924 272
38.05935 253
38.07946 223
38.09958 245
38.11969 264
38.1398 267
38.15992 249
38.18003 251
38.20015 289
38.22026 291
38.24037 278
38.26049 283
38.2806 269
38.30071 300
38.32083 282
38.34094 310
38.36105 313
38.38117 321
38.40128 286
38.4214 344
38.44151 321
38.46162 320
38.48174 303
38.50185 283
38.52196 303
38.54208 304
38.56219 306
38.58231 297
38.60242 282
38.62253 314
38.64265 293
38.66276 274
38.68287 305
38.70299 282
38.7231 261
38.74321 295
38.76333 282
38.78344 259
38.80356 300
38.82367 264
38.84378 262
38.8639 246
38.88401 265
38.90412 245
38.92424 287
38.94435 309
38.96447 266
38.98458 266
39.00469 276
39.02481 307
39.04492 270
39.06503 302
39.08515 309
39.10526 308
39.12538 303
39.14549 326
39.1656 367
39.18572 349
39.20583 365
39.22594 325
39.24606 347
39.26617 340
39.28628 347
39.3064 457
39.32651 489
39.34663 523
39.36674 655
39.38685 777
39.40697 1014
39.42708 1261
39.44719 1413
39.46731 1548
39.48742 1347
39.50754 1111
39.52765 948
39.54776 887
39.56788 916
39.58799 796
39.6081 606
39.62822 443
39.64833 381
39.66845 346
39.68856 306
39.70867 347
39.72879 279
39.7489 296
39.76901 274
39.78913 290
39.80924 283
39.82935 276
39.84947 287
39.86958 280
39.8897 308
39.90981 294
39.92992 273
39.95004 259
39.97015 265
39.99026 287
40.01038 311
40.03049 286
40.05061 296
40.07072 286
40.09083 326
40.11095 292
40.13106 357
40.15117 365
40.17129 445
40.1914 500
40.21152 554
40.23163 685
40.25174 755
40.27186 834
40.29197 936
40.31208 859
40.3322 711
40.35231 639
40.37242 646
40.39254 620
40.41265 572
40.43277 468
40.45288 433
40.47299 326
40.49311 319
40.51322 311
40.53333 318
40.55345 297
40.57356 299
40.59368 303
40.61379 313
40.6339 275
40.65402 273
40.67413 298
40.69424 263
40.71436 253
40.73447 279
40.75458 315
40.7747 311
40.79481 305
40.81493 274
40.83504 278
40.85515 287
40.87527 277
40.89538 279
40.91549 263
40.93561 279
40.95572 305
40.97584 292
40.99595 279
41.01606 263
41.03618 281
41.05629 259
41.0764 272
41.09652 280
41.11663 291
41.13675 264
41.15686 283
41.17697 279
41.19709 273
41.2172 290
41.23731 306
41.25743 275
41.27754 268
41.29765 264
41.31777 270
41.33788 275
41.358 288
41.37811 293
41.39822 282
41.41834 253
41.43845 273
41.45856 271
41.47868 280
41.49879 282
41.51891 277
41.53902 309
41.55913 292
41.57925 335
41.59936 315
41.61947 303
41.63959 319
41.6597 326
41.67982 322
41.69993 360
41.72004 333
41.74016 343
41.76027 404
41.78038 369
41.8005 354
41.82061 383
41.84072 329
41.86084 308
41.88095 351
41.90107 334
41.92118 309
41.94129 312
41.96141 296
41.98152 265
42.00163 290
42.02175 296
42.04186 268
42.06198 275
42.08209 286
42.1022 279
42.12232 265
42.14243 255
42.16254 279
42.18266 314
42.20277 339
42.22289 347
42.243 333
42.26311 380
42.28323 363
42.30334 353
42.32345 449
42.34357 572
42.36368 682
42.38379 854
42.40391 901
42.42402 1088
42.44414 1173
42.46425 1099
42.48436 903
42.50448 756
42.52459 747
42.5447 734
42.56482 661
42.58493 612
42.60505 481
42.62516 380
42.64527 350
42.66539 311
42.6855 321
42.70561 317
42.72573 323
42.74584 302
42.76595 317
42.78607 309
42.80618 289
42.8263 298
42.84641 309
42.86652 351
42.88664 294
42.90675 307
42.92686 285
42.94698 285
42.96709 296
42.98721 269
43.00732 267
43.02743 259
43.04755 273
43.06766 261
43.08777 253
43.10789 282
43.128 267
43.14812 244
43.16823 278
43.18834 245
43.20846 251
43.22857 240
43.24868 248
43.2688 243
43.28891 247
43.30902 247
43.32914 232
43.34925 210
43.36937 248
43.38948 272
43.40959 250
43.42971 246
43.44982 248
43.46993 240
43.49005 253
43.51016 252
43.53028 268
43.55039 279
43.5705 284
43.59062 261
43.61073 247
43.63084 271
43.65096 267
43.67107 241
43.69119 266
43.7113 260
43.73141 255
43.75153 262
43.77164 283
43.79175 237
43.81187 267
43.83198 267
43.85209 279
43.87221 239
43.89232 277
43.91244 255
43.93255 243
43.95266 243
43.97278 246
43.99289 239
44.013 251
44.03312 252
44.05323 262
44.07335 263
44.09346 237
44.11357 240
44.13369 243
44.1538 304
44.17391 223
44.19403 232
44.21414 247
44.23426 269
44.25437 231
44.27448 242
44.2946 240
44.31471 219
44.33482 238
44.35494 227
44.37505 239
44.39516 246
44.41528 239
44.43539 234
44.45551 240
44.47562 238
44.49573 251
44.51585 227
44.53596 263
44.55607 238
44.57619 276
44.5963 246
44.61642 264
44.63653 260
44.65664 244
44.67676 241
44.69687 240
44.71698 254
44.7371 243
44.75721 274
44.77732 276
44.79744 255
44.81755 269
44.83767 234
44.85778 265
44.87789 241
44.89801 274
44.91812 241
44.93823 270
44.95835 245
44.97846 247
44.99858 266
45.01869 242
45.0388 268
45.05892 257
45.07903 251
45.09914 255
45.11926 233
45.13937 245
45.15949 246
45.1796 255
45.19971 292
45.21983 221
45.23994 255
45.26005 242
45.28017 242
45.30028 265
45.32039 265
45.34051 271
45.36062 241
45.38074 237
45.40085 252
45.42096 255
45.44108 247
45.46119 284
45.4813 227
45.50142 269
45.52153 298
45.54165 283
45.56176 294
45.58187 304
45.60199 365
45.6221 323
45.64221 371
45.66233 426
45.68244 434
45.70256 516
45.72267 601
45.74278 652
45.7629 756
45.78301 856
45.80312 793
45.82324 671
45.84335 592
45.86346 524
45.88358 527
45.90369 518
45.92381 453
45.94392 455
45.96403 362
45.98415 292
46.00426 296
46.02437 283
46.04449 259
46.0646 263
46.08472 284
46.10483 247
46.12494 242
46.14506 233
46.16517 245
46.18528 243
46.2054 252
46.22551 213
46.24563 267
46.26574 248
46.28585 229
46.30597 222
46.32608 206
46.34619 234
46.36631 239
46.38642 233
46.40653 211
46.42665 208
46.44676 229
46.46688 213
46.48699 230
46.5071 212
46.52722 248
46.54733 228
46.56744 242
46.58756 214
46.60767 196
46.62779 243
46.6479 222
46.66801 224
46.68813 198
46.70824 236
46.72835 243
46.74847 267
46.76858 227
46.78869 216
46.80881 223
46.82892 236
46.84904 231
46.86915 233
46.88926 220
46.90938 198
46.92949 230
46.9496 233
46.96972 251
46.98983 235
47.00995 231
47.03006 248
47.05017 251
47.07029 245
47.0904 227
47.11051 279
47.13063 252
47.15074 239
47.17086 252
47.19097 256
47.21108 217
47.2312 250
47.25131 246
47.27142 234
47.29154 252
47.31165 220
47.33176 269
47.35188 241
47.37199 253
47.39211 246
47.41222 280
47.43233 263
47.45245 243
47.47256 251
47.49267 226
47.51279 263
47.5329 253
47.55302 247
47.57313 245
47.59324 247
47.61336 225
47.63347 241
47.65358 224
47.6737 237
47.69381 227
47.71393 222
47.73404 207
47.75415 209
47.77427 217
47.79438 206
47.81449 243
47.83461 230
47.85472 223
47.87483 236
47.89495 255
47.91506 229
47.93518 255
47.95529 250
47.9754 213
47.99552 215
48.01563 201
48.03574 237
48.05586 225
48.07597 233
48.09609 234
48.1162 254
48.13631 255
48.15643 230
48.17654 226
48.19665 242
48.21677 268
48.23688 252
48.257 257
48.27711 268
48.29722 249
48.31734 265
48.33745 266
48.35756 265
48.37768 280
48.39779 245
48.4179 270
48.43802 245
48.45813 262
48.47825 293
48.49836 293
48.51847 285
48.53859 297
48.5587 273
48.57881 284
48.59893 260
48.61904 295
48.63916 335
48.65927 307
48.67938 265
48.6995 306
48.71961 343
48.73972 332
48.75984 285
48.77995 344
48.80006 316
48.82018 332
48.84029 316
48.86041 297
48.88052 296
48.90063 276
48.92075 304
48.94086 311
48.96097 282
48.98109 303
49.0012 282
49.02132 301
49.04143 288
49.06154 308
49.08166 266
49.10177 307
49.12188 285
49.142 292
49.16211 294
49.18223 263
49.20234 285
49.22245 280
49.24257 282
49.26268 257
49.28279 281
49.30291 300
49.32302 284
49.34313 305
49.36325 270
49.38336 285
49.40348 273
49.42359 291
49.4437 275
49.46382 284
49.48393 279
49.50404 255
49.52416 280
49.54427 302
49.56439 292
49.5845 263
49.60461 245
49.62473 274
49.64484 261
49.66495 280
49.68507 306
49.70518 292
49.7253 314
49.74541 336
49.76552 282
49.78564 329
49.80575 354
49.82586 353
49.84598 381
49.86609 377
49.8862 444
49.90632 439
49.92643 520
49.94655 500
49.96666 528
49.98677 658
50.00689 726
50.027 915
50.04711 1190
50.06723 1413
50.08734 1812
50.10746 1982
50.12757 2120
50.14768 2064
50.1678 1668
50.18791 1291
50.20802 1126
50.22814 1151
50.24825 1230
50.26837 1181
50.28848 1038
50.30859 778
50.32871 561
50.34882 463
50.36893 356
50.38905 378
50.40916 359
50.42927 338
50.44939 319
50.4695 357
50.48962 363
50.50973 378
50.52984 396
50.54996 389
50.57007 359
50.59018 402
50.6103 394
50.63041 369
50.65053 362
50.67064 367
50.69075 332
50.71087 362
50.73098 330
50.75109 320
50.77121 299
50.79132 285
50.81143 281
50.83155 286
50.85166 263
50.87178 280
50.89189 286
50.912 285
50.93212 291
50.95223 255
50.97234 267
50.99246 265
51.01257 245
51.03269 236
51.0528 249
51.07291 204
51.09303 270
51.11314 222
51.13325 268
51.15337 265
51.17348 262
51.1936 266
51.21371 263
51.23382 253
51.25394 258
51.27405 226
51.29416 260
51.31428 249
51.33439 245
51.3545 248
51.37462 285
51.39473 252
51.41485 256
51.43496 231
51.45507 222
51.47519 228
51.4953 238
51.51541 227
51.53553 236
51.55564 267
51.57576 213
51.59587 223
51.61598 196
51.6361 268
51.65621 229
51.67632 238
51.69644 222
51.71655 245
51.73667 236
51.75678 218
51.77689 212
51.79701 209
51.81712 203
51.83723 230
51.85735 188
51.87746 218
51.89757 198
51.91769 230
51.9378 204
51.95792 241
51.97803 205
51.99814 206
52.01826 234
52.03837 207
52.05848 268
52.0786 229
52.09871 237
52.11883 225
52.13894 237
52.15905 245
52.17917 238
52.19928 243
52.21939 243
52.23951 269
52.25962 238
52.27974 237
52.29985 249
52.31996 236
52.34008 241
52.36019 226
52.3803 243
52.40042 228
52.42053 254
52.44064 242
52.46076 242
52.48087 214
52.50099 241
52.5211 229
52.54121 235
52.56133 223
52.58144 232
52.60155 242
52.62167 238
52.64178 225
52.6619 240
52.68201 228
52.70212 280
52.72224 238
52.74235 258
52.76246 255
52.78258 273
52.80269 255
52.8228 252
52.84292 266
52.86303 261
52.88315 285
52.90326 296
52.92337 268
52.94349 264
52.9636 315
52.98371 334
53.00383 285
53.02394 293
53.04406 346
53.06417 341
53.08428 318
53.1044 331
53.12451 331
53.14462 338
53.16474 319
53.18485 315
53.20497 319
53.22508 315
53.24519 299
53.26531 322
53.28542 318
53.30553 285
53.32565 328
53.34576 287
53.36587 283
53.38599 305
53.4061 303
53.42622 272
53.44633 314
53.46644 257
53.48656 282
53.50667 244
53.52678 275
53.5469 270
53.56701 249
53.58713 261
53.60724 260
53.62735 281
53.64747 261
53.66758 282
53.68769 254
53.70781 274
53.72792 250
53.74804 247
53.76815 285
53.78826 285
53.80838 253
53.82849 288
53.8486 290
53.86872 255
53.88883 276
53.90894 267
53.92906 279
53.94917 284
53.96929 293
53.9894 307
54.00951 317
54.02963 284
54.04974 278
54.06985 282
54.08997 285
54.11008 260
54.1302 252
54.15031 269
54.17042 288
54.19054 273
54.21065 323
54.23076 249
54.25088 260
54.27099 257
54.29111 274
54.31122 275
54.33133 272
54.35145 260
54.37156 268
54.39167 269
54.41179 262
54.4319 251
54.45201 264
54.47213 266
54.49224 260
54.51236 226
54.53247 269
54.55258 250
54.5727 271
54.59281 264
54.61292 258
54.63304 267
54.65315 287
54.67327 294
54.69338 310
54.71349 340
54.73361 362
54.75372 425
54.77383 482
54.79395 529
54.81406 597
54.83417 637
54.85429 728
54.8744 703
54.89452 617
54.91463 541
54.93474 466
54.95486 491
54.97497 444
54.99508 445
55.0152 507
55.03531 430
55.05543 371
55.07554 304
55.09565 320
55.11577 270
55.13588 291
55.15599 292
55.17611 302
55.19622 325
55.21634 315
55.23645 376
55.25656 370
55.27668 422
55.29679 440
55.3169 435
55.33702 430
55.35713 396
55.37724 365
55.39736 335
55.41747 362
55.43759 381
55.4577 343
55.47781 361
55.49793 327
55.51804 288
55.53815 309
55.55827 312
55.57838 305
55.5985 263
55.61861 258
55.63872 303
55.65884 259
55.67895 241
55.69906 243
55.71918 239
55.73929 255
55.75941 237
55.77952 220
55.79963 237
55.81975 255
55.83986 245
55.85997 248
55.88009 241
55.9002 212
55.92031 211
55.94043 246
55.96054 234
55.98066 213
56.00077 255
56.02088 223
56.041 250
56.06111 250
56.08122 247
56.10134 227
56.12145 242
56.14157 252
56.16168 234
56.18179 223
56.20191 244
56.22202 227
56.24213 233
56.26225 232
56.28236 219
56.30248 212
56.32259 223
56.3427 241
56.36282 232
56.38293 215
56.40304 229
56.42316 226
56.44327 244
56.46338 238
56.4835 216
56.50361 259
56.52373 225
56.54384 241
56.56395 237
56.58407 228
56.60418 236
56.62429 228
56.64441 217
56.66452 248
56.68464 235
56.70475 244
56.72486 237
56.74498 230
56.76509 226
56.7852 206
56.80532 240
56.82543 233
56.84554 250
56.86566 228
56.88577 214
56.90589 234
56.926 206
56.94611 232
56.96623 201
56.98634 237
57.00645 230
57.02657 202
57.04668 229
57.0668 228
57.08691 231
57.10702 233
57.12714 232
57.14725 244
57.16736 231
57.18748 257
57.20759 254
57.22771 247
57.24782 235
57.26793 242
57.28805 217
57.30816 240
57.32827 235
57.34839 270
57.3685 229
57.38861 238
57.40873 231
57.42884 202
57.44896 208
57.46907 228
57.48918 208
57.5093 233
57.52941 223
57.54952 216
57.56964 235
57.58975 251
57.60987 208
57.62998 211
57.65009 215
57.67021 223
57.69032 207
57.71043 209
57.73055 206
57.75066 227
57.77078 242
57.79089 235
57.811 230
57.83112 245
57.85123 240
57.87134 208
57.89146 203
57.91157 217
57.93168 215
57.9518 226
57.97191 244
57.99203 218
58.01214 239
58.03225 221
58.05237 210
58.07248 219
58.09259 247
58.11271 227
58.13282 220
58.15294 214
58.17305 218
58.19316 207
58.21328 205
58.23339 210
58.2535 226
58.27362 221
58.29373 205
58.31385 210
58.33396 228
58.35407 200
58.37419 226
58.3943 192
58.41441 201
58.43453 212
58.45464 224
58.47475 213
58.49487 238
58.51498 202
58.5351 237
58.55521 216
58.57532 243
58.59544 226
58.61555 205
58.63566 230
58.65578 231
58.67589 222
58.69601 207
58.71612 243
58.73623 223
58.75635 239
58.77646 229
58.79657 222
58.81669 236
58.8368 188
58.85691 224
58.87703 219
58.89714 222
58.91726 213
58.93737 209
58.95748 183
58.9776 202
58.99771 215
59.01782 206
59.03794 219
59.05805 186
59.07817 222
59.09828 223
59.11839 216
59.13851 222
59.15862 225
59.17873 220
59.19885 216
59.21896 218
59.23908 224
59.25919 220
59.2793 222
59.29942 200
59.31953 226
59.33964 223
59.35976 222
59.37987 207
59.39998 234
59.4201 223
59.44021 226
59.46033 227
59.48044 243
59.50055 262
59.52067 220
59.54078 261
59.56089 245
59.58101 262
59.60112 255
59.62124 270
59.64135 294
59.66146 284
59.68158 296
59.70169 306
59.7218 312
59.74192 348
59.76203 391
59.78215 446
59.80226 535
59.82237 583
59.84249 714
59.8626 842
59.88271 991
59.90283 1172
59.92294 1227
59.94305 1381
59.96317 1252
59.98328 1041
60.0034 810
60.02351 719
60.04362 652
60.06374 693
60.08385 812
60.10396 797
60.12408 745
60.14419 615
60.16431 491
60.18442 377
60.20453 307
60.22465 346
60.24476 261
60.26487 265
60.28499 253
60.3051 252
60.32522 275
60.34533 251
60.36544 243
60.38556 227
60.40567 223
60.42578 222
60.4459 264
60.46601 232
60.48612 210
60.50624 234
60.52635 242
60.54647 246
60.56658 217
60.58669 239
60.60681 225
60.62692 223
60.64703 199
60.66715 242
60.68726 218
60.70738 228
60.72749 224
60.7476 206
60.76772 222
60.78783 220
60.80794 227
60.82806 211
60.84817 210
60.86828 229
60.8884 221
60.90851 235
60.92863 221
60.94874 212
60.96885 227
60.98897 233
61.00908 219
61.02919 216
61.04931 214
61.06942 224
61.08954 229
61.10965 243
61.12976 244
61.14988 242
61.16999 238
61.1901 222
61.21022 225
61.23033 223
61.25045 240
61.27056 241
61.29067 259
61.31079 250
61.3309 215
61.35101 240
61.37113 233
61.39124 250
61.41135 228
61.43147 224
61.45158 238
61.4717 254
61.49181 281
61.51192 263
61.53204 268
61.55215 279
61.57226 261
61.59238 259
61.61249 256
61.63261 279
61.65272 249
61.67283 249
61.69295 258
61.71306 247
61.73317 238
61.75329 229
61.7734 268
61.79352 235
61.81363 261
61.83374 221
61.85386 243
61.87397 219
61.89408 224
61.9142 221
61.93431 231
61.95442 224
61.97454 237
61.99465 227
62.01477 241
62.03488 237
62.05499 216
62.07511 207
62.09522 225
62.11533 227
62.13545 217
62.15556 212
62.17568 207
62.19579 209
62.2159 240
62.23602 263
62.25613 230
62.27624 216
62.29636 198
62.31647 242
62.33659 224
62.3567 217
62.37681 233
62.39693 241
62.41704 246
62.43715 223
62.45727 207
62.47738 255
62.49749 250
62.51761 189
62.53772 229
62.55784 227
62.57795 214
62.59806 215
62.61818 220
62.63829 190
62.6584 229
62.67852 212
62.69863 233
62.71875 226
62.73886 223
62.75897 227
62.77909 214
62.7992 203
62.81931 217
62.83943 262
62.85954 213
62.87965 242
62.89977 244
62.91988 251
62.94 226
62.96011 212
62.98022 237
63.00034 243
63.02045 215
63.04056 220
63.06068 228
63.08079 232
63.10091 243
63.12102 235
63.14113 243
63.16125 226
63.18136 239
63.20147 244
63.22159 275
63.2417 266
63.26182 266
63.28193 233
63.30204 244
63.32216 236
63.34227 226
63.36238 253
63.3825 240
63.40261 237
63.42272 239
63.44284 241
63.46295 234
63.48307 240
63.50318 235
63.52329 253
63.54341 227
63.56352 260
63.58363 227
63.60375 229
63.62386 230
63.64398 226
63.66409 224
63.6842 250
63.70432 226
63.72443 249
63.74454 280
63.76466 253
63.78477 254
63.80489 273
63.825 285
63.84511 294
63.86523 300
63.88534 315
63.90545 308
63.92557 368
63.94568 364
63.96579 381
63.98591 417
64.00602 419
64.02614 387
64.04625 386
64.06636 345
64.08648 343
64.10659 311
64.1267 321
64.14682 291
64.16693 334
64.18705 312
64.20716 300
64.22727 308
64.24739 263
64.2675 240
64.28761 229
64.30773 234
64.32784 216
64.34796 225
64.36807 217
64.38818 209
64.4083 230
64.42841 210
64.44852 196
64.46864 205
64.48875 185
64.50886 216
64.52898 224
64.54909 210
64.56921 206
64.58932 206
64.60943 228
64.62955 259
64.64966 225
64.66977 208
64.68989 196
64.71 217
64.73012 202
64.75023 210
64.77034 199
64.79046 227
64.81057 201
64.83068 229
64.8508 199
64.87091 207
64.89102 191
64.91114 196
64.93125 224
64.95137 227
64.97148 211
64.99159 186
65.01171 221
65.03182 214
65.05193 202
65.07205 190
65.09216 211
65.11228 217
65.13239 213
65.1525 217
65.17262 205
65.19273 210
65.21284 221
65.23296 201
65.25307 183
65.27319 215
65.2933 191
65.31341 203
65.33353 199
65.35364 205
65.37375 229
65.39387 250
65.41398 214
65.43409 203
65.45421 212
65.47432 198
65.49444 199
65.51455 197
65.53466 225
65.55478 218
65.57489 199
65.595 211
65.61512 218
65.63523 221
65.65535 203
65.67546 227
65.69557 226
65.71569 219
65.7358 244
65.75591 253
65.77603 265
65.79614 241
65.81626 222
65.83637 201
65.85648 202
65.8766 228
65.89671 228
65.91682 229
65.93694 220
65.95705 229
65.97716 220
65.99728 217
66.01739 199
66.03751 204
66.05762 191
66.07773 226
66.09785 197
66.11796 197
66.13807 193
66.15819 219
66.1783 201
66.19842 206
66.21853 199
66.23864 211
66.25876 220
66.27887 185
66.29898 229
66.3191 201
66.33921 230
66.35933 226
66.37944 230
66.39955 223
66.41967 174
66.43978 193
66.45989 216
66.48001 205
66.50012 195
66.52023 223
66.54035 201
66.56046 198
66.58058 212
66.60069 193
66.6208 210
66.64092 201
66.66103 217
66.68114 215
66.70126 190
66.72137 193
66.74149 181
66.7616 189
66.78171 181
66.80183 193
66.82194 198
66.84205 194
66.86217 197
66.88228 205
66.90239 196
66.92251 218
66.94262 214
66.96274 205
66.98285 219
67.00296 188
67.02308 219
67.04319 212
67.0633 205
67.08342 197
67.10353 202
67.12365 205
67.14376 251
67.16387 213
67.18399 213
67.2041 196
67.22421 229
67.24433 188
67.26444 212
67.28456 210
67.30467 233
67.32478 210
67.3449 228
67.36501 238
67.38512 261
67.40524 248
67.42535 260
67.44546 254
67.46558 254
67.48569 252
67.50581 276
67.52592 302
67.54603 350
67.56615 326
67.58626 372
67.60637 443
67.62649 487
67.6466 548
67.66672 652
67.68683 636
67.70694 806
67.72706 785
67.74717 784
67.76728 668
67.7874 533
67.80751 511
67.82763 482
67.84774 472
67.86785 480
67.88797 583
67.90808 599
67.92819 592
67.94831 560
67.96842 576
67.98853 573
68.00865 547
68.02876 621
68.04888 700
68.06899 774
68.0891 859
68.10922 982
68.12933 940
68.14944 981
68.16956 867
68.18967 735
68.20979 717
68.2299 773
68.25001 781
68.27013 866
68.29024 974
68.31035 916
68.33047 891
68.35058 739
68.3707 603
68.39081 520
68.41092 444
68.43104 420
68.45115 420
68.47126 418
68.49138 399
68.51149 374
68.5316 370
68.55172 332
68.57183 299
68.59195 251
68.61206 241
68.63217 235
68.65229 240
68.6724 224
68.69251 219
68.71263 218
68.73274 232
68.75286 224
68.77297 207
68.79308 214
68.8132 216
68.83331 206
68.85342 187
68.87354 201
68.89365 181
68.91376 191
68.93388 217
68.95399 195
68.97411 206
68.99422 217
69.01433 212
69.03445 211
69.05456 202
69.07467 207
69.09479 208
69.1149 202
69.13502 196
69.15513 189
69.17524 198
69.19536 189
69.21547 172
69.23558 221
69.2557 194
69.27581 212
69.29593 187
69.31604 212
69.33615 193
69.35627 194
69.37638 196
69.39649 205
69.41661 212
69.43672 182
69.45683 185
69.47695 200
69.49706 193
69.51718 192
69.53729 194
69.5574 173
69.57752 249
69.59763 202
69.61774 192
69.63786 210
69.65797 179
69.67809 199
69.6982 184
69.71831 184
69.73843 183
69.75854 205
69.77865 208
69.79877 187
69.81888 203
69.839 229
69.85911 209
69.87922 209
69.89934 199
69.91945 175
69.93956 187
69.95968 197
69.97979 206
69.9999 210
70.02002 196
70.04013 199
70.06025 197
70.08036 224
70.10047 226
70.12059 208
70.1407 211
70.16081 198
70.18093 184
70.20104 203
70.22116 186
70.24127 177
70.26138 196
70.2815 189
70.30161 164
70.32172 176
70.34184 191
70.36195 203
70.38207 172
70.40218 180
70.42229 181
70.44241 175
70.46252 198
70.48263 198
70.50275 175
70.52286 197
70.54297 206
70.56309 190
70.5832 198
70.60332 166
70.62343 204
70.64354 178
70.66366 197
70.68377 206
70.70388 175
70.724 192
70.74411 193
70.76423 180
70.78434 210
70.80445 189
70.82457 181
70.84468 179
70.86479 184
70.88491 192
70.90502 185
70.92513 171
70.94525 182
70.96536 195
70.98548 175
71.00559 174
71.0257 176
71.04582 175
71.06593 185
71.08604 201
71.10616 167
71.12627 183
71.14639 189
71.1665 170
71.18661 176
71.20673 192
71.22684 177
71.24695 185
71.26707 177
71.28718 174
71.3073 171
71.32741 193
71.34752 189
71.36764 186
71.38775 183
71.40786 177
71.42798 204
71.44809 189
71.4682 187
71.48832 184
71.50843 228
71.52855 183
71.54866 192
71.56877 181
71.58889 218
71.609 186
71.62911 197
71.64923 173
71.66934 166
71.68946 188
71.70957 182
71.72968 197
71.7498 212
71.76991 187
71.79002 179
71.81014 169
71.83025 181
71.85037 201
71.87048 161
71.89059 184
71.91071 184
71.93082 179
71.95093 187
71.97105 188
71.99116 207
72.01127 179
72.03139 188
72.0515 182
72.07162 174
72.09173 167
72.11184 179
72.13196 172
72.15207 193
72.17218 173
72.1923 179
72.21241 181
72.23253 182
72.25264 180
72.27275 209
72.29287 193
72.31298 184
72.33309 188
72.35321 179
72.37332 183
72.39344 159
72.41355 173
72.43366 172
72.45378 179
72.47389 168
72.494 172
72.51412 195
72.53423 177
72.55434 182
72.57446 174
72.59457 168
72.61469 188
72.6348 167
72.65491 175
72.67503 174
72.69514 161
72.71525 176
72.73537 185
72.75548 165
72.7756 179
72.79571 171
72.81582 186
72.83594 175
72.85605 171
72.87616 200
72.89628 186
72.91639 206
72.9365 199
72.95662 201
72.97673 163
72.99685 175
73.01696 207
73.03707 179
73.05719 198
73.0773 187
73.09741 172
73.11753 194
73.13764 229
73.15776 176
73.17787 201
73.19798 212
73.2181 186
73.23821 198
73.25832 219
73.27844 212
73.29855 246
73.31867 246
73.33878 274
73.35889 265
73.37901 339
73.39912 346
73.41923 341
73.43935 346
73.45946 341
73.47957 333
73.49969 316
73.5198 278
73.53992 290
73.56003 260
73.58014 220
73.60026 275
73.62037 237
73.64048 279
73.6606 279
73.68071 263
73.70083 253
73.72094 235
73.74105 216
73.76117 210
73.78128 203
73.80139 167
73.82151 189
73.84162 184
73.86174 181
73.88185 203
73.90196 187
73.92208 187
73.94219 178
73.9623 179
73.98242 160
74.00253 177
74.02264 168
74.04276 175
74.06287 171
74.08299 172
74.1031 181
74.12321 170
74.14333 178
74.16344 170
74.18355 181
74.20367 166
74.22378 171
74.2439 188
74.26401 186
74.28412 176
74.30424 182
74.32435 196
74.34446 178
74.36458 161
74.38469 172
74.40481 173
74.42492 213
74.44503 177
74.46515 181
74.48526 181
74.50537 193
74.52549 180
74.5456 175
74.56571 192
74.58583 177
74.60594 211
74.62606 189
74.64617 181
74.66628 162
74.6864 172
74.70651 188
74.72662 195
74.74674 181
74.76685 190
74.78697 196
74.80708 177
74.82719 186
74.84731 202
74.86742 175
74.88753 178
74.90765 164
74.92776 148
74.94787 167
74.96799 184
74.9881 172
75.00822 181
