3.00117 20324
3.02128 20207
3.0414 19480
3.06151 19059
3.08162 18540
3.10174 18121
3.12185 17550
3.14197 16873
3.16208 16674
3.18219 16065
3.20231 15635
3.22242 15335
3.24253 14606
3.26265 14071
3.28276 13785
3.30288 13265
3.32299 13263
3.3431 12414
3.36322 12252
3.38333 11686
3.40344 11436
3.42356 11138
3.44367 10688
3.46379 10418
3.4839 10018
3.50401 9490
3.52413 9290
3.54424 8709
3.56435 8566
3.58447 8423
3.60458 8045
3.62469 7846
3.64481 7467
3.66492 7212
3.68504 7090
3.70515 6544
3.72526 6417
3.74538 6068
3.76549 5839
3.7856 5752
3.80572 5393
3.82583 5365
3.84595 4969
3.86606 4690
3.88617 4536
3.90629 4447
3.9264 4229
3.94651 3891
3.96663 3984
3.98674 3806
4.00686 3651
4.02697 3603
4.04708 3261
4.0672 3097
4.08731 3018
4.10742 2854
4.12754 2866
4.14765 2627
4.16776 2419
4.18788 2511
4.20799 2449
4.22811 2455
4.24822 2247
4.26833 2146
4.28845 2235
4.30856 1957
4.32867 1965
4.34879 1783
4.3689 1822
4.38902 1828
4.40913 1680
4.42924 1770
4.44936 1604
4.46947 1570
4.48958 1634
4.5097 1524
4.52981 1520
4.54992 1434
4.57004 1427
4.59015 1473
4.61027 1417
4.63038 1352
4.65049 1323
4.67061 1298
4.69072 1282
4.71083 1246
4.73095 1243
4.75106 1259
4.77118 1103
4.79129 1158
4.8114 1138
4.83152 1105
4.85163 1090
4.87174 1113
4.89186 1055
4.91197 1040
4.93209 1050
4.9522 916
4.97231 973
4.99243 934
5.01254 960
5.03265 943
5.05277 907
5.07288 846
5.09299 878
5.11311 932
5.13322 875
5.15334 863
5.17345 813
5.19356 833
5.21368 815
5.23379 728
5.2539 752
5.27402 772
5.29413 783
5.31425 784
5.33436 740
5.35447 707
5.37459 631
5.3947 692
5.41481 704
5.43493 647
5.45504 669
5.47516 672
5.49527 665
5.51538 653
5.5355 564
5.55561 658
5.57572 643
5.59584 548
5.61595 604
5.63606 552
5.65618 557
5.67629 599
5.69641 574
5.71652 563
5.73663 589
5.75675 575
5.77686 537
5.79697 534
5.81709 570
5.8372 528
5.85732 548
5.87743 540
5.89754 490
5.91766 509
5.93777 485
5.95788 534
5.978 527
5.99811 497
6.01823 503
6.03834 533
6.05845 490
6.07857 553
6.09868 514
6.11879 501
6.13891 479
6.15902 492
6.17913 478
6.19925 469
6.21936 465
6.23948 504
6.25959 440
6.2797 515
6.29982 523
6.31993 495
6.34004 492
6.36016 530
6.38027 475
6.40039 489
6.4205 474
6.44061 459
6.46073 472
6.48084 486
6.50095 488
6.52107 507
6.54118 441
6.56129 437
6.58141 498
6.60152 441
6.62164 421
6.64175 415
6.66186 447
6.68198 461
6.70209 454
6.7222 441
6.74232 425
6.76243 492
6.78255 451
6.80266 489
6.82277 427
6.84289 455
6.863 438
6.88311 465
6.90323 448
6.92334 502
6.94346 469
6.96357 432
6.98368 439
7.0038 476
7.02391 430
7.04402 471
7.06414 429
7.08425 494
7.10436 469
7.12448 462
7.14459 501
7.16471 431
7.18482 471
7.20493 403
7.22505 441
7.24516 492
7.26527 419
7.28539 445
7.3055 451
7.32562 478
7.34573 422
7.36584 403
7.38596 468
7.40607 432
7.42618 433
7.4463 433
7.46641 452
7.48653 464
7.50664 442
7.52675 438
7.54687 429
7.56698 454
7.58709 416
7.60721 436
7.62732 419
7.64743 458
7.66755 413
7.68766 412
7.70778 450
7.72789 450
7.748 419
7.76812 444
7.78823 429
7.80834 415
7.82846 433
7.84857 421
7.86869 461
7.8888 420
7.90891 471
7.92903 517
7.94914 475
7.96925 464
7.98937 448
8.00948 443
8.0296 520
8.04971 436
8.06982 445
8.08994 420
8.11005 427
8.13016 447
8.15028 480
8.17039 420
8.1905 451
8.21062 478
8.23073 447
8.25085 444
8.27096 409
8.29107 416
8.31119 458
8.3313 423
8.35141 419
8.37153 445
8.39164 457
8.41176 409
8.43187 439
8.45198 448
8.4721 504
8.49221 405
8.51232 448
8.53244 421
8.55255 415
8.57266 458
8.59278 459
8.61289 456
8.63301 419
8.65312 436
8.67323 443
8.69335 445
8.71346 488
8.73357 448
8.75369 462
8.7738 396
8.79392 434
8.81403 478
8.83414 454
8.85426 475
8.87437 472
8.89448 386
8.9146 440
8.93471 443
8.95483 478
8.97494 458
8.99505 497
9.01517 445
9.03528 425
9.05539 452
9.07551 463
9.09562 407
9.11573 436
9.13585 461
9.15596 414
9.17608 396
9.19619 434
9.2163 436
9.23642 465
9.25653 435
9.27664 410
9.29676 440
9.31687 463
9.33699 458
9.3571 429
9.37721 404
9.39733 448
9.41744 438
9.43755 444
9.45767 441
9.47778 419
9.4979 420
9.51801 424
9.53812 426
9.55824 431
9.57835 458
9.59846 435
9.61858 447
9.63869 423
9.6588 466
9.67892 446
9.69903 419
9.71915 419
9.73926 439
9.75937 417
9.77949 413
9.7996 448
9.81971 431
9.83983 453
9.85994 460
9.88006 421
9.90017 468
9.92028 447
9.9404 431
9.96051 454
9.98062 453
10.00074 420
10.02085 453
10.04097 422
10.06108 430
10.08119 388
10.10131 430
10.12142 460
10.14153 412
10.16165 445
10.18176 425
10.20187 469
10.22199 461
10.2421 448
10.26222 478
10.28233 420
10.30244 419
10.32256 480
10.34267 409
10.36278 416
10.3829 421
10.40301 423
10.42313 399
10.44324 432
10.46335 446
10.48347 430
10.50358 447
10.52369 471
10.54381 427
10.56392 412
10.58403 431
10.60415 448
10.62426 428
10.64438 401
10.66449 456
10.6846 433
10.70472 433
10.72483 455
10.74494 440
10.76506 412
10.78517 441
10.80529 440
10.8254 425
10.84551 453
10.86563 457
10.88574 483
10.90585 446
10.92597 443
10.94608 467
10.9662 427
10.98631 440
11.00642 469
11.02654 400
11.04665 423
11.06676 419
11.08688 427
11.10699 448
11.1271 451
11.14722 447
11.16733 462
11.18745 443
11.20756 482
11.22767 467
11.24779 448
11.2679 442
11.28801 458
11.30813 442
11.32824 467
11.34836 441
11.36847 463
11.38858 444
11.4087 487
11.42881 439
11.44892 447
11.46904 428
11.48915 452
11.50927 473
11.52938 448
11.54949 476
11.56961 485
11.58972 498
11.60983 488
11.62995 501
11.65006 494
11.67017 491
11.69029 519
11.7104 506
11.73052 492
11.75063 541
11.77074 536
11.79086 511
11.81097 568
11.83108 504
11.8512 567
11.87131 560
11.89143 597
11.91154 534
11.93165 590
11.95177 605
11.97188 627
11.99199 645
12.01211 632
12.03222 681
12.05234 706
12.07245 755
12.09256 794
12.11268 794
12.13279 809
12.1529 852
12.17302 831
12.19313 870
12.21324 901
12.23336 923
12.25347 944
12.27359 913
12.2937 1002
12.31381 1044
12.33393 1010
12.35404 962
12.37415 909
12.39427 888
12.41438 843
12.4345 846
12.45461 779
12.47472 778
12.49484 750
12.51495 740
12.53506 688
12.55518 657
12.57529 629
12.5954 590
12.61552 519
12.63563 519
12.65575 546
12.67586 532
12.69597 479
12.71609 526
12.7362 508
12.75631 532
12.77643 516
12.79654 452
12.81666 471
12.83677 475
12.85688 488
12.877 434
12.89711 441
12.91722 495
12.93734 436
12.95745 438
12.97757 417
12.99768 441
13.01779 410
13.03791 455
13.05802 426
13.07813 407
13.09825 402
13.11836 467
13.13847 414
13.15859 449
13.1787 405
13.19882 449
13.21893 434
13.23904 395
13.25916 416
13.27927 434
13.29938 448
13.3195 441
13.33961 422
13.35973 407
13.37984 391
13.39995 395
13.42007 385
13.44018 437
13.46029 394
13.48041 410
13.50052 436
13.52064 407
13.54075 428
13.56086 422
13.58098 420
13.60109 433
13.6212 430
13.64132 430
13.66143 414
13.68154 383
13.70166 430
13.72177 451
13.74189 389
13.762 392
13.78211 432
13.80223 435
13.82234 415
13.84245 405
13.86257 440
13.88268 389
13.9028 431
13.92291 432
13.94302 390
13.96314 455
13.98325 420
14.00336 451
14.02348 385
14.04359 417
14.06371 438
14.08382 376
14.10393 388
14.12405 360
14.14416 407
14.16427 394
14.18439 399
14.2045 438
14.22461 452
14.24473 416
14.26484 415
14.28496 358
14.30507 382
14.32518 356
14.3453 397
14.36541 404
14.38552 403
14.40564 411
14.42575 399
14.44587 366
14.46598 408
14.48609 421
14.50621 421
14.52632 415
14.54643 412
14.56655 426
14.58666 380
14.60677 396
14.62689 383
14.647 367
14.66712 431
14.68723 407
14.70734 418
14.72746 403
14.74757 384
14.76768 385
14.7878 413
14.80791 411
14.82803 388
14.84814 426
14.86825 404
14.88837 422
14.90848 411
14.92859 389
14.94871 402
14.96882 399
14.98894 353
15.00905 414
15.02916 402
15.04928 410
15.06939 367
15.0895 398
15.10962 406
15.12973 375
15.14984 369
15.16996 424
15.19007 402
15.21019 388
15.2303 401
15.25041 371
15.27053 422
15.29064 393
15.31075 394
15.33087 414
15.35098 422
15.3711 403
15.39121 362
15.41132 372
15.43144 423
15.45155 398
15.47166 361
15.49178 368
15.51189 406
15.53201 390
15.55212 375
15.57223 424
15.59235 372
15.61246 408
15.63257 366
15.65269 428
15.6728 403
15.69291 382
15.71303 432
15.73314 431
15.75326 368
15.77337 405
15.79348 414
15.8136 393
15.83371 359
15.85382 360
15.87394 370
15.89405 376
15.91417 399
15.93428 379
15.95439 395
15.97451 399
15.99462 368
16.01473 389
16.03485 382
16.05496 377
16.07508 434
16.09519 413
16.1153 383
16.13542 421
16.15553 395
16.17564 409
16.19576 389
16.21587 412
16.23598 407
16.2561 379
16.27621 391
16.29633 382
16.31644 413
16.33655 416
16.35667 386
16.37678 408
16.39689 445
16.41701 366
16.43712 401
16.45724 346
16.47735 399
16.49746 407
16.51758 431
16.53769 406
16.5578 394
16.57792 397
16.59803 393
16.61814 441
16.63826 363
16.65837 383
16.67849 413
16.6986 401
16.71871 364
16.73883 385
16.75894 422
16.77905 384
16.79917 394
16.81928 416
16.8394 405
16.85951 431
16.87962 409
16.89974 419
16.91985 417
16.93996 397
16.96008 374
16.98019 405
17.00031 391
17.02042 396
17.04053 395
17.06065 377
17.08076 402
17.10087 411
17.12099 437
17.1411 412
17.16121 412
17.18133 425
17.20144 400
17.22156 398
17.24167 407
17.26178 426
17.2819 418
17.30201 402
17.32212 416
17.34224 380
17.36235 431
17.38247 408
17.40258 409
17.42269 411
17.44281 395
17.46292 414
17.48303 405
17.50315 417
17.52326 407
17.54338 401
17.56349 413
17.5836 392
17.60372 370
17.62383 404
17.64394 432
17.66406 395
17.68417 399
17.70428 399
17.7244 423
17.74451 429
17.76463 418
17.78474 433
17.80485 446
17.82497 415
17.84508 458
17.86519 429
17.88531 433
17.90542 420
17.92554 424
17.94565 407
17.96576 418
17.98588 403
18.00599 399
18.0261 423
18.04622 409
18.06633 403
18.08645 422
18.10656 436
18.12667 407
18.14679 442
18.1669 426
18.18701 431
18.20713 387
18.22724 404
18.24735 405
18.26747 390
18.28758 404
18.3077 420
18.32781 460
18.34792 420
18.36804 421
18.38815 389
18.40826 371
18.42838 370
18.44849 408
18.46861 337
18.48872 415
18.50883 431
18.52895 378
18.54906 405
18.56917 407
18.58929 412
18.6094 429
18.62951 421
18.64963 428
18.66974 425
18.68986 389
18.70997 405
18.73008 445
18.7502 404
18.77031 400
18.79042 368
18.81054 441
18.83065 392
18.85077 448
18.87088 399
18.89099 417
18.91111 417
18.93122 396
18.95133 442
18.97145 425
18.99156 421
19.01168 390
19.03179 401
19.0519 419
19.07202 425
19.09213 364
19.11224 412
19.13236 430
19.15247 393
19.17258 415
19.1927 474
19.21281 425
19.23293 421
19.25304 430
19.27315 447
19.29327 419
19.31338 403
19.33349 452
19.35361 410
19.37372 416
19.39384 420
19.41395 447
19.43406 446
19.45418 427
19.47429 463
19.4944 446
19.51452 405
19.53463 471
19.55475 483
19.57486 456
19.59497 495
19.61509 590
19.6352 543
19.65531 534
19.67543 570
19.69554 681
19.71565 691
19.73577 693
19.75588 756
19.776 826
19.79611 834
19.81622 897
19.83634 830
19.85645 928
19.87656 884
19.89668 859
19.91679 863
19.93691 827
19.95702 797
19.97713 747
19.99725 793
20.01736 754
20.03747 737
20.05759 754
20.0777 742
20.09782 705
20.11793 731
20.13804 750
20.15816 724
20.17827 739
20.19838 713
20.2185 710
20.23861 755
20.25872 758
20.27884 745
20.29895 738
20.31907 816
20.33918 738
20.35929 820
20.37941 779
20.39952 768
20.41963 709
20.43975 763
20.45986 808
20.47998 801
20.50009 836
20.5202 824
20.54032 829
20.56043 852
20.58054 801
20.60066 815
20.62077 859
20.64088 1005
20.661 1061
20.68111 1260
20.70123 1436
20.72134 1778
20.74145 2029
20.76157 2525
20.78168 2723
20.80179 3093
20.82191 3163
20.84202 2843
20.86214 2548
20.88225 2138
20.90236 1678
20.92248 1399
20.94259 1159
20.9627 948
20.98282 879
21.00293 893
21.02305 849
21.04316 814
21.06327 776
21.08339 819
21.1035 825
21.12361 851
21.14373 793
21.16384 881
21.18395 786
21.20407 868
21.22418 899
21.2443 944
21.26441 944
21.28452 899
21.30464 896
21.32475 915
21.34486 881
21.36498 860
21.38509 831
21.40521 830
21.42532 832
21.44543 764
21.46555 762
21.48566 867
21.50577 743
21.52589 726
21.546 730
21.56612 729
21.58623 674
21.60634 763
21.62646 688
21.64657 657
21.66668 660
21.6868 600
21.70691 615
21.72702 693
21.74714 651
21.76725 613
21.78737 594
21.80748 579
21.82759 645
21.84771 619
21.86782 672
21.88793 618
21.90805 655
21.92816 623
21.94828 608
21.96839 606
21.9885 630
22.00862 585
22.02873 615
22.04884 583
22.06896 588
22.08907 588
22.10919 625
22.1293 612
22.14941 607
22.16953 545
22.18964 543
22.20975 566
22.22987 549
22.24998 567
22.27009 560
22.29021 583
22.31032 567
22.33044 574
22.35055 612
22.37066 553
22.39078 546
22.41089 582
22.431 548
22.45112 569
22.47123 548
22.49135 537
22.51146 556
22.53157 584
22.55169 572
22.5718 544
22.59191 565
22.61203 531
22.63214 535
22.65225 565
22.67237 512
22.69248 550
22.7126 524
22.73271 573
22.75282 545
22.77294 552
22.79305 569
22.81316 544
22.83328 601
22.85339 557
22.87351 541
22.89362 563
22.91373 547
22.93385 571
22.95396 497
22.97407 507
22.99419 506
23.0143 506
23.03442 533
23.05453 499
23.07464 473
23.09476 539
23.11487 538
23.13498 526
23.1551 525
23.17521 490
23.19532 560
23.21544 552
23.23555 523
23.25567 484
23.27578 513
23.29589 495
23.31601 530
23.33612 537
23.35623 475
23.37635 486
23.39646 487
23.41658 524
23.43669 544
23.4568 498
23.47692 529
23.49703 515
23.51714 500
23.53726 521
23.55737 540
23.57749 551
23.5976 550
23.61771 533
23.63783 467
23.65794 520
23.67805 549
23.69817 589
23.71828 578
23.73839 572
23.75851 530
23.77862 561
23.79874 543
23.81885 542
23.83896 546
23.85908 611
23.87919 600
23.8993 567
23.91942 552
23.93953 552
23.95965 596
23.97976 555
23.99987 619
24.01999 590
24.0401 598
24.06021 569
24.08033 584
24.10044 589
24.12056 546
24.14067 601
24.16078 577
24.1809 555
24.20101 577
24.22112 546
24.24124 583
24.26135 602
24.28146 590
24.30158 567
24.32169 560
24.34181 614
24.36192 588
24.38203 629
24.40215 611
24.42226 606
24.44237 635
24.46249 624
24.4826 621
24.50272 661
24.52283 634
24.54294 641
24.56306 721
24.58317 716
24.60328 721
24.6234 688
24.64351 752
24.66362 840
24.68374 772
24.70385 880
24.72397 865
24.74408 899
24.76419 855
24.78431 913
24.80442 827
24.82453 900
24.84465 935
24.86476 946
24.88488 914
24.90499 842
24.9251 850
24.94522 816
24.96533 832
24.98544 781
25.00556 781
25.02567 768
25.04579 750
25.0659 741
25.08601 717
25.10613 686
25.12624 650
25.14635 689
25.16647 651
25.18658 701
25.20669 679
25.22681 659
25.24692 634
25.26704 664
25.28715 615
25.30726 642
25.32738 627
25.34749 596
25.3676 575
25.38772 600
25.40783 548
25.42795 538
25.44806 617
25.46817 550
25.48829 610
25.5084 575
25.52851 588
25.54863 540
25.56874 531
25.58886 519
25.60897 571
25.62908 569
25.6492 600
25.66931 536
25.68942 549
25.70954 594
25.72965 609
25.74976 586
25.76988 548
25.78999 570
25.81011 543
25.83022 591
25.85033 629
25.87045 594
25.89056 585
25.91067 607
25.93079 575
25.9509 612
25.97102 581
25.99113 585
26.01124 587
26.03136 604
26.05147 590
26.07158 644
26.0917 672
26.11181 675
26.13193 707
26.15204 684
26.17215 682
26.19227 771
26.21238 737
26.23249 787
26.25261 816
26.27272 900
26.29283 883
26.31295 949
26.33306 1129
26.35318 1206
26.37329 1344
26.3934 1608
26.41352 2079
26.43363 2553
26.45374 3375
26.47386 4419
26.49397 5942
26.51409 7588
26.5342 9528
26.55431 11037
26.57443 12023
26.59454 11880
26.61465 10965
26.63477 9931
26.65488 8098
26.67499 6052
26.69511 4425
26.71522 3160
26.73534 2253
26.75545 1568
26.77556 1247
26.79568 1009
26.81579 920
26.8359 914
26.85602 831
26.87613 858
26.89625 799
26.91636 695
26.93647 708
26.95659 689
26.9767 700
26.99681 590
27.01693 588
27.03704 559
27.05716 618
27.07727 635
27.09738 584
27.1175 561
27.13761 563
27.15772 492
27.17784 562
27.19795 527
27.21806 535
27.23818 524
27.25829 548
27.27841 548
27.29852 528
27.31863 506
27.33875 556
27.35886 540
27.37897 521
27.39909 555
27.4192 530
27.43932 526
27.45943 571
27.47954 497
27.49966 543
27.51977 504
27.53988 507
27.56 516
27.58011 491
27.60023 546
27.62034 484
27.64045 547
27.66057 552
27.68068 585
27.70079 531
27.72091 498
27.74102 547
27.76113 567
27.78125 526
27.80136 540
27.82148 529
27.84159 577
27.8617 508
27.88182 502
27.90193 524
27.92204 496
27.94216 527
27.96227 511
27.98239 498
28.0025 503
28.02261 506
28.04273 523
28.06284 473
28.08295 437
28.10307 510
28.12318 491
28.1433 495
28.16341 472
28.18352 503
28.20364 472
28.22375 490
28.24386 476
28.26398 471
28.28409 459
28.3042 467
28.32432 485
28.34443 477
28.36455 469
28.38466 463
28.40477 486
28.42489 478
28.445 454
28.46511 456
28.48523 429
28.50534 450
28.52546 434
28.54557 491
28.56568 468
28.5858 422
28.60591 472
28.62602 454
28.64614 460
28.66625 468
28.68636 472
28.70648 451
28.72659 495
28.74671 443
28.76682 456
28.78693 441
28.80705 462
28.82716 434
28.84727 471
28.86739 466
28.8875 440
28.90762 421
28.92773 469
28.94784 458
28.96796 475
28.98807 469
29.00818 470
29.0283 431
29.04841 491
29.06853 468
29.08864 451
29.10875 479
29.12887 447
29.14898 424
29.16909 453
29.18921 464
29.20932 459
29.22943 452
29.24955 488
29.26966 459
29.28978 431
29.30989 437
29.33 445
29.35012 458
29.37023 446
29.39034 456
29.41046 455
29.43057 405
29.45069 447
29.4708 461
29.49091 467
29.51103 471
29.53114 474
29.55125 457
29.57137 507
29.59148 453
29.6116 468
29.63171 442
29.65182 476
29.67194 474
29.69205 463
29.71216 420
29.73228 426
29.75239 513
29.7725 454
29.79262 449
29.81273 472
29.83285 458
29.85296 415
29.87307 461
29.89319 428
29.9133 431
29.93341 431
29.95353 435
29.97364 482
29.99376 448
30.01387 435
30.03398 461
30.0541 467
30.07421 454
30.09432 462
30.11444 425
30.13455 501
30.15467 420
30.17478 475
30.19489 499
30.21501 458
30.23512 492
30.25523 482
30.27535 473
30.29546 456
30.31557 468
30.33569 400
30.3558 426
30.37592 467
30.39603 422
30.41614 466
30.43626 426
30.45637 444
30.47648 420
30.4966 407
30.51671 448
30.53683 461
30.55694 479
30.57705 451
30.59717 462
30.61728 451
30.63739 486
30.65751 458
30.67762 464
30.69773 472
30.71785 438
30.73796 445
30.75808 443
30.77819 457
30.7983 432
30.81842 454
30.83853 422
30.85864 470
30.87876 449
30.89887 475
30.91899 443
30.9391 428
30.95921 445
30.97933 442
30.99944 406
31.01955 430
31.03967 454
31.05978 423
31.0799 459
31.10001 471
31.12012 441
31.14024 416
31.16035 410
31.18046 461
31.20058 427
31.22069 450
31.2408 481
31.26092 444
31.28103 423
31.30115 468
31.32126 413
31.34137 420
31.36149 434
31.3816 450
31.40171 439
31.42183 446
31.44194 435
31.46206 422
31.48217 419
31.50228 436
31.5224 442
31.54251 430
31.56262 471
31.58274 443
31.60285 446
31.62297 437
31.64308 409
31.66319 445
31.68331 422
31.70342 443
31.72353 439
31.74365 410
31.76376 477
31.78387 461
31.80399 464
31.8241 414
31.84422 452
31.86433 433
31.88444 455
31.90456 420
31.92467 459
31.94478 448
31.9649 441
31.98501 447
32.00513 489
32.02524 429
32.04535 451
32.06547 441
32.08558 476
32.10569 460
32.12581 433
32.14592 482
32.16604 433
32.18615 422
32.20626 456
32.22638 460
32.24649 491
32.2666 500
32.28672 485
32.30683 479
32.32694 487
32.34706 504
32.36717 506
32.38729 477
32.4074 491
32.42751 484
32.44763 552
32.46774 500
32.48785 535
32.50797 502
32.52808 518
32.5482 498
32.56831 507
32.58842 496
32.60854 478
32.62865 474
32.64876 512
32.66888 493
32.68899 441
32.7091 507
32.72922 499
32.74933 517
32.76945 523
32.78956 493
32.80967 537
32.82979 525
32.8499 574
32.87001 538
32.89013 570
32.91024 526
32.93036 576
32.95047 591
32.97058 574
32.9907 608
33.01081 628
33.03092 591
33.05104 615
33.07115 595
33.09127 632
33.11138 590
33.13149 637
33.15161 663
33.17172 679
33.19183 630
33.21195 648
33.23206 617
33.25217 646
33.27229 574
33.2924 561
33.31252 572
33.33263 570
33.35274 602
33.37286 632
33.39297 580
33.41308 567
33.4332 574
33.45331 594
33.47343 552
33.49354 596
33.51365 582
33.53377 540
33.55388 561
33.57399 536
33.59411 539
33.61422 498
33.63434 526
33.65445 483
33.67456 536
33.69468 513
33.71479 509
33.7349 467
33.75502 473
33.77513 496
33.79524 480
33.81536 455
33.83547 490
33.85559 446
33.8757 444
33.89581 439
33.91593 460
33.93604 445
33.95615 494
33.97627 466
33.99638 505
34.0165 473
34.03661 428
34.05672 479
34.07684 467
34.09695 492
34.11706 425
34.13718 446
34.15729 460
34.17741 454
34.19752 420
34.21763 448
34.23775 412
34.25786 441
34.27797 474
34.29809 463
34.3182 459
34.33831 445
34.35843 437
34.37854 470
34.39866 485
34.41877 482
34.43888 483
34.459 525
34.47911 452
34.49922 466
34.51934 544
34.53945 535
34.55957 511
34.57968 514
34.59979 571
34.61991 517
34.64002 561
34.66013 568
34.68025 542
34.70036 570
34.72047 600
34.74059 620
34.7607 605
34.78082 641
34.80093 648
34.82104 698
34.84116 688
34.86127 699
34.88138 735
34.9015 773
34.92161 741
34.94173 730
34.96184 729
34.98195 693
35.00207 690
35.02218 694
35.04229 684
35.06241 683
35.08252 647
35.10264 686
35.12275 685
35.14286 700
35.16298 668
35.18309 651
35.2032 649
35.22332 645
35.24343 659
35.26354 649
35.28366 576
35.30377 622
35.32389 635
35.344 618
35.36411 645
35.38423 655
35.40434 686
35.42445 719
35.44457 721
35.46468 694
35.4848 749
35.50491 744
35.52502 764
35.54514 779
35.56525 774
35.58536 720
35.60548 832
35.62559 800
35.64571 796
35.66582 835
35.68593 761
35.70605 817
35.72616 788
35.74627 753
35.76639 784
35.7865 791
35.80661 827
35.82673 816
35.84684 769
35.86696 742
35.88707 806
35.90718 721
35.9273 706
35.94741 701
35.96752 740
35.98764 683
36.00775 698
36.02787 658
36.04798 641
36.06809 621
36.08821 609
36.10832 618
36.12843 592
36.14855 597
36.16866 611
36.18878 600
36.20889 644
36.229 644
36.24912 619
36.26923 592
36.28934 662
36.30946 688
36.32957 755
36.34968 772
36.3698 837
36.38991 999
36.41003 991
36.43014 1111
36.45025 1161
36.47037 1258
36.49048 1213
36.51059 1242
36.53071 1089
36.55082 1028
36.57094 985
36.59105 923
36.61116 778
36.63128 777
36.65139 718
36.6715 596
36.69162 623
36.71173 606
36.73184 599
36.75196 655
36.77207 606
36.79219 606
36.8123 658
36.83241 603
36.85253 696
36.87264 608
36.89275 598
36.91287 644
36.93298 652
36.9531 640
36.97321 582
36.99332 582
37.01344 599
37.03355 538
37.05366 526
37.07378 596
37.09389 565
37.11401 531
37.13412 542
37.15423 550
37.17435 536
37.19446 517
37.21457 552
37.23469 520
37.2548 553
37.27491 577
37.29503 529
37.31514 553
37.33526 560
37.35537 555
37.37548 533
37.3956 530
37.41571 570
37.43582 538
37.45594 546
37.47605 585
37.49617 540
37.51628 561
37.53639 564
37.55651 529
37.57662 563
37.59673 510
37.61685 563
37.63696 558
37.65708 500
37.67719 539
37.6973 494
37.71742 544
37.73753 544
37.75764 563
37.77776 592
37.79787 551
37.81798 540
37.8381 556
37.85821 544
37.87833 575
37.89844 569
37.91855 587
37.93867 524
37.95878 552
37.97889 564
37.99901 577
38.01912 568
38.03924 581
38.05935 568
38.07946 661
38.09958 581
38.11969 612
38.1398 612
38.15992 665
38.18003 578
38.20015 698
38.22026 666
38.24037 669
38.26049 671
38.2806 699
38.30071 678
38.32083 718
38.34094 720
38.36105 750
38.38117 745
38.40128 714
38.4214 662
38.44151 670
38.46162 657
38.48174 662
38.50185 681
38.52196 672
38.54208 599
38.56219 599
38.58231 642
38.60242 617
38.62253 624
38.64265 617
38.66276 604
38.68287 606
38.70299 578
38.7231 597
38.74321 541
38.76333 543
38.78344 562
38.80356 536
38.82367 532
38.84378 534
38.8639 550
38.88401 590
38.90412 553
38.92424 597
38.94435 527
38.96447 587
38.98458 581
39.00469 591
39.02481 586
39.04492 573
39.06503 568
39.08515 574
39.10526 575
39.12538 596
39.14549 575
39.1656 654
39.18572 651
39.20583 686
39.22594 678
39.24606 691
39.26617 726
39.28628 847
39.3064 835
39.32651 1040
39.34663 1120
39.36674 1084
39.38685 1202
39.40697 1243
39.42708 1115
39.44719 1083
39.46731 996
39.48742 934
39.50754 857
39.52765 791
39.54776 691
39.56788 671
39.58799 601
39.6081 489
39.62822 512
39.64833 507
39.66845 488
39.68856 499
39.70867 490
39.72879 494
39.7489 495
39.76901 517
39.78913 507
39.80924 528
39.82935 484
39.84947 474
39.86958 478
39.8897 495
39.90981 500
39.92992 509
39.95004 526
39.97015 538
39.99026 511
40.01038 528
40.03049 563
40.05061 534
40.07072 617
40.09083 593
40.11095 650
40.13106 688
40.15117 729
40.17129 790
40.1914 782
40.21152 840
40.23163 782
40.25174 803
40.27186 779
40.29197 735
40.31208 691
40.3322 676
40.35231 632
40.37242 622
40.39254 555
40.41265 552
40.43277 521
40.45288 516
40.47299 458
40.49311 494
40.51322 489
40.53333 489
40.55345 487
40.57356 534
40.59368 481
40.61379 484
40.6339 500
40.65402 522
40.67413 537
40.69424 457
40.71436 490
40.73447 523
40.75458 496
40.7747 529
40.79481 510
40.81493 547
40.83504 510
40.85515 520
40.87527 514
40.89538 513
40.91549 548
40.93561 529
40.95572 514
40.97584 560
40.99595 517
41.01606 476
41.03618 535
41.05629 523
41.0764 509
41.09652 483
41.11663 505
41.13675 499
41.15686 525
41.17697 533
41.19709 521
41.2172 502
41.23731 481
41.25743 526
41.27754 470
41.29765 499
41.31777 468
41.33788 481
41.358 507
41.37811 487
41.39822 485
41.41834 483
41.43845 471
41.45856 482
41.47868 488
41.49879 505
41.51891 477
41.53902 487
41.55913 473
41.57925 469
41.59936 473
41.61947 491
41.63959 450
41.6597 424
41.67982 438
41.69993 461
41.72004 479
41.74016 450
41.76027 450
41.78038 466
41.8005 403
41.82061 455
41.84072 430
41.86084 453
41.88095 411
41.90107 451
41.92118 420
41.94129 445
41.96141 435
41.98152 427
42.00163 468
42.02175 455
42.04186 461
42.06198 449
42.08209 431
42.1022 408
42.12232 463
42.14243 483
42.16254 458
42.18266 474
42.20277 503
42.22289 559
42.243 567
42.26311 575
42.28323 689
42.30334 705
42.32345 852
42.34357 856
42.36368 885
42.38379 888
42.40391 862
42.42402 836
42.44414 786
42.46425 820
42.48436 657
42.50448 666
42.52459 560
42.5447 540
42.56482 513
42.58493 487
42.60505 444
42.62516 456
42.64527 435
42.66539 417
42.6855 433
42.70561 433
42.72573 445
42.74584 472
42.76595 464
42.78607 412
42.80618 424
42.8263 427
42.84641 417
42.86652 434
42.88664 432
42.90675 421
42.92686 410
42.94698 444
42.96709 391
42.98721 448
43.00732 414
43.02743 407
43.04755 367
43.06766 411
43.08777 401
43.10789 417
43.128 412
43.14812 430
43.16823 466
43.18834 427
43.20846 407
43.22857 416
43.24868 385
43.2688 416
43.28891 422
43.30902 448
43.32914 431
43.34925 428
43.36937 399
43.38948 399
43.40959 417
43.42971 420
43.44982 408
43.46993 427
43.49005 402
43.51016 436
43.53028 475
43.55039 399
43.5705 409
43.59062 425
43.61073 444
43.63084 445
43.65096 418
43.67107 441
43.69119 401
43.7113 397
43.73141 429
43.75153 421
43.77164 410
43.79175 403
43.81187 408
43.83198 366
43.85209 393
43.87221 425
43.89232 435
43.91244 393
43.93255 444
43.95266 407
43.97278 437
43.99289 387
44.013 401
44.03312 431
44.05323 408
44.07335 444
44.09346 378
44.11357 394
44.13369 409
44.1538 382
44.17391 456
44.19403 440
44.21414 441
44.23426 423
44.25437 405
44.27448 415
44.2946 458
44.31471 422
44.33482 382
44.35494 424
44.37505 436
44.39516 434
44.41528 424
44.43539 440
44.45551 382
44.47562 408
44.49573 433
44.51585 442
44.53596 387
44.55607 393
44.57619 441
44.5963 433
44.61642 416
44.63653 426
44.65664 417
44.67676 409
44.69687 376
44.71698 405
44.7371 446
44.75721 460
44.77732 426
44.79744 444
44.81755 417
44.83767 411
44.85778 451
44.87789 415
44.89801 426
44.91812 412
44.93823 452
44.95835 411
44.97846 411
44.99858 493
45.01869 452
45.0388 448
45.05892 448
45.07903 441
45.09914 450
45.11926 445
45.13937 405
45.15949 445
45.1796 492
45.19971 452
45.21983 470
45.23994 485
45.26005 479
45.28017 500
45.30028 524
45.32039 456
45.34051 504
45.36062 513
45.38074 492
45.40085 531
45.42096 500
45.44108 527
45.46119 535
45.4813 497
45.50142 519
45.52153 552
45.54165 574
45.56176 574
45.58187 602
45.60199 557
45.6221 643
45.64221 683
45.66233 712
45.68244 723
45.70256 760
45.72267 774
45.74278 762
45.7629 781
45.78301 720
45.80312 683
45.82324 635
45.84335 636
45.86346 616
45.88358 553
45.90369 507
45.92381 547
45.94392 483
45.96403 435
45.98415 467
46.00426 448
46.02437 464
46.04449 484
46.0646 456
46.08472 423
46.10483 435
46.12494 421
46.14506 472
46.16517 421
46.18528 418
46.2054 427
46.22551 419
46.24563 469
46.26574 449
46.28585 398
46.30597 416
46.32608 442
46.34619 454
46.36631 436
46.38642 419
46.40653 451
46.42665 441
46.44676 402
46.46688 429
46.48699 432
46.5071 426
46.52722 423
46.54733 432
46.56744 423
46.58756 454
46.60767 439
46.62779 433
46.6479 425
46.66801 459
46.68813 461
46.70824 408
46.72835 419
46.74847 460
46.76858 442
46.78869 401
46.80881 440
46.82892 438
46.84904 420
46.86915 420
46.88926 426
46.90938 446
46.92949 422
46.9496 482
46.96972 427
46.98983 408
47.00995 431
47.03006 418
47.05017 431
47.07029 430
47.0904 423
47.11051 436
47.13063 387
47.15074 424
47.17086 388
47.19097 429
47.21108 415
47.2312 449
47.25131 444
47.27142 453
47.29154 426
47.31165 424
47.33176 373
47.35188 414
47.37199 451
47.39211 458
47.41222 426
47.43233 441
47.45245 432
47.47256 432
47.49267 473
47.51279 435
47.5329 431
47.55302 422
47.57313 423
47.59324 437
47.61336 450
47.63347 420
47.65358 462
47.6737 463
47.69381 470
47.71393 440
47.73404 435
47.75415 448
47.77427 447
47.79438 427
47.81449 430
47.83461 436
47.85472 418
47.87483 418
47.89495 453
47.91506 451
47.93518 415
47.95529 437
47.9754 462
47.99552 415
48.01563 435
48.03574 415
48.05586 450
48.07597 415
48.09609 447
48.1162 460
48.13631 447
48.15643 417
48.17654 460
48.19665 445
48.21677 400
48.23688 427
48.257 444
48.27711 415
48.29722 439
48.31734 454
48.33745 434
48.35756 436
48.37768 456
48.39779 388
48.4179 414
48.43802 434
48.45813 436
48.47825 426
48.49836 419
48.51847 480
48.53859 471
48.5587 427
48.57881 430
48.59893 450
48.61904 425
48.63916 428
48.65927 430
48.67938 465
48.6995 445
48.71961 427
48.73972 446
48.75984 462
48.77995 427
48.80006 425
48.82018 447
48.84029 454
48.86041 432
48.88052 469
48.90063 417
48.92075 414
48.94086 437
48.96097 480
48.98109 446
49.0012 460
49.02132 407
49.04143 490
49.06154 433
49.08166 457
49.10177 422
49.12188 432
49.142 432
49.16211 467
49.18223 412
49.20234 407
49.22245 421
49.24257 443
49.26268 451
49.28279 487
49.30291 430
49.32302 472
49.34313 454
49.36325 512
49.38336 528
49.40348 505
49.42359 480
49.4437 532
49.46382 480
49.48393 456
49.50404 499
49.52416 494
49.54427 492
49.56439 462
49.5845 479
49.60461 446
49.62473 476
49.64484 535
49.66495 504
49.68507 487
49.70518 489
49.7253 511
49.74541 526
49.76552 525
49.78564 521
49.80575 536
49.82586 556
49.84598 551
49.86609 598
49.8862 631
49.90632 701
49.92643 746
49.94655 922
49.96666 1066
49.98677 1223
50.00689 1336
50.027 1471
50.04711 1559
50.06723 1601
50.08734 1505
50.10746 1416
50.12757 1268
50.14768 1206
50.1678 1064
50.18791 1029
50.20802 949
50.22814 886
50.24825 801
50.26837 712
50.28848 599
50.30859 532
50.32871 513
50.34882 485
50.36893 474
50.38905 465
50.40916 493
50.42927 450
50.44939 484
50.4695 463
50.48962 448
50.50973 466
50.52984 434
50.54996 485
50.57007 437
50.59018 467
50.6103 437
50.63041 452
50.65053 447
50.67064 469
50.69075 454
50.71087 455
50.73098 404
50.75109 450
50.77121 417
50.79132 438
50.81143 437
50.83155 435
50.85166 459
50.87178 473
50.89189 445
50.912 429
50.93212 466
50.95223 409
50.97234 446
50.99246 426
51.01257 425
51.03269 427
51.0528 428
51.07291 417
51.09303 445
51.11314 401
51.13325 425
51.15337 405
51.17348 400
51.1936 426
51.21371 442
51.23382 414
51.25394 438
51.27405 402
51.29416 378
51.31428 421
51.33439 417
51.3545 392
51.37462 446
51.39473 413
51.41485 394
51.43496 434
51.45507 431
51.47519 416
51.4953 408
51.51541 439
51.53553 373
51.55564 397
51.57576 385
51.59587 419
51.61598 396
51.6361 404
51.65621 409
51.67632 377
51.69644 383
51.71655 417
51.73667 416
51.75678 411
51.77689 398
51.79701 413
51.81712 407
51.83723 422
51.85735 392
51.87746 422
51.89757 435
51.91769 427
51.9378 428
51.95792 378
51.97803 453
51.99814 410
52.01826 400
52.03837 394
52.05848 392
52.0786 408
52.09871 378
52.11883 348
52.13894 375
52.15905 364
52.17917 452
52.19928 406
52.21939 418
52.23951 412
52.25962 426
52.27974 418
52.29985 378
52.31996 391
52.34008 415
52.36019 394
52.3803 377
52.40042 413
52.42053 392
52.44064 426
52.46076 437
52.48087 426
52.50099 428
52.5211 422
52.54121 386
52.56133 413
52.58144 446
52.60155 388
52.62167 456
52.64178 432
52.6619 441
52.68201 412
52.70212 420
52.72224 438
52.74235 424
52.76246 422
52.78258 440
52.80269 388
52.8228 396
52.84292 430
52.86303 410
52.88315 420
52.90326 424
52.92337 470
52.94349 422
52.9636 463
52.98371 426
53.00383 425
53.02394 431
53.04406 473
53.06417 441
53.08428 418
53.1044 443
53.12451 421
53.14462 413
53.16474 442
53.18485 443
53.20497 447
53.22508 448
53.24519 431
53.26531 454
53.28542 507
53.30553 458
53.32565 491
53.34576 458
53.36587 457
53.38599 420
53.4061 497
53.42622 486
53.44633 487
53.46644 484
53.48656 480
53.50667 490
53.52678 501
53.5469 478
53.56701 524
53.58713 485
53.60724 504
53.62735 511
53.64747 499
53.66758 505
53.68769 499
53.70781 480
53.72792 505
53.74804 498
53.76815 509
53.78826 547
53.80838 513
53.82849 504
53.8486 476
53.86872 517
53.88883 567
53.90894 526
53.92906 517
53.94917 502
53.96929 533
53.9894 513
54.00951 534
54.02963 555
54.04974 541
54.06985 514
54.08997 531
54.11008 551
54.1302 572
54.15031 550
54.17042 513
54.19054 561
54.21065 560
54.23076 542
54.25088 566
54.27099 506
54.29111 593
54.31122 557
54.33133 529
54.35145 555
54.37156 575
54.39167 577
54.41179 533
54.4319 536
54.45201 497
54.47213 554
54.49224 539
54.51236 538
54.53247 511
54.55258 556
54.5727 535
54.59281 538
54.61292 626
54.63304 624
54.65315 591
54.67327 617
54.69338 702
54.71349 713
54.73361 760
54.75372 833
54.77383 827
54.79395 853
54.81406 862
54.83417 847
54.85429 813
54.8744 715
54.89452 755
54.91463 626
54.93474 718
54.95486 705
54.97497 674
54.99508 629
55.0152 568
55.03531 566
55.05543 619
55.07554 589
55.09565 592
55.11577 581
55.13588 599
55.15599 644
55.17611 610
55.19622 599
55.21634 633
55.23645 674
55.25656 631
55.27668 683
55.29679 625
55.3169 633
55.33702 591
55.35713 546
55.37724 587
55.39736 554
55.41747 562
55.43759 542
55.4577 486
55.47781 470
55.49793 484
55.51804 502
55.53815 514
55.55827 487
55.57838 470
55.5985 479
55.61861 483
55.63872 473
55.65884 446
55.67895 474
55.69906 464
55.71918 499
55.73929 490
55.75941 454
55.77952 463
55.79963 451
55.81975 502
55.83986 493
55.85997 473
55.88009 484
55.9002 443
55.92031 440
55.94043 470
55.96054 449
55.98066 435
56.00077 458
56.02088 443
56.041 462
56.06111 462
56.08122 477
56.10134 474
56.12145 458
56.14157 413
56.16168 458
56.18179 466
56.20191 476
56.22202 441
56.24213 452
56.26225 405
56.28236 450
56.30248 483
56.32259 446
56.3427 487
56.36282 499
56.38293 439
56.40304 480
56.42316 458
56.44327 469
56.46338 440
56.4835 444
56.50361 471
56.52373 413
56.54384 462
56.56395 483
56.58407 482
56.60418 451
56.62429 449
56.64441 442
56.66452 453
56.68464 436
56.70475 450
56.72486 453
56.74498 465
56.76509 468
56.7852 434
56.80532 429
56.82543 438
56.84554 440
56.86566 434
56.88577 443
56.90589 431
56.926 440
56.94611 476
56.96623 447
56.98634 443
57.00645 473
57.02657 441
57.04668 421
57.0668 450
57.08691 434
57.10702 452
57.12714 423
57.14725 482
57.16736 435
57.18748 453
57.20759 430
57.22771 423
57.24782 432
57.26793 437
57.28805 424
57.30816 459
57.32827 446
57.34839 459
57.3685 435
57.38861 423
57.40873 426
57.42884 447
57.44896 451
57.46907 425
57.48918 433
57.5093 432
57.52941 420
57.54952 427
57.56964 452
57.58975 464
57.60987 442
57.62998 423
57.65009 465
57.67021 435
57.69032 478
57.71043 437
57.73055 426
57.75066 463
57.77078 451
57.79089 448
57.811 446
57.83112 408
57.85123 427
57.87134 396
57.89146 396
57.91157 416
57.93168 386
57.9518 442
57.97191 435
57.99203 388
58.01214 406
58.03225 426
58.05237 443
58.07248 407
58.09259 384
58.11271 422
58.13282 413
58.15294 438
58.17305 424
58.19316 387
58.21328 388
58.23339 437
58.2535 439
58.27362 417
58.29373 411
58.31385 439
58.33396 402
58.35407 409
58.37419 430
58.3943 406
58.41441 483
58.43453 411
58.45464 418
58.47475 405
58.49487 409
58.51498 413
58.5351 452
58.55521 429
58.57532 409
58.59544 417
58.61555 430
58.63566 405
58.65578 453
58.67589 399
58.69601 434
58.71612 413
58.73623 421
58.75635 407
58.77646 454
58.79657 415
58.81669 415
58.8368 446
58.85691 436
58.87703 426
58.89714 402
58.91726 416
58.93737 395
58.95748 458
58.9776 427
58.99771 450
59.01782 448
59.03794 450
59.05805 425
59.07817 437
59.09828 433
59.11839 455
59.13851 407
59.15862 436
59.17873 419
59.19885 410
59.21896 455
59.23908 424
59.25919 464
59.2793 482
59.29942 458
59.31953 487
59.33964 466
59.35976 446
59.37987 468
59.39998 463
59.4201 486
59.44021 417
59.46033 466
59.48044 450
59.50055 492
59.52067 488
59.54078 502
59.56089 524
59.58101 492
59.60112 524
59.62124 532
59.64135 526
59.66146 558
59.68158 591
59.70169 627
59.7218 696
59.74192 696
59.76203 805
59.78215 817
59.80226 944
59.82237 1038
59.84249 1122
59.8626 1130
59.88271 1170
59.90283 1130
59.92294 1002
59.94305 954
59.96317 893
59.98328 857
60.0034 847
60.02351 805
60.04362 805
60.06374 752
60.08385 742
60.10396 609
60.12408 607
60.14419 577
60.16431 485
60.18442 469
60.20453 445
60.22465 451
60.24476 433
60.26487 422
60.28499 409
60.3051 421
60.32522 445
60.34533 417
60.36544 418
60.38556 423
60.40567 414
60.42578 422
60.4459 459
60.46601 441
60.48612 435
60.50624 405
60.52635 399
60.54647 397
60.56658 435
60.58669 429
60.60681 390
60.62692 410
60.64703 441
60.66715 422
60.68726 423
60.70738 421
60.72749 394
60.7476 368
60.76772 416
60.78783 451
60.80794 405
60.82806 401
60.84817 379
60.86828 425
60.8884 450
60.90851 430
60.92863 417
60.94874 439
60.96885 424
60.98897 407
61.00908 415
61.02919 379
61.04931 386
61.06942 385
61.08954 397
61.10965 432
61.12976 402
61.14988 444
61.16999 443
61.1901 447
61.21022 432
61.23033 435
61.25045 418
61.27056 440
61.29067 398
61.31079 393
61.3309 451
61.35101 419
61.37113 446
61.39124 423
61.41135 437
61.43147 435
61.45158 440
61.4717 457
61.49181 442
61.51192 440
61.53204 412
61.55215 417
61.57226 442
61.59238 476
61.61249 456
61.63261 446
61.65272 450
61.67283 454
61.69295 483
61.71306 464
61.73317 464
61.75329 478
61.7734 489
61.79352 502
61.81363 494
61.83374 446
61.85386 471
61.87397 543
61.89408 532
61.9142 528
61.93431 510
61.95442 500
61.97454 532
61.99465 555
62.01477 552
62.03488 563
62.05499 604
62.07511 558
62.09522 626
62.11533 610
62.13545 670
62.15556 634
62.17568 619
62.19579 640
62.2159 628
62.23602 591
62.25613 646
62.27624 606
62.29636 593
62.31647 580
62.33659 591
62.3567 576
62.37681 572
62.39693 578
62.41704 568
62.43715 511
62.45727 531
62.47738 515
62.49749 542
62.51761 505
62.53772 516
62.55784 451
62.57795 469
62.59806 515
62.61818 454
62.63829 455
62.6584 468
62.67852 470
62.69863 437
62.71875 459
62.73886 466
62.75897 480
62.77909 443
62.7992 452
62.81931 438
62.83943 430
62.85954 423
62.87965 431
62.89977 477
62.91988 475
62.94 423
62.96011 475
62.98022 475
63.00034 394
63.02045 439
63.04056 482
63.06068 437
63.08079 462
63.10091 434
63.12102 470
63.14113 399
63.16125 423
63.18136 411
63.20147 459
63.22159 452
63.2417 453
63.26182 468
63.28193 481
63.30204 463
63.32216 446
63.34227 482
63.36238 412
63.3825 474
63.40261 421
63.42272 432
63.44284 430
63.46295 449
63.48307 465
63.50318 498
63.52329 443
63.54341 427
63.56352 437
63.58363 416
63.60375 455
63.62386 444
63.64398 430
63.66409 447
63.6842 463
63.70432 453
63.72443 468
63.74454 479
63.76466 468
63.78477 492
63.80489 491
63.825 516
63.84511 583
63.86523 546
63.88534 616
63.90545 631
63.92557 625
63.94568 601
63.96579 604
63.98591 623
64.00602 581
64.02614 589
64.04625 559
64.06636 563
64.08648 567
64.10659 512
64.1267 596
64.14682 511
64.16693 531
64.18705 513
64.20716 502
64.22727 455
64.24739 481
64.2675 474
64.28761 441
64.30773 457
64.32784 490
64.34796 454
64.36807 425
64.38818 427
64.4083 426
64.42841 437
64.44852 454
64.46864 407
64.48875 412
64.50886 415
64.52898 455
64.54909 446
64.56921 409
64.58932 402
64.60943 400
64.62955 465
64.64966 410
64.66977 406
64.68989 377
64.71 396
64.73012 446
64.75023 395
64.77034 417
64.79046 397
64.81057 422
64.83068 405
64.8508 419
64.87091 405
64.89102 371
64.91114 425
64.93125 405
64.95137 409
64.97148 443
64.99159 422
65.01171 440
65.03182 400
65.05193 405
65.07205 410
65.09216 423
65.11228 414
65.13239 367
65.1525 399
65.17262 393
65.19273 381
65.21284 397
65.23296 403
65.25307 405
65.27319 383
65.2933 386
65.31341 403
65.33353 337
65.35364 410
65.37375 393
65.39387 406
65.41398 411
65.43409 370
65.45421 402
65.47432 394
65.49444 412
65.51455 387
65.53466 357
65.55478 397
65.57489 393
65.595 413
65.61512 413
65.63523 403
65.65535 443
65.67546 437
65.69557 415
65.71569 450
65.7358 427
65.75591 456
65.77603 416
65.79614 388
65.81626 427
65.83637 479
65.85648 435
65.8766 390
65.89671 454
65.91682 400
65.93694 396
65.95705 454
65.97716 418
65.99728 437
66.01739 415
66.03751 404
66.05762 413
66.07773 383
66.09785 393
66.11796 393
66.13807 391
66.15819 393
66.1783 364
66.19842 433
66.21853 417
66.23864 417
66.25876 401
66.27887 401
66.29898 384
66.3191 376
66.33921 401
66.35933 401
66.37944 433
66.39955 437
66.41967 386
66.43978 401
66.45989 363
66.48001 396
66.50012 387
66.52023 400
66.54035 401
66.56046 391
66.58058 403
66.60069 384
66.6208 403
66.64092 395
66.66103 400
66.68114 402
66.70126 408
66.72137 375
66.74149 390
66.7616 411
66.78171 450
66.80183 427
66.82194 433
66.84205 436
66.86217 430
66.88228 416
66.90239 422
66.92251 426
66.94262 436
66.96274 423
66.98285 402
67.00296 427
67.02308 413
67.04319 453
67.0633 417
67.08342 458
67.10353 396
67.12365 453
67.14376 414
67.16387 417
67.18399 397
67.2041 437
67.22421 435
67.24433 425
67.26444 464
67.28456 426
67.30467 413
67.32478 437
67.3449 446
67.36501 450
67.38512 436
67.40524 486
67.42535 458
67.44546 460
67.46558 487
67.48569 529
67.50581 554
67.52592 618
67.54603 644
67.56615 651
67.58626 752
67.60637 764
67.62649 813
67.6466 838
67.66672 790
67.68683 787
67.70694 767
67.72706 700
67.74717 644
67.76728 688
67.7874 720
67.80751 704
67.82763 715
67.84774 756
67.86785 729
67.88797 705
67.90808 747
67.92819 767
67.94831 752
67.96842 767
67.98853 913
68.00865 937
68.02876 967
68.04888 928
68.06899 1008
68.0891 1021
68.10922 917
68.12933 945
68.14944 892
68.16956 927
68.18967 924
68.20979 897
68.2299 1003
68.25001 931
68.27013 869
68.29024 804
68.31035 781
68.33047 668
68.35058 635
68.3707 637
68.39081 586
68.41092 605
68.43104 570
68.45115 571
68.47126 499
68.49138 525
68.51149 443
68.5316 448
68.55172 431
68.57183 413
68.59195 436
68.61206 415
68.63217 410
68.65229 422
68.6724 442
68.69251 416
68.71263 465
68.73274 423
68.75286 390
68.77297 437
68.79308 432
68.8132 426
68.83331 438
68.85342 400
68.87354 400
68.89365 418
68.91376 416
68.93388 420
68.95399 420
68.97411 410
68.99422 370
69.01433 420
69.03445 392
69.05456 417
69.07467 403
69.09479 375
69.1149 381
69.13502 409
69.15513 391
69.17524 420
69.19536 403
69.21547 395
69.23558 403
69.2557 391
69.27581 426
69.29593 405
69.31604 385
69.33615 410
69.35627 392
69.37638 388
69.39649 397
69.41661 418
69.43672 398
69.45683 425
69.47695 421
69.49706 398
69.51718 381
69.53729 393
69.5574 412
69.57752 370
69.59763 386
69.61774 403
69.63786 374
69.65797 404
69.67809 368
69.6982 409
69.71831 419
69.73843 404
69.75854 396
69.77865 414
69.79877 393
69.81888 415
69.839 364
69.85911 406
69.87922 409
69.89934 432
69.91945 382
69.93956 392
69.95968 407
69.97979 385
69.9999 402
70.02002 397
70.04013 424
70.06025 373
70.08036 384
70.10047 390
70.12059 378
70.1407 393
70.16081 423
70.18093 392
70.20104 387
70.22116 404
70.24127 425
70.26138 393
70.2815 409
70.30161 399
70.32172 402
70.34184 390
70.36195 394
70.38207 341
70.40218 382
70.42229 400
70.44241 377
70.46252 401
70.48263 385
70.50275 416
70.52286 405
70.54297 360
70.56309 391
70.5832 396
70.60332 366
70.62343 367
70.64354 370
70.66366 370
70.68377 374
70.70388 415
70.724 378
70.74411 371
70.76423 379
70.78434 368
70.80445 368
70.82457 357
70.84468 387
70.86479 378
70.88491 377
70.90502 383
70.92513 397
70.94525 395
70.96536 389
70.98548 388
71.00559 388
71.0257 360
71.04582 385
71.06593 405
71.08604 366
71.10616 405
71.12627 385
71.14639 373
71.1665 372
71.18661 407
71.20673 400
71.22684 409
71.24695 371
71.26707 361
71.28718 374
71.3073 372
71.32741 402
71.34752 375
71.36764 402
71.38775 405
71.40786 383
71.42798 389
71.44809 378
71.4682 373
71.48832 407
71.50843 397
71.52855 390
71.54866 401
71.56877 371
71.58889 423
71.609 366
71.62911 395
71.64923 428
71.66934 403
71.68946 420
71.70957 425
71.72968 399
71.7498 405
71.76991 429
71.79002 384
71.81014 403
71.83025 406
71.85037 391
71.87048 401
71.89059 457
71.91071 437
71.93082 406
71.95093 433
71.97105 398
71.99116 416
72.01127 412
72.03139 368
72.0515 415
72.07162 406
72.09173 394
72.11184 415
72.13196 405
72.15207 444
72.17218 414
72.1923 406
72.21241 425
72.23253 423
72.25264 436
72.27275 392
72.29287 405
72.31298 420
72.33309 433
72.35321 394
72.37332 389
72.39344 420
72.41355 401
72.43366 375
72.45378 424
72.47389 395
72.494 391
72.51412 394
72.53423 410
72.55434 411
72.57446 412
72.59457 404
72.61469 359
72.6348 397
72.65491 401
72.67503 382
72.69514 373
72.71525 414
72.73537 390
72.75548 432
72.7756 419
72.79571 427
72.81582 365
72.83594 336
72.85605 378
72.87616 439
72.89628 390
72.91639 373
72.9365 408
72.95662 388
72.97673 405
72.99685 400
73.01696 427
73.03707 421
73.05719 390
73.0773 415
73.09741 426
73.11753 401
73.13764 415
73.15776 445
73.17787 436
73.19798 436
73.2181 403
73.23821 458
73.25832 456
73.27844 493
73.29855 497
73.31867 529
73.33878 552
73.35889 576
73.37901 545
73.39912 525
73.41923 582
73.43935 523
73.45946 504
73.47957 480
73.49969 493
73.5198 457
73.53992 498
73.56003 504
73.58014 456
73.60026 477
73.62037 496
73.64048 452
73.6606 467
73.68071 419
73.70083 414
73.72094 433
73.74105 437
73.76117 389
73.78128 379
73.80139 413
73.82151 416
73.84162 381
73.86174 413
73.88185 423
73.90196 398
73.92208 360
73.94219 409
73.9623 407
73.98242 383
74.00253 379
74.02264 385
74.04276 357
74.06287 377
74.08299 407
74.1031 391
74.12321 399
74.14333 413
74.16344 400
74.18355 366
74.20367 366
74.22378 391
74.2439 370
74.26401 381
74.28412 420
74.30424 350
74.32435 367
74.34446 391
74.36458 367
74.38469 360
74.40481 405
74.42492 404
74.44503 376
74.46515 381
74.48526 386
74.50537 412
74.52549 379
74.5456 349
74.56571 392
74.58583 357
74.60594 369
74.62606 371
74.64617 370
74.66628 378
74.6864 359
74.70651 398
74.72662 383
74.74674 381
74.76685 375
74.78697 406
74.80708 380
74.82719 386
74.84731 404
74.86742 402
74.88753 377
74.90765 351
74.92776 375
74.94787 392
74.96799 400
74.9881 406
75.00822 380
