3.00117 20818
3.02128 20588
3.0414 20050
3.06151 19483
3.08162 18737
3.10174 18057
3.12185 17760
3.14197 17801
3.16208 16597
3.18219 16673
3.20231 15987
3.22242 15584
3.24253 15205
3.26265 14471
3.28276 14293
3.30288 13498
3.32299 13184
3.3431 12833
3.36322 12585
3.38333 12324
3.40344 11490
3.42356 11448
3.44367 10894
3.46379 10480
3.4839 10414
3.50401 9752
3.52413 9844
3.54424 9259
3.56435 8877
3.58447 8870
3.60458 8154
3.62469 7819
3.64481 7747
3.66492 7272
3.68504 7264
3.70515 6872
3.72526 6642
3.74538 6460
3.76549 6060
3.7856 5885
3.80572 5387
3.82583 5446
3.84595 5027
3.86606 4959
3.88617 4947
3.90629 4549
3.9264 4442
3.94651 4287
3.96663 4125
3.98674 4041
4.00686 3578
4.02697 3516
4.04708 3383
4.0672 3179
4.08731 3119
4.10742 2910
4.12754 2784
4.14765 2840
4.16776 2600
4.18788 2636
4.20799 2346
4.22811 2293
4.24822 2333
4.26833 2102
4.28845 2150
4.30856 1962
4.32867 1974
4.34879 1926
4.3689 1844
4.38902 1821
4.40913 1608
4.42924 1740
4.44936 1694
4.46947 1550
4.48958 1620
4.5097 1495
4.52981 1468
4.54992 1451
4.57004 1488
4.59015 1368
4.61027 1336
4.63038 1299
4.65049 1321
4.67061 1289
4.69072 1225
4.71083 1151
4.73095 1135
4.75106 1112
4.77118 1105
4.79129 1176
4.8114 1110
4.83152 1052
4.85163 1038
4.87174 1092
4.89186 1004
4.91197 958
4.93209 978
4.9522 910
4.97231 913
4.99243 969
5.01254 944
5.03265 912
5.05277 912
5.07288 823
5.09299 805
5.11311 865
5.13322 723
5.15334 830
5.17345 746
5.19356 649
5.21368 724
5.23379 695
5.2539 733
5.27402 714
5.29413 698
5.31425 660
5.33436 664
5.35447 624
5.37459 691
5.3947 581
5.41481 594
5.43493 621
5.45504 590
5.47516 658
5.49527 558
5.51538 563
5.5355 528
5.55561 561
5.57572 567
5.59584 480
5.61595 568
5.63606 560
5.65618 475
5.67629 509
5.69641 475
5.71652 463
5.73663 495
5.75675 487
5.77686 526
5.79697 513
5.81709 483
5.8372 466
5.85732 469
5.87743 482
5.89754 438
5.91766 475
5.93777 435
5.95788 498
5.978 460
5.99811 439
6.01823 439
6.03834 442
6.05845 429
6.07857 403
6.09868 449
6.11879 427
6.13891 422
6.15902 433
6.17913 414
6.19925 435
6.21936 419
6.23948 428
6.25959 432
6.2797 457
6.29982 400
6.31993 417
6.34004 389
6.36016 399
6.38027 367
6.40039 404
6.4205 374
6.44061 382
6.46073 390
6.48084 411
6.50095 349
6.52107 422
6.54118 387
6.56129 399
6.58141 367
6.60152 385
6.62164 422
6.64175 407
6.66186 405
6.68198 379
6.70209 362
6.7222 416
6.74232 370
6.76243 371
6.78255 354
6.80266 322
6.82277 392
6.84289 387
6.863 396
6.88311 375
6.90323 390
6.92334 372
6.94346 376
6.96357 387
6.98368 401
7.0038 375
7.02391 398
7.04402 380
7.06414 365
7.08425 367
7.10436 392
7.12448 366
7.14459 365
7.16471 390
7.18482 383
7.20493 372
7.22505 376
7.24516 318
7.26527 416
7.28539 388
7.3055 386
7.32562 366
7.34573 370
7.36584 369
7.38596 377
7.40607 406
7.42618 381
7.4463 353
7.46641 358
7.48653 369
7.50664 370
7.52675 377
7.54687 386
7.56698 358
7.58709 364
7.60721 359
7.62732 364
7.64743 367
7.66755 375
7.68766 393
7.70778 377
7.72789 381
7.748 348
7.76812 342
7.78823 408
7.80834 384
7.82846 354
7.84857 345
7.86869 398
7.8888 362
7.90891 357
7.92903 353
7.94914 351
7.96925 399
7.98937 408
8.00948 377
8.0296 365
8.04971 336
8.06982 358
8.08994 368
8.11005 354
8.13016 372
8.15028 386
8.17039 417
8.1905 360
8.21062 375
8.23073 397
8.25085 383
8.27096 375
8.29107 377
8.31119 420
8.3313 413
8.35141 397
8.37153 380
8.39164 412
8.41176 355
8.43187 434
8.45198 406
8.4721 399
8.49221 430
8.51232 384
8.53244 385
8.55255 371
8.57266 440
8.59278 406
8.61289 398
8.63301 417
8.65312 414
8.67323 475
8.69335 478
8.71346 397
8.73357 446
8.75369 417
8.7738 450
8.79392 451
8.81403 462
8.83414 488
8.85426 421
8.87437 457
8.89448 495
8.9146 459
8.93471 431
8.95483 481
8.97494 413
8.99505 401
9.01517 427
9.03528 409
9.05539 384
9.07551 412
9.09562 396
9.11573 374
9.13585 358
9.15596 399
9.17608 353
9.19619 414
9.2163 373
9.23642 401
9.25653 382
9.27664 403
9.29676 399
9.31687 351
9.33699 354
9.3571 372
9.37721 382
9.39733 390
9.41744 359
9.43755 382
9.45767 364
9.47778 320
9.4979 366
9.51801 385
9.53812 375
9.55824 347
9.57835 365
9.59846 355
9.61858 341
9.63869 339
9.6588 380
9.67892 392
9.69903 357
9.71915 359
9.73926 363
9.75937 332
9.77949 351
9.7996 321
9.81971 373
9.83983 341
9.85994 329
9.88006 350
9.90017 352
9.92028 392
9.9404 347
9.96051 334
9.98062 384
10.00074 314
10.02085 384
10.04097 347
10.06108 373
10.08119 365
10.10131 391
10.12142 351
10.14153 385
10.16165 350
10.18176 374
10.20187 385
10.22199 325
10.2421 334
10.26222 369
10.28233 331
10.30244 361
10.32256 347
10.34267 340
10.36278 357
10.3829 350
10.40301 363
10.42313 353
10.44324 379
10.46335 338
10.48347 327
10.50358 342
10.52369 341
10.54381 333
10.56392 383
10.58403 348
10.60415 349
10.62426 358
10.64438 360
10.66449 347
10.6846 341
10.70472 353
10.72483 360
10.74494 314
10.76506 358
10.78517 330
10.80529 340
10.8254 344
10.84551 385
10.86563 348
10.88574 332
10.90585 331
10.92597 350
10.94608 382
10.9662 369
10.98631 377
11.00642 367
11.02654 381
11.04665 364
11.06676 368
11.08688 402
11.10699 358
11.1271 332
11.14722 350
11.16733 360
11.18745 388
11.20756 364
11.22767 359
11.24779 367
11.2679 343
11.28801 334
11.30813 359
11.32824 368
11.34836 364
11.36847 398
11.38858 402
11.4087 395
11.42881 390
11.44892 369
11.46904 337
11.48915 362
11.50927 406
11.52938 362
11.54949 385
11.56961 378
11.58972 378
11.60983 340
11.62995 390
11.65006 366
11.67017 386
11.69029 405
11.7104 365
11.73052 412
11.75063 366
11.77074 354
11.79086 405
11.81097 374
11.83108 425
11.8512 414
11.87131 405
11.89143 456
11.91154 408
11.93165 421
11.95177 416
11.97188 408
11.99199 409
12.01211 405
12.03222 421
12.05234 433
12.07245 530
12.09256 487
12.11268 465
12.13279 479
12.1529 499
12.17302 479
12.19313 481
12.21324 509
12.23336 481
12.25347 501
12.27359 543
12.2937 483
12.31381 490
12.33393 548
12.35404 545
12.37415 539
12.39427 505
12.41438 444
12.4345 455
12.45461 481
12.47472 427
12.49484 460
12.51495 435
12.53506 451
12.55518 405
12.57529 398
12.5954 424
12.61552 412
12.63563 408
12.65575 420
12.67586 378
12.69597 401
12.71609 412
12.7362 394
12.75631 360
12.77643 364
12.79654 351
12.81666 331
12.83677 370
12.85688 350
12.877 371
12.89711 357
12.91722 342
12.93734 357
12.95745 360
12.97757 356
12.99768 352
13.01779 339
13.03791 324
13.05802 300
13.07813 366
13.09825 378
13.11836 306
13.13847 320
13.15859 331
13.1787 337
13.19882 379
13.21893 372
13.23904 348
13.25916 330
13.27927 304
13.29938 335
13.3195 334
13.33961 360
13.35973 355
13.37984 332
13.39995 294
13.42007 316
13.44018 314
13.46029 322
13.48041 323
13.50052 344
13.52064 343
13.54075 363
13.56086 296
13.58098 341
13.60109 301
13.6212 331
13.64132 329
13.66143 338
13.68154 336
13.70166 321
13.72177 297
13.74189 327
13.762 330
13.78211 328
13.80223 341
13.82234 351
13.84245 294
13.86257 299
13.88268 318
13.9028 326
13.92291 322
13.94302 340
13.96314 291
13.98325 318
14.00336 303
14.02348 324
14.04359 300
14.06371 303
14.08382 314
14.10393 292
14.12405 331
14.14416 319
14.16427 312
14.18439 275
14.2045 364
14.22461 303
14.24473 320
14.26484 327
14.28496 326
14.30507 308
14.32518 344
14.3453 321
14.36541 321
14.38552 315
14.40564 337
14.42575 319
14.44587 308
14.46598 320
14.48609 302
14.50621 316
14.52632 359
14.54643 284
14.56655 301
14.58666 339
14.60677 307
14.62689 299
14.647 307
14.66712 320
14.68723 337
14.70734 319
14.72746 300
14.74757 355
14.76768 303
14.7878 328
14.80791 288
14.82803 290
14.84814 317
14.86825 319
14.88837 322
14.90848 300
14.92859 294
14.94871 272
14.96882 322
14.98894 354
15.00905 312
15.02916 320
15.04928 313
15.06939 319
15.0895 320
15.10962 304
15.12973 290
15.14984 330
15.16996 306
15.19007 341
15.21019 288
15.2303 304
15.25041 311
15.27053 320
15.29064 303
15.31075 312
15.33087 335
15.35098 330
15.3711 323
15.39121 277
15.41132 294
15.43144 281
15.45155 302
15.47166 324
15.49178 328
15.51189 315
15.53201 312
15.55212 297
15.57223 322
15.59235 310
15.61246 324
15.63257 299
15.65269 290
15.6728 305
15.69291 338
15.71303 293
15.73314 306
15.75326 305
15.77337 318
15.79348 325
15.8136 338
15.83371 306
15.85382 304
15.87394 297
15.89405 314
15.91417 303
15.93428 293
15.95439 347
15.97451 321
15.99462 359
16.01473 334
16.03485 285
16.05496 311
16.07508 338
16.09519 318
16.1153 305
16.13542 324
16.15553 330
16.17564 314
16.19576 297
16.21587 297
16.23598 298
16.2561 280
16.27621 306
16.29633 282
16.31644 306
16.33655 305
16.35667 321
16.37678 284
16.39689 304
16.41701 331
16.43712 311
16.45724 324
16.47735 318
16.49746 336
16.51758 329
16.53769 317
16.5578 287
16.57792 283
16.59803 319
16.61814 297
16.63826 331
16.65837 298
16.67849 323
16.6986 305
16.71871 255
16.73883 356
16.75894 315
16.77905 294
16.79917 300
16.81928 348
16.8394 278
16.85951 313
16.87962 310
16.89974 329
16.91985 291
16.93996 300
16.96008 284
16.98019 313
17.00031 319
17.02042 292
17.04053 310
17.06065 374
17.08076 305
17.10087 326
17.12099 295
17.1411 362
17.16121 318
17.18133 314
17.20144 309
17.22156 323
17.24167 326
17.26178 334
17.2819 334
17.30201 291
17.32212 328
17.34224 318
17.36235 323
17.38247 319
17.40258 302
17.42269 328
17.44281 325
17.46292 315
17.48303 295
17.50315 315
17.52326 314
17.54338 329
17.56349 314
17.5836 298
17.60372 331
17.62383 348
17.64394 361
17.66406 355
17.68417 346
17.70428 358
17.7244 384
17.74451 395
17.76463 383
17.78474 383
17.80485 352
17.82497 379
17.84508 330
17.86519 393
17.88531 362
17.90542 315
17.92554 331
17.94565 344
17.96576 360
17.98588 263
18.00599 336
18.0261 320
18.04622 339
18.06633 304
18.08645 319
18.10656 327
18.12667 300
18.14679 301
18.1669 336
18.18701 348
18.20713 310
18.22724 327
18.24735 312
18.26747 356
18.28758 297
18.3077 315
18.32781 362
18.34792 348
18.36804 312
18.38815 278
18.40826 320
18.42838 320
18.44849 286
18.46861 334
18.48872 304
18.50883 354
18.52895 341
18.54906 313
18.56917 305
18.58929 315
18.6094 319
18.62951 321
18.64963 280
18.66974 333
18.68986 317
18.70997 335
18.73008 309
18.7502 334
18.77031 320
18.79042 297
18.81054 359
18.83065 339
18.85077 351
18.87088 298
18.89099 323
18.91111 278
18.93122 302
18.95133 334
18.97145 349
18.99156 303
19.01168 330
19.03179 304
19.0519 325
19.07202 329
19.09213 342
19.11224 334
19.13236 314
19.15247 306
19.17258 310
19.1927 318
19.21281 309
19.23293 324
19.25304 314
19.27315 328
19.29327 360
19.31338 352
19.33349 345
19.35361 367
19.37372 361
19.39384 350
19.41395 323
19.43406 360
19.45418 364
19.47429 390
19.4944 373
19.51452 420
19.53463 416
19.55475 400
19.57486 418
19.59497 437
19.61509 471
19.6352 495
19.65531 541
19.67543 581
19.69554 629
19.71565 627
19.73577 702
19.75588 699
19.776 754
19.79611 803
19.81622 861
19.83634 834
19.85645 819
19.87656 829
19.89668 854
19.91679 812
19.93691 806
19.95702 738
19.97713 687
19.99725 592
20.01736 631
20.03747 618
20.05759 603
20.0777 653
20.09782 606
20.11793 644
20.13804 597
20.15816 588
20.17827 613
20.19838 592
20.2185 595
20.23861 630
20.25872 620
20.27884 548
20.29895 575
20.31907 567
20.33918 553
20.35929 589
20.37941 558
20.39952 586
20.41963 616
20.43975 578
20.45986 597
20.47998 604
20.50009 646
20.5202 660
20.54032 621
20.56043 686
20.58054 728
20.60066 737
20.62077 801
20.64088 933
20.661 1022
20.68111 1225
20.70123 1392
20.72134 1736
20.74145 2088
20.76157 2597
20.78168 2854
20.80179 3207
20.82191 3394
20.84202 3341
20.86214 3080
20.88225 2569
20.90236 2071
20.92248 1606
20.94259 1302
20.9627 1006
20.98282 844
21.00293 768
21.02305 711
21.04316 637
21.06327 642
21.08339 572
21.1035 565
21.12361 592
21.14373 556
21.16384 553
21.18395 571
21.20407 630
21.22418 565
21.2443 573
21.26441 594
21.28452 573
21.30464 608
21.32475 630
21.34486 614
21.36498 582
21.38509 577
21.40521 634
21.42532 560
21.44543 611
21.46555 553
21.48566 560
21.50577 550
21.52589 567
21.546 569
21.56612 549
21.58623 511
21.60634 586
21.62646 533
21.64657 525
21.66668 504
21.6868 487
21.70691 502
21.72702 526
21.74714 553
21.76725 468
21.78737 492
21.80748 474
21.82759 443
21.84771 492
21.86782 410
21.88793 448
21.90805 448
21.92816 424
21.94828 477
21.96839 449
21.9885 430
22.00862 429
22.02873 462
22.04884 437
22.06896 443
22.08907 438
22.10919 444
22.1293 468
22.14941 399
22.16953 441
22.18964 466
22.20975 444
22.22987 420
22.24998 472
22.27009 479
22.29021 465
22.31032 423
22.33044 421
22.35055 448
22.37066 432
22.39078 400
22.41089 484
22.431 441
22.45112 405
22.47123 426
22.49135 460
22.51146 385
22.53157 447
22.55169 447
22.5718 438
22.59191 435
22.61203 459
22.63214 425
22.65225 465
22.67237 422
22.69248 457
22.7126 463
22.73271 484
22.75282 414
22.77294 422
22.79305 427
22.81316 454
22.83328 470
22.85339 446
22.87351 451
22.89362 448
22.91373 499
22.93385 492
22.95396 502
22.97407 500
22.99419 400
23.0143 435
23.03442 406
23.05453 396
23.07464 398
23.09476 419
23.11487 443
23.13498 435
23.1551 388
23.17521 412
23.19532 397
23.21544 410
23.23555 414
23.25567 340
23.27578 364
23.29589 422
23.31601 430
23.33612 409
23.35623 422
23.37635 414
23.39646 388
23.41658 424
23.43669 399
23.4568 420
23.47692 432
23.49703 398
23.51714 420
23.53726 416
23.55737 440
23.57749 441
23.5976 440
23.61771 381
23.63783 416
23.65794 426
23.67805 413
23.69817 440
23.71828 488
23.73839 404
23.75851 495
23.77862 458
23.79874 465
23.81885 454
23.83896 478
23.85908 471
23.87919 501
23.8993 470
23.91942 487
23.93953 472
23.95965 483
23.97976 486
23.99987 470
24.01999 486
24.0401 471
24.06021 520
24.08033 502
24.10044 494
24.12056 467
24.14067 495
24.16078 467
24.1809 486
24.20101 434
24.22112 444
24.24124 433
24.26135 421
24.28146 415
24.30158 425
24.32169 476
24.34181 405
24.36192 419
24.38203 403
24.40215 431
24.42226 432
24.44237 453
24.46249 454
24.4826 403
24.50272 449
24.52283 445
24.54294 452
24.56306 473
24.58317 468
24.60328 469
24.6234 459
24.64351 492
24.66362 520
24.68374 479
24.70385 507
24.72397 516
24.74408 505
24.76419 527
24.78431 484
24.80442 500
24.82453 519
24.84465 555
24.86476 553
24.88488 560
24.90499 519
24.9251 567
24.94522 523
24.96533 538
24.98544 478
25.00556 477
25.02567 469
25.04579 512
25.0659 513
25.08601 529
25.10613 507
25.12624 486
25.14635 486
25.16647 499
25.18658 503
25.20669 533
25.22681 521
25.24692 476
25.26704 531
25.28715 477
25.30726 524
25.32738 533
25.34749 509
25.3676 492
25.38772 550
25.40783 505
25.42795 517
25.44806 501
25.46817 516
25.48829 495
25.5084 550
25.52851 519
25.54863 542
25.56874 555
25.58886 515
25.60897 471
25.62908 498
25.6492 490
25.66931 563
25.68942 581
25.70954 490
25.72965 544
25.74976 539
25.76988 552
25.78999 521
25.81011 507
25.83022 526
25.85033 563
25.87045 518
25.89056 572
25.91067 531
25.93079 556
25.9509 552
25.97102 536
25.99113 556
26.01124 546
26.03136 609
26.05147 650
26.07158 631
26.0917 654
26.11181 669
26.13193 712
26.15204 781
26.17215 731
26.19227 791
26.21238 825
26.23249 848
26.25261 884
26.27272 933
26.29283 1049
26.31295 1137
26.33306 1301
26.35318 1489
26.37329 1789
26.3934 2077
26.41352 2608
26.43363 3351
26.45374 4188
26.47386 5376
26.49397 6870
26.51409 8522
26.5342 10558
26.55431 12481
26.57443 13854
26.59454 14470
26.61465 13972
26.63477 12797
26.65488 10949
26.67499 9003
26.69511 6868
26.71522 4928
26.73534 3633
26.75545 2563
26.77556 1923
26.79568 1409
26.81579 1285
26.8359 1147
26.85602 1082
26.87613 983
26.89625 927
26.91636 856
26.93647 777
26.95659 790
26.9767 697
26.99681 660
27.01693 607
27.03704 608
27.05716 581
27.07727 578
27.09738 533
27.1175 544
27.13761 557
27.15772 489
27.17784 492
27.19795 536
27.21806 508
27.23818 538
27.25829 523
27.27841 472
27.29852 467
27.31863 561
27.33875 470
27.35886 518
27.37897 533
27.39909 522
27.4192 505
27.43932 478
27.45943 493
27.47954 448
27.49966 474
27.51977 463
27.53988 451
27.56 456
27.58011 443
27.60023 491
27.62034 492
27.64045 452
27.66057 467
27.68068 458
27.70079 486
27.72091 492
27.74102 430
27.76113 510
27.78125 463
27.80136 511
27.82148 518
27.84159 473
27.8617 477
27.88182 470
27.90193 476
27.92204 457
27.94216 460
27.96227 422
27.98239 416
28.0025 433
28.02261 457
28.04273 409
28.06284 402
28.08295 384
28.10307 429
28.12318 423
28.1433 407
28.16341 362
28.18352 441
28.20364 374
28.22375 431
28.24386 376
28.26398 396
28.28409 424
28.3042 424
28.32432 395
28.34443 359
28.36455 402
28.38466 421
28.40477 385
28.42489 412
28.445 379
28.46511 370
28.48523 376
28.50534 407
28.52546 392
28.54557 343
28.56568 359
28.5858 390
28.60591 377
28.62602 364
28.64614 418
28.66625 392
28.68636 365
28.70648 380
28.72659 388
28.74671 341
28.76682 393
28.78693 349
28.80705 372
28.82716 378
28.84727 337
28.86739 354
28.8875 406
28.90762 346
28.92773 396
28.94784 346
28.96796 353
28.98807 367
29.00818 410
29.0283 320
29.04841 340
29.06853 360
29.08864 351
29.10875 352
29.12887 350
29.14898 361
29.16909 378
29.18921 372
29.20932 366
29.22943 382
29.24955 348
29.26966 382
29.28978 328
29.30989 356
29.33 361
29.35012 372
29.37023 353
29.39034 375
29.41046 367
29.43057 309
29.45069 357
29.4708 396
29.49091 379
29.51103 372
29.53114 377
29.55125 410
29.57137 394
29.59148 371
29.6116 388
29.63171 388
29.65182 361
29.67194 393
29.69205 422
29.71216 400
29.73228 409
29.75239 413
29.7725 463
29.79262 423
29.81273 407
29.83285 375
29.85296 435
29.87307 411
29.89319 426
29.9133 437
29.93341 400
29.95353 412
29.97364 413
29.99376 390
30.01387 403
30.03398 366
30.0541 390
30.07421 391
30.09432 402
30.11444 385
30.13455 376
30.15467 355
30.17478 370
30.19489 390
30.21501 336
30.23512 330
30.25523 379
30.27535 346
30.29546 346
30.31557 368
30.33569 376
30.3558 374
30.37592 350
30.39603 371
30.41614 345
30.43626 337
30.45637 374
30.47648 327
30.4966 353
30.51671 328
30.53683 383
30.55694 383
30.57705 331
30.59717 356
30.61728 345
30.63739 315
30.65751 348
30.67762 369
30.69773 353
30.71785 356
30.73796 355
30.75808 348
30.77819 346
30.7983 387
30.81842 371
30.83853 344
30.85864 305
30.87876 369
30.89887 376
30.91899 380
30.9391 387
30.95921 311
30.97933 362
30.99944 325
31.01955 356
31.03967 349
31.05978 356
31.0799 359
31.10001 382
31.12012 379
31.14024 419
31.16035 430
31.18046 394
31.20058 350
31.22069 439
31.2408 382
31.26092 421
31.28103 405
31.30115 380
31.32126 376
31.34137 350
31.36149 344
31.3816 386
31.40171 332
31.42183 378
31.44194 383
31.46206 364
31.48217 372
31.50228 354
31.5224 334
31.54251 367
31.56262 325
31.58274 325
31.60285 345
31.62297 335
31.64308 360
31.66319 345
31.68331 351
31.70342 359
31.72353 361
31.74365 354
31.76376 354
31.78387 323
31.80399 367
31.8241 376
31.84422 347
31.86433 363
31.88444 348
31.90456 341
31.92467 350
31.94478 360
31.9649 383
31.98501 369
32.00513 350
32.02524 332
32.04535 381
32.06547 378
32.08558 338
32.10569 393
32.12581 359
32.14592 363
32.16604 367
32.18615 358
32.20626 341
32.22638 365
32.24649 347
32.2666 369
32.28672 365
32.30683 318
32.32694 346
32.34706 359
32.36717 363
32.38729 373
32.4074 349
32.42751 380
32.44763 359
32.46774 395
32.48785 383
32.50797 369
32.52808 345
32.5482 356
32.56831 334
32.58842 351
32.60854 320
32.62865 345
32.64876 340
32.66888 330
32.68899 327
32.7091 361
32.72922 357
32.74933 354
32.76945 358
32.78956 354
32.80967 443
32.82979 365
32.8499 426
32.87001 409
32.89013 413
32.91024 449
32.93036 425
32.95047 448
32.97058 504
32.9907 535
33.01081 548
33.03092 575
33.05104 541
33.07115 553
33.09127 550
33.11138 512
33.13149 558
33.15161 512
33.17172 467
33.19183 484
33.21195 478
33.23206 445
33.25217 407
33.27229 417
33.2924 416
33.31252 414
33.33263 397
33.35274 427
33.37286 377
33.39297 378
33.41308 415
33.4332 359
33.45331 383
33.47343 359
33.49354 391
33.51365 381
33.53377 368
33.55388 360
33.57399 350
33.59411 385
33.61422 394
33.63434 380
33.65445 372
33.67456 349
33.69468 369
33.71479 393
33.7349 372
33.75502 330
33.77513 344
33.79524 315
33.81536 345
33.83547 349
33.85559 320
33.8757 327
33.89581 325
33.91593 334
33.93604 327
33.95615 339
33.97627 379
33.99638 330
34.0165 363
34.03661 325
34.05672 363
34.07684 357
34.09695 334
34.11706 339
34.13718 334
34.15729 292
34.17741 337
34.19752 353
34.21763 348
34.23775 332
34.25786 335
34.27797 346
34.29809 346
34.3182 382
34.33831 347
34.35843 360
34.37854 368
34.39866 385
34.41877 374
34.43888 482
34.459 444
34.47911 442
34.49922 444
34.51934 485
34.53945 488
34.55957 480
34.57968 486
34.59979 502
34.61991 498
34.64002 500
34.66013 548
34.68025 525
34.70036 500
34.72047 537
34.74059 547
34.7607 532
34.78082 563
34.80093 594
34.82104 666
34.84116 619
34.86127 655
34.88138 700
34.9015 738
34.92161 728
34.94173 746
34.96184 732
34.98195 709
35.00207 698
35.02218 657
35.04229 679
35.06241 625
35.08252 599
35.10264 561
35.12275 552
35.14286 549
35.16298 546
35.18309 483
35.2032 495
35.22332 467
35.24343 498
35.26354 455
35.28366 471
35.30377 466
35.32389 472
35.344 470
35.36411 521
35.38423 499
35.40434 501
35.42445 526
35.44457 533
35.46468 525
35.4848 577
35.50491 561
35.52502 605
35.54514 623
35.56525 578
35.58536 589
35.60548 560
35.62559 621
35.64571 561
35.66582 541
35.68593 532
35.70605 527
35.72616 515
35.74627 448
35.76639 494
35.7865 461
35.80661 519
35.82673 548
35.84684 485
35.86696 494
35.88707 490
35.90718 481
35.9273 489
35.94741 495
35.96752 479
35.98764 498
36.00775 486
36.02787 461
36.04798 434
36.06809 512
36.08821 461
36.10832 466
36.12843 463
36.14855 475
36.16866 438
36.18878 494
36.20889 500
36.229 504
36.24912 490
36.26923 585
36.28934 645
36.30946 647
36.32957 724
36.34968 805
36.3698 855
36.38991 954
36.41003 1034
36.43014 1126
36.45025 1251
36.47037 1237
36.49048 1329
36.51059 1310
36.53071 1241
36.55082 1112
36.57094 1047
36.59105 916
36.61116 855
36.63128 728
36.65139 604
36.6715 593
36.69162 514
36.71173 532
36.73184 439
36.75196 473
36.77207 482
36.79219 486
36.8123 505
36.83241 475
36.85253 436
36.87264 429
36.89275 495
36.91287 433
36.93298 470
36.9531 419
36.97321 440
36.99332 418
37.01344 399
37.03355 419
37.05366 412
37.07378 381
37.09389 411
37.11401 400
37.13412 424
37.15423 459
37.17435 432
37.19446 474
37.21457 422
37.23469 417
37.2548 397
37.27491 414
37.29503 437
37.31514 402
37.33526 423
37.35537 429
37.37548 401
37.3956 439
37.41571 414
37.43582 428
37.45594 402
37.47605 422
37.49617 442
37.51628 446
37.53639 421
37.55651 428
37.57662 459
37.59673 462
37.61685 439
37.63696 408
37.65708 441
37.67719 470
37.6973 431
37.71742 439
37.73753 449
37.75764 443
37.77776 410
37.79787 406
37.81798 464
37.8381 461
37.85821 448
37.87833 416
37.89844 449
37.91855 425
37.93867 417
37.95878 419
37.97889 429
37.99901 428
38.01912 426
38.03924 465
38.05935 418
38.07946 396
38.09958 394
38.11969 421
38.1398 425
38.15992 417
38.18003 424
38.20015 405
38.22026 408
38.24037 411
38.26049 409
38.2806 417
38.30071 376
38.32083 439
38.34094 412
38.36105 435
38.38117 425
38.40128 408
38.4214 437
38.44151 397
38.46162 417
38.48174 418
38.50185 425
38.52196 422
38.54208 373
38.56219 390
38.58231 411
38.60242 395
38.62253 381
38.64265 405
38.66276 366
38.68287 413
38.70299 403
38.7231 372
38.74321 367
38.76333 380
38.78344 383
38.80356 405
38.82367 376
38.84378 391
38.8639 407
38.88401 351
38.90412 379
38.92424 359
38.94435 435
38.96447 411
38.98458 416
39.00469 437
39.02481 394
39.04492 407
39.06503 422
39.08515 411
39.10526 464
39.12538 465
39.14549 479
39.1656 510
39.18572 499
39.20583 513
39.22594 546
39.24606 581
39.26617 683
39.28628 746
39.3064 837
39.32651 926
39.34663 973
39.36674 1143
39.38685 1177
39.40697 1212
39.42708 1099
39.44719 1117
39.46731 1046
39.48742 980
39.50754 833
39.52765 826
39.54776 682
39.56788 585
39.58799 516
39.6081 439
39.62822 399
39.64833 358
39.66845 361
39.68856 349
39.70867 377
39.72879 383
39.7489 368
39.76901 373
39.78913 367
39.80924 344
39.82935 383
39.84947 354
39.86958 396
39.8897 402
39.90981 428
39.92992 410
39.95004 418
39.97015 416
39.99026 447
40.01038 442
40.03049 430
40.05061 466
40.07072 485
40.09083 497
40.11095 586
40.13106 585
40.15117 613
40.17129 678
40.1914 734
40.21152 711
40.23163 792
40.25174 723
40.27186 723
40.29197 691
40.31208 627
40.3322 603
40.35231 569
40.37242 527
40.39254 473
40.41265 463
40.43277 422
40.45288 420
40.47299 395
40.49311 384
40.51322 438
40.53333 344
40.55345 402
40.57356 366
40.59368 413
40.61379 404
40.6339 419
40.65402 416
40.67413 396
40.69424 429
40.71436 394
40.73447 420
40.75458 417
40.7747 463
40.79481 378
40.81493 410
40.83504 384
40.85515 422
40.87527 411
40.89538 380
40.91549 426
40.93561 394
40.95572 406
40.97584 398
40.99595 403
41.01606 395
41.03618 381
41.05629 412
41.0764 359
41.09652 360
41.11663 394
41.13675 405
41.15686 365
41.17697 397
41.19709 383
41.2172 406
41.23731 388
41.25743 359
41.27754 371
41.29765 375
41.31777 359
41.33788 339
41.358 382
41.37811 329
41.39822 407
41.41834 362
41.43845 359
41.45856 339
41.47868 329
41.49879 342
41.51891 364
41.53902 337
41.55913 359
41.57925 377
41.59936 373
41.61947 369
41.63959 331
41.6597 352
41.67982 397
41.69993 369
41.72004 363
41.74016 357
41.76027 371
41.78038 370
41.8005 343
41.82061 378
41.84072 358
41.86084 341
41.88095 343
41.90107 364
41.92118 359
41.94129 383
41.96141 381
41.98152 384
42.00163 403
42.02175 391
42.04186 378
42.06198 385
42.08209 424
42.1022 406
42.12232 398
42.14243 414
42.16254 397
42.18266 459
42.20277 505
42.22289 574
42.243 558
42.26311 626
42.28323 695
42.30334 727
42.32345 812
42.34357 881
42.36368 949
42.38379 979
42.40391 919
42.42402 921
42.44414 845
42.46425 762
42.48436 686
42.50448 655
42.52459 617
42.5447 574
42.56482 485
42.58493 522
42.60505 439
42.62516 418
42.64527 343
42.66539 367
42.6855 356
42.70561 345
42.72573 352
42.74584 331
42.76595 321
42.78607 354
42.80618 328
42.8263 375
42.84641 306
42.86652 318
42.88664 308
42.90675 316
42.92686 303
42.94698 316
42.96709 290
42.98721 292
43.00732 311
43.02743 319
43.04755 294
43.06766 326
43.08777 308
43.10789 303
43.128 309
43.14812 303
43.16823 326
43.18834 260
43.20846 300
43.22857 303
43.24868 322
43.2688 303
43.28891 325
43.30902 324
43.32914 319
43.34925 339
43.36937 318
43.38948 328
43.40959 303
43.42971 307
43.44982 305
43.46993 319
43.49005 326
43.51016 294
43.53028 317
43.55039 309
43.5705 351
43.59062 279
43.61073 333
43.63084 293
43.65096 307
43.67107 332
43.69119 320
43.7113 328
43.73141 302
43.75153 319
43.77164 279
43.79175 282
43.81187 288
43.83198 322
43.85209 287
43.87221 309
43.89232 353
43.91244 299
43.93255 281
43.95266 345
43.97278 320
43.99289 341
44.013 331
44.03312 355
44.05323 334
44.07335 326
44.09346 328
44.11357 306
44.13369 299
44.1538 318
44.17391 301
44.19403 306
44.21414 326
44.23426 310
44.25437 350
44.27448 323
44.2946 304
44.31471 314
44.33482 316
44.35494 317
44.37505 347
44.39516 292
44.41528 320
44.43539 308
44.45551 341
44.47562 290
44.49573 302
44.51585 309
44.53596 292
44.55607 341
44.57619 281
44.5963 296
44.61642 300
44.63653 297
44.65664 330
44.67676 279
44.69687 315
44.71698 324
44.7371 331
44.75721 340
44.77732 291
44.79744 330
44.81755 328
44.83767 325
44.85778 303
44.87789 332
44.89801 334
44.91812 334
44.93823 347
44.95835 350
44.97846 319
44.99858 365
45.01869 320
45.0388 323
45.05892 341
45.07903 310
45.09914 361
45.11926 320
45.13937 321
45.15949 367
45.1796 360
45.19971 316
45.21983 327
45.23994 337
45.26005 357
45.28017 333
45.30028 326
45.32039 376
45.34051 340
45.36062 320
45.38074 359
45.40085 367
45.42096 353
45.44108 355
45.46119 433
45.4813 416
45.50142 419
45.52153 453
45.54165 456
45.56176 469
45.58187 500
45.60199 531
45.6221 578
45.64221 615
45.66233 638
45.68244 633
45.70256 683
45.72267 676
45.74278 722
45.7629 716
45.78301 657
45.80312 661
45.82324 547
45.84335 569
45.86346 490
45.88358 504
45.90369 463
45.92381 442
45.94392 407
45.96403 406
45.98415 369
46.00426 379
46.02437 336
46.04449 325
46.0646 368
46.08472 349
46.10483 361
46.12494 347
46.14506 356
46.16517 332
46.18528 344
46.2054 312
46.22551 325
46.24563 344
46.26574 324
46.28585 315
46.30597 307
46.32608 333
46.34619 272
46.36631 315
46.38642 309
46.40653 307
46.42665 329
46.44676 351
46.46688 327
46.48699 314
46.5071 336
46.52722 300
46.54733 312
46.56744 327
46.58756 345
46.60767 314
46.62779 295
46.6479 313
46.66801 312
46.68813 326
46.70824 288
46.72835 314
46.74847 307
46.76858 310
46.78869 314
46.80881 341
46.82892 329
46.84904 326
46.86915 319
46.88926 310
46.90938 309
46.92949 305
46.9496 304
46.96972 313
46.98983 273
47.00995 338
47.03006 303
47.05017 317
47.07029 298
47.0904 304
47.11051 312
47.13063 308
47.15074 305
47.17086 322
47.19097 308
47.21108 287
47.2312 330
47.25131 319
47.27142 306
47.29154 292
47.31165 291
47.33176 302
47.35188 326
47.37199 346
47.39211 300
47.41222 340
47.43233 286
47.45245 315
47.47256 296
47.49267 291
47.51279 295
47.5329 306
47.55302 325
47.57313 294
47.59324 315
47.61336 305
47.63347 330
47.65358 340
47.6737 290
47.69381 331
47.71393 305
47.73404 311
47.75415 327
47.77427 326
47.79438 334
47.81449 309
47.83461 303
47.85472 319
47.87483 323
47.89495 305
47.91506 297
47.93518 292
47.95529 325
47.9754 280
47.99552 316
48.01563 297
48.03574 325
48.05586 293
48.07597 306
48.09609 325
48.1162 280
48.13631 355
48.15643 315
48.17654 337
48.19665 332
48.21677 343
48.23688 322
48.257 320
48.27711 311
48.29722 303
48.31734 303
48.33745 323
48.35756 338
48.37768 302
48.39779 347
48.4179 326
48.43802 322
48.45813 317
48.47825 288
48.49836 292
48.51847 310
48.53859 350
48.5587 334
48.57881 322
48.59893 290
48.61904 267
48.63916 292
48.65927 285
48.67938 293
48.6995 330
48.71961 318
48.73972 333
48.75984 336
48.77995 332
48.80006 320
48.82018 317
48.84029 306
48.86041 313
48.88052 284
48.90063 332
48.92075 312
48.94086 323
48.96097 304
48.98109 317
49.0012 369
49.02132 306
49.04143 335
49.06154 342
49.08166 328
49.10177 320
49.12188 339
49.142 309
49.16211 368
49.18223 316
49.20234 346
49.22245 387
49.24257 373
49.26268 393
49.28279 362
49.30291 377
49.32302 377
49.34313 385
49.36325 371
49.38336 360
49.40348 375
49.42359 364
49.4437 367
49.46382 362
49.48393 370
49.50404 372
49.52416 367
49.54427 374
49.56439 376
49.5845 354
49.60461 372
49.62473 389
49.64484 369
49.66495 382
49.68507 389
49.70518 374
49.7253 351
49.74541 372
49.76552 427
49.78564 432
49.80575 431
49.82586 505
49.84598 540
49.86609 551
49.8862 713
49.90632 740
49.92643 842
49.94655 978
49.96666 1057
49.98677 1336
50.00689 1297
50.027 1490
50.04711 1603
50.06723 1656
50.08734 1664
50.10746 1550
50.12757 1410
50.14768 1325
50.1678 1175
50.18791 1087
50.20802 1040
50.22814 909
50.24825 811
50.26837 681
50.28848 610
50.30859 502
50.32871 451
50.34882 393
50.36893 417
50.38905 392
50.40916 349
50.42927 360
50.44939 350
50.4695 377
50.48962 347
50.50973 347
50.52984 345
50.54996 363
50.57007 368
50.59018 345
50.6103 336
50.63041 343
50.65053 343
50.67064 309
50.69075 319
50.71087 324
50.73098 352
50.75109 348
50.77121 335
50.79132 297
50.81143 320
50.83155 301
50.85166 321
50.87178 330
50.89189 283
50.912 298
50.93212 318
50.95223 268
50.97234 303
50.99246 314
51.01257 284
51.03269 311
51.0528 301
51.07291 301
51.09303 319
51.11314 299
51.13325 315
51.15337 289
51.17348 307
51.1936 315
51.21371 311
51.23382 301
51.25394 304
51.27405 292
51.29416 271
51.31428 289
51.33439 289
51.3545 313
51.37462 314
51.39473 263
51.41485 275
51.43496 318
51.45507 264
51.47519 301
51.4953 293
51.51541 277
51.53553 296
51.55564 292
51.57576 297
51.59587 300
51.61598 301
51.6361 307
51.65621 271
51.67632 293
51.69644 276
51.71655 296
51.73667 291
51.75678 304
51.77689 283
51.79701 273
51.81712 300
51.83723 267
51.85735 280
51.87746 309
51.89757 301
51.91769 296
51.9378 307
51.95792 313
51.97803 329
51.99814 300
52.01826 300
52.03837 315
52.05848 291
52.0786 309
52.09871 305
52.11883 313
52.13894 309
52.15905 292
52.17917 299
52.19928 301
52.21939 286
52.23951 309
52.25962 296
52.27974 287
52.29985 289
52.31996 314
52.34008 303
52.36019 320
52.3803 288
52.40042 255
52.42053 272
52.44064 302
52.46076 262
52.48087 300
52.50099 277
52.5211 302
52.54121 304
52.56133 279
52.58144 294
52.60155 289
52.62167 304
52.64178 277
52.6619 286
52.68201 290
52.70212 314
52.72224 273
52.74235 306
52.76246 285
52.78258 297
52.80269 299
52.8228 319
52.84292 304
52.86303 329
52.88315 326
52.90326 316
52.92337 314
52.94349 317
52.9636 301
52.98371 304
53.00383 298
53.02394 298
53.04406 283
53.06417 298
53.08428 294
53.1044 301
53.12451 321
53.14462 314
53.16474 302
53.18485 329
53.20497 330
53.22508 331
53.24519 314
53.26531 331
53.28542 322
53.30553 334
53.32565 329
53.34576 318
53.36587 323
53.38599 348
53.4061 302
53.42622 339
53.44633 372
53.46644 365
53.48656 310
53.50667 347
53.52678 330
53.5469 372
53.56701 357
53.58713 358
53.60724 359
53.62735 351
53.64747 355
53.66758 387
53.68769 395
53.70781 395
53.72792 389
53.74804 416
53.76815 373
53.78826 429
53.80838 423
53.82849 412
53.8486 392
53.86872 445
53.88883 429
53.90894 451
53.92906 400
53.94917 441
53.96929 456
53.9894 394
54.00951 428
54.02963 400
54.04974 432
54.06985 458
54.08997 410
54.11008 396
54.1302 375
54.15031 357
54.17042 388
54.19054 387
54.21065 424
54.23076 399
54.25088 390
54.27099 407
54.29111 370
54.31122 407
54.33133 361
54.35145 399
54.37156 406
54.39167 390
54.41179 381
54.4319 368
54.45201 396
54.47213 370
54.49224 424
54.51236 425
54.53247 395
54.55258 413
54.5727 426
54.59281 487
54.61292 456
54.63304 504
54.65315 491
54.67327 560
54.69338 583
54.71349 592
54.73361 629
54.75372 660
54.77383 777
54.79395 742
54.81406 755
54.83417 703
54.85429 683
54.8744 672
54.89452 623
54.91463 567
54.93474 620
54.95486 584
54.97497 509
54.99508 553
55.0152 515
55.03531 502
55.05543 454
55.07554 464
55.09565 482
55.11577 481
55.13588 455
55.15599 501
55.17611 484
55.19622 516
55.21634 572
55.23645 523
55.25656 497
55.27668 522
55.29679 528
55.3169 536
55.33702 490
55.35713 490
55.37724 455
55.39736 432
55.41747 432
55.43759 398
55.4577 417
55.47781 382
55.49793 419
55.51804 390
55.53815 368
55.55827 396
55.57838 386
55.5985 339
55.61861 369
55.63872 370
55.65884 319
55.67895 378
55.69906 403
55.71918 386
55.73929 388
55.75941 362
55.77952 378
55.79963 374
55.81975 343
55.83986 339
55.85997 365
55.88009 386
55.9002 345
55.92031 369
55.94043 396
55.96054 353
55.98066 342
56.00077 382
56.02088 329
56.041 349
56.06111 337
56.08122 317
56.10134 337
56.12145 348
56.14157 338
56.16168 336
56.18179 318
56.20191 318
56.22202 317
56.24213 294
56.26225 311
56.28236 318
56.30248 325
56.32259 323
56.3427 337
56.36282 319
56.38293 320
56.40304 356
56.42316 324
56.44327 302
56.46338 307
56.4835 319
56.50361 306
56.52373 299
56.54384 338
56.56395 319
56.58407 282
56.60418 298
56.62429 310
56.64441 354
56.66452 329
56.68464 323
56.70475 341
56.72486 310
56.74498 288
56.76509 316
56.7852 301
56.80532 326
56.82543 327
56.84554 314
56.86566 302
56.88577 319
56.90589 327
56.926 309
56.94611 317
56.96623 326
56.98634 322
57.00645 310
57.02657 318
57.04668 346
57.0668 334
57.08691 332
57.10702 321
57.12714 319
57.14725 335
57.16736 334
57.18748 332
57.20759 314
57.22771 341
57.24782 336
57.26793 340
57.28805 320
57.30816 329
57.32827 341
57.34839 358
57.3685 321
57.38861 283
57.40873 311
57.42884 341
57.44896 324
57.46907 352
57.48918 315
57.5093 327
57.52941 344
57.54952 312
57.56964 326
57.58975 345
57.60987 319
57.62998 322
57.65009 308
57.67021 318
57.69032 302
57.71043 321
57.73055 303
57.75066 334
57.77078 325
57.79089 316
57.811 320
57.83112 313
57.85123 298
57.87134 322
57.89146 283
57.91157 306
57.93168 309
57.9518 279
57.97191 311
57.99203 312
58.01214 327
58.03225 310
58.05237 318
58.07248 279
58.09259 284
58.11271 298
58.13282 282
58.15294 285
58.17305 269
58.19316 302
58.21328 257
58.23339 308
58.2535 285
58.27362 292
58.29373 320
58.31385 291
58.33396 279
58.35407 309
58.37419 308
58.3943 307
58.41441 288
58.43453 267
58.45464 315
58.47475 300
58.49487 299
58.51498 316
58.5351 310
58.55521 302
58.57532 280
58.59544 285
58.61555 306
58.63566 273
58.65578 297
58.67589 292
58.69601 297
58.71612 302
58.73623 281
58.75635 277
58.77646 288
58.79657 300
58.81669 305
58.8368 304
58.85691 311
58.87703 291
58.89714 291
58.91726 297
58.93737 296
58.95748 318
58.9776 303
58.99771 299
59.01782 282
59.03794 287
59.05805 291
59.07817 300
59.09828 304
59.11839 331
59.13851 307
59.15862 321
59.17873 295
59.19885 323
59.21896 350
59.23908 338
59.25919 331
59.2793 310
59.29942 331
59.31953 348
59.33964 357
59.35976 331
59.37987 337
59.39998 301
59.4201 353
59.44021 356
59.46033 366
59.48044 351
59.50055 355
59.52067 366
59.54078 335
59.56089 418
59.58101 388
59.60112 397
59.62124 424
59.64135 473
59.66146 481
59.68158 518
59.70169 578
59.7218 631
59.74192 743
59.76203 754
59.78215 856
59.80226 956
59.82237 1015
59.84249 1025
59.8626 1095
59.88271 1131
59.90283 1097
59.92294 1058
59.94305 915
59.96317 910
59.98328 862
60.0034 791
60.02351 726
60.04362 721
60.06374 729
60.08385 623
60.10396 540
60.12408 523
60.14419 481
60.16431 407
60.18442 385
60.20453 345
60.22465 353
60.24476 332
60.26487 331
60.28499 353
60.3051 347
60.32522 336
60.34533 312
60.36544 314
60.38556 344
60.40567 331
60.42578 316
60.4459 331
60.46601 299
60.48612 318
60.50624 317
60.52635 318
60.54647 313
60.56658 314
60.58669 340
60.60681 313
60.62692 289
60.64703 293
60.66715 288
60.68726 293
60.70738 306
60.72749 276
60.7476 291
60.76772 312
60.78783 275
60.80794 302
60.82806 332
60.84817 325
60.86828 296
60.8884 300
60.90851 318
60.92863 307
60.94874 326
60.96885 299
60.98897 282
61.00908 294
61.02919 342
61.04931 297
61.06942 315
61.08954 302
61.10965 320
61.12976 304
61.14988 284
61.16999 292
61.1901 295
61.21022 312
61.23033 305
61.25045 294
61.27056 330
61.29067 311
61.31079 322
61.3309 331
61.35101 331
61.37113 289
61.39124 338
61.41135 341
61.43147 349
61.45158 345
61.4717 351
61.49181 341
61.51192 359
61.53204 369
61.55215 401
61.57226 387
61.59238 376
61.61249 360
61.63261 424
61.65272 390
61.67283 426
61.69295 399
61.71306 402
61.73317 437
61.75329 449
61.7734 405
61.79352 444
61.81363 434
61.83374 403
61.85386 429
61.87397 380
61.89408 408
61.9142 397
61.93431 433
61.95442 428
61.97454 382
61.99465 397
62.01477 404
62.03488 392
62.05499 416
62.07511 405
62.09522 426
62.11533 399
62.13545 419
62.15556 413
62.17568 435
62.19579 446
62.2159 435
62.23602 398
62.25613 440
62.27624 392
62.29636 428
62.31647 387
62.33659 415
62.3567 392
62.37681 386
62.39693 371
62.41704 397
62.43715 384
62.45727 375
62.47738 345
62.49749 375
62.51761 338
62.53772 324
62.55784 365
62.57795 327
62.59806 325
62.61818 335
62.63829 336
62.6584 349
62.67852 307
62.69863 329
62.71875 333
62.73886 325
62.75897 320
62.77909 326
62.7992 331
62.81931 328
62.83943 291
62.85954 290
62.87965 292
62.89977 303
62.91988 319
62.94 319
62.96011 306
62.98022 310
63.00034 302
63.02045 266
63.04056 300
63.06068 286
63.08079 306
63.10091 295
63.12102 313
63.14113 325
63.16125 322
63.18136 316
63.20147 279
63.22159 306
63.2417 259
63.26182 309
63.28193 304
63.30204 310
63.32216 323
63.34227 282
63.36238 298
63.3825 295
63.40261 295
63.42272 269
63.44284 278
63.46295 310
63.48307 300
63.50318 303
63.52329 323
63.54341 335
63.56352 324
63.58363 352
63.60375 327
63.62386 305
63.64398 334
63.66409 315
63.6842 355
63.70432 354
63.72443 348
63.74454 368
63.76466 359
63.78477 400
63.80489 383
63.825 447
63.84511 414
63.86523 450
63.88534 443
63.90545 462
63.92557 461
63.94568 481
63.96579 504
63.98591 464
64.00602 427
64.02614 438
64.04625 447
64.06636 432
64.08648 429
64.10659 421
64.1267 373
64.14682 380
64.16693 368
64.18705 359
64.20716 372
64.22727 317
64.24739 309
64.2675 318
64.28761 316
64.30773 325
64.32784 348
64.34796 314
64.36807 284
64.38818 276
64.4083 279
64.42841 292
64.44852 318
64.46864 324
64.48875 306
64.50886 293
64.52898 324
64.54909 282
64.56921 293
64.58932 293
64.60943 303
64.62955 254
64.64966 261
64.66977 298
64.68989 299
64.71 305
64.73012 293
64.75023 297
64.77034 273
64.79046 287
64.81057 262
64.83068 283
64.8508 291
64.87091 302
64.89102 282
64.91114 269
64.93125 292
64.95137 288
64.97148 255
64.99159 301
65.01171 277
65.03182 280
65.05193 292
65.07205 302
65.09216 310
65.11228 270
65.13239 304
65.1525 278
65.17262 292
65.19273 296
65.21284 293
65.23296 282
65.25307 310
65.27319 266
65.2933 261
65.31341 277
65.33353 255
65.35364 260
65.37375 279
65.39387 297
65.41398 277
65.43409 266
65.45421 286
65.47432 280
65.49444 282
65.51455 275
65.53466 286
65.55478 296
65.57489 311
65.595 307
65.61512 320
65.63523 295
65.65535 330
65.67546 328
65.69557 346
65.71569 315
65.7358 319
65.75591 303
65.77603 325
65.79614 293
65.81626 300
65.83637 304
65.85648 274
65.8766 283
65.89671 305
65.91682 290
65.93694 310
65.95705 267
65.97716 290
65.99728 308
66.01739 278
66.03751 259
66.05762 298
66.07773 315
66.09785 295
66.11796 281
66.13807 306
66.15819 270
66.1783 250
66.19842 282
66.21853 287
66.23864 248
66.25876 271
66.27887 283
66.29898 269
66.3191 254
66.33921 302
66.35933 274
66.37944 260
66.39955 299
66.41967 297
66.43978 267
66.45989 276
66.48001 282
66.50012 299
66.52023 273
66.54035 276
66.56046 316
66.58058 280
66.60069 289
66.6208 291
66.64092 272
66.66103 278
66.68114 274
66.70126 278
66.72137 267
66.74149 271
66.7616 257
66.78171 287
66.80183 276
66.82194 294
66.84205 271
66.86217 280
66.88228 284
66.90239 278
66.92251 271
66.94262 305
66.96274 280
66.98285 294
67.00296 294
67.02308 286
67.04319 278
67.0633 295
67.08342 317
67.10353 282
67.12365 268
67.14376 281
67.16387 272
67.18399 307
67.2041 325
67.22421 305
67.24433 304
67.26444 302
67.28456 334
67.30467 320
67.32478 341
67.3449 329
67.36501 354
67.38512 370
67.40524 356
67.42535 420
67.44546 392
67.46558 474
67.48569 460
67.50581 493
67.52592 521
67.54603 559
67.56615 630
67.58626 662
67.60637 718
67.62649 726
67.6466 762
67.66672 770
67.68683 711
67.70694 746
67.72706 662
67.74717 667
67.76728 653
67.7874 651
67.80751 645
67.82763 607
67.84774 705
67.86785 681
67.88797 726
67.90808 696
67.92819 789
67.94831 747
67.96842 817
67.98853 850
68.00865 848
68.02876 960
68.04888 985
68.06899 968
68.0891 958
68.10922 972
68.12933 978
68.14944 913
68.16956 928
68.18967 934
68.20979 850
68.2299 900
68.25001 837
68.27013 832
68.29024 759
68.31035 722
68.33047 668
68.35058 588
68.3707 532
68.39081 541
68.41092 513
68.43104 486
68.45115 452
68.47126 440
68.49138 408
68.51149 373
68.5316 373
68.55172 377
68.57183 343
68.59195 340
68.61206 333
68.63217 323
68.65229 317
68.6724 317
68.69251 313
68.71263 324
68.73274 319
68.75286 295
68.77297 335
68.79308 292
68.8132 314
68.83331 307
68.85342 242
68.87354 304
68.89365 298
68.91376 322
68.93388 291
68.95399 287
68.97411 295
68.99422 302
69.01433 304
69.03445 285
69.05456 278
69.07467 289
69.09479 299
69.1149 293
69.13502 249
69.15513 302
69.17524 313
69.19536 288
69.21547 301
69.23558 304
69.2557 270
69.27581 270
69.29593 301
69.31604 296
69.33615 274
69.35627 314
69.37638 254
69.39649 266
69.41661 307
69.43672 308
69.45683 313
69.47695 296
69.49706 278
69.51718 285
69.53729 301
69.5574 293
69.57752 301
69.59763 324
69.61774 324
69.63786 288
69.65797 342
69.67809 290
69.6982 285
69.71831 304
69.73843 303
69.75854 281
69.77865 262
69.79877 276
69.81888 282
69.839 282
69.85911 280
69.87922 271
69.89934 268
69.91945 279
69.93956 298
69.95968 296
69.97979 283
69.9999 286
70.02002 296
70.04013 275
70.06025 274
70.08036 280
70.10047 290
70.12059 302
70.1407 302
70.16081 276
70.18093 277
70.20104 278
70.22116 271
70.24127 275
70.26138 292
70.2815 290
70.30161 264
70.32172 293
70.34184 291
70.36195 292
70.38207 262
70.40218 289
70.42229 280
70.44241 273
70.46252 267
70.48263 271
70.50275 268
70.52286 257
70.54297 267
70.56309 276
70.5832 250
70.60332 262
70.62343 273
70.64354 251
70.66366 302
70.68377 275
70.70388 254
70.724 254
70.74411 249
70.76423 245
70.78434 273
70.80445 244
70.82457 251
70.84468 277
70.86479 261
70.88491 277
70.90502 246
70.92513 257
70.94525 240
70.96536 256
70.98548 250
71.00559 253
71.0257 258
71.04582 259
71.06593 258
71.08604 286
71.10616 250
71.12627 249
71.14639 256
71.1665 279
71.18661 284
71.20673 253
71.22684 230
71.24695 252
71.26707 246
71.28718 277
71.3073 260
71.32741 263
71.34752 291
71.36764 261
71.38775 257
71.40786 256
71.42798 257
71.44809 237
71.4682 248
71.48832 284
71.50843 275
71.52855 292
71.54866 286
71.56877 295
71.58889 270
71.609 256
71.62911 275
71.64923 285
71.66934 278
71.68946 263
71.70957 235
71.72968 304
71.7498 274
71.76991 265
71.79002 261
71.81014 253
71.83025 295
71.85037 274
71.87048 276
71.89059 259
71.91071 271
71.93082 273
71.95093 289
71.97105 256
71.99116 277
72.01127 294
72.03139 274
72.0515 283
72.07162 259
72.09173 283
72.11184 265
72.13196 246
72.15207 286
72.17218 254
72.1923 243
72.21241 264
72.23253 258
72.25264 279
72.27275 289
72.29287 233
72.31298 260
72.33309 267
72.35321 278
72.37332 279
72.39344 248
72.41355 257
72.43366 273
72.45378 275
72.47389 290
72.494 275
72.51412 295
72.53423 290
72.55434 286
72.57446 296
72.59457 284
72.61469 253
72.6348 256
72.65491 303
72.67503 273
72.69514 277
72.71525 272
72.73537 283
72.75548 286
72.7756 272
72.79571 284
72.81582 279
72.83594 266
72.85605 295
72.87616 290
72.89628 265
72.91639 280
72.9365 297
72.95662 284
72.97673 304
72.99685 289
73.01696 303
73.03707 301
73.05719 332
73.0773 301
73.09741 308
73.11753 319
73.13764 297
73.15776 275
73.17787 337
73.19798 348
73.2181 312
73.23821 370
73.25832 354
73.27844 400
73.29855 371
73.31867 401
73.33878 396
73.35889 447
73.37901 451
73.39912 438
73.41923 413
73.43935 373
73.45946 427
73.47957 355
73.49969 370
73.5198 362
73.53992 355
73.56003 370
73.58014 369
73.60026 332
73.62037 328
73.64048 343
73.6606 319
73.68071 303
73.70083 326
73.72094 260
73.74105 292
73.76117 297
73.78128 251
73.80139 298
73.82151 265
73.84162 274
73.86174 267
73.88185 256
73.90196 277
73.92208 271
73.94219 262
73.9623 271
73.98242 283
74.00253 275
74.02264 275
74.04276 271
74.06287 286
74.08299 266
74.1031 250
74.12321 281
74.14333 279
74.16344 278
74.18355 252
74.20367 273
74.22378 265
74.2439 274
74.26401 251
74.28412 254
74.30424 266
74.32435 265
74.34446 286
74.36458 255
74.38469 255
74.40481 258
74.42492 273
74.44503 266
74.46515 260
74.48526 286
74.50537 269
74.52549 270
74.5456 259
74.56571 272
74.58583 266
74.60594 235
74.62606 252
74.64617 248
74.66628 255
74.6864 282
74.70651 265
74.72662 267
74.74674 286
74.76685 278
74.78697 241
74.80708 291
74.82719 260
74.84731 244
74.86742 245
74.88753 269
74.90765 269
74.92776 286
74.94787 262
74.96799 270
74.9881 260
75.00822 280
