3.00117 19924
3.02128 19141
3.0414 18962
3.06151 18467
3.08162 17672
3.10174 17293
3.12185 16723
3.14197 16406
3.16208 16120
3.18219 15142
3.20231 15189
3.22242 14391
3.24253 13894
3.26265 13627
3.28276 13137
3.30288 13176
3.32299 12206
3.3431 12234
3.36322 11488
3.38333 11107
3.40344 10923
3.42356 10454
3.44367 9901
3.46379 9931
3.4839 9206
3.50401 9076
3.52413 8685
3.54424 8271
3.56435 8054
3.58447 7671
3.60458 7687
3.62469 7190
3.64481 6876
3.66492 6867
3.68504 6147
3.70515 6170
3.72526 5825
3.74538 5648
3.76549 5723
3.7856 5076
3.80572 4931
3.82583 4741
3.84595 4688
3.86606 4622
3.88617 4044
3.90629 3984
3.9264 3877
3.94651 3757
3.96663 3677
3.98674 3243
4.00686 3242
4.02697 3009
4.04708 2935
4.0672 2999
4.08731 2647
4.10742 2557
4.12754 2450
4.14765 2361
4.16776 2390
4.18788 2111
4.20799 2122
4.22811 2031
4.24822 1992
4.26833 1950
4.28845 1705
4.30856 1695
4.32867 1816
4.34879 1691
4.3689 1663
4.38902 1438
4.40913 1538
4.42924 1472
4.44936 1436
4.46947 1404
4.48958 1357
4.5097 1328
4.52981 1313
4.54992 1244
4.57004 1352
4.59015 1219
4.61027 1174
4.63038 1221
4.65049 1159
4.67061 1135
4.69072 1016
4.71083 987
4.73095 1046
4.75106 980
4.77118 990
4.79129 922
4.8114 936
4.83152 928
4.85163 871
4.87174 874
4.89186 845
4.91197 810
4.93209 786
4.9522 808
4.97231 808
4.99243 705
5.01254 775
5.03265 773
5.05277 745
5.07288 705
5.09299 697
5.11311 689
5.13322 687
5.15334 643
5.17345 672
5.19356 599
5.21368 595
5.23379 595
5.2539 625
5.27402 553
5.29413 528
5.31425 545
5.33436 517
5.35447 505
5.37459 471
5.3947 555
5.41481 445
5.43493 506
5.45504 445
5.47516 411
5.49527 456
5.51538 462
5.5355 422
5.55561 466
5.57572 379
5.59584 444
5.61595 353
5.63606 397
5.65618 393
5.67629 353
5.69641 383
5.71652 372
5.73663 335
5.75675 369
5.77686 332
5.79697 368
5.81709 311
5.8372 367
5.85732 328
5.87743 326
5.89754 302
5.91766 330
5.93777 318
5.95788 326
5.978 300
5.99811 313
6.01823 306
6.03834 280
6.05845 313
6.07857 299
6.09868 308
6.11879 285
6.13891 302
6.15902 310
6.17913 293
6.19925 294
6.21936 286
6.23948 293
6.25959 320
6.2797 257
6.29982 253
6.31993 324
6.34004 288
6.36016 293
6.38027 253
6.40039 273
6.4205 259
6.44061 278
6.46073 272
6.48084 250
6.50095 253
6.52107 256
6.54118 234
6.56129 259
6.58141 242
6.60152 243
6.62164 248
6.64175 253
6.66186 254
6.68198 290
6.70209 243
6.7222 268
6.74232 263
6.76243 282
6.78255 242
6.80266 255
6.82277 253
6.84289 265
6.863 248
6.88311 222
6.90323 225
6.92334 263
6.94346 252
6.96357 245
6.98368 261
7.0038 234
7.02391 251
7.04402 234
7.06414 232
7.08425 231
7.10436 274
7.12448 255
7.14459 227
7.16471 233
7.18482 256
7.20493 273
7.22505 258
7.24516 253
7.26527 263
7.28539 227
7.3055 257
7.32562 256
7.34573 256
7.36584 264
7.38596 260
7.40607 229
7.42618 249
7.4463 239
7.46641 241
7.48653 272
7.50664 223
7.52675 215
7.54687 254
7.56698 223
7.58709 264
7.60721 252
7.62732 257
7.64743 249
7.66755 240
7.68766 238
7.70778 225
7.72789 253
7.748 264
7.76812 250
7.78823 269
7.80834 241
7.82846 269
7.84857 246
7.86869 271
7.8888 217
7.90891 221
7.92903 262
7.94914 256
7.96925 236
7.98937 238
8.00948 267
8.0296 279
8.04971 254
8.06982 236
8.08994 280
8.11005 262
8.13016 247
8.15028 237
8.17039 239
8.1905 273
8.21062 258
8.23073 218
8.25085 253
8.27096 246
8.29107 277
8.31119 211
8.3313 214
8.35141 259
8.37153 277
8.39164 285
8.41176 211
8.43187 225
8.45198 278
8.4721 237
8.49221 234
8.51232 278
8.53244 274
8.55255 285
8.57266 254
8.59278 237
8.61289 251
8.63301 220
8.65312 247
8.67323 257
8.69335 229
8.71346 238
8.73357 253
8.75369 235
8.7738 254
8.79392 281
8.81403 234
8.83414 266
8.85426 250
8.87437 242
8.89448 248
8.9146 284
8.93471 263
8.95483 260
8.97494 234
8.99505 277
9.01517 243
9.03528 276
9.05539 224
9.07551 218
9.09562 262
9.11573 241
9.13585 243
9.15596 259
9.17608 302
9.19619 235
9.2163 240
9.23642 247
9.25653 245
9.27664 249
9.29676 249
9.31687 228
9.33699 230
9.3571 255
9.37721 208
9.39733 238
9.41744 240
9.43755 221
9.45767 250
9.47778 261
9.4979 254
9.51801 210
9.53812 236
9.55824 243
9.57835 242
9.59846 232
9.61858 262
9.63869 252
9.6588 212
9.67892 251
9.69903 225
9.71915 218
9.73926 257
9.75937 274
9.77949 267
9.7996 242
9.81971 233
9.83983 222
9.85994 255
9.88006 218
9.90017 294
9.92028 265
9.9404 258
9.96051 229
9.98062 219
10.00074 249
10.02085 252
10.04097 249
10.06108 207
10.08119 233
10.10131 224
10.12142 269
10.14153 271
10.16165 239
10.18176 283
10.20187 260
10.22199 259
10.2421 245
10.26222 228
10.28233 260
10.30244 261
10.32256 245
10.34267 233
10.36278 267
10.3829 232
10.40301 240
10.42313 236
10.44324 260
10.46335 229
10.48347 240
10.50358 240
10.52369 224
10.54381 246
10.56392 229
10.58403 244
10.60415 237
10.62426 250
10.64438 255
10.66449 260
10.6846 247
10.70472 237
10.72483 236
10.74494 284
10.76506 251
10.78517 248
10.80529 217
10.8254 248
10.84551 238
10.86563 242
10.88574 236
10.90585 226
10.92597 221
10.94608 302
10.9662 242
10.98631 268
11.00642 266
11.02654 252
11.04665 246
11.06676 252
11.08688 243
11.10699 274
11.1271 256
11.14722 221
11.16733 219
11.18745 242
11.20756 259
11.22767 250
11.24779 284
11.2679 274
11.28801 210
11.30813 256
11.32824 262
11.34836 224
11.36847 235
11.38858 232
11.4087 251
11.42881 253
11.44892 244
11.46904 267
11.48915 259
11.50927 250
11.52938 224
11.54949 284
11.56961 256
11.58972 275
11.60983 271
11.62995 224
11.65006 262
11.67017 233
11.69029 234
11.7104 258
11.73052 261
11.75063 249
11.77074 246
11.79086 287
11.81097 254
11.83108 248
11.8512 256
11.87131 264
11.89143 249
11.91154 269
11.93165 258
11.95177 232
11.97188 245
11.99199 289
12.01211 283
12.03222 278
12.05234 296
12.07245 266
12.09256 260
12.11268 258
12.13279 292
12.1529 275
12.17302 296
12.19313 297
12.21324 297
12.23336 271
12.25347 322
12.27359 307
12.2937 333
12.31381 293
12.33393 324
12.35404 304
12.37415 287
12.39427 303
12.41438 319
12.4345 270
12.45461 255
12.47472 271
12.49484 273
12.51495 272
12.53506 252
12.55518 268
12.57529 272
12.5954 232
12.61552 197
12.63563 238
12.65575 228
12.67586 252
12.69597 213
12.71609 254
12.7362 253
12.75631 216
12.77643 219
12.79654 214
12.81666 232
12.83677 226
12.85688 213
12.877 235
12.89711 233
12.91722 221
12.93734 244
12.95745 252
12.97757 251
12.99768 211
13.01779 257
13.03791 240
13.05802 279
13.07813 258
13.09825 262
13.11836 270
13.13847 243
13.15859 271
13.1787 296
13.19882 268
13.21893 238
13.23904 223
13.25916 223
13.27927 236
13.29938 228
13.3195 237
13.33961 223
13.35973 234
13.37984 242
13.39995 240
13.42007 238
13.44018 238
13.46029 249
13.48041 214
13.50052 222
13.52064 266
13.54075 267
13.56086 307
13.58098 298
13.60109 326
13.6212 346
13.64132 316
13.66143 299
13.68154 270
13.70166 268
13.72177 250
13.74189 223
13.762 248
13.78211 230
13.80223 231
13.82234 224
13.84245 246
13.86257 265
13.88268 262
13.9028 245
13.92291 244
13.94302 225
13.96314 213
13.98325 229
14.00336 186
14.02348 194
14.04359 195
14.06371 222
14.08382 206
14.10393 202
14.12405 199
14.14416 239
14.16427 217
14.18439 225
14.2045 206
14.22461 218
14.24473 207
14.26484 231
14.28496 207
14.30507 190
14.32518 206
14.3453 230
14.36541 215
14.38552 226
14.40564 190
14.42575 209
14.44587 193
14.46598 221
14.48609 211
14.50621 212
14.52632 206
14.54643 197
14.56655 236
14.58666 234
14.60677 229
14.62689 212
14.647 173
14.66712 196
14.68723 219
14.70734 227
14.72746 210
14.74757 207
14.76768 215
14.7878 204
14.80791 226
14.82803 254
14.84814 243
14.86825 242
14.88837 261
14.90848 270
14.92859 262
14.94871 264
14.96882 232
14.98894 257
15.00905 237
15.02916 221
15.04928 237
15.06939 251
15.0895 215
15.10962 254
15.12973 230
15.14984 234
15.16996 230
15.19007 222
15.21019 220
15.2303 227
15.25041 231
15.27053 220
15.29064 221
15.31075 191
15.33087 202
15.35098 220
15.3711 236
15.39121 195
15.41132 207
15.43144 203
15.45155 194
15.47166 205
15.49178 187
15.51189 201
15.53201 187
15.55212 200
15.57223 194
15.59235 179
15.61246 205
15.63257 206
15.65269 208
15.6728 189
15.69291 204
15.71303 183
15.73314 218
15.75326 206
15.77337 200
15.79348 187
15.8136 220
15.83371 237
15.85382 187
15.87394 198
15.89405 211
15.91417 181
15.93428 210
15.95439 209
15.97451 199
15.99462 175
16.01473 206
16.03485 179
16.05496 211
16.07508 208
16.09519 179
16.1153 182
16.13542 192
16.15553 153
16.17564 208
16.19576 203
16.21587 226
16.23598 169
16.2561 189
16.27621 202
16.29633 205
16.31644 163
16.33655 212
16.35667 177
16.37678 226
16.39689 206
16.41701 159
16.43712 201
16.45724 183
16.47735 197
16.49746 198
16.51758 214
16.53769 210
16.5578 209
16.57792 200
16.59803 181
16.61814 201
16.63826 170
16.65837 199
16.67849 182
16.6986 178
16.71871 191
16.73883 187
16.75894 193
16.77905 179
16.79917 176
16.81928 166
16.8394 204
16.85951 176
16.87962 168
16.89974 189
16.91985 206
16.93996 197
16.96008 202
16.98019 184
17.00031 177
17.02042 193
17.04053 177
17.06065 201
17.08076 191
17.10087 201
17.12099 174
17.1411 183
17.16121 175
17.18133 173
17.20144 217
17.22156 175
17.24167 197
17.26178 196
17.2819 192
17.30201 212
17.32212 193
17.34224 215
17.36235 173
17.38247 192
17.40258 205
17.42269 209
17.44281 188
17.46292 193
17.48303 174
17.50315 212
17.52326 203
17.54338 230
17.56349 205
17.5836 198
17.60372 180
17.62383 183
17.64394 206
17.66406 211
17.68417 191
17.70428 196
17.7244 187
17.74451 209
17.76463 207
17.78474 186
17.80485 229
17.82497 226
17.84508 205
17.86519 213
17.88531 202
17.90542 180
17.92554 181
17.94565 189
17.96576 211
17.98588 208
18.00599 206
18.0261 193
18.04622 192
18.06633 212
18.08645 185
18.10656 171
18.12667 186
18.14679 205
18.1669 196
18.18701 167
18.20713 189
18.22724 185
18.24735 190
18.26747 188
18.28758 191
18.3077 196
18.32781 186
18.34792 157
18.36804 195
18.38815 198
18.40826 172
18.42838 171
18.44849 180
18.46861 192
18.48872 166
18.50883 189
18.52895 182
18.54906 192
18.56917 187
18.58929 205
18.6094 211
18.62951 189
18.64963 206
18.66974 221
18.68986 215
18.70997 214
18.73008 197
18.7502 212
18.77031 220
18.79042 189
18.81054 229
18.83065 205
18.85077 185
18.87088 188
18.89099 180
18.91111 193
18.93122 190
18.95133 217
18.97145 211
18.99156 218
19.01168 204
19.03179 200
19.0519 187
19.07202 197
19.09213 206
19.11224 197
19.13236 227
19.15247 196
19.17258 210
19.1927 209
19.21281 254
19.23293 261
19.25304 251
19.27315 246
19.29327 222
19.31338 226
19.33349 223
19.35361 247
19.37372 237
19.39384 202
19.41395 231
19.43406 208
19.45418 227
19.47429 274
19.4944 246
19.51452 234
19.53463 241
19.55475 250
19.57486 251
19.59497 286
19.61509 285
19.6352 267
19.65531 267
19.67543 282
19.69554 297
19.71565 303
19.73577 291
19.75588 340
19.776 340
19.79611 383
19.81622 363
19.83634 384
19.85645 386
19.87656 402
19.89668 368
19.91679 374
19.93691 380
19.95702 367
19.97713 379
19.99725 363
20.01736 335
20.03747 335
20.05759 317
20.0777 327
20.09782 342
20.11793 325
20.13804 348
20.15816 335
20.17827 370
20.19838 370
20.2185 349
20.23861 314
20.25872 339
20.27884 337
20.29895 367
20.31907 363
20.33918 364
20.35929 364
20.37941 367
20.39952 415
20.41963 392
20.43975 438
20.45986 404
20.47998 382
20.50009 420
20.5202 412
20.54032 452
20.56043 475
20.58054 544
20.60066 489
20.62077 564
20.64088 676
20.661 724
20.68111 960
20.70123 1180
20.72134 1752
20.74145 2311
20.76157 3171
20.78168 3949
20.80179 4854
20.82191 5304
20.84202 5306
20.86214 4877
20.88225 3909
20.90236 2801
20.92248 2068
20.94259 1694
20.9627 1255
20.98282 1150
21.00293 1066
21.02305 1028
21.04316 963
21.06327 791
21.08339 705
21.1035 615
21.12361 503
21.14373 456
21.16384 379
21.18395 429
21.20407 385
21.22418 401
21.2443 378
21.26441 352
21.28452 399
21.30464 361
21.32475 369
21.34486 353
21.36498 364
21.38509 306
21.40521 314
21.42532 331
21.44543 334
21.46555 315
21.48566 340
21.50577 330
21.52589 323
21.546 294
21.56612 301
21.58623 314
21.60634 304
21.62646 318
21.64657 350
21.66668 331
21.6868 277
21.70691 275
21.72702 267
21.74714 310
21.76725 301
21.78737 329
21.80748 312
21.82759 284
21.84771 339
21.86782 323
21.88793 367
21.90805 442
21.92816 411
21.94828 474
21.96839 465
21.9885 429
22.00862 470
22.02873 397
22.04884 378
22.06896 327
22.08907 311
22.10919 323
22.1293 338
22.14941 300
22.16953 317
22.18964 348
22.20975 308
22.22987 336
22.24998 373
22.27009 372
22.29021 455
22.31032 392
22.33044 372
22.35055 363
22.37066 324
22.39078 342
22.41089 315
22.431 344
22.45112 301
22.47123 326
22.49135 278
22.51146 331
22.53157 296
22.55169 287
22.5718 322
22.59191 339
22.61203 331
22.63214 323
22.65225 303
22.67237 290
22.69248 302
22.7126 306
22.73271 265
22.75282 293
22.77294 274
22.79305 299
22.81316 266
22.83328 299
22.85339 269
22.87351 356
22.89362 337
22.91373 312
22.93385 307
22.95396 335
22.97407 344
22.99419 337
23.0143 384
23.03442 398
23.05453 414
23.07464 416
23.09476 414
23.11487 457
23.13498 494
23.1551 487
23.17521 547
23.19532 523
23.21544 484
23.23555 428
23.25567 396
23.27578 369
23.29589 359
23.31601 363
23.33612 343
23.35623 338
23.37635 325
23.39646 331
23.41658 305
23.43669 337
23.4568 353
23.47692 378
23.49703 348
23.51714 384
23.53726 438
23.55737 406
23.57749 405
23.5976 380
23.61771 352
23.63783 338
23.65794 360
23.67805 356
23.69817 363
23.71828 306
23.73839 343
23.75851 375
23.77862 349
23.79874 350
23.81885 393
23.83896 424
23.85908 444
23.87919 425
23.8993 508
23.91942 550
23.93953 597
23.95965 621
23.97976 626
23.99987 576
24.01999 525
24.0401 471
24.06021 398
24.08033 369
24.10044 333
24.12056 325
24.14067 330
24.16078 362
24.1809 341
24.20101 375
24.22112 360
24.24124 390
24.26135 418
24.28146 381
24.30158 437
24.32169 436
24.34181 387
24.36192 370
24.38203 384
24.40215 337
24.42226 299
24.44237 284
24.46249 287
24.4826 282
24.50272 300
24.52283 316
24.54294 279
24.56306 350
24.58317 321
24.60328 320
24.6234 326
24.64351 398
24.66362 390
24.68374 344
24.70385 381
24.72397 395
24.74408 384
24.76419 375
24.78431 366
24.80442 358
24.82453 359
24.84465 342
24.86476 338
24.88488 331
24.90499 367
24.9251 364
24.94522 321
24.96533 356
24.98544 349
25.00556 312
25.02567 336
25.04579 343
25.0659 318
25.08601 321
25.10613 341
25.12624 313
25.14635 317
25.16647 331
25.18658 305
25.20669 356
25.22681 314
25.24692 315
25.26704 329
25.28715 315
25.30726 356
25.32738 376
25.34749 352
25.3676 408
25.38772 435
25.40783 445
25.42795 507
25.44806 545
25.46817 620
25.48829 641
25.5084 721
25.52851 698
25.54863 698
25.56874 653
25.58886 720
25.60897 726
25.62908 711
25.6492 614
25.66931 666
25.68942 606
25.70954 593
25.72965 520
25.74976 496
25.76988 462
25.78999 478
25.81011 452
25.83022 474
25.85033 454
25.87045 440
25.89056 459
25.91067 470
25.93079 475
25.9509 492
25.97102 446
25.99113 484
26.01124 463
26.03136 508
26.05147 530
26.07158 527
26.0917 535
26.11181 605
26.13193 643
26.15204 662
26.17215 739
26.19227 728
26.21238 810
26.23249 889
26.25261 879
26.27272 973
26.29283 1097
26.31295 1251
26.33306 1352
26.35318 1670
26.37329 1880
26.3934 2179
26.41352 2675
26.43363 3210
26.45374 4282
26.47386 5916
26.49397 7643
26.51409 10580
26.5342 14147
26.55431 18159
26.57443 21715
26.59454 24344
26.61465 23588
26.63477 21396
26.65488 17640
26.67499 13655
26.69511 9782
26.71522 6569
26.73534 4279
26.75545 2506
26.77556 1775
26.79568 1555
26.81579 1332
26.8359 1205
26.85602 1158
26.87613 1060
26.89625 1083
26.91636 984
26.93647 1043
26.95659 1102
26.9767 1073
26.99681 1056
27.01693 1164
27.03704 1135
27.05716 1134
27.07727 979
27.09738 939
27.1175 890
27.13761 776
27.15772 710
27.17784 630
27.19795 670
27.21806 658
27.23818 714
27.25829 758
27.27841 865
27.29852 889
27.31863 1069
27.33875 1162
27.35886 1306
27.37897 1470
27.39909 1516
27.4192 1626
27.43932 1654
27.45943 1452
27.47954 1422
27.49966 1263
27.51977 1052
27.53988 840
27.56 738
27.58011 647
27.60023 545
27.62034 529
27.64045 512
27.66057 527
27.68068 556
27.70079 591
27.72091 593
27.74102 642
27.76113 626
27.78125 627
27.80136 659
27.82148 644
27.84159 635
27.8617 596
27.88182 640
27.90193 633
27.92204 628
27.94216 596
27.96227 594
27.98239 524
28.0025 521
28.02261 446
28.04273 382
28.06284 370
28.08295 357
28.10307 351
28.12318 350
28.1433 339
28.16341 337
28.18352 373
28.20364 355
28.22375 361
28.24386 354
28.26398 359
28.28409 362
28.3042 315
28.32432 327
28.34443 296
28.36455 282
28.38466 314
28.40477 330
28.42489 270
28.445 300
28.46511 289
28.48523 295
28.50534 321
28.52546 304
28.54557 254
28.56568 256
28.5858 267
28.60591 261
28.62602 260
28.64614 258
28.66625 264
28.68636 266
28.70648 249
28.72659 285
28.74671 274
28.76682 265
28.78693 267
28.80705 295
28.82716 262
28.84727 267
28.86739 248
28.8875 239
28.90762 262
28.92773 260
28.94784 247
28.96796 256
28.98807 270
29.00818 266
29.0283 309
29.04841 281
29.06853 264
29.08864 262
29.10875 246
29.12887 231
29.14898 263
29.16909 245
29.18921 254
29.20932 312
29.22943 313
29.24955 286
29.26966 315
29.28978 301
29.30989 332
29.33 399
29.35012 376
29.37023 409
29.39034 422
29.41046 435
29.43057 398
29.45069 438
29.4708 393
29.49091 401
29.51103 370
29.53114 332
29.55125 306
29.57137 322
29.59148 275
29.6116 302
29.63171 293
29.65182 331
29.67194 296
29.69205 305
29.71216 323
29.73228 329
29.75239 338
29.7725 326
29.79262 339
29.81273 343
29.83285 331
29.85296 327
29.87307 336
29.89319 307
29.9133 319
29.93341 325
29.95353 297
29.97364 309
29.99376 309
30.01387 349
30.03398 396
30.0541 417
30.07421 443
30.09432 415
30.11444 449
30.13455 486
30.15467 470
30.17478 501
30.19489 486
30.21501 454
30.23512 405
30.25523 400
30.27535 364
30.29546 328
30.31557 349
30.33569 347
30.3558 331
30.37592 338
30.39603 346
30.41614 284
30.43626 335
30.45637 352
30.47648 331
30.4966 305
30.51671 299
30.53683 302
30.55694 291
30.57705 322
30.59717 339
30.61728 351
30.63739 382
30.65751 446
30.67762 432
30.69773 462
30.71785 460
30.73796 443
30.75808 436
30.77819 461
30.7983 432
30.81842 430
30.83853 424
30.85864 384
30.87876 352
30.89887 342
30.91899 337
30.9391 298
30.95921 275
30.97933 294
30.99944 275
31.01955 240
31.03967 258
31.05978 236
31.0799 238
31.10001 242
31.12012 232
31.14024 221
31.16035 240
31.18046 274
31.20058 223
31.22069 273
31.2408 282
31.26092 221
31.28103 268
31.30115 279
31.32126 254
31.34137 250
31.36149 224
31.3816 239
31.40171 229
31.42183 238
31.44194 197
31.46206 233
31.48217 232
31.50228 239
31.5224 207
31.54251 227
31.56262 217
31.58274 232
31.60285 203
31.62297 210
31.64308 241
31.66319 202
31.68331 233
31.70342 234
31.72353 231
31.74365 214
31.76376 260
31.78387 228
31.80399 216
31.8241 226
31.84422 203
31.86433 217
31.88444 194
31.90456 209
31.92467 207
31.94478 235
31.9649 245
31.98501 246
32.00513 231
32.02524 279
32.04535 239
32.06547 259
32.08558 252
32.10569 285
32.12581 276
32.14592 271
32.16604 281
32.18615 259
32.20626 243
32.22638 249
32.24649 266
32.2666 265
32.28672 253
32.30683 310
32.32694 288
32.34706 259
32.36717 295
32.38729 313
32.4074 315
32.42751 334
32.44763 316
32.46774 293
32.48785 273
32.50797 281
32.52808 242
32.5482 247
32.56831 263
32.58842 213
32.60854 221
32.62865 233
32.64876 210
32.66888 230
32.68899 219
32.7091 200
32.72922 194
32.74933 194
32.76945 221
32.78956 203
32.80967 179
32.82979 216
32.8499 179
32.87001 196
32.89013 216
32.91024 222
32.93036 195
32.95047 217
32.97058 211
32.9907 180
33.01081 208
33.03092 247
33.05104 210
33.07115 201
33.09127 242
33.11138 163
33.13149 205
33.15161 217
33.17172 215
33.19183 220
33.21195 199
33.23206 198
33.25217 234
33.27229 191
33.2924 202
33.31252 187
33.33263 209
33.35274 217
33.37286 209
33.39297 213
33.41308 197
33.4332 198
33.45331 202
33.47343 208
33.49354 215
33.51365 226
33.53377 181
33.55388 229
33.57399 196
33.59411 208
33.61422 220
33.63434 213
33.65445 227
33.67456 214
33.69468 187
33.71479 221
33.7349 204
33.75502 200
33.77513 205
33.79524 226
33.81536 221
33.83547 212
33.85559 214
33.8757 236
33.89581 235
33.91593 226
33.93604 223
33.95615 211
33.97627 197
33.99638 227
34.0165 236
34.03661 271
34.05672 285
34.07684 286
34.09695 299
34.11706 329
34.13718 366
34.15729 332
34.17741 358
34.19752 360
34.21763 359
34.23775 357
34.25786 329
34.27797 352
34.29809 268
34.3182 281
34.33831 262
34.35843 314
34.37854 254
34.39866 265
34.41877 274
34.43888 311
34.459 261
34.47911 267
34.49922 312
34.51934 262
34.53945 299
34.55957 275
34.57968 305
34.59979 300
34.61991 345
34.64002 328
34.66013 352
34.68025 364
34.70036 312
34.72047 298
34.74059 326
34.7607 320
34.78082 338
34.80093 320
34.82104 316
34.84116 352
34.86127 338
34.88138 344
34.9015 361
34.92161 331
34.94173 355
34.96184 379
34.98195 341
35.00207 357
35.02218 323
35.04229 343
35.06241 326
35.08252 364
35.10264 336
35.12275 379
35.14286 320
35.16298 305
35.18309 361
35.2032 352
35.22332 365
35.24343 352
35.26354 366
35.28366 309
35.30377 352
35.32389 358
35.344 355
35.36411 373
35.38423 349
35.40434 369
35.42445 379
35.44457 361
35.46468 415
35.4848 372
35.50491 415
35.52502 446
35.54514 389
35.56525 368
35.58536 323
35.60548 335
35.62559 339
35.64571 318
35.66582 298
35.68593 307
35.70605 298
35.72616 283
35.74627 288
35.76639 279
35.7865 269
35.80661 276
35.82673 313
35.84684 263
35.86696 288
35.88707 282
35.90718 296
35.9273 287
35.94741 291
35.96752 280
35.98764 302
36.00775 297
36.02787 291
36.04798 278
36.06809 269
36.08821 279
36.10832 293
36.12843 295
36.14855 276
36.16866 303
36.18878 299
36.20889 337
36.229 305
36.24912 351
36.26923 336
36.28934 366
36.30946 454
36.32957 511
36.34968 596
36.3698 630
36.38991 786
36.41003 1044
36.43014 1257
36.45025 1469
36.47037 1648
36.49048 1701
36.51059 1731
36.53071 1503
36.55082 1415
36.57094 1170
36.59105 1057
36.61116 881
36.63128 685
36.65139 579
36.6715 441
36.69162 362
36.71173 341
36.73184 340
36.75196 322
36.77207 330
36.79219 308
36.8123 347
36.83241 322
36.85253 309
36.87264 305
36.89275 356
36.91287 370
36.93298 344
36.9531 333
36.97321 314
36.99332 312
37.01344 307
37.03355 318
37.05366 319
37.07378 306
37.09389 290
37.11401 277
37.13412 267
37.15423 236
37.17435 241
37.19446 251
37.21457 247
37.23469 251
37.2548 227
37.27491 224
37.29503 246
37.31514 241
37.33526 257
37.35537 251
37.37548 236
37.3956 248
37.41571 232
37.43582 262
37.45594 236
37.47605 263
37.49617 249
37.51628 275
37.53639 254
37.55651 252
37.57662 245
37.59673 270
37.61685 236
37.63696 276
37.65708 273
37.67719 230
37.6973 232
37.71742 247
37.73753 246
37.75764 231
37.77776 232
37.79787 258
37.81798 244
37.8381 219
37.85821 250
37.87833 233
37.89844 229
37.91855 226
37.93867 211
37.95878 241
37.97889 243
37.99901 218
38.01912 231
38.03924 208
38.05935 232
38.07946 246
38.09958 232
38.11969 218
38.1398 243
38.15992 225
38.18003 263
38.20015 243
38.22026 239
38.24037 250
38.26049 254
38.2806 241
38.30071 266
38.32083 247
38.34094 255
38.36105 278
38.38117 305
38.40128 273
38.4214 301
38.44151 320
38.46162 325
38.48174 321
38.50185 319
38.52196 296
38.54208 303
38.56219 301
38.58231 286
38.60242 260
38.62253 266
38.64265 264
38.66276 246
38.68287 258
38.70299 260
38.7231 244
38.74321 268
38.76333 239
38.78344 236
38.80356 222
38.82367 235
38.84378 218
38.8639 222
38.88401 237
38.90412 227
38.92424 236
38.94435 261
38.96447 257
38.98458 234
39.00469 241
39.02481 241
39.04492 275
39.06503 299
39.08515 269
39.10526 272
39.12538 305
39.14549 329
39.1656 344
39.18572 323
39.20583 381
39.22594 369
39.24606 457
39.26617 466
39.28628 657
39.3064 664
39.32651 850
39.34663 1092
39.36674 1232
39.38685 1464
39.40697 1556
39.42708 1543
39.44719 1488
39.46731 1318
39.48742 1095
39.50754 971
39.52765 914
39.54776 849
39.56788 622
39.58799 475
39.6081 400
39.62822 292
39.64833 267
39.66845 295
39.68856 276
39.70867 246
39.72879 235
39.7489 252
39.76901 242
39.78913 248
39.80924 245
39.82935 208
39.84947 265
39.86958 253
39.8897 258
39.90981 233
39.92992 247
39.95004 262
39.97015 260
39.99026 245
40.01038 284
40.03049 296
40.05061 336
40.07072 344
40.09083 387
40.11095 417
40.13106 465
40.15117 528
40.17129 673
40.1914 767
40.21152 885
40.23163 900
40.25174 937
40.27186 780
40.29197 731
40.31208 617
40.3322 617
40.35231 558
40.37242 452
40.39254 427
40.41265 346
40.43277 308
40.45288 274
40.47299 229
40.49311 247
40.51322 250
40.53333 218
40.55345 258
40.57356 236
40.59368 232
40.61379 213
40.6339 239
40.65402 217
40.67413 232
40.69424 228
40.71436 233
40.73447 216
40.75458 214
40.7747 230
40.79481 207
40.81493 206
40.83504 205
40.85515 200
40.87527 217
40.89538 219
40.91549 215
40.93561 228
40.95572 216
40.97584 230
40.99595 211
41.01606 204
41.03618 234
41.05629 205
41.0764 224
41.09652 226
41.11663 189
41.13675 246
41.15686 246
41.17697 211
41.19709 208
41.2172 213
41.23731 218
41.25743 230
41.27754 233
41.29765 251
41.31777 213
41.33788 225
41.358 230
41.37811 237
41.39822 231
41.41834 248
41.43845 213
41.45856 221
41.47868 250
41.49879 258
41.51891 252
41.53902 249
41.55913 250
41.57925 271
41.59936 307
41.61947 314
41.63959 355
41.6597 315
41.67982 385
41.69993 405
41.72004 434
41.74016 425
41.76027 495
41.78038 454
41.8005 414
41.82061 430
41.84072 346
41.86084 331
41.88095 325
41.90107 336
41.92118 301
41.94129 262
41.96141 250
41.98152 246
42.00163 257
42.02175 226
42.04186 268
42.06198 281
42.08209 264
42.1022 265
42.12232 266
42.14243 291
42.16254 315
42.18266 328
42.20277 326
42.22289 389
42.243 472
42.26311 498
42.28323 603
42.30334 660
42.32345 812
42.34357 940
42.36368 1069
42.38379 1212
42.40391 1146
42.42402 1107
42.44414 976
42.46425 920
42.48436 776
42.50448 687
42.52459 653
42.5447 555
42.56482 425
42.58493 376
42.60505 335
42.62516 282
42.64527 277
42.66539 260
42.6855 286
42.70561 288
42.72573 278
42.74584 282
42.76595 279
42.78607 262
42.80618 257
42.8263 246
42.84641 228
42.86652 232
42.88664 225
42.90675 223
42.92686 267
42.94698 217
42.96709 200
42.98721 232
43.00732 233
43.02743 226
43.04755 227
43.06766 212
43.08777 211
43.10789 221
43.128 231
43.14812 214
43.16823 217
43.18834 218
43.20846 208
43.22857 184
43.24868 201
43.2688 188
43.28891 177
43.30902 218
43.32914 206
43.34925 206
43.36937 196
43.38948 203
43.40959 194
43.42971 179
43.44982 211
43.46993 224
43.49005 216
43.51016 216
43.53028 215
43.55039 211
43.5705 202
43.59062 247
43.61073 200
43.63084 200
43.65096 198
43.67107 214
43.69119 200
43.7113 197
43.73141 208
43.75153 170
43.77164 190
43.79175 222
43.81187 222
43.83198 222
43.85209 197
43.87221 191
43.89232 199
43.91244 224
43.93255 210
43.95266 193
43.97278 195
43.99289 206
44.013 201
44.03312 194
44.05323 254
44.07335 192
44.09346 210
44.11357 223
44.13369 216
44.1538 195
44.17391 205
44.19403 198
44.21414 185
44.23426 209
44.25437 208
44.27448 202
44.2946 224
44.31471 201
44.33482 197
44.35494 217
44.37505 210
44.39516 215
44.41528 184
44.43539 189
44.45551 203
44.47562 189
44.49573 206
44.51585 213
44.53596 198
44.55607 213
44.57619 183
44.5963 217
44.61642 192
44.63653 207
44.65664 182
44.67676 207
44.69687 174
44.71698 216
44.7371 214
44.75721 198
44.77732 193
44.79744 199
44.81755 196
44.83767 197
44.85778 218
44.87789 188
44.89801 213
44.91812 183
44.93823 188
44.95835 200
44.97846 204
44.99858 213
45.01869 195
45.0388 196
45.05892 195
45.07903 202
45.09914 201
45.11926 193
45.13937 203
45.15949 195
45.1796 212
45.19971 177
45.21983 194
45.23994 235
45.26005 203
45.28017 214
45.30028 258
45.32039 215
45.34051 235
45.36062 249
45.38074 235
45.40085 252
45.42096 230
45.44108 293
45.46119 263
45.4813 305
45.50142 331
45.52153 328
45.54165 345
45.56176 364
45.58187 400
45.60199 454
45.6221 475
45.64221 606
45.66233 660
45.68244 744
45.70256 851
45.72267 842
45.74278 867
45.7629 833
45.78301 770
45.80312 721
45.82324 630
45.84335 562
45.86346 566
45.88358 449
45.90369 442
45.92381 344
45.94392 300
45.96403 275
45.98415 246
46.00426 229
46.02437 213
46.04449 234
46.0646 229
46.08472 225
46.10483 238
46.12494 229
46.14506 247
46.16517 213
46.18528 220
46.2054 225
46.22551 217
46.24563 200
46.26574 209
46.28585 242
46.30597 207
46.32608 229
46.34619 221
46.36631 198
46.38642 205
46.40653 194
46.42665 188
46.44676 184
46.46688 205
46.48699 186
46.5071 200
46.52722 179
46.54733 187
46.56744 177
46.58756 198
46.60767 177
46.62779 178
46.6479 151
46.66801 186
46.68813 189
46.70824 188
46.72835 181
46.74847 206
46.76858 198
46.78869 191
46.80881 181
46.82892 176
46.84904 207
46.86915 211
46.88926 214
46.90938 188
46.92949 212
46.9496 203
46.96972 227
46.98983 219
47.00995 218
47.03006 248
47.05017 231
47.07029 251
47.0904 244
47.11051 262
47.13063 248
47.15074 265
47.17086 217
47.19097 218
47.21108 223
47.2312 205
47.25131 208
47.27142 195
47.29154 235
47.31165 222
47.33176 206
47.35188 217
47.37199 250
47.39211 234
47.41222 238
47.43233 224
47.45245 240
47.47256 228
47.49267 222
47.51279 207
47.5329 252
47.55302 215
47.57313 227
47.59324 191
47.61336 209
47.63347 206
47.65358 198
47.6737 188
47.69381 176
47.71393 182
47.73404 173
47.75415 193
47.77427 176
47.79438 195
47.81449 202
47.83461 181
47.85472 199
47.87483 199
47.89495 200
47.91506 189
47.93518 172
47.95529 196
47.9754 189
47.99552 179
48.01563 190
48.03574 175
48.05586 170
48.07597 196
48.09609 186
48.1162 219
48.13631 203
48.15643 192
48.17654 185
48.19665 188
48.21677 197
48.23688 215
48.257 189
48.27711 213
48.29722 227
48.31734 202
48.33745 200
48.35756 197
48.37768 193
48.39779 203
48.4179 188
48.43802 206
48.45813 198
48.47825 207
48.49836 185
48.51847 205
48.53859 195
48.5587 202
48.57881 223
48.59893 207
48.61904 216
48.63916 191
48.65927 215
48.67938 215
48.6995 227
48.71961 221
48.73972 223
48.75984 223
48.77995 251
48.80006 215
48.82018 252
48.84029 204
48.86041 242
48.88052 231
48.90063 261
48.92075 248
48.94086 255
48.96097 261
48.98109 264
49.0012 256
49.02132 251
49.04143 240
49.06154 268
49.08166 221
49.10177 218
49.12188 271
49.142 259
49.16211 233
49.18223 220
49.20234 234
49.22245 217
49.24257 234
49.26268 212
49.28279 224
49.30291 202
49.32302 213
49.34313 211
49.36325 195
49.38336 212
49.40348 205
49.42359 213
49.4437 216
49.46382 201
49.48393 233
49.50404 189
49.52416 229
49.54427 229
49.56439 210
49.5845 246
49.60461 249
49.62473 249
49.64484 250
49.66495 268
49.68507 249
49.70518 290
49.7253 291
49.74541 337
49.76552 332
49.78564 344
49.80575 352
49.82586 458
49.84598 475
49.86609 521
49.8862 580
49.90632 680
49.92643 804
49.94655 937
49.96666 1095
49.98677 1358
50.00689 1684
50.027 1981
50.04711 2293
50.06723 2449
50.08734 2504
50.10746 2332
50.12757 2134
50.14768 1746
50.1678 1552
50.18791 1478
50.20802 1401
50.22814 1341
50.24825 1132
50.26837 879
50.28848 695
50.30859 512
50.32871 409
50.34882 410
50.36893 413
50.38905 390
50.40916 425
50.42927 419
50.44939 460
50.4695 469
50.48962 478
50.50973 460
50.52984 476
50.54996 482
50.57007 416
50.59018 412
50.6103 419
50.63041 393
50.65053 380
50.67064 380
50.69075 337
50.71087 323
50.73098 321
50.75109 345
50.77121 292
50.79132 304
50.81143 263
50.83155 311
50.85166 259
50.87178 293
50.89189 278
50.912 238
50.93212 246
50.95223 252
50.97234 260
50.99246 250
51.01257 208
51.03269 208
51.0528 196
51.07291 231
51.09303 220
51.11314 209
51.13325 206
51.15337 218
51.17348 253
51.1936 205
51.21371 231
51.23382 207
51.25394 210
51.27405 222
51.29416 215
51.31428 208
51.33439 229
51.3545 185
51.37462 191
51.39473 200
51.41485 174
51.43496 185
51.45507 190
51.47519 199
51.4953 189
51.51541 209
51.53553 172
51.55564 179
51.57576 199
51.59587 193
51.61598 186
51.6361 178
51.65621 180
51.67632 156
51.69644 197
51.71655 174
51.73667 164
51.75678 179
51.77689 172
51.79701 190
51.81712 173
51.83723 155
51.85735 170
51.87746 180
51.89757 157
51.91769 189
51.9378 204
51.95792 187
51.97803 165
51.99814 161
52.01826 179
52.03837 181
52.05848 158
52.0786 191
52.09871 183
52.11883 180
52.13894 188
52.15905 187
52.17917 169
52.19928 185
52.21939 186
52.23951 172
52.25962 199
52.27974 182
52.29985 178
52.31996 180
52.34008 195
52.36019 189
52.3803 188
52.40042 177
52.42053 190
52.44064 211
52.46076 201
52.48087 178
52.50099 185
52.5211 203
52.54121 210
52.56133 228
52.58144 217
52.60155 214
52.62167 173
52.64178 197
52.6619 193
52.68201 215
52.70212 185
52.72224 216
52.74235 182
52.76246 194
52.78258 203
52.80269 198
52.8228 198
52.84292 195
52.86303 201
52.88315 190
52.90326 196
52.92337 193
52.94349 213
52.9636 196
52.98371 180
53.00383 191
53.02394 222
53.04406 184
53.06417 189
53.08428 188
53.1044 168
53.12451 215
53.14462 177
53.16474 205
53.18485 242
53.20497 198
53.22508 190
53.24519 206
53.26531 204
53.28542 227
53.30553 208
53.32565 253
53.34576 214
53.36587 208
53.38599 212
53.4061 209
53.42622 226
53.44633 219
53.46644 207
53.48656 209
53.50667 214
53.52678 206
53.5469 188
53.56701 211
53.58713 206
53.60724 182
53.62735 196
53.64747 225
53.66758 185
53.68769 186
53.70781 188
53.72792 208
53.74804 221
53.76815 218
53.78826 217
53.80838 188
53.82849 222
53.8486 221
53.86872 209
53.88883 217
53.90894 203
53.92906 240
53.94917 230
53.96929 212
53.9894 229
54.00951 230
54.02963 205
54.04974 228
54.06985 229
54.08997 201
54.11008 200
54.1302 198
54.15031 221
54.17042 211
54.19054 204
54.21065 227
54.23076 183
54.25088 215
54.27099 221
54.29111 245
54.31122 231
54.33133 235
54.35145 243
54.37156 246
54.39167 228
54.41179 224
54.4319 236
54.45201 229
54.47213 232
54.49224 258
54.51236 247
54.53247 266
54.55258 277
54.5727 266
54.59281 286
54.61292 293
54.63304 324
54.65315 357
54.67327 408
54.69338 435
54.71349 530
54.73361 652
54.75372 744
54.77383 784
54.79395 788
54.81406 826
54.83417 877
54.85429 807
54.8744 666
54.89452 589
54.91463 603
54.93474 553
54.95486 528
54.97497 512
54.99508 465
55.0152 408
55.03531 386
55.05543 319
55.07554 315
55.09565 328
55.11577 299
55.13588 344
55.15599 357
55.17611 347
55.19622 424
55.21634 480
55.23645 501
55.25656 488
55.27668 489
55.29679 521
55.3169 438
55.33702 399
55.35713 363
55.37724 406
55.39736 360
55.41747 370
55.43759 354
55.4577 308
55.47781 290
55.49793 285
55.51804 245
55.53815 255
55.55827 228
55.57838 246
55.5985 233
55.61861 229
55.63872 219
55.65884 183
55.67895 204
55.69906 216
55.71918 202
55.73929 224
55.75941 178
55.77952 219
55.79963 200
55.81975 191
55.83986 227
55.85997 190
55.88009 186
55.9002 165
55.92031 193
55.94043 224
55.96054 200
55.98066 208
56.00077 216
56.02088 175
56.041 192
56.06111 203
56.08122 190
56.10134 205
56.12145 178
56.14157 200
56.16168 202
56.18179 184
56.20191 190
56.22202 182
56.24213 197
56.26225 202
56.28236 213
56.30248 195
56.32259 193
56.3427 166
56.36282 161
56.38293 222
56.40304 201
56.42316 184
56.44327 173
56.46338 206
56.4835 190
56.50361 185
56.52373 186
56.54384 201
56.56395 194
56.58407 203
56.60418 198
56.62429 210
56.64441 192
56.66452 175
56.68464 210
56.70475 202
56.72486 204
56.74498 218
56.76509 190
56.7852 209
56.80532 182
56.82543 205
56.84554 209
56.86566 186
56.88577 190
56.90589 200
56.926 179
56.94611 209
56.96623 183
56.98634 198
57.00645 173
57.02657 207
57.04668 203
57.0668 219
57.08691 225
57.10702 191
57.12714 222
57.14725 232
57.16736 238
57.18748 219
57.20759 218
57.22771 216
57.24782 238
57.26793 222
57.28805 218
57.30816 211
57.32827 209
57.34839 208
57.3685 190
57.38861 181
57.40873 229
57.42884 200
57.44896 196
57.46907 201
57.48918 210
57.5093 199
57.52941 196
57.54952 182
57.56964 196
57.58975 191
57.60987 197
57.62998 189
57.65009 183
57.67021 171
57.69032 157
57.71043 202
57.73055 169
57.75066 181
57.77078 201
57.79089 188
57.811 188
57.83112 192
57.85123 184
57.87134 174
57.89146 185
57.91157 168
57.93168 201
57.9518 182
57.97191 208
57.99203 177
58.01214 187
58.03225 201
58.05237 184
58.07248 174
58.09259 193
58.11271 192
58.13282 191
58.15294 221
58.17305 203
58.19316 204
58.21328 201
58.23339 169
58.2535 190
58.27362 191
58.29373 203
58.31385 177
58.33396 212
58.35407 210
58.37419 186
58.3943 206
58.41441 191
58.43453 195
58.45464 196
58.47475 208
58.49487 185
58.51498 200
58.5351 213
58.55521 205
58.57532 219
58.59544 213
58.61555 220
58.63566 250
58.65578 227
58.67589 200
58.69601 199
58.71612 221
58.73623 220
58.75635 200
58.77646 203
58.79657 166
58.81669 209
58.8368 184
58.85691 184
58.87703 206
58.89714 197
58.91726 199
58.93737 184
58.95748 196
58.9776 179
58.99771 204
59.01782 173
59.03794 218
59.05805 206
59.07817 190
59.09828 172
59.11839 186
59.13851 176
59.15862 199
59.17873 200
59.19885 210
59.21896 212
59.23908 210
59.25919 211
59.2793 210
59.29942 191
59.31953 226
59.33964 230
59.35976 236
59.37987 228
59.39998 247
59.4201 206
59.44021 250
59.46033 244
59.48044 255
59.50055 274
59.52067 276
59.54078 294
59.56089 260
59.58101 324
59.60112 314
59.62124 317
59.64135 394
59.66146 383
59.68158 449
59.70169 489
59.7218 506
59.74192 641
59.76203 747
59.78215 891
59.80226 997
59.82237 1221
59.84249 1406
59.8626 1584
59.88271 1559
59.90283 1690
59.92294 1503
59.94305 1337
59.96317 1129
59.98328 984
60.0034 926
60.02351 895
60.04362 976
60.06374 915
60.08385 796
60.10396 748
60.12408 538
60.14419 433
60.16431 348
60.18442 313
60.20453 266
60.22465 262
60.24476 276
60.26487 256
60.28499 246
60.3051 236
60.32522 233
60.34533 239
60.36544 189
60.38556 225
60.40567 212
60.42578 214
60.4459 214
60.46601 213
60.48612 204
60.50624 207
60.52635 192
60.54647 206
60.56658 191
60.58669 232
60.60681 214
60.62692 230
60.64703 199
60.66715 196
60.68726 203
60.70738 181
60.72749 194
60.7476 218
60.76772 211
60.78783 203
60.80794 170
60.82806 200
60.84817 207
60.86828 184
60.8884 210
60.90851 231
60.92863 208
60.94874 177
60.96885 214
60.98897 216
61.00908 240
61.02919 202
61.04931 230
61.06942 246
61.08954 247
61.10965 246
61.12976 237
61.14988 217
61.16999 228
61.1901 239
61.21022 232
61.23033 231
61.25045 211
61.27056 241
61.29067 228
61.31079 215
61.3309 234
61.35101 226
61.37113 195
61.39124 193
61.41135 208
61.43147 212
61.45158 191
61.4717 218
61.49181 203
61.51192 233
61.53204 204
61.55215 201
61.57226 192
61.59238 181
61.61249 207
61.63261 223
61.65272 209
61.67283 227
61.69295 197
61.71306 215
61.73317 217
61.75329 186
61.7734 204
61.79352 212
61.81363 202
61.83374 196
61.85386 227
61.87397 215
61.89408 184
61.9142 212
61.93431 214
61.95442 217
61.97454 215
61.99465 212
62.01477 210
62.03488 203
62.05499 214
62.07511 233
62.09522 228
62.11533 232
62.13545 228
62.15556 226
62.17568 239
62.19579 233
62.2159 211
62.23602 234
62.25613 234
62.27624 243
62.29636 219
62.31647 225
62.33659 219
62.3567 220
62.37681 190
62.39693 188
62.41704 234
62.43715 205
62.45727 192
62.47738 236
62.49749 180
62.51761 218
62.53772 232
62.55784 225
62.57795 185
62.59806 214
62.61818 232
62.63829 223
62.6584 215
62.67852 200
62.69863 217
62.71875 207
62.73886 211
62.75897 199
62.77909 186
62.7992 204
62.81931 204
62.83943 198
62.85954 211
62.87965 200
62.89977 207
62.91988 222
62.94 205
62.96011 221
62.98022 212
63.00034 225
63.02045 205
63.04056 232
63.06068 235
63.08079 220
63.10091 227
63.12102 240
63.14113 222
63.16125 209
63.18136 245
63.20147 216
63.22159 223
63.2417 214
63.26182 212
63.28193 217
63.30204 219
63.32216 210
63.34227 219
63.36238 199
63.3825 176
63.40261 212
63.42272 193
63.44284 198
63.46295 199
63.48307 209
63.50318 201
63.52329 217
63.54341 221
63.56352 242
63.58363 195
63.60375 227
63.62386 222
63.64398 238
63.66409 246
63.6842 249
63.70432 258
63.72443 258
63.74454 296
63.76466 257
63.78477 273
63.80489 298
63.825 330
63.84511 354
63.86523 382
63.88534 414
63.90545 414
63.92557 429
63.94568 490
63.96579 521
63.98591 478
64.00602 446
64.02614 405
64.04625 348
64.06636 343
64.08648 332
64.10659 326
64.1267 313
64.14682 345
64.16693 359
64.18705 257
64.20716 278
64.22727 244
64.24739 212
64.2675 209
64.28761 213
64.30773 205
64.32784 191
64.34796 200
64.36807 186
64.38818 208
64.4083 191
64.42841 186
64.44852 180
64.46864 188
64.48875 177
64.50886 203
64.52898 170
64.54909 180
64.56921 179
64.58932 183
64.60943 178
64.62955 178
64.64966 182
64.66977 186
64.68989 187
64.71 195
64.73012 169
64.75023 186
64.77034 176
64.79046 187
64.81057 195
64.83068 178
64.8508 169
64.87091 190
64.89102 195
64.91114 197
64.93125 200
64.95137 190
64.97148 190
64.99159 203
65.01171 198
65.03182 224
65.05193 222
65.07205 208
65.09216 199
65.11228 209
65.13239 211
65.1525 222
65.17262 204
65.19273 230
65.21284 235
65.23296 223
65.25307 214
65.27319 208
65.2933 234
65.31341 242
65.33353 216
65.35364 220
65.37375 200
65.39387 199
65.41398 192
65.43409 217
65.45421 187
65.47432 193
65.49444 183
65.51455 197
65.53466 204
65.55478 196
65.57489 230
65.595 199
65.61512 223
65.63523 218
65.65535 235
65.67546 242
65.69557 227
65.71569 260
65.7358 218
65.75591 241
65.77603 205
65.79614 198
65.81626 212
65.83637 218
65.85648 221
65.8766 208
65.89671 222
65.91682 198
65.93694 199
65.95705 203
65.97716 190
65.99728 175
66.01739 194
66.03751 184
66.05762 199
66.07773 211
66.09785 199
66.11796 207
66.13807 210
66.15819 217
66.1783 223
66.19842 201
66.21853 230
66.23864 205
66.25876 211
66.27887 221
66.29898 198
66.3191 192
66.33921 194
66.35933 199
66.37944 219
66.39955 195
66.41967 224
66.43978 216
66.45989 174
66.48001 187
66.50012 189
66.52023 207
66.54035 200
66.56046 183
66.58058 203
66.60069 162
66.6208 185
66.64092 171
66.66103 194
66.68114 204
66.70126 198
66.72137 199
66.74149 189
66.7616 159
66.78171 186
66.80183 203
66.82194 205
66.84205 218
66.86217 186
66.88228 189
66.90239 201
66.92251 209
66.94262 208
66.96274 203
66.98285 190
67.00296 233
67.02308 196
67.04319 210
67.0633 202
67.08342 211
67.10353 205
67.12365 206
67.14376 223
67.16387 216
67.18399 223
67.2041 217
67.22421 214
67.24433 224
67.26444 208
67.28456 241
67.30467 225
67.32478 264
67.3449 299
67.36501 250
67.38512 298
67.40524 290
67.42535 300
67.44546 320
67.46558 344
67.48569 368
67.50581 414
67.52592 447
67.54603 545
67.56615 553
67.58626 688
67.60637 833
67.62649 902
67.6466 1040
67.66672 1100
67.68683 1105
67.70694 1002
67.72706 858
67.74717 782
67.76728 704
67.7874 699
67.80751 686
67.82763 758
67.84774 765
67.86785 867
67.88797 810
67.90808 821
67.92819 817
67.94831 802
67.96842 845
67.98853 915
68.00865 1011
68.02876 1161
68.04888 1331
68.06899 1368
68.0891 1395
68.10922 1252
68.12933 1257
68.14944 1168
68.16956 1103
68.18967 1135
68.20979 1278
68.2299 1297
68.25001 1277
68.27013 1282
68.29024 1155
68.31035 1012
68.33047 847
68.35058 707
68.3707 634
68.39081 632
68.41092 590
68.43104 560
68.45115 521
68.47126 457
68.49138 403
68.51149 403
68.5316 315
68.55172 262
68.57183 276
68.59195 252
68.61206 242
68.63217 239
68.65229 232
68.6724 211
68.69251 220
68.71263 223
68.73274 213
68.75286 211
68.77297 203
68.79308 196
68.8132 218
68.83331 215
68.85342 212
68.87354 200
68.89365 198
68.91376 217
68.93388 199
68.95399 207
68.97411 196
68.99422 203
69.01433 212
69.03445 205
69.05456 210
69.07467 186
69.09479 189
69.1149 201
69.13502 197
69.15513 198
69.17524 189
69.19536 195
69.21547 174
69.23558 188
69.2557 201
69.27581 187
69.29593 195
69.31604 166
69.33615 184
69.35627 190
69.37638 195
69.39649 171
69.41661 196
69.43672 203
69.45683 191
69.47695 178
69.49706 179
69.51718 182
69.53729 196
69.5574 181
69.57752 174
69.59763 156
69.61774 180
69.63786 178
69.65797 188
69.67809 190
69.6982 176
69.71831 178
69.73843 195
69.75854 152
69.77865 177
69.79877 195
69.81888 168
69.839 185
69.85911 202
69.87922 181
69.89934 182
69.91945 203
69.93956 169
69.95968 181
69.97979 167
69.9999 179
70.02002 168
70.04013 164
70.06025 166
70.08036 182
70.10047 181
70.12059 181
70.1407 196
70.16081 156
70.18093 190
70.20104 164
70.22116 163
70.24127 186
70.26138 194
70.2815 185
70.30161 198
70.32172 172
70.34184 180
70.36195 190
70.38207 169
70.40218 145
70.42229 162
70.44241 143
70.46252 166
70.48263 158
70.50275 161
70.52286 179
70.54297 165
70.56309 174
70.5832 181
70.60332 207
70.62343 159
70.64354 179
70.66366 157
70.68377 186
70.70388 192
70.724 184
70.74411 161
70.76423 189
70.78434 210
70.80445 184
70.82457 183
70.84468 190
70.86479 161
70.88491 172
70.90502 157
70.92513 165
70.94525 187
70.96536 172
70.98548 179
71.00559 177
71.0257 184
71.04582 169
71.06593 170
71.08604 170
71.10616 167
71.12627 183
71.14639 154
71.1665 192
71.18661 158
71.20673 176
71.22684 171
71.24695 176
71.26707 181
71.28718 186
71.3073 163
71.32741 184
71.34752 188
71.36764 189
71.38775 183
71.40786 192
71.42798 191
71.44809 188
71.4682 195
71.48832 204
71.50843 167
71.52855 200
71.54866 208
71.56877 196
71.58889 173
71.609 201
71.62911 175
71.64923 168
71.66934 186
71.68946 192
71.70957 193
71.72968 175
71.7498 174
71.76991 166
71.79002 168
71.81014 205
71.83025 194
71.85037 168
71.87048 198
71.89059 176
71.91071 175
71.93082 190
71.95093 194
71.97105 210
71.99116 216
72.01127 204
72.03139 182
72.0515 218
72.07162 202
72.09173 200
72.11184 177
72.13196 192
72.15207 200
72.17218 184
72.1923 172
72.21241 206
72.23253 218
72.25264 204
72.27275 213
72.29287 204
72.31298 183
72.33309 183
72.35321 205
72.37332 192
72.39344 209
72.41355 199
72.43366 197
72.45378 177
72.47389 174
72.494 196
72.51412 173
72.53423 187
72.55434 171
72.57446 196
72.59457 185
72.61469 194
72.6348 196
72.65491 181
72.67503 169
72.69514 203
72.71525 182
72.73537 198
72.75548 182
72.7756 170
72.79571 202
72.81582 178
72.83594 200
72.85605 180
72.87616 215
72.89628 233
72.91639 203
72.9365 174
72.95662 194
72.97673 212
72.99685 212
73.01696 187
73.03707 211
73.05719 231
73.0773 245
73.09741 235
73.11753 244
73.13764 235
73.15776 233
73.17787 260
73.19798 267
73.2181 270
73.23821 308
73.25832 281
73.27844 322
73.29855 400
73.31867 396
73.33878 476
73.35889 430
73.37901 476
73.39912 512
73.41923 500
73.43935 462
73.45946 411
73.47957 346
73.49969 310
73.5198 308
73.53992 306
73.56003 348
73.58014 321
73.60026 332
73.62037 332
73.64048 339
73.6606 285
73.68071 278
73.70083 282
73.72094 228
73.74105 220
73.76117 198
73.78128 200
73.80139 183
73.82151 199
73.84162 207
73.86174 207
73.88185 178
73.90196 186
73.92208 185
73.94219 195
73.9623 171
73.98242 186
74.00253 183
74.02264 192
74.04276 185
74.06287 172
74.08299 195
74.1031 175
74.12321 182
74.14333 174
74.16344 170
74.18355 172
74.20367 169
74.22378 194
74.2439 188
74.26401 198
74.28412 214
74.30424 179
74.32435 189
74.34446 163
74.36458 186
74.38469 175
74.40481 187
74.42492 199
74.44503 201
74.46515 178
74.48526 223
74.50537 199
74.52549 184
74.5456 203
74.56571 183
74.58583 171
74.60594 186
74.62606 189
74.64617 189
74.66628 178
74.6864 181
74.70651 178
74.72662 182
74.74674 204
74.76685 205
74.78697 216
74.80708 183
74.82719 201
74.84731 191
74.86742 195
74.88753 203
74.90765 178
74.92776 197
74.94787 189
74.96799 164
74.9881 210
75.00822 195
