3.00117 20793
3.02128 20264
3.0414 19298
3.06151 19371
3.08162 18731
3.10174 17737
3.12185 17665
3.14197 16935
3.16208 16864
3.18219 16172
3.20231 15473
3.22242 15449
3.24253 14759
3.26265 14118
3.28276 13994
3.30288 13489
3.32299 13080
3.3431 12501
3.36322 12066
3.38333 11704
3.40344 11395
3.42356 11308
3.44367 10694
3.46379 10148
3.4839 10181
3.50401 9622
3.52413 9358
3.54424 8975
3.56435 8503
3.58447 8368
3.60458 7893
3.62469 8047
3.64481 7230
3.66492 7336
3.68504 6767
3.70515 6698
3.72526 6538
3.74538 6090
3.76549 5886
3.7856 5595
3.80572 5577
3.82583 5326
3.84595 4916
3.86606 4690
3.88617 4555
3.90629 4222
3.9264 4132
3.94651 3916
3.96663 3808
3.98674 3633
4.00686 3509
4.02697 3417
4.04708 3047
4.0672 2993
4.08731 2917
4.10742 2855
4.12754 2659
4.14765 2409
4.16776 2414
4.18788 2388
4.20799 2235
4.22811 2246
4.24822 2028
4.26833 2003
4.28845 1961
4.30856 1888
4.32867 1806
4.34879 1687
4.3689 1650
4.38902 1601
4.40913 1630
4.42924 1649
4.44936 1377
4.46947 1445
4.48958 1574
4.5097 1342
4.52981 1434
4.54992 1357
4.57004 1265
4.59015 1233
4.61027 1282
4.63038 1237
4.65049 1147
4.67061 1175
4.69072 1094
4.71083 1073
4.73095 1079
4.75106 970
4.77118 1009
4.79129 1038
4.8114 1043
4.83152 982
4.85163 874
4.87174 886
4.89186 880
4.91197 805
4.93209 864
4.9522 842
4.97231 818
4.99243 795
5.01254 795
5.03265 764
5.05277 707
5.07288 699
5.09299 724
5.11311 719
5.13322 710
5.15334 707
5.17345 651
5.19356 692
5.21368 691
5.23379 623
5.2539 572
5.27402 628
5.29413 646
5.31425 587
5.33436 524
5.35447 588
5.37459 522
5.3947 497
5.41481 534
5.43493 506
5.45504 477
5.47516 480
5.49527 458
5.51538 488
5.5355 422
5.55561 430
5.57572 418
5.59584 424
5.61595 419
5.63606 383
5.65618 409
5.67629 418
5.69641 371
5.71652 340
5.73663 363
5.75675 379
5.77686 362
5.79697 390
5.81709 394
5.8372 339
5.85732 336
5.87743 381
5.89754 364
5.91766 359
5.93777 372
5.95788 358
5.978 331
5.99811 351
6.01823 328
6.03834 319
6.05845 319
6.07857 297
6.09868 341
6.11879 311
6.13891 322
6.15902 304
6.17913 345
6.19925 324
6.21936 306
6.23948 301
6.25959 289
6.2797 305
6.29982 313
6.31993 296
6.34004 268
6.36016 298
6.38027 283
6.40039 309
6.4205 271
6.44061 301
6.46073 273
6.48084 297
6.50095 283
6.52107 308
6.54118 322
6.56129 288
6.58141 313
6.60152 284
6.62164 298
6.64175 285
6.66186 267
6.68198 275
6.70209 310
6.7222 305
6.74232 286
6.76243 317
6.78255 273
6.80266 261
6.82277 253
6.84289 236
6.863 289
6.88311 303
6.90323 315
6.92334 286
6.94346 277
6.96357 287
6.98368 258
7.0038 285
7.02391 283
7.04402 270
7.06414 273
7.08425 223
7.10436 281
7.12448 266
7.14459 270
7.16471 251
7.18482 259
7.20493 284
7.22505 309
7.24516 253
7.26527 293
7.28539 240
7.3055 275
7.32562 286
7.34573 281
7.36584 288
7.38596 253
7.40607 267
7.42618 285
7.4463 266
7.46641 264
7.48653 299
7.50664 259
7.52675 279
7.54687 273
7.56698 272
7.58709 286
7.60721 300
7.62732 276
7.64743 316
7.66755 246
7.68766 271
7.70778 302
7.72789 279
7.748 284
7.76812 222
7.78823 326
7.80834 271
7.82846 282
7.84857 273
7.86869 295
7.8888 281
7.90891 268
7.92903 302
7.94914 302
7.96925 294
7.98937 283
8.00948 260
8.0296 310
8.04971 276
8.06982 280
8.08994 266
8.11005 265
8.13016 303
8.15028 298
8.17039 284
8.1905 274
8.21062 318
8.23073 296
8.25085 317
8.27096 280
8.29107 293
8.31119 310
8.3313 278
8.35141 273
8.37153 268
8.39164 262
8.41176 280
8.43187 291
8.45198 294
8.4721 274
8.49221 292
8.51232 283
8.53244 310
8.55255 275
8.57266 307
8.59278 301
8.61289 270
8.63301 278
8.65312 269
8.67323 289
8.69335 266
8.71346 302
8.73357 280
8.75369 276
8.7738 305
8.79392 310
8.81403 296
8.83414 308
8.85426 317
8.87437 313
8.89448 314
8.9146 258
8.93471 288
8.95483 309
8.97494 309
8.99505 297
9.01517 318
9.03528 301
9.05539 304
9.07551 283
9.09562 305
9.11573 308
9.13585 285
9.15596 275
9.17608 296
9.19619 296
9.2163 296
9.23642 298
9.25653 295
9.27664 283
9.29676 290
9.31687 293
9.33699 304
9.3571 272
9.37721 284
9.39733 283
9.41744 293
9.43755 294
9.45767 277
9.47778 305
9.4979 308
9.51801 318
9.53812 294
9.55824 295
9.57835 280
9.59846 293
9.61858 283
9.63869 314
9.6588 258
9.67892 290
9.69903 274
9.71915 303
9.73926 284
9.75937 337
9.77949 288
9.7996 281
9.81971 306
9.83983 269
9.85994 314
9.88006 268
9.90017 303
9.92028 292
9.9404 280
9.96051 262
9.98062 279
10.00074 282
10.02085 299
10.04097 311
10.06108 309
10.08119 254
10.10131 289
10.12142 289
10.14153 282
10.16165 290
10.18176 298
10.20187 304
10.22199 297
10.2421 270
10.26222 264
10.28233 291
10.30244 287
10.32256 288
10.34267 267
10.36278 307
10.3829 319
10.40301 255
10.42313 294
10.44324 291
10.46335 267
10.48347 269
10.50358 308
10.52369 299
10.54381 292
10.56392 272
10.58403 272
10.60415 288
10.62426 296
10.64438 315
10.66449 301
10.6846 272
10.70472 292
10.72483 291
10.74494 313
10.76506 295
10.78517 282
10.80529 271
10.8254 316
10.84551 316
10.86563 298
10.88574 269
10.90585 301
10.92597 276
10.94608 305
10.9662 305
10.98631 262
11.00642 293
11.02654 285
11.04665 286
11.06676 292
11.08688 295
11.10699 282
11.1271 292
11.14722 266
11.16733 294
11.18745 300
11.20756 288
11.22767 269
11.24779 308
11.2679 307
11.28801 292
11.30813 250
11.32824 287
11.34836 286
11.36847 303
11.38858 304
11.4087 325
11.42881 282
11.44892 328
11.46904 325
11.48915 335
11.50927 314
11.52938 306
11.54949 312
11.56961 307
11.58972 343
11.60983 308
11.62995 303
11.65006 317
11.67017 315
11.69029 322
11.7104 312
11.73052 338
11.75063 309
11.77074 292
11.79086 319
11.81097 338
11.83108 344
11.8512 375
11.87131 358
11.89143 360
11.91154 343
11.93165 359
11.95177 408
11.97188 357
11.99199 361
12.01211 352
12.03222 421
12.05234 402
12.07245 410
12.09256 443
12.11268 422
12.13279 427
12.1529 455
12.17302 475
12.19313 508
12.21324 508
12.23336 524
12.25347 529
12.27359 559
12.2937 582
12.31381 570
12.33393 567
12.35404 570
12.37415 624
12.39427 557
12.41438 597
12.4345 570
12.45461 494
12.47472 444
12.49484 437
12.51495 424
12.53506 400
12.55518 400
12.57529 396
12.5954 435
12.61552 336
12.63563 356
12.65575 318
12.67586 305
12.69597 330
12.71609 330
12.7362 286
12.75631 303
12.77643 322
12.79654 316
12.81666 297
12.83677 303
12.85688 292
12.877 293
12.89711 313
12.91722 281
12.93734 289
12.95745 292
12.97757 305
12.99768 289
13.01779 303
13.03791 258
13.05802 287
13.07813 318
13.09825 302
13.11836 263
13.13847 309
13.15859 278
13.1787 256
13.19882 266
13.21893 275
13.23904 304
13.25916 256
13.27927 284
13.29938 250
13.3195 237
13.33961 276
13.35973 279
13.37984 264
13.39995 297
13.42007 263
13.44018 260
13.46029 252
13.48041 292
13.50052 263
13.52064 258
13.54075 304
13.56086 268
13.58098 277
13.60109 280
13.6212 241
13.64132 252
13.66143 259
13.68154 247
13.70166 260
13.72177 273
13.74189 261
13.762 263
13.78211 283
13.80223 226
13.82234 275
13.84245 232
13.86257 256
13.88268 291
13.9028 265
13.92291 269
13.94302 260
13.96314 273
13.98325 256
14.00336 262
14.02348 268
14.04359 273
14.06371 255
14.08382 281
14.10393 250
14.12405 247
14.14416 261
14.16427 272
14.18439 261
14.2045 277
14.22461 227
14.24473 268
14.26484 264
14.28496 262
14.30507 272
14.32518 251
14.3453 264
14.36541 245
14.38552 227
14.40564 254
14.42575 248
14.44587 258
14.46598 259
14.48609 273
14.50621 257
14.52632 270
14.54643 260
14.56655 259
14.58666 241
14.60677 242
14.62689 223
14.647 243
14.66712 265
14.68723 245
14.70734 233
14.72746 238
14.74757 250
14.76768 271
14.7878 241
14.80791 248
14.82803 237
14.84814 250
14.86825 257
14.88837 229
14.90848 246
14.92859 234
14.94871 258
14.96882 210
14.98894 282
15.00905 243
15.02916 236
15.04928 250
15.06939 260
15.0895 260
15.10962 224
15.12973 254
15.14984 228
15.16996 215
15.19007 228
15.21019 258
15.2303 233
15.25041 219
15.27053 252
15.29064 227
15.31075 239
15.33087 241
15.35098 219
15.3711 252
15.39121 224
15.41132 293
15.43144 240
15.45155 225
15.47166 263
15.49178 207
15.51189 261
15.53201 249
15.55212 239
15.57223 227
15.59235 250
15.61246 240
15.63257 207
15.65269 254
15.6728 215
15.69291 246
15.71303 221
15.73314 238
15.75326 254
15.77337 259
15.79348 251
15.8136 231
15.83371 247
15.85382 227
15.87394 254
15.89405 231
15.91417 218
15.93428 228
15.95439 225
15.97451 243
15.99462 239
16.01473 212
16.03485 233
16.05496 260
16.07508 233
16.09519 235
16.1153 231
16.13542 231
16.15553 207
16.17564 224
16.19576 222
16.21587 232
16.23598 244
16.2561 235
16.27621 238
16.29633 237
16.31644 224
16.33655 234
16.35667 268
16.37678 226
16.39689 234
16.41701 219
16.43712 232
16.45724 230
16.47735 244
16.49746 258
16.51758 232
16.53769 225
16.5578 224
16.57792 227
16.59803 232
16.61814 245
16.63826 250
16.65837 246
16.67849 255
16.6986 250
16.71871 246
16.73883 234
16.75894 229
16.77905 225
16.79917 220
16.81928 247
16.8394 237
16.85951 226
16.87962 257
16.89974 203
16.91985 236
16.93996 217
16.96008 219
16.98019 212
17.00031 258
17.02042 228
17.04053 283
17.06065 212
17.08076 242
17.10087 236
17.12099 244
17.1411 242
17.16121 215
17.18133 249
17.20144 240
17.22156 218
17.24167 232
17.26178 220
17.2819 223
17.30201 219
17.32212 251
17.34224 246
17.36235 255
17.38247 197
17.40258 239
17.42269 221
17.44281 254
17.46292 250
17.48303 237
17.50315 267
17.52326 235
17.54338 234
17.56349 261
17.5836 239
17.60372 227
17.62383 224
17.64394 237
17.66406 208
17.68417 226
17.70428 225
17.7244 259
17.74451 265
17.76463 277
17.78474 236
17.80485 263
17.82497 263
17.84508 236
17.86519 226
17.88531 223
17.90542 231
17.92554 267
17.94565 245
17.96576 240
17.98588 269
18.00599 250
18.0261 221
18.04622 222
18.06633 239
18.08645 240
18.10656 257
18.12667 262
18.14679 276
18.1669 246
18.18701 228
18.20713 249
18.22724 262
18.24735 259
18.26747 266
18.28758 280
18.3077 214
18.32781 259
18.34792 276
18.36804 247
18.38815 242
18.40826 258
18.42838 234
18.44849 263
18.46861 224
18.48872 224
18.50883 253
18.52895 243
18.54906 252
18.56917 236
18.58929 251
18.6094 223
18.62951 243
18.64963 232
18.66974 201
18.68986 240
18.70997 218
18.73008 256
18.7502 265
18.77031 222
18.79042 271
18.81054 290
18.83065 249
18.85077 283
18.87088 227
18.89099 255
18.91111 229
18.93122 227
18.95133 282
18.97145 216
18.99156 217
19.01168 252
19.03179 234
19.0519 247
19.07202 258
19.09213 262
19.11224 233
19.13236 241
19.15247 269
19.17258 240
19.1927 239
19.21281 270
19.23293 272
19.25304 256
19.27315 266
19.29327 246
19.31338 248
19.33349 271
19.35361 267
19.37372 270
19.39384 255
19.41395 262
19.43406 293
19.45418 245
19.47429 249
19.4944 252
19.51452 294
19.53463 284
19.55475 274
19.57486 275
19.59497 278
19.61509 292
19.6352 294
19.65531 333
19.67543 330
19.69554 333
19.71565 341
19.73577 385
19.75588 420
19.776 439
19.79611 519
19.81622 482
19.83634 499
19.85645 488
19.87656 476
19.89668 508
19.91679 530
19.93691 589
19.95702 511
19.97713 514
19.99725 518
20.01736 488
20.03747 515
20.05759 518
20.0777 545
20.09782 485
20.11793 471
20.13804 500
20.15816 460
20.17827 496
20.19838 462
20.2185 481
20.23861 458
20.25872 538
20.27884 476
20.29895 488
20.31907 495
20.33918 510
20.35929 495
20.37941 521
20.39952 475
20.41963 529
20.43975 532
20.45986 539
20.47998 535
20.50009 536
20.5202 593
20.54032 544
20.56043 595
20.58054 610
20.60066 613
20.62077 672
20.64088 688
20.661 771
20.68111 901
20.70123 1039
20.72134 1350
20.74145 1727
20.76157 2323
20.78168 3141
20.80179 4142
20.82191 5267
20.84202 6072
20.86214 6558
20.88225 6471
20.90236 5344
20.92248 3964
20.94259 2735
20.9627 1793
20.98282 1068
21.00293 800
21.02305 718
21.04316 653
21.06327 629
21.08339 568
21.1035 599
21.12361 590
21.14373 542
21.16384 591
21.18395 517
21.20407 525
21.22418 528
21.2443 522
21.26441 474
21.28452 543
21.30464 486
21.32475 510
21.34486 493
21.36498 531
21.38509 499
21.40521 463
21.42532 474
21.44543 475
21.46555 519
21.48566 489
21.50577 511
21.52589 525
21.546 444
21.56612 464
21.58623 445
21.60634 443
21.62646 483
21.64657 412
21.66668 434
21.6868 441
21.70691 426
21.72702 430
21.74714 432
21.76725 380
21.78737 388
21.80748 411
21.82759 399
21.84771 402
21.86782 380
21.88793 357
21.90805 374
21.92816 362
21.94828 369
21.96839 390
21.9885 416
22.00862 388
22.02873 353
22.04884 411
22.06896 393
22.08907 385
22.10919 371
22.1293 343
22.14941 355
22.16953 357
22.18964 394
22.20975 337
22.22987 389
22.24998 391
22.27009 345
22.29021 373
22.31032 373
22.33044 325
22.35055 374
22.37066 322
22.39078 349
22.41089 381
22.431 368
22.45112 332
22.47123 324
22.49135 313
22.51146 344
22.53157 310
22.55169 366
22.5718 347
22.59191 312
22.61203 315
22.63214 371
22.65225 319
22.67237 345
22.69248 353
22.7126 328
22.73271 312
22.75282 355
22.77294 331
22.79305 366
22.81316 307
22.83328 314
22.85339 323
22.87351 308
22.89362 347
22.91373 329
22.93385 312
22.95396 320
22.97407 327
22.99419 335
23.0143 335
23.03442 367
23.05453 321
23.07464 325
23.09476 297
23.11487 341
23.13498 333
23.1551 321
23.17521 342
23.19532 313
23.21544 313
23.23555 342
23.25567 302
23.27578 335
23.29589 320
23.31601 344
23.33612 333
23.35623 336
23.37635 330
23.39646 347
23.41658 293
23.43669 312
23.4568 372
23.47692 274
23.49703 301
23.51714 323
23.53726 344
23.55737 321
23.57749 313
23.5976 302
23.61771 311
23.63783 304
23.65794 310
23.67805 321
23.69817 329
23.71828 328
23.73839 343
23.75851 298
23.77862 321
23.79874 336
23.81885 319
23.83896 352
23.85908 344
23.87919 334
23.8993 344
23.91942 369
23.93953 337
23.95965 409
23.97976 388
23.99987 395
24.01999 390
24.0401 396
24.06021 368
24.08033 370
24.10044 332
24.12056 344
24.14067 354
24.16078 342
24.1809 358
24.20101 318
24.22112 357
24.24124 328
24.26135 335
24.28146 340
24.30158 354
24.32169 362
24.34181 349
24.36192 347
24.38203 369
24.40215 345
24.42226 364
24.44237 351
24.46249 354
24.4826 322
24.50272 352
24.52283 345
24.54294 373
24.56306 380
24.58317 402
24.60328 394
24.6234 363
24.64351 406
24.66362 416
24.68374 452
24.70385 463
24.72397 492
24.74408 458
24.76419 521
24.78431 497
24.80442 455
24.82453 548
24.84465 558
24.86476 582
24.88488 531
24.90499 489
24.9251 540
24.94522 505
24.96533 519
24.98544 513
25.00556 479
25.02567 470
25.04579 420
25.0659 437
25.08601 443
25.10613 442
25.12624 411
25.14635 443
25.16647 436
25.18658 429
25.20669 434
25.22681 454
25.24692 435
25.26704 422
25.28715 463
25.30726 468
25.32738 427
25.34749 389
25.3676 457
25.38772 385
25.40783 425
25.42795 391
25.44806 365
25.46817 381
25.48829 374
25.5084 387
25.52851 370
25.54863 370
25.56874 363
25.58886 325
25.60897 357
25.62908 384
25.6492 468
25.66931 407
25.68942 452
25.70954 441
25.72965 447
25.74976 455
25.76988 494
25.78999 461
25.81011 475
25.83022 518
25.85033 496
25.87045 515
25.89056 449
25.91067 440
25.93079 496
25.9509 494
25.97102 492
25.99113 552
26.01124 505
26.03136 528
26.05147 547
26.07158 547
26.0917 602
26.11181 634
26.13193 587
26.15204 685
26.17215 689
26.19227 695
26.21238 786
26.23249 826
26.25261 905
26.27272 872
26.29283 993
26.31295 1033
26.33306 1133
26.35318 1321
26.37329 1452
26.3934 1610
26.41352 2023
26.43363 2305
26.45374 3033
26.47386 4001
26.49397 5391
26.51409 7272
26.5342 10278
26.55431 13972
26.57443 18556
26.59454 23511
26.61465 28144
26.63477 29891
26.65488 28323
26.67499 24111
26.69511 18484
26.71522 13848
26.73534 9794
26.75545 6054
26.77556 3410
26.79568 2154
26.81579 1743
26.8359 1439
26.85602 1338
26.87613 1220
26.89625 1051
26.91636 1001
26.93647 909
26.95659 879
26.9767 826
26.99681 734
27.01693 697
27.03704 604
27.05716 597
27.07727 602
27.09738 553
27.1175 487
27.13761 504
27.15772 516
27.17784 491
27.19795 451
27.21806 465
27.23818 409
27.25829 447
27.27841 465
27.29852 443
27.31863 482
27.33875 440
27.35886 453
27.37897 481
27.39909 440
27.4192 454
27.43932 442
27.45943 432
27.47954 441
27.49966 422
27.51977 396
27.53988 387
27.56 396
27.58011 406
27.60023 396
27.62034 355
27.64045 352
27.66057 399
27.68068 377
27.70079 377
27.72091 380
27.74102 359
27.76113 364
27.78125 384
27.80136 391
27.82148 371
27.84159 382
27.8617 370
27.88182 379
27.90193 376
27.92204 361
27.94216 356
27.96227 354
27.98239 359
28.0025 337
28.02261 314
28.04273 353
28.06284 350
28.08295 319
28.10307 297
28.12318 335
28.1433 339
28.16341 323
28.18352 341
28.20364 305
28.22375 302
28.24386 325
28.26398 347
28.28409 318
28.3042 323
28.32432 345
28.34443 350
28.36455 291
28.38466 327
28.40477 290
28.42489 334
28.445 311
28.46511 310
28.48523 282
28.50534 323
28.52546 317
28.54557 256
28.56568 303
28.5858 345
28.60591 295
28.62602 338
28.64614 333
28.66625 324
28.68636 319
28.70648 293
28.72659 321
28.74671 329
28.76682 294
28.78693 367
28.80705 341
28.82716 276
28.84727 308
28.86739 335
28.8875 329
28.90762 315
28.92773 308
28.94784 300
28.96796 313
28.98807 324
29.00818 271
29.0283 327
29.04841 281
29.06853 297
29.08864 283
29.10875 295
29.12887 302
29.14898 265
29.16909 289
29.18921 260
29.20932 278
29.22943 280
29.24955 281
29.26966 307
29.28978 268
29.30989 291
29.33 302
29.35012 291
29.37023 314
29.39034 303
29.41046 290
29.43057 295
29.45069 293
29.4708 320
29.49091 281
29.51103 267
29.53114 291
29.55125 312
29.57137 279
29.59148 265
29.6116 308
29.63171 297
29.65182 299
29.67194 270
29.69205 291
29.71216 328
29.73228 283
29.75239 278
29.7725 279
29.79262 274
29.81273 325
29.83285 307
29.85296 276
29.87307 259
29.89319 310
29.9133 273
29.93341 242
29.95353 268
29.97364 311
29.99376 289
30.01387 266
30.03398 280
30.0541 278
30.07421 279
30.09432 290
30.11444 273
30.13455 295
30.15467 275
30.17478 288
30.19489 300
30.21501 291
30.23512 310
30.25523 278
30.27535 268
30.29546 289
30.31557 267
30.33569 279
30.3558 255
30.37592 293
30.39603 277
30.41614 304
30.43626 261
30.45637 259
30.47648 281
30.4966 268
30.51671 281
30.53683 252
30.55694 300
30.57705 269
30.59717 284
30.61728 275
30.63739 264
30.65751 272
30.67762 229
30.69773 271
30.71785 281
30.73796 267
30.75808 291
30.77819 281
30.7983 273
30.81842 258
30.83853 262
30.85864 265
30.87876 262
30.89887 293
30.91899 276
30.9391 261
30.95921 276
30.97933 283
30.99944 256
31.01955 287
31.03967 242
31.05978 254
31.0799 265
31.10001 254
31.12012 270
31.14024 270
31.16035 247
31.18046 276
31.20058 279
31.22069 293
31.2408 293
31.26092 262
31.28103 250
31.30115 254
31.32126 280
31.34137 249
31.36149 293
31.3816 263
31.40171 258
31.42183 261
31.44194 250
31.46206 278
31.48217 272
31.50228 244
31.5224 277
31.54251 254
31.56262 249
31.58274 262
31.60285 250
31.62297 247
31.64308 239
31.66319 281
31.68331 264
31.70342 260
31.72353 249
31.74365 275
31.76376 238
31.78387 259
31.80399 273
31.8241 278
31.84422 249
31.86433 252
31.88444 272
31.90456 259
31.92467 236
31.94478 246
31.9649 265
31.98501 279
32.00513 262
32.02524 229
32.04535 222
32.06547 263
32.08558 219
32.10569 222
32.12581 282
32.14592 253
32.16604 236
32.18615 246
32.20626 256
32.22638 248
32.24649 252
32.2666 241
32.28672 264
32.30683 283
32.32694 267
32.34706 250
32.36717 249
32.38729 269
32.4074 266
32.42751 254
32.44763 257
32.46774 275
32.48785 274
32.50797 238
32.52808 275
32.5482 271
32.56831 246
32.58842 236
32.60854 244
32.62865 289
32.64876 272
32.66888 263
32.68899 262
32.7091 236
32.72922 274
32.74933 257
32.76945 271
32.78956 274
32.80967 246
32.82979 279
32.8499 241
32.87001 299
32.89013 276
32.91024 257
32.93036 267
32.95047 281
32.97058 280
32.9907 281
33.01081 254
33.03092 299
33.05104 270
33.07115 275
33.09127 272
33.11138 294
33.13149 298
33.15161 304
33.17172 285
33.19183 285
33.21195 305
33.23206 298
33.25217 284
33.27229 280
33.2924 293
33.31252 283
33.33263 272
33.35274 271
33.37286 274
33.39297 262
33.41308 286
33.4332 260
33.45331 255
33.47343 281
33.49354 294
33.51365 269
33.53377 265
33.55388 256
33.57399 279
33.59411 296
33.61422 259
33.63434 273
33.65445 297
33.67456 251
33.69468 242
33.71479 271
33.7349 274
33.75502 245
33.77513 263
33.79524 290
33.81536 247
33.83547 256
33.85559 273
33.8757 267
33.89581 273
33.91593 247
33.93604 260
33.95615 251
33.97627 266
33.99638 266
34.0165 285
34.03661 253
34.05672 248
34.07684 280
34.09695 246
34.11706 258
34.13718 264
34.15729 271
34.17741 274
34.19752 246
34.21763 247
34.23775 249
34.25786 252
34.27797 255
34.29809 260
34.3182 211
34.33831 220
34.35843 273
34.37854 251
34.39866 246
34.41877 256
34.43888 243
34.459 251
34.47911 259
34.49922 238
34.51934 262
34.53945 239
34.55957 262
34.57968 267
34.59979 308
34.61991 284
34.64002 281
34.66013 301
34.68025 307
34.70036 333
34.72047 316
34.74059 331
34.7607 300
34.78082 344
34.80093 312
34.82104 327
34.84116 368
34.86127 323
34.88138 338
34.9015 346
34.92161 368
34.94173 391
34.96184 378
34.98195 393
35.00207 378
35.02218 388
35.04229 383
35.06241 369
35.08252 296
35.10264 350
35.12275 356
35.14286 352
35.16298 330
35.18309 359
35.2032 375
35.22332 307
35.24343 352
35.26354 376
35.28366 325
35.30377 330
35.32389 325
35.344 337
35.36411 305
35.38423 334
35.40434 346
35.42445 356
35.44457 363
35.46468 374
35.4848 393
35.50491 350
35.52502 386
35.54514 397
35.56525 362
35.58536 384
35.60548 361
35.62559 390
35.64571 372
35.66582 396
35.68593 397
35.70605 361
35.72616 377
35.74627 404
35.76639 380
35.7865 371
35.80661 412
35.82673 392
35.84684 375
35.86696 345
35.88707 369
35.90718 374
35.9273 397
35.94741 396
35.96752 368
35.98764 352
36.00775 344
36.02787 358
36.04798 396
36.06809 356
36.08821 378
36.10832 326
36.12843 355
36.14855 373
36.16866 388
36.18878 374
36.20889 400
36.229 361
36.24912 436
36.26923 402
36.28934 411
36.30946 459
36.32957 498
36.34968 558
36.3698 585
36.38991 751
36.41003 863
36.43014 1065
36.45025 1253
36.47037 1583
36.49048 1795
36.51059 2145
36.53071 2072
36.55082 2041
36.57094 1819
36.59105 1506
36.61116 1305
36.63128 1178
36.65139 1004
36.6715 772
36.69162 600
36.71173 482
36.73184 388
36.75196 370
36.77207 359
36.79219 358
36.8123 375
36.83241 331
36.85253 338
36.87264 327
36.89275 320
36.91287 320
36.93298 356
36.9531 337
36.97321 334
36.99332 340
37.01344 339
37.03355 340
37.05366 292
37.07378 327
37.09389 316
37.11401 350
37.13412 321
37.15423 337
37.17435 325
37.19446 346
37.21457 334
37.23469 320
37.2548 360
37.27491 295
37.29503 349
37.31514 337
37.33526 356
37.35537 349
37.37548 318
37.3956 317
37.41571 316
37.43582 358
37.45594 315
37.47605 347
37.49617 334
37.51628 331
37.53639 319
37.55651 331
37.57662 325
37.59673 328
37.61685 342
37.63696 339
37.65708 344
37.67719 359
37.6973 360
37.71742 321
37.73753 359
37.75764 346
37.77776 307
37.79787 333
37.81798 296
37.8381 326
37.85821 336
37.87833 326
37.89844 323
37.91855 292
37.93867 295
37.95878 296
37.97889 314
37.99901 331
38.01912 323
38.03924 313
38.05935 314
38.07946 317
38.09958 312
38.11969 348
38.1398 354
38.15992 337
38.18003 331
38.20015 331
38.22026 351
38.24037 369
38.26049 347
38.2806 361
38.30071 381
38.32083 419
38.34094 413
38.36105 375
38.38117 389
38.40128 384
38.4214 382
38.44151 395
38.46162 349
38.48174 403
38.50185 387
38.52196 353
38.54208 353
38.56219 374
38.58231 351
38.60242 379
38.62253 335
38.64265 373
38.66276 308
38.68287 332
38.70299 365
38.7231 316
38.74321 291
38.76333 320
38.78344 342
38.80356 318
38.82367 310
38.84378 311
38.8639 358
38.88401 343
38.90412 333
38.92424 307
38.94435 330
38.96447 317
38.98458 354
39.00469 356
39.02481 312
39.04492 359
39.06503 346
39.08515 335
39.10526 390
39.12538 374
39.14549 391
39.1656 387
39.18572 391
39.20583 438
39.22594 442
39.24606 481
39.26617 524
39.28628 588
39.3064 654
39.32651 786
39.34663 979
39.36674 1163
39.38685 1368
39.40697 1701
39.42708 1856
39.44719 1990
39.46731 1961
39.48742 1856
39.50754 1436
39.52765 1305
39.54776 1142
39.56788 1038
39.58799 877
39.6081 687
39.62822 451
39.64833 390
39.66845 332
39.68856 353
39.70867 319
39.72879 317
39.7489 310
39.76901 299
39.78913 298
39.80924 291
39.82935 280
39.84947 302
39.86958 287
39.8897 323
39.90981 287
39.92992 312
39.95004 309
39.97015 296
39.99026 292
40.01038 322
40.03049 307
40.05061 338
40.07072 381
40.09083 414
40.11095 423
40.13106 513
40.15117 508
40.17129 577
40.1914 702
40.21152 768
40.23163 930
40.25174 1077
40.27186 1111
40.29197 1043
40.31208 942
40.3322 818
40.35231 704
40.37242 687
40.39254 581
40.41265 561
40.43277 476
40.45288 378
40.47299 341
40.49311 342
40.51322 304
40.53333 324
40.55345 306
40.57356 273
40.59368 280
40.61379 275
40.6339 278
40.65402 297
40.67413 282
40.69424 284
40.71436 320
40.73447 284
40.75458 236
40.7747 298
40.79481 277
40.81493 285
40.83504 296
40.85515 277
40.87527 281
40.89538 273
40.91549 289
40.93561 285
40.95572 302
40.97584 292
40.99595 272
41.01606 268
41.03618 261
41.05629 291
41.0764 283
41.09652 286
41.11663 271
41.13675 255
41.15686 279
41.17697 304
41.19709 249
41.2172 263
41.23731 244
41.25743 271
41.27754 286
41.29765 269
41.31777 294
41.33788 276
41.358 243
41.37811 251
41.39822 252
41.41834 259
41.43845 302
41.45856 276
41.47868 276
41.49879 269
41.51891 259
41.53902 277
41.55913 242
41.57925 269
41.59936 283
41.61947 271
41.63959 262
41.6597 238
41.67982 250
41.69993 259
41.72004 276
41.74016 258
41.76027 288
41.78038 278
41.8005 264
41.82061 264
41.84072 269
41.86084 264
41.88095 229
41.90107 258
41.92118 272
41.94129 283
41.96141 244
41.98152 268
42.00163 297
42.02175 285
42.04186 268
42.06198 290
42.08209 291
42.1022 304
42.12232 288
42.14243 277
42.16254 322
42.18266 341
42.20277 361
42.22289 376
42.243 436
42.26311 451
42.28323 541
42.30334 551
42.32345 709
42.34357 817
42.36368 1042
42.38379 1182
42.40391 1308
42.42402 1397
42.44414 1319
42.46425 1311
42.48436 1057
42.50448 935
42.52459 889
42.5447 811
42.56482 719
42.58493 586
42.60505 451
42.62516 363
42.64527 329
42.66539 302
42.6855 261
42.70561 262
42.72573 247
42.74584 263
42.76595 254
42.78607 267
42.80618 249
42.8263 259
42.84641 245
42.86652 231
42.88664 250
42.90675 244
42.92686 238
42.94698 229
42.96709 255
42.98721 254
43.00732 230
43.02743 227
43.04755 238
43.06766 237
43.08777 226
43.10789 262
43.128 224
43.14812 210
43.16823 255
43.18834 243
43.20846 244
43.22857 231
43.24868 242
43.2688 220
43.28891 252
43.30902 215
43.32914 218
43.34925 222
43.36937 221
43.38948 220
43.40959 213
43.42971 238
43.44982 227
43.46993 224
43.49005 228
43.51016 211
43.53028 220
43.55039 205
43.5705 202
43.59062 229
43.61073 220
43.63084 238
43.65096 210
43.67107 216
43.69119 220
43.7113 223
43.73141 248
43.75153 208
43.77164 219
43.79175 228
43.81187 199
43.83198 257
43.85209 223
43.87221 221
43.89232 247
43.91244 207
43.93255 237
43.95266 205
43.97278 231
43.99289 224
44.013 208
44.03312 233
44.05323 229
44.07335 233
44.09346 230
44.11357 221
44.13369 226
44.1538 214
44.17391 211
44.19403 223
44.21414 227
44.23426 233
44.25437 216
44.27448 204
44.2946 221
44.31471 235
44.33482 206
44.35494 220
44.37505 221
44.39516 226
44.41528 217
44.43539 229
44.45551 228
44.47562 205
44.49573 223
44.51585 250
44.53596 208
44.55607 230
44.57619 222
44.5963 208
44.61642 210
44.63653 215
44.65664 230
44.67676 230
44.69687 234
44.71698 232
44.7371 233
44.75721 212
44.77732 242
44.79744 237
44.81755 227
44.83767 242
44.85778 235
44.87789 220
44.89801 213
44.91812 205
44.93823 222
44.95835 239
44.97846 229
44.99858 239
45.01869 221
45.0388 252
45.05892 237
45.07903 225
45.09914 242
45.11926 236
45.13937 232
45.15949 233
45.1796 247
45.19971 246
45.21983 286
45.23994 221
45.26005 229
45.28017 261
45.30028 260
45.32039 268
45.34051 255
45.36062 263
45.38074 272
45.40085 268
45.42096 277
45.44108 307
45.46119 294
45.4813 314
45.50142 300
45.52153 304
45.54165 310
45.56176 359
45.58187 354
45.60199 392
45.6221 452
45.64221 502
45.66233 552
45.68244 670
45.70256 727
45.72267 833
45.74278 943
45.7629 1027
45.78301 1017
45.80312 947
45.82324 833
45.84335 675
45.86346 672
45.88358 639
45.90369 583
45.92381 538
45.94392 429
45.96403 347
45.98415 323
46.00426 294
46.02437 267
46.04449 284
46.0646 271
46.08472 283
46.10483 241
46.12494 281
46.14506 252
46.16517 238
46.18528 233
46.2054 244
46.22551 243
46.24563 269
46.26574 224
46.28585 258
46.30597 222
46.32608 191
46.34619 265
46.36631 216
46.38642 251
46.40653 260
46.42665 229
46.44676 217
46.46688 210
46.48699 226
46.5071 220
46.52722 244
46.54733 199
46.56744 223
46.58756 233
46.60767 207
46.62779 226
46.6479 234
46.66801 208
46.68813 229
46.70824 234
46.72835 222
46.74847 242
46.76858 236
46.78869 234
46.80881 261
46.82892 207
46.84904 238
46.86915 213
46.88926 222
46.90938 243
46.92949 206
46.9496 255
46.96972 212
46.98983 241
47.00995 229
47.03006 223
47.05017 233
47.07029 232
47.0904 233
47.11051 198
47.13063 231
47.15074 238
47.17086 223
47.19097 228
47.21108 240
47.2312 217
47.25131 223
47.27142 246
47.29154 231
47.31165 215
47.33176 240
47.35188 235
47.37199 212
47.39211 227
47.41222 213
47.43233 232
47.45245 216
47.47256 219
47.49267 224
47.51279 205
47.5329 208
47.55302 233
47.57313 245
47.59324 231
47.61336 222
47.63347 219
47.65358 204
47.6737 217
47.69381 246
47.71393 237
47.73404 218
47.75415 235
47.77427 246
47.79438 232
47.81449 198
47.83461 243
47.85472 245
47.87483 246
47.89495 226
47.91506 245
47.93518 234
47.95529 218
47.9754 219
47.99552 226
48.01563 220
48.03574 262
48.05586 228
48.07597 211
48.09609 221
48.1162 221
48.13631 210
48.15643 255
48.17654 238
48.19665 226
48.21677 241
48.23688 237
48.257 215
48.27711 204
48.29722 211
48.31734 220
48.33745 191
48.35756 199
48.37768 220
48.39779 218
48.4179 207
48.43802 232
48.45813 213
48.47825 216
48.49836 254
48.51847 221
48.53859 198
48.5587 225
48.57881 218
48.59893 215
48.61904 239
48.63916 248
48.65927 221
48.67938 219
48.6995 234
48.71961 241
48.73972 203
48.75984 231
48.77995 240
48.80006 232
48.82018 201
48.84029 223
48.86041 254
48.88052 241
48.90063 242
48.92075 249
48.94086 225
48.96097 227
48.98109 228
49.0012 215
49.02132 228
49.04143 246
49.06154 221
49.08166 259
49.10177 220
49.12188 210
49.142 213
49.16211 239
49.18223 242
49.20234 260
49.22245 233
49.24257 240
49.26268 236
49.28279 238
49.30291 249
49.32302 240
49.34313 258
49.36325 221
49.38336 237
49.40348 262
49.42359 230
49.4437 253
49.46382 219
49.48393 231
49.50404 263
49.52416 276
49.54427 245
49.56439 273
49.5845 267
49.60461 268
49.62473 250
49.64484 276
49.66495 276
49.68507 273
49.70518 305
49.7253 327
49.74541 342
49.76552 326
49.78564 386
49.80575 402
49.82586 421
49.84598 431
49.86609 525
49.8862 528
49.90632 600
49.92643 721
49.94655 860
49.96666 976
49.98677 1165
50.00689 1388
50.027 1673
50.04711 2059
50.06723 2438
50.08734 2773
50.10746 2991
50.12757 2976
50.14768 2661
50.1678 2182
50.18791 1796
50.20802 1646
50.22814 1646
50.24825 1609
50.26837 1410
50.28848 1159
50.30859 865
50.32871 620
50.34882 458
50.36893 409
50.38905 370
50.40916 374
50.42927 309
50.44939 321
50.4695 328
50.48962 310
50.50973 303
50.52984 319
50.54996 324
50.57007 334
50.59018 322
50.6103 322
50.63041 275
50.65053 285
50.67064 265
50.69075 294
50.71087 281
50.73098 261
50.75109 276
50.77121 304
50.79132 262
50.81143 247
50.83155 239
50.85166 245
50.87178 257
50.89189 271
50.912 224
50.93212 250
50.95223 221
50.97234 250
50.99246 265
51.01257 228
51.03269 248
51.0528 238
51.07291 230
51.09303 220
51.11314 233
51.13325 241
51.15337 205
51.17348 222
51.1936 231
51.21371 220
51.23382 215
51.25394 208
51.27405 274
51.29416 204
51.31428 221
51.33439 223
51.3545 235
51.37462 220
51.39473 197
51.41485 209
51.43496 226
51.45507 231
51.47519 184
51.4953 207
51.51541 215
51.53553 227
51.55564 213
51.57576 265
51.59587 206
51.61598 211
51.6361 209
51.65621 213
51.67632 196
51.69644 228
51.71655 181
51.73667 182
51.75678 216
51.77689 221
51.79701 179
51.81712 225
51.83723 175
51.85735 179
51.87746 202
51.89757 225
51.91769 210
51.9378 215
51.95792 169
51.97803 186
51.99814 197
52.01826 216
52.03837 219
52.05848 252
52.0786 191
52.09871 202
52.11883 229
52.13894 202
52.15905 208
52.17917 216
52.19928 214
52.21939 189
52.23951 172
52.25962 195
52.27974 199
52.29985 210
52.31996 224
52.34008 204
52.36019 207
52.3803 194
52.40042 216
52.42053 204
52.44064 176
52.46076 222
52.48087 208
52.50099 203
52.5211 191
52.54121 188
52.56133 212
52.58144 188
52.60155 196
52.62167 210
52.64178 207
52.6619 175
52.68201 198
52.70212 196
52.72224 190
52.74235 230
52.76246 229
52.78258 207
52.80269 205
52.8228 227
52.84292 222
52.86303 227
52.88315 209
52.90326 215
52.92337 208
52.94349 224
52.9636 187
52.98371 249
53.00383 229
53.02394 210
53.04406 220
53.06417 219
53.08428 215
53.1044 226
53.12451 245
53.14462 218
53.16474 252
53.18485 231
53.20497 235
53.22508 218
53.24519 229
53.26531 191
53.28542 226
53.30553 238
53.32565 223
53.34576 223
53.36587 221
53.38599 251
53.4061 256
53.42622 237
53.44633 233
53.46644 236
53.48656 233
53.50667 244
53.52678 231
53.5469 226
53.56701 220
53.58713 230
53.60724 259
53.62735 231
53.64747 259
53.66758 244
53.68769 250
53.70781 272
53.72792 211
53.74804 221
53.76815 216
53.78826 229
53.80838 272
53.82849 260
53.8486 237
53.86872 246
53.88883 273
53.90894 243
53.92906 293
53.94917 233
53.96929 277
53.9894 279
54.00951 279
54.02963 295
54.04974 313
54.06985 247
54.08997 266
54.11008 299
54.1302 296
54.15031 282
54.17042 297
54.19054 297
54.21065 302
54.23076 300
54.25088 284
54.27099 288
54.29111 292
54.31122 282
54.33133 304
54.35145 318
54.37156 279
54.39167 302
54.41179 319
54.4319 302
54.45201 278
54.47213 304
54.49224 306
54.51236 290
54.53247 329
54.55258 344
54.5727 350
54.59281 347
54.61292 353
54.63304 368
54.65315 427
54.67327 444
54.69338 450
54.71349 526
54.73361 594
54.75372 659
54.77383 816
54.79395 840
54.81406 962
54.83417 1042
54.85429 1021
54.8744 971
54.89452 864
54.91463 730
54.93474 703
54.95486 676
54.97497 700
54.99508 662
55.0152 633
55.03531 587
55.05543 485
55.07554 420
55.09565 412
55.11577 382
55.13588 401
55.15599 398
55.17611 394
55.19622 454
55.21634 465
55.23645 511
55.25656 599
55.27668 581
55.29679 603
55.3169 611
55.33702 579
55.35713 473
55.37724 459
55.39736 431
55.41747 411
55.43759 422
55.4577 423
55.47781 387
55.49793 324
55.51804 315
55.53815 267
55.55827 254
55.57838 248
55.5985 265
55.61861 261
55.63872 238
55.65884 255
55.67895 248
55.69906 250
55.71918 243
55.73929 241
55.75941 240
55.77952 259
55.79963 234
55.81975 237
55.83986 249
55.85997 217
55.88009 250
55.9002 238
55.92031 220
55.94043 241
55.96054 231
55.98066 223
56.00077 226
56.02088 238
56.041 247
56.06111 221
56.08122 242
56.10134 265
56.12145 219
56.14157 217
56.16168 190
56.18179 257
56.20191 206
56.22202 246
56.24213 206
56.26225 224
56.28236 241
56.30248 234
56.32259 234
56.3427 223
56.36282 232
56.38293 221
56.40304 224
56.42316 233
56.44327 240
56.46338 240
56.4835 209
56.50361 223
56.52373 246
56.54384 236
56.56395 212
56.58407 239
56.60418 235
56.62429 217
56.64441 228
56.66452 239
56.68464 223
56.70475 224
56.72486 238
56.74498 214
56.76509 219
56.7852 222
56.80532 207
56.82543 245
56.84554 224
56.86566 231
56.88577 199
56.90589 241
56.926 242
56.94611 209
56.96623 214
56.98634 241
57.00645 220
57.02657 252
57.04668 229
57.0668 232
57.08691 222
57.10702 252
57.12714 232
57.14725 252
57.16736 239
57.18748 274
57.20759 260
57.22771 259
57.24782 246
57.26793 235
57.28805 219
57.30816 241
57.32827 226
57.34839 222
57.3685 215
57.38861 238
57.40873 217
57.42884 206
57.44896 201
57.46907 243
57.48918 234
57.5093 221
57.52941 229
57.54952 237
57.56964 208
57.58975 214
57.60987 205
57.62998 229
57.65009 231
57.67021 236
57.69032 246
57.71043 231
57.73055 207
57.75066 217
57.77078 231
57.79089 216
57.811 223
57.83112 218
57.85123 204
57.87134 207
57.89146 219
57.91157 210
57.93168 222
57.9518 215
57.97191 220
57.99203 202
58.01214 205
58.03225 209
58.05237 221
58.07248 214
58.09259 204
58.11271 223
58.13282 206
58.15294 231
58.17305 227
58.19316 229
58.21328 208
58.23339 189
58.2535 222
58.27362 222
58.29373 216
58.31385 208
58.33396 216
58.35407 218
58.37419 221
58.3943 200
58.41441 221
58.43453 195
58.45464 233
58.47475 196
58.49487 220
58.51498 210
58.5351 199
58.55521 228
58.57532 219
58.59544 212
58.61555 201
58.63566 217
58.65578 190
58.67589 212
58.69601 220
58.71612 204
58.73623 206
58.75635 214
58.77646 213
58.79657 231
58.81669 204
58.8368 209
58.85691 195
58.87703 194
58.89714 214
58.91726 212
58.93737 214
58.95748 203
58.9776 206
58.99771 210
59.01782 204
59.03794 214
59.05805 205
59.07817 205
59.09828 214
59.11839 210
59.13851 210
59.15862 199
59.17873 203
59.19885 242
59.21896 216
59.23908 215
59.25919 203
59.2793 200
59.29942 231
59.31953 241
59.33964 252
59.35976 238
59.37987 237
59.39998 277
59.4201 225
59.44021 240
59.46033 261
59.48044 255
59.50055 254
59.52067 293
59.54078 261
59.56089 267
59.58101 289
59.60112 342
59.62124 359
59.64135 390
59.66146 415
59.68158 424
59.70169 504
59.7218 523
59.74192 593
59.76203 721
59.78215 761
59.80226 881
59.82237 1132
59.84249 1244
59.8626 1481
59.88271 1690
59.90283 1807
59.92294 1835
59.94305 1807
59.96317 1687
59.98328 1348
60.0034 1168
60.02351 1122
60.04362 1039
60.06374 1114
60.08385 1087
60.10396 993
60.12408 845
60.14419 664
60.16431 526
60.18442 413
60.20453 358
60.22465 314
60.24476 305
60.26487 308
60.28499 281
60.3051 241
60.32522 266
60.34533 238
60.36544 243
60.38556 226
60.40567 240
60.42578 256
60.4459 246
60.46601 220
60.48612 237
60.50624 215
60.52635 231
60.54647 217
60.56658 226
60.58669 219
60.60681 222
60.62692 237
60.64703 210
60.66715 243
60.68726 210
60.70738 221
60.72749 211
60.7476 221
60.76772 246
60.78783 241
60.80794 210
60.82806 231
60.84817 190
60.86828 201
60.8884 201
60.90851 202
60.92863 195
60.94874 234
60.96885 235
60.98897 213
61.00908 212
61.02919 200
61.04931 188
61.06942 223
61.08954 205
61.10965 221
61.12976 204
61.14988 211
61.16999 200
61.1901 233
61.21022 239
61.23033 214
61.25045 213
61.27056 237
61.29067 192
61.31079 210
61.3309 210
61.35101 237
61.37113 208
61.39124 211
61.41135 225
61.43147 208
61.45158 210
61.4717 211
61.49181 221
61.51192 225
61.53204 212
61.55215 219
61.57226 193
61.59238 182
61.61249 223
61.63261 241
61.65272 221
61.67283 214
61.69295 219
61.71306 210
61.73317 225
61.75329 211
61.7734 254
61.79352 219
61.81363 254
61.83374 251
61.85386 259
61.87397 234
61.89408 244
61.9142 241
61.93431 250
61.95442 260
61.97454 259
61.99465 258
62.01477 272
62.03488 306
62.05499 264
62.07511 274
62.09522 262
62.11533 276
62.13545 267
62.15556 297
62.17568 297
62.19579 293
62.2159 340
62.23602 302
62.25613 308
62.27624 284
62.29636 305
62.31647 292
62.33659 298
62.3567 318
62.37681 310
62.39693 317
62.41704 285
62.43715 275
62.45727 271
62.47738 257
62.49749 299
62.51761 263
62.53772 275
62.55784 257
62.57795 273
62.59806 265
62.61818 238
62.63829 233
62.6584 231
62.67852 244
62.69863 214
62.71875 242
62.73886 224
62.75897 229
62.77909 233
62.7992 247
62.81931 243
62.83943 214
62.85954 220
62.87965 205
62.89977 176
62.91988 228
62.94 213
62.96011 203
62.98022 177
63.00034 191
63.02045 204
63.04056 219
63.06068 219
63.08079 232
63.10091 216
63.12102 236
63.14113 202
63.16125 202
63.18136 198
63.20147 212
63.22159 195
63.2417 211
63.26182 209
63.28193 245
63.30204 202
63.32216 198
63.34227 199
63.36238 203
63.3825 197
63.40261 207
63.42272 214
63.44284 203
63.46295 223
63.48307 219
63.50318 212
63.52329 209
63.54341 232
63.56352 236
63.58363 232
63.60375 217
63.62386 203
63.64398 212
63.66409 219
63.6842 214
63.70432 244
63.72443 250
63.74454 217
63.76466 263
63.78477 262
63.80489 274
63.825 295
63.84511 282
63.86523 318
63.88534 333
63.90545 395
63.92557 398
63.94568 490
63.96579 464
63.98591 552
64.00602 521
64.02614 481
64.04625 461
64.06636 398
64.08648 369
64.10659 350
64.1267 359
64.14682 348
64.16693 364
64.18705 359
64.20716 359
64.22727 324
64.24739 302
64.2675 235
64.28761 216
64.30773 224
64.32784 193
64.34796 200
64.36807 208
64.38818 190
64.4083 241
64.42841 211
64.44852 191
64.46864 227
64.48875 188
64.50886 204
64.52898 220
64.54909 213
64.56921 227
64.58932 205
64.60943 211
64.62955 187
64.64966 166
64.66977 233
64.68989 187
64.71 217
64.73012 191
64.75023 200
64.77034 199
64.79046 180
64.81057 199
64.83068 203
64.8508 204
64.87091 202
64.89102 191
64.91114 235
64.93125 198
64.95137 186
64.97148 244
64.99159 201
65.01171 182
65.03182 188
65.05193 201
65.07205 225
65.09216 223
65.11228 207
65.13239 202
65.1525 200
65.17262 187
65.19273 184
65.21284 174
65.23296 200
65.25307 204
65.27319 180
65.2933 194
65.31341 191
65.33353 208
65.35364 169
65.37375 203
65.39387 221
65.41398 206
65.43409 217
65.45421 189
65.47432 213
65.49444 187
65.51455 196
65.53466 216
65.55478 227
65.57489 231
65.595 198
65.61512 256
65.63523 226
65.65535 266
65.67546 246
65.69557 273
65.71569 277
65.7358 257
65.75591 257
65.77603 286
65.79614 244
65.81626 223
65.83637 247
65.85648 239
65.8766 203
65.89671 235
65.91682 233
65.93694 228
65.95705 222
65.97716 209
65.99728 222
66.01739 204
66.03751 200
66.05762 198
66.07773 182
66.09785 212
66.11796 210
66.13807 189
66.15819 195
66.1783 209
66.19842 194
66.21853 197
66.23864 193
66.25876 210
66.27887 179
66.29898 226
66.3191 206
66.33921 193
66.35933 192
66.37944 201
66.39955 206
66.41967 178
66.43978 212
66.45989 206
66.48001 194
66.50012 212
66.52023 168
66.54035 209
66.56046 199
66.58058 216
66.60069 205
66.6208 190
66.64092 188
66.66103 234
66.68114 195
66.70126 209
66.72137 223
66.74149 217
66.7616 206
66.78171 208
66.80183 209
66.82194 219
66.84205 234
66.86217 203
66.88228 248
66.90239 199
66.92251 231
66.94262 199
66.96274 237
66.98285 233
67.00296 212
67.02308 225
67.04319 241
67.0633 236
67.08342 233
67.10353 201
67.12365 216
67.14376 228
67.16387 223
67.18399 237
67.2041 232
67.22421 226
67.24433 230
67.26444 263
67.28456 240
67.30467 234
67.32478 237
67.3449 312
67.36501 328
67.38512 286
67.40524 306
67.42535 305
67.44546 344
67.46558 354
67.48569 375
67.50581 432
67.52592 450
67.54603 514
67.56615 586
67.58626 688
67.60637 762
67.62649 801
67.6466 967
67.66672 1101
67.68683 1078
67.70694 1179
67.72706 1137
67.74717 1060
67.76728 889
67.7874 830
67.80751 745
67.82763 708
67.84774 800
67.86785 828
67.88797 920
67.90808 912
67.92819 912
67.94831 852
67.96842 890
67.98853 931
68.00865 1010
68.02876 1116
68.04888 1269
68.06899 1347
68.0891 1497
68.10922 1496
68.12933 1582
68.14944 1421
68.16956 1369
68.18967 1219
68.20979 1260
68.2299 1287
68.25001 1309
68.27013 1387
68.29024 1343
68.31035 1304
68.33047 1127
68.35058 1008
68.3707 792
68.39081 681
68.41092 631
68.43104 621
68.45115 591
68.47126 568
68.49138 546
68.51149 483
68.5316 431
68.55172 355
68.57183 308
68.59195 285
68.61206 245
68.63217 254
68.65229 235
68.6724 238
68.69251 220
68.71263 237
68.73274 214
68.75286 232
68.77297 196
68.79308 206
68.8132 212
68.83331 251
68.85342 207
68.87354 244
68.89365 196
68.91376 221
68.93388 224
68.95399 206
68.97411 211
68.99422 202
69.01433 194
69.03445 237
69.05456 231
69.07467 199
69.09479 212
69.1149 201
69.13502 218
69.15513 204
69.17524 204
69.19536 204
69.21547 199
69.23558 202
69.2557 192
69.27581 204
69.29593 216
69.31604 188
69.33615 192
69.35627 196
69.37638 230
69.39649 187
69.41661 204
69.43672 191
69.45683 200
69.47695 182
69.49706 216
69.51718 200
69.53729 187
69.5574 198
69.57752 175
69.59763 168
69.61774 188
69.63786 207
69.65797 200
69.67809 179
69.6982 200
69.71831 184
69.73843 202
69.75854 205
69.77865 201
69.79877 183
69.81888 159
69.839 198
69.85911 194
69.87922 163
69.89934 184
69.91945 183
69.93956 201
69.95968 180
69.97979 217
69.9999 222
70.02002 199
70.04013 209
70.06025 189
70.08036 206
70.10047 206
70.12059 153
70.1407 201
70.16081 184
70.18093 189
70.20104 207
70.22116 199
70.24127 195
70.26138 189
70.2815 178
70.30161 186
70.32172 212
70.34184 218
70.36195 208
70.38207 208
70.40218 181
70.42229 183
70.44241 171
70.46252 186
70.48263 192
70.50275 189
70.52286 214
70.54297 196
70.56309 173
70.5832 203
70.60332 194
70.62343 201
70.64354 189
70.66366 178
70.68377 178
70.70388 151
70.724 207
70.74411 203
70.76423 221
70.78434 207
70.80445 162
70.82457 193
70.84468 174
70.86479 183
70.88491 190
70.90502 198
70.92513 186
70.94525 196
70.96536 187
70.98548 169
71.00559 197
71.0257 177
71.04582 194
71.06593 203
71.08604 170
71.10616 174
71.12627 193
71.14639 182
71.1665 193
71.18661 177
71.20673 182
71.22684 176
71.24695 167
71.26707 193
71.28718 196
71.3073 180
71.32741 176
71.34752 191
71.36764 203
71.38775 182
71.40786 194
71.42798 161
71.44809 183
71.4682 172
71.48832 190
71.50843 179
71.52855 193
71.54866 188
71.56877 180
71.58889 181
71.609 176
71.62911 184
71.64923 189
71.66934 178
71.68946 156
71.70957 190
71.72968 179
71.7498 178
71.76991 176
71.79002 191
71.81014 189
71.83025 199
71.85037 179
71.87048 190
71.89059 203
71.91071 196
71.93082 199
71.95093 201
71.97105 179
71.99116 186
72.01127 208
72.03139 185
72.0515 182
72.07162 193
72.09173 182
72.11184 183
72.13196 187
72.15207 183
72.17218 185
72.1923 210
72.21241 192
72.23253 177
72.25264 180
72.27275 189
72.29287 170
72.31298 189
72.33309 190
72.35321 196
72.37332 212
72.39344 180
72.41355 165
72.43366 176
72.45378 184
72.47389 178
72.494 185
72.51412 188
72.53423 194
72.55434 206
72.57446 183
72.59457 188
72.61469 186
72.6348 170
72.65491 179
72.67503 214
72.69514 174
72.71525 167
72.73537 179
72.75548 186
72.7756 180
72.79571 201
72.81582 218
72.83594 185
72.85605 191
72.87616 168
72.89628 201
72.91639 205
72.9365 181
72.95662 189
72.97673 196
72.99685 201
73.01696 208
73.03707 216
73.05719 217
73.0773 211
73.09741 195
73.11753 209
73.13764 233
73.15776 229
73.17787 217
73.19798 240
73.2181 244
73.23821 262
73.25832 272
73.27844 317
73.29855 317
73.31867 352
73.33878 382
73.35889 426
73.37901 455
73.39912 502
73.41923 542
73.43935 526
73.45946 447
73.47957 468
73.49969 393
73.5198 340
73.53992 349
73.56003 343
73.58014 325
73.60026 322
73.62037 338
73.64048 364
73.6606 383
73.68071 347
73.70083 320
73.72094 254
73.74105 234
73.76117 186
73.78128 219
73.80139 209
73.82151 209
73.84162 198
73.86174 179
73.88185 194
73.90196 193
73.92208 193
73.94219 201
73.9623 190
73.98242 198
74.00253 175
74.02264 194
74.04276 186
74.06287 161
74.08299 197
74.1031 180
74.12321 211
74.14333 203
74.16344 163
74.18355 192
74.20367 185
74.22378 186
74.2439 198
74.26401 178
74.28412 226
74.30424 165
74.32435 179
74.34446 210
74.36458 198
74.38469 175
74.40481 176
74.42492 168
74.44503 177
74.46515 176
74.48526 164
74.50537 215
74.52549 181
74.5456 191
74.56571 183
74.58583 183
74.60594 175
74.62606 174
74.64617 196
74.66628 190
74.6864 183
74.70651 182
74.72662 188
74.74674 192
74.76685 198
74.78697 184
74.80708 178
74.82719 201
74.84731 174
74.86742 177
74.88753 164
74.90765 187
74.92776 190
74.94787 195
74.96799 198
74.9881 174
75.00822 190
