3.00117 17685
3.02128 17187
3.0414 16658
3.06151 16409
3.08162 15829
3.10174 15850
3.12185 15150
3.14197 14816
3.16208 14405
3.18219 13992
3.20231 13541
3.22242 13086
3.24253 12950
3.26265 12595
3.28276 12343
3.30288 11898
3.32299 11375
3.3431 11307
3.36322 10872
3.38333 10431
3.40344 10092
3.42356 9634
3.44367 9473
3.46379 9143
3.4839 8776
3.50401 8549
3.52413 8045
3.54424 7825
3.56435 7746
3.58447 7458
3.60458 7109
3.62469 6763
3.64481 6668
3.66492 6194
3.68504 6340
3.70515 5900
3.72526 5488
3.74538 5324
3.76549 5017
3.7856 4879
3.80572 4691
3.82583 4568
3.84595 4561
3.86606 4224
3.88617 4028
3.90629 3897
3.9264 3515
3.94651 3504
3.96663 3239
3.98674 3223
4.00686 3050
4.02697 2788
4.04708 2809
4.0672 2673
4.08731 2460
4.10742 2482
4.12754 2233
4.14765 2155
4.16776 2124
4.18788 2096
4.20799 1969
4.22811 1772
4.24822 1802
4.26833 1783
4.28845 1659
4.30856 1738
4.32867 1481
4.34879 1512
4.3689 1406
4.38902 1391
4.40913 1432
4.42924 1297
4.44936 1255
4.46947 1184
4.48958 1182
4.5097 1269
4.52981 1070
4.54992 1114
4.57004 1163
4.59015 1067
4.61027 1140
4.63038 1003
4.65049 1020
4.67061 1020
4.69072 927
4.71083 1007
4.73095 857
4.75106 883
4.77118 884
4.79129 842
4.8114 810
4.83152 776
4.85163 795
4.87174 792
4.89186 732
4.91197 762
4.93209 688
4.9522 676
4.97231 739
4.99243 660
5.01254 639
5.03265 677
5.05277 570
5.07288 653
5.09299 624
5.11311 599
5.13322 587
5.15334 599
5.17345 579
5.19356 506
5.21368 553
5.23379 506
5.2539 506
5.27402 488
5.29413 503
5.31425 435
5.33436 436
5.35447 451
5.37459 477
5.3947 455
5.41481 422
5.43493 399
5.45504 447
5.47516 408
5.49527 388
5.51538 363
5.5355 399
5.55561 357
5.57572 378
5.59584 396
5.61595 404
5.63606 389
5.65618 286
5.67629 360
5.69641 327
5.71652 295
5.73663 328
5.75675 333
5.77686 335
5.79697 324
5.81709 291
5.8372 311
5.85732 296
5.87743 293
5.89754 293
5.91766 300
5.93777 294
5.95788 263
5.978 300
5.99811 307
6.01823 262
6.03834 271
6.05845 285
6.07857 279
6.09868 267
6.11879 303
6.13891 233
6.15902 263
6.17913 227
6.19925 249
6.21936 285
6.23948 224
6.25959 243
6.2797 243
6.29982 277
6.31993 226
6.34004 224
6.36016 239
6.38027 222
6.40039 254
6.4205 250
6.44061 278
6.46073 276
6.48084 254
6.50095 250
6.52107 225
6.54118 252
6.56129 250
6.58141 261
6.60152 237
6.62164 233
6.64175 248
6.66186 262
6.68198 228
6.70209 230
6.7222 204
6.74232 230
6.76243 219
6.78255 224
6.80266 205
6.82277 235
6.84289 243
6.863 210
6.88311 242
6.90323 233
6.92334 224
6.94346 213
6.96357 228
6.98368 249
7.0038 227
7.02391 266
7.04402 218
7.06414 274
7.08425 220
7.10436 223
7.12448 250
7.14459 244
7.16471 221
7.18482 249
7.20493 253
7.22505 252
7.24516 246
7.26527 300
7.28539 228
7.3055 224
7.32562 227
7.34573 218
7.36584 220
7.38596 237
7.40607 258
7.42618 205
7.4463 225
7.46641 237
7.48653 251
7.50664 249
7.52675 270
7.54687 262
7.56698 253
7.58709 256
7.60721 260
7.62732 199
7.64743 234
7.66755 235
7.68766 248
7.70778 236
7.72789 205
7.748 238
7.76812 248
7.78823 250
7.80834 252
7.82846 262
7.84857 263
7.86869 259
7.8888 263
7.90891 290
7.92903 239
7.94914 267
7.96925 240
7.98937 247
8.00948 263
8.0296 238
8.04971 250
8.06982 266
8.08994 260
8.11005 208
8.13016 231
8.15028 257
8.17039 236
8.1905 270
8.21062 252
8.23073 228
8.25085 260
8.27096 228
8.29107 250
8.31119 230
8.3313 234
8.35141 265
8.37153 276
8.39164 278
8.41176 266
8.43187 235
8.45198 262
8.4721 277
8.49221 233
8.51232 238
8.53244 254
8.55255 264
8.57266 249
8.59278 250
8.61289 230
8.63301 258
8.65312 250
8.67323 277
8.69335 248
8.71346 271
8.73357 277
8.75369 278
8.7738 274
8.79392 265
8.81403 280
8.83414 291
8.85426 295
8.87437 287
8.89448 279
8.9146 287
8.93471 284
8.95483 283
8.97494 291
8.99505 289
9.01517 259
9.03528 260
9.05539 277
9.07551 278
9.09562 255
9.11573 260
9.13585 262
9.15596 252
9.17608 268
9.19619 259
9.2163 231
9.23642 248
9.25653 287
9.27664 266
9.29676 289
9.31687 265
9.33699 233
9.3571 262
9.37721 305
9.39733 254
9.41744 233
9.43755 279
9.45767 230
9.47778 233
9.4979 268
9.51801 252
9.53812 274
9.55824 220
9.57835 273
9.59846 229
9.61858 292
9.63869 260
9.6588 260
9.67892 250
9.69903 246
9.71915 282
9.73926 264
9.75937 223
9.77949 259
9.7996 252
9.81971 244
9.83983 250
9.85994 278
9.88006 256
9.90017 240
9.92028 248
9.9404 211
9.96051 243
9.98062 272
10.00074 245
10.02085 280
10.04097 269
10.06108 230
10.08119 259
10.10131 278
10.12142 258
10.14153 261
10.16165 266
10.18176 250
10.20187 242
10.22199 272
10.2421 282
10.26222 250
10.28233 242
10.30244 263
10.32256 259
10.34267 270
10.36278 259
10.3829 294
10.40301 253
10.42313 280
10.44324 265
10.46335 239
10.48347 255
10.50358 240
10.52369 225
10.54381 278
10.56392 218
10.58403 224
10.60415 252
10.62426 258
10.64438 275
10.66449 253
10.6846 285
10.70472 272
10.72483 244
10.74494 281
10.76506 306
10.78517 259
10.80529 261
10.8254 264
10.84551 246
10.86563 270
10.88574 256
10.90585 246
10.92597 255
10.94608 274
10.9662 276
10.98631 256
11.00642 250
11.02654 265
11.04665 289
11.06676 272
11.08688 286
11.10699 241
11.1271 268
11.14722 291
11.16733 267
11.18745 273
11.20756 284
11.22767 255
11.24779 286
11.2679 270
11.28801 267
11.30813 261
11.32824 260
11.34836 251
11.36847 261
11.38858 288
11.4087 272
11.42881 250
11.44892 251
11.46904 250
11.48915 267
11.50927 285
11.52938 296
11.54949 250
11.56961 280
11.58972 271
11.60983 287
11.62995 332
11.65006 282
11.67017 260
11.69029 259
11.7104 267
11.73052 236
11.75063 273
11.77074 290
11.79086 300
11.81097 321
11.83108 273
11.8512 288
11.87131 265
11.89143 307
11.91154 298
11.93165 309
11.95177 285
11.97188 281
11.99199 264
12.01211 276
12.03222 281
12.05234 301
12.07245 278
12.09256 298
12.11268 293
12.13279 332
12.1529 249
12.17302 315
12.19313 290
12.21324 310
12.23336 289
12.25347 304
12.27359 292
12.2937 272
12.31381 266
12.33393 275
12.35404 285
12.37415 282
12.39427 279
12.41438 255
12.4345 278
12.45461 244
12.47472 293
12.49484 276
12.51495 262
12.53506 241
12.55518 268
12.57529 242
12.5954 225
12.61552 264
12.63563 254
12.65575 287
12.67586 272
12.69597 272
12.71609 252
12.7362 249
12.75631 267
12.77643 235
12.79654 253
12.81666 240
12.83677 296
12.85688 235
12.877 257
12.89711 237
12.91722 267
12.93734 232
12.95745 261
12.97757 298
12.99768 230
13.01779 251
13.03791 244
13.05802 257
13.07813 291
13.09825 248
13.11836 238
13.13847 251
13.15859 254
13.1787 260
13.19882 283
13.21893 239
13.23904 263
13.25916 275
13.27927 243
13.29938 265
13.3195 247
13.33961 265
13.35973 247
13.37984 289
13.39995 273
13.42007 237
13.44018 280
13.46029 284
13.48041 258
13.50052 254
13.52064 243
13.54075 199
13.56086 246
13.58098 286
13.60109 274
13.6212 283
13.64132 263
13.66143 266
13.68154 320
13.70166 306
13.72177 303
13.74189 270
13.762 269
13.78211 272
13.80223 280
13.82234 248
13.84245 306
13.86257 265
13.88268 261
13.9028 253
13.92291 253
13.94302 247
13.96314 248
13.98325 239
14.00336 247
14.02348 258
14.04359 227
14.06371 265
14.08382 222
14.10393 223
14.12405 217
14.14416 262
14.16427 259
14.18439 237
14.2045 213
14.22461 234
14.24473 222
14.26484 244
14.28496 256
14.30507 247
14.32518 205
14.3453 231
14.36541 230
14.38552 248
14.40564 247
14.42575 255
14.44587 219
14.46598 219
14.48609 209
14.50621 236
14.52632 248
14.54643 250
14.56655 238
14.58666 248
14.60677 224
14.62689 263
14.647 260
14.66712 219
14.68723 237
14.70734 227
14.72746 235
14.74757 207
14.76768 214
14.7878 191
14.80791 217
14.82803 231
14.84814 250
14.86825 253
14.88837 236
14.90848 225
14.92859 228
14.94871 252
14.96882 244
14.98894 260
15.00905 230
15.02916 277
15.04928 249
15.06939 246
15.0895 275
15.10962 293
15.12973 286
15.14984 250
15.16996 296
15.19007 255
15.21019 248
15.2303 225
15.25041 232
15.27053 249
15.29064 230
15.31075 236
15.33087 237
15.35098 257
15.3711 247
15.39121 229
15.41132 251
15.43144 227
15.45155 234
15.47166 248
15.49178 228
15.51189 217
15.53201 252
15.55212 219
15.57223 246
15.59235 213
15.61246 270
15.63257 248
15.65269 245
15.6728 245
15.69291 265
15.71303 240
15.73314 210
15.75326 202
15.77337 249
15.79348 209
15.8136 222
15.83371 232
15.85382 234
15.87394 217
15.89405 242
15.91417 223
15.93428 226
15.95439 219
15.97451 215
15.99462 217
16.01473 220
16.03485 221
16.05496 222
16.07508 226
16.09519 235
16.1153 222
16.13542 232
16.15553 231
16.17564 225
16.19576 257
16.21587 234
16.23598 198
16.2561 232
16.27621 214
16.29633 205
16.31644 219
16.33655 242
16.35667 209
16.37678 255
16.39689 250
16.41701 213
16.43712 222
16.45724 210
16.47735 212
16.49746 249
16.51758 227
16.53769 209
16.5578 234
16.57792 239
16.59803 235
16.61814 228
16.63826 222
16.65837 210
16.67849 205
16.6986 219
16.71871 216
16.73883 210
16.75894 228
16.77905 216
16.79917 207
16.81928 210
16.8394 222
16.85951 224
16.87962 238
16.89974 209
16.91985 180
16.93996 229
16.96008 199
16.98019 212
17.00031 210
17.02042 226
17.04053 243
17.06065 246
17.08076 190
17.10087 211
17.12099 230
17.1411 214
17.16121 219
17.18133 225
17.20144 214
17.22156 203
17.24167 216
17.26178 231
17.2819 220
17.30201 220
17.32212 240
17.34224 213
17.36235 237
17.38247 238
17.40258 217
17.42269 182
17.44281 237
17.46292 216
17.48303 216
17.50315 250
17.52326 214
17.54338 204
17.56349 236
17.5836 186
17.60372 205
17.62383 230
17.64394 237
17.66406 243
17.68417 249
17.70428 236
17.7244 230
17.74451 227
17.76463 206
17.78474 240
17.80485 206
17.82497 245
17.84508 196
17.86519 201
17.88531 263
17.90542 234
17.92554 259
17.94565 213
17.96576 234
17.98588 238
18.00599 260
18.0261 235
18.04622 236
18.06633 213
18.08645 225
18.10656 246
18.12667 210
18.14679 210
18.1669 233
18.18701 220
18.20713 210
18.22724 205
18.24735 226
18.26747 227
18.28758 237
18.3077 225
18.32781 228
18.34792 212
18.36804 227
18.38815 227
18.40826 228
18.42838 211
18.44849 217
18.46861 246
18.48872 220
18.50883 200
18.52895 223
18.54906 195
18.56917 219
18.58929 248
18.6094 243
18.62951 225
18.64963 229
18.66974 197
18.68986 252
18.70997 220
18.73008 210
18.7502 226
18.77031 229
18.79042 255
18.81054 268
18.83065 229
18.85077 212
18.87088 191
18.89099 190
18.91111 268
18.93122 231
18.95133 251
18.97145 260
18.99156 213
19.01168 215
19.03179 210
19.0519 250
19.07202 246
19.09213 192
19.11224 248
19.13236 239
19.15247 244
19.17258 280
19.1927 271
19.21281 223
19.23293 239
19.25304 231
19.27315 261
19.29327 236
19.31338 275
19.33349 253
19.35361 262
19.37372 260
19.39384 231
19.41395 230
19.43406 243
19.45418 236
19.47429 262
19.4944 259
19.51452 230
19.53463 245
19.55475 269
19.57486 268
19.59497 258
19.61509 259
19.6352 271
19.65531 262
19.67543 276
19.69554 270
19.71565 313
19.73577 287
19.75588 312
19.776 314
19.79611 303
19.81622 323
19.83634 341
19.85645 328
19.87656 322
19.89668 338
19.91679 322
19.93691 350
19.95702 365
19.97713 403
19.99725 387
20.01736 382
20.03747 365
20.05759 365
20.0777 356
20.09782 349
20.11793 353
20.13804 349
20.15816 347
20.17827 299
20.19838 301
20.2185 310
20.23861 332
20.25872 354
20.27884 342
20.29895 356
20.31907 343
20.33918 311
20.35929 352
20.37941 383
20.39952 362
20.41963 369
20.43975 356
20.45986 385
20.47998 371
20.50009 375
20.5202 396
20.54032 403
20.56043 440
20.58054 445
20.60066 445
20.62077 440
20.64088 491
20.661 560
20.68111 563
20.70123 722
20.72134 930
20.74145 1135
20.76157 1449
20.78168 1903
20.80179 2523
20.82191 3165
20.84202 4026
20.86214 4492
20.88225 4691
20.90236 4305
20.92248 3649
20.94259 2892
20.9627 2237
20.98282 1605
21.00293 1260
21.02305 1043
21.04316 941
21.06327 798
21.08339 756
21.1035 609
21.12361 607
21.14373 559
21.16384 490
21.18395 398
21.20407 408
21.22418 427
21.2443 412
21.26441 398
21.28452 372
21.30464 352
21.32475 375
21.34486 349
21.36498 351
21.38509 370
21.40521 349
21.42532 336
21.44543 345
21.46555 336
21.48566 349
21.50577 318
21.52589 303
21.546 330
21.56612 300
21.58623 352
21.60634 324
21.62646 325
21.64657 315
21.66668 308
21.6868 296
21.70691 284
21.72702 324
21.74714 305
21.76725 265
21.78737 315
21.80748 302
21.82759 315
21.84771 304
21.86782 334
21.88793 341
21.90805 380
21.92816 341
21.94828 401
21.96839 421
21.9885 439
22.00862 421
22.02873 444
22.04884 399
22.06896 381
22.08907 419
22.10919 359
22.1293 332
22.14941 319
22.16953 292
22.18964 281
22.20975 306
22.22987 263
22.24998 286
22.27009 277
22.29021 302
22.31032 300
22.33044 311
22.35055 293
22.37066 312
22.39078 291
22.41089 321
22.431 310
22.45112 323
22.47123 309
22.49135 340
22.51146 367
22.53157 356
22.55169 363
22.5718 349
22.59191 345
22.61203 369
22.63214 327
22.65225 338
22.67237 302
22.69248 299
22.7126 252
22.73271 271
22.75282 259
22.77294 289
22.79305 285
22.81316 281
22.83328 289
22.85339 316
22.87351 319
22.89362 310
22.91373 307
22.93385 289
22.95396 292
22.97407 286
22.99419 284
23.0143 294
23.03442 293
23.05453 307
23.07464 289
23.09476 283
23.11487 302
23.13498 260
23.1551 300
23.17521 305
23.19532 318
23.21544 297
23.23555 305
23.25567 299
23.27578 281
23.29589 288
23.31601 278
23.33612 319
23.35623 314
23.37635 319
23.39646 348
23.41658 329
23.43669 343
23.4568 427
23.47692 473
23.49703 484
23.51714 553
23.53726 561
23.55737 593
23.57749 683
23.5976 639
23.61771 581
23.63783 555
23.65794 495
23.67805 544
23.69817 467
23.71828 481
23.73839 386
23.75851 408
23.77862 399
23.79874 403
23.81885 454
23.83896 404
23.85908 400
23.87919 416
23.8993 383
23.91942 385
23.93953 382
23.95965 369
23.97976 328
23.99987 338
24.01999 340
24.0401 312
24.06021 313
24.08033 319
24.10044 313
24.12056 292
24.14067 318
24.16078 296
24.1809 294
24.20101 322
24.22112 268
24.24124 316
24.26135 306
24.28146 344
24.30158 323
24.32169 352
24.34181 333
24.36192 360
24.38203 368
24.40215 351
24.42226 360
24.44237 334
24.46249 327
24.4826 347
24.50272 339
24.52283 355
24.54294 351
24.56306 337
24.58317 345
24.60328 346
24.6234 388
24.64351 362
24.66362 346
24.68374 325
24.70385 341
24.72397 320
24.74408 303
24.76419 314
24.78431 304
24.80442 297
24.82453 307
24.84465 298
24.86476 332
24.88488 312
24.90499 297
24.9251 292
24.94522 326
24.96533 319
24.98544 304
25.00556 332
25.02567 318
25.04579 352
25.0659 329
25.08601 344
25.10613 321
25.12624 375
25.14635 364
25.16647 331
25.18658 390
25.20669 368
25.22681 338
25.24692 319
25.26704 333
25.28715 324
25.30726 327
25.32738 331
25.34749 329
25.3676 324
25.38772 315
25.40783 344
25.42795 321
25.44806 317
25.46817 357
25.48829 359
25.5084 359
25.52851 357
25.54863 363
25.56874 431
25.58886 468
25.60897 521
25.62908 572
25.6492 598
25.66931 590
25.68942 616
25.70954 626
25.72965 613
25.74976 491
25.76988 501
25.78999 502
25.81011 465
25.83022 424
25.85033 431
25.87045 420
25.89056 395
25.91067 414
25.93079 427
25.9509 430
25.97102 432
25.99113 423
26.01124 425
26.03136 413
26.05147 456
26.07158 459
26.0917 497
26.11181 473
26.13193 487
26.15204 530
26.17215 484
26.19227 574
26.21238 602
26.23249 617
26.25261 619
26.27272 681
26.29283 718
26.31295 754
26.33306 815
26.35318 973
26.37329 1089
26.3934 1224
26.41352 1410
26.43363 1688
26.45374 2238
26.47386 2837
26.49397 3714
26.51409 4918
26.5342 6625
26.55431 8939
26.57443 11685
26.59454 14850
26.61465 18010
26.63477 19944
26.65488 20462
26.67499 18691
26.69511 16056
26.71522 12791
26.73534 9842
26.75545 6994
26.77556 4762
26.79568 3267
26.81579 2554
26.8359 2000
26.85602 1633
26.87613 1510
26.89625 1345
26.91636 1291
26.93647 1230
26.95659 1218
26.9767 1090
26.99681 997
27.01693 996
27.03704 901
27.05716 877
27.07727 821
27.09738 863
27.1175 798
27.13761 787
27.15772 728
27.17784 682
27.19795 661
27.21806 574
27.23818 502
27.25829 494
27.27841 501
27.29852 528
27.31863 493
27.33875 485
27.35886 519
27.37897 588
27.39909 593
27.4192 666
27.43932 701
27.45943 694
27.47954 756
27.49966 799
27.51977 849
27.53988 834
27.56 829
27.58011 839
27.60023 748
27.62034 728
27.64045 670
27.66057 624
27.68068 578
27.70079 591
27.72091 644
27.74102 706
27.76113 718
27.78125 759
27.80136 764
27.82148 686
27.84159 662
27.8617 642
27.88182 570
27.90193 517
27.92204 492
27.94216 468
27.96227 544
27.98239 515
28.0025 528
28.02261 526
28.04273 496
28.06284 505
28.08295 463
28.10307 459
28.12318 419
28.1433 392
28.16341 331
28.18352 357
28.20364 326
28.22375 312
28.24386 354
28.26398 344
28.28409 366
28.3042 350
28.32432 381
28.34443 395
28.36455 373
28.38466 349
28.40477 331
28.42489 329
28.445 323
28.46511 324
28.48523 359
28.50534 330
28.52546 295
28.54557 327
28.56568 298
28.5858 293
28.60591 298
28.62602 280
28.64614 272
28.66625 316
28.68636 276
28.70648 275
28.72659 310
28.74671 310
28.76682 280
28.78693 290
28.80705 290
28.82716 280
28.84727 263
28.86739 277
28.8875 265
28.90762 242
28.92773 266
28.94784 296
28.96796 266
28.98807 292
29.00818 243
29.0283 319
29.04841 307
29.06853 278
29.08864 304
29.10875 294
29.12887 287
29.14898 273
29.16909 273
29.18921 267
29.20932 264
29.22943 276
29.24955 246
29.26966 256
29.28978 256
29.30989 260
29.33 287
29.35012 283
29.37023 254
29.39034 269
29.41046 280
29.43057 269
29.45069 268
29.4708 299
29.49091 321
29.51103 273
29.53114 326
29.55125 269
29.57137 270
29.59148 305
29.6116 306
29.63171 305
29.65182 349
29.67194 311
29.69205 375
29.71216 394
29.73228 394
29.75239 430
29.7725 480
29.79262 491
29.81273 472
29.83285 543
29.85296 491
29.87307 492
29.89319 432
29.9133 430
29.93341 431
29.95353 388
29.97364 307
29.99376 329
30.01387 293
30.03398 323
30.0541 307
30.07421 306
30.09432 299
30.11444 300
30.13455 318
30.15467 294
30.17478 285
30.19489 328
30.21501 304
30.23512 338
30.25523 325
30.27535 337
30.29546 315
30.31557 332
30.33569 307
30.3558 338
30.37592 310
30.39603 351
30.41614 347
30.43626 337
30.45637 348
30.47648 357
30.4966 372
30.51671 345
30.53683 335
30.55694 317
30.57705 306
30.59717 310
30.61728 337
30.63739 307
30.65751 304
30.67762 339
30.69773 309
30.71785 359
30.73796 351
30.75808 387
30.77819 408
30.7983 406
30.81842 404
30.83853 382
30.85864 408
30.87876 376
30.89887 354
30.91899 343
30.9391 348
30.95921 312
30.97933 273
30.99944 274
31.01955 294
31.03967 277
31.05978 246
31.0799 293
31.10001 286
31.12012 272
31.14024 271
31.16035 265
31.18046 242
31.20058 253
31.22069 260
31.2408 249
31.26092 264
31.28103 268
31.30115 278
31.32126 265
31.34137 275
31.36149 277
31.3816 257
31.40171 288
31.42183 276
31.44194 306
31.46206 304
31.48217 258
31.50228 266
31.5224 255
31.54251 253
31.56262 283
31.58274 273
31.60285 268
31.62297 269
31.64308 253
31.66319 240
31.68331 274
31.70342 250
31.72353 243
31.74365 264
31.76376 229
31.78387 271
31.80399 245
31.8241 260
31.84422 242
31.86433 271
31.88444 253
31.90456 262
31.92467 259
31.94478 251
31.9649 289
31.98501 268
32.00513 265
32.02524 264
32.04535 265
32.06547 259
32.08558 249
32.10569 250
32.12581 253
32.14592 245
32.16604 284
32.18615 286
32.20626 302
32.22638 319
32.24649 285
32.2666 301
32.28672 344
32.30683 351
32.32694 378
32.34706 379
32.36717 376
32.38729 331
32.4074 369
32.42751 347
32.44763 377
32.46774 364
32.48785 391
32.50797 369
32.52808 372
32.5482 384
32.56831 412
32.58842 389
32.60854 389
32.62865 372
32.64876 361
32.66888 391
32.68899 367
32.7091 343
32.72922 294
32.74933 307
32.76945 284
32.78956 273
32.80967 292
32.82979 284
32.8499 281
32.87001 285
32.89013 323
32.91024 304
32.93036 263
32.95047 243
32.97058 271
32.9907 251
33.01081 274
33.03092 273
33.05104 267
33.07115 267
33.09127 263
33.11138 295
33.13149 277
33.15161 285
33.17172 258
33.19183 273
33.21195 275
33.23206 252
33.25217 252
33.27229 273
33.2924 283
33.31252 270
33.33263 276
33.35274 238
33.37286 239
33.39297 253
33.41308 269
33.4332 262
33.45331 242
33.47343 253
33.49354 225
33.51365 248
33.53377 243
33.55388 252
33.57399 225
33.59411 238
33.61422 237
33.63434 262
33.65445 258
33.67456 260
33.69468 250
33.71479 272
33.7349 240
33.75502 288
33.77513 268
33.79524 267
33.81536 263
33.83547 271
33.85559 254
33.8757 253
33.89581 274
33.91593 269
33.93604 269
33.95615 256
33.97627 223
33.99638 255
34.0165 264
34.03661 251
34.05672 241
34.07684 266
34.09695 258
34.11706 243
34.13718 265
34.15729 247
34.17741 262
34.19752 260
34.21763 296
34.23775 267
34.25786 274
34.27797 285
34.29809 292
34.3182 278
34.33831 314
34.35843 295
34.37854 321
34.39866 307
34.41877 340
34.43888 290
34.459 311
34.47911 293
34.49922 310
34.51934 315
34.53945 313
34.55957 293
34.57968 332
34.59979 303
34.61991 335
34.64002 301
34.66013 312
34.68025 329
34.70036 329
34.72047 330
34.74059 339
34.7607 386
34.78082 389
34.80093 414
34.82104 442
34.84116 387
34.86127 408
34.88138 396
34.9015 401
34.92161 391
34.94173 372
34.96184 363
34.98195 378
35.00207 371
35.02218 358
35.04229 366
35.06241 337
35.08252 341
35.10264 378
35.12275 375
35.14286 409
35.16298 402
35.18309 371
35.2032 441
35.22332 457
35.24343 421
35.26354 487
35.28366 413
35.30377 447
35.32389 406
35.344 448
35.36411 423
35.38423 375
35.40434 412
35.42445 393
35.44457 395
35.46468 416
35.4848 406
35.50491 416
35.52502 411
35.54514 393
35.56525 361
35.58536 416
35.60548 367
35.62559 402
35.64571 355
35.66582 371
35.68593 343
35.70605 362
35.72616 370
35.74627 329
35.76639 349
35.7865 294
35.80661 335
35.82673 367
35.84684 333
35.86696 285
35.88707 314
35.90718 307
35.9273 326
35.94741 303
35.96752 380
35.98764 365
36.00775 337
36.02787 343
36.04798 315
36.06809 343
36.08821 341
36.10832 323
36.12843 324
36.14855 310
36.16866 351
36.18878 318
36.20889 346
36.229 343
36.24912 363
36.26923 369
36.28934 361
36.30946 377
36.32957 403
36.34968 462
36.3698 525
36.38991 578
36.41003 708
36.43014 832
36.45025 934
36.47037 1114
36.49048 1290
36.51059 1520
36.53071 1543
36.55082 1549
36.57094 1491
36.59105 1328
36.61116 1172
36.63128 1030
36.65139 855
36.6715 732
36.69162 587
36.71173 471
36.73184 413
36.75196 389
36.77207 316
36.79219 359
36.8123 338
36.83241 348
36.85253 329
36.87264 343
36.89275 323
36.91287 296
36.93298 320
36.9531 286
36.97321 304
36.99332 285
37.01344 303
37.03355 335
37.05366 319
37.07378 312
37.09389 288
37.11401 328
37.13412 299
37.15423 302
37.17435 333
37.19446 334
37.21457 327
37.23469 302
37.2548 292
37.27491 275
37.29503 302
37.31514 288
37.33526 294
37.35537 254
37.37548 262
37.3956 263
37.41571 259
37.43582 252
37.45594 255
37.47605 262
37.49617 275
37.51628 247
37.53639 264
37.55651 259
37.57662 262
37.59673 273
37.61685 316
37.63696 249
37.65708 288
37.67719 290
37.6973 329
37.71742 295
37.73753 238
37.75764 300
37.77776 288
37.79787 290
37.81798 277
37.8381 282
37.85821 265
37.87833 269
37.89844 259
37.91855 266
37.93867 248
37.95878 237
37.97889 226
37.99901 268
38.01912 271
38.03924 210
38.05935 250
38.07946 250
38.09958 249
38.11969 249
38.1398 280
38.15992 266
38.18003 281
38.20015 268
38.22026 284
38.24037 266
38.26049 259
38.2806 270
38.30071 260
38.32083 275
38.34094 302
38.36105 272
38.38117 243
38.40128 258
38.4214 319
38.44151 261
38.46162 264
38.48174 278
38.50185 297
38.52196 290
38.54208 267
38.56219 240
38.58231 260
38.60242 290
38.62253 309
38.64265 282
38.66276 292
38.68287 286
38.70299 277
38.7231 278
38.74321 294
38.76333 254
38.78344 243
38.80356 268
38.82367 280
38.84378 289
38.8639 247
38.88401 263
38.90412 244
38.92424 256
38.94435 249
38.96447 243
38.98458 278
39.00469 240
39.02481 271
39.04492 260
39.06503 256
39.08515 260
39.10526 299
39.12538 299
39.14549 295
39.1656 331
39.18572 313
39.20583 360
39.22594 377
39.24606 382
39.26617 430
39.28628 479
39.3064 552
39.32651 584
39.34663 686
39.36674 911
39.38685 1075
39.40697 1151
39.42708 1348
39.44719 1405
39.46731 1469
39.48742 1268
39.50754 1206
39.52765 1013
39.54776 969
39.56788 806
39.58799 778
39.6081 641
39.62822 491
39.64833 359
39.66845 349
39.68856 303
39.70867 317
39.72879 283
39.7489 316
39.76901 297
39.78913 271
39.80924 290
39.82935 252
39.84947 271
39.86958 274
39.8897 283
39.90981 293
39.92992 298
39.95004 280
39.97015 287
39.99026 264
40.01038 262
40.03049 317
40.05061 275
40.07072 330
40.09083 364
40.11095 370
40.13106 410
40.15117 432
40.17129 528
40.1914 539
40.21152 642
40.23163 718
40.25174 782
40.27186 828
40.29197 797
40.31208 769
40.3322 725
40.35231 702
40.37242 650
40.39254 585
40.41265 482
40.43277 446
40.45288 381
40.47299 354
40.49311 319
40.51322 282
40.53333 277
40.55345 274
40.57356 287
40.59368 280
40.61379 271
40.6339 267
40.65402 283
40.67413 268
40.69424 269
40.71436 269
40.73447 279
40.75458 284
40.7747 256
40.79481 274
40.81493 251
40.83504 258
40.85515 240
40.87527 264
40.89538 255
40.91549 262
40.93561 254
40.95572 266
40.97584 266
40.99595 267
41.01606 255
41.03618 285
41.05629 275
41.0764 275
41.09652 271
41.11663 236
41.13675 253
41.15686 269
41.17697 250
41.19709 273
41.2172 238
41.23731 251
41.25743 265
41.27754 289
41.29765 255
41.31777 272
41.33788 242
41.358 283
41.37811 255
41.39822 284
41.41834 305
41.43845 260
41.45856 294
41.47868 267
41.49879 284
41.51891 240
41.53902 296
41.55913 288
41.57925 277
41.59936 320
41.61947 274
41.63959 268
41.6597 323
41.67982 326
41.69993 363
41.72004 322
41.74016 320
41.76027 331
41.78038 328
41.8005 287
41.82061 311
41.84072 294
41.86084 259
41.88095 258
41.90107 291
41.92118 261
41.94129 250
41.96141 255
41.98152 239
42.00163 264
42.02175 252
42.04186 277
42.06198 285
42.08209 260
42.1022 280
42.12232 280
42.14243 296
42.16254 274
42.18266 298
42.20277 339
42.22289 329
42.243 371
42.26311 404
42.28323 438
42.30334 506
42.32345 577
42.34357 693
42.36368 770
42.38379 913
42.40391 1008
42.42402 1042
42.44414 1072
42.46425 1101
42.48436 945
42.50448 823
42.52459 793
42.5447 697
42.56482 666
42.58493 544
42.60505 467
42.62516 388
42.64527 378
42.66539 335
42.6855 317
42.70561 305
42.72573 306
42.74584 297
42.76595 333
42.78607 327
42.80618 291
42.8263 281
42.84641 289
42.86652 257
42.88664 253
42.90675 256
42.92686 250
42.94698 237
42.96709 253
42.98721 235
43.00732 249
43.02743 238
43.04755 239
43.06766 242
43.08777 243
43.10789 225
43.128 211
43.14812 252
43.16823 235
43.18834 251
43.20846 206
43.22857 229
43.24868 238
43.2688 246
43.28891 208
43.30902 256
43.32914 229
43.34925 226
43.36937 214
43.38948 220
43.40959 229
43.42971 224
43.44982 238
43.46993 204
43.49005 228
43.51016 236
43.53028 241
43.55039 213
43.5705 216
43.59062 224
43.61073 223
43.63084 187
43.65096 254
43.67107 232
43.69119 255
43.7113 238
43.73141 234
43.75153 240
43.77164 235
43.79175 262
43.81187 253
43.83198 248
43.85209 244
43.87221 249
43.89232 230
43.91244 237
43.93255 231
43.95266 261
43.97278 238
43.99289 242
44.013 231
44.03312 256
44.05323 218
44.07335 236
44.09346 246
44.11357 252
44.13369 244
44.1538 230
44.17391 243
44.19403 223
44.21414 210
44.23426 220
44.25437 203
44.27448 225
44.2946 197
44.31471 228
44.33482 212
44.35494 231
44.37505 236
44.39516 228
44.41528 234
44.43539 217
44.45551 216
44.47562 215
44.49573 202
44.51585 213
44.53596 212
44.55607 237
44.57619 210
44.5963 211
44.61642 203
44.63653 231
44.65664 222
44.67676 200
44.69687 212
44.71698 213
44.7371 224
44.75721 203
44.77732 226
44.79744 216
44.81755 227
44.83767 225
44.85778 251
44.87789 239
44.89801 193
44.91812 222
44.93823 228
44.95835 225
44.97846 228
44.99858 231
45.01869 259
45.0388 239
45.05892 246
45.07903 227
45.09914 271
45.11926 234
45.13937 243
45.15949 284
45.1796 241
45.19971 268
45.21983 251
45.23994 243
45.26005 257
45.28017 268
45.30028 266
45.32039 250
45.34051 262
45.36062 225
45.38074 269
45.40085 231
45.42096 238
45.44108 223
45.46119 282
45.4813 238
45.50142 236
45.52153 256
45.54165 276
45.56176 317
45.58187 356
45.60199 387
45.6221 362
45.64221 405
45.66233 450
45.68244 515
45.70256 574
45.72267 589
45.74278 708
45.7629 731
45.78301 750
45.80312 700
45.82324 628
45.84335 618
45.86346 551
45.88358 553
45.90369 462
45.92381 480
45.94392 450
45.96403 378
45.98415 330
46.00426 304
46.02437 319
46.04449 269
46.0646 282
46.08472 262
46.10483 248
46.12494 263
46.14506 252
46.16517 220
46.18528 234
46.2054 242
46.22551 235
46.24563 220
46.26574 201
46.28585 218
46.30597 191
46.32608 234
46.34619 227
46.36631 228
46.38642 231
46.40653 233
46.42665 257
46.44676 185
46.46688 217
46.48699 242
46.5071 224
46.52722 231
46.54733 197
46.56744 202
46.58756 213
46.60767 213
46.62779 194
46.6479 191
46.66801 206
46.68813 210
46.70824 204
46.72835 224
46.74847 224
46.76858 216
46.78869 229
46.80881 226
46.82892 210
46.84904 211
46.86915 231
46.88926 229
46.90938 224
46.92949 204
46.9496 238
46.96972 237
46.98983 209
47.00995 233
47.03006 222
47.05017 225
47.07029 249
47.0904 257
47.11051 240
47.13063 249
47.15074 240
47.17086 247
47.19097 246
47.21108 238
47.2312 263
47.25131 257
47.27142 259
47.29154 240
47.31165 231
47.33176 248
47.35188 224
47.37199 251
47.39211 248
47.41222 248
47.43233 243
47.45245 252
47.47256 244
47.49267 258
47.51279 266
47.5329 291
47.55302 271
47.57313 235
47.59324 227
47.61336 276
47.63347 214
47.65358 225
47.6737 224
47.69381 224
47.71393 211
47.73404 244
47.75415 231
47.77427 214
47.79438 218
47.81449 217
47.83461 227
47.85472 206
47.87483 230
47.89495 200
47.91506 224
47.93518 203
47.95529 221
47.9754 228
47.99552 225
48.01563 209
48.03574 246
48.05586 218
48.07597 206
48.09609 219
48.1162 222
48.13631 207
48.15643 246
48.17654 235
48.19665 252
48.21677 227
48.23688 220
48.257 220
48.27711 235
48.29722 233
48.31734 220
48.33745 237
48.35756 253
48.37768 254
48.39779 261
48.4179 220
48.43802 232
48.45813 253
48.47825 249
48.49836 237
48.51847 264
48.53859 208
48.5587 235
48.57881 240
48.59893 281
48.61904 220
48.63916 273
48.65927 277
48.67938 257
48.6995 269
48.71961 251
48.73972 250
48.75984 260
48.77995 264
48.80006 254
48.82018 261
48.84029 263
48.86041 241
48.88052 250
48.90063 291
48.92075 259
48.94086 254
48.96097 268
48.98109 284
49.0012 273
49.02132 260
49.04143 252
49.06154 275
49.08166 252
49.10177 284
49.12188 256
49.142 261
49.16211 262
49.18223 239
49.20234 257
49.22245 269
49.24257 236
49.26268 247
49.28279 251
49.30291 256
49.32302 222
49.34313 269
49.36325 269
49.38336 198
49.40348 243
49.42359 235
49.4437 258
49.46382 243
49.48393 270
49.50404 269
49.52416 272
49.54427 256
49.56439 235
49.5845 286
49.60461 249
49.62473 274
49.64484 315
49.66495 261
49.68507 297
49.70518 296
49.7253 321
49.74541 343
49.76552 327
49.78564 328
49.80575 359
49.82586 383
49.84598 402
49.86609 440
49.8862 463
49.90632 519
49.92643 576
49.94655 667
49.96666 760
49.98677 917
50.00689 1129
50.027 1263
50.04711 1465
50.06723 1764
50.08734 2000
50.10746 2148
50.12757 2161
50.14768 1995
50.1678 1775
50.18791 1508
50.20802 1351
50.22814 1280
50.24825 1193
50.26837 1036
50.28848 932
50.30859 762
50.32871 631
50.34882 452
50.36893 412
50.38905 366
50.40916 361
50.42927 315
50.44939 326
50.4695 348
50.48962 302
50.50973 296
50.52984 337
50.54996 301
50.57007 351
50.59018 368
50.6103 397
50.63041 361
50.65053 392
50.67064 383
50.69075 399
50.71087 337
50.73098 363
50.75109 349
50.77121 351
50.79132 347
50.81143 338
50.83155 327
50.85166 261
50.87178 283
50.89189 268
50.912 298
50.93212 250
50.95223 227
50.97234 258
50.99246 248
51.01257 228
51.03269 234
51.0528 233
51.07291 203
51.09303 215
51.11314 219
51.13325 223
51.15337 246
51.17348 240
51.1936 239
51.21371 250
51.23382 207
51.25394 227
51.27405 237
51.29416 253
51.31428 244
51.33439 253
51.3545 259
51.37462 224
51.39473 272
51.41485 244
51.43496 237
51.45507 235
51.47519 247
51.4953 238
51.51541 241
51.53553 232
51.55564 212
51.57576 227
51.59587 227
51.61598 203
51.6361 215
51.65621 228
51.67632 205
51.69644 197
51.71655 221
51.73667 225
51.75678 219
51.77689 207
51.79701 198
51.81712 238
51.83723 222
51.85735 212
51.87746 212
51.89757 238
51.91769 211
51.9378 233
51.95792 209
51.97803 195
51.99814 214
52.01826 190
52.03837 178
52.05848 201
52.0786 231
52.09871 219
52.11883 252
52.13894 234
52.15905 227
52.17917 212
52.19928 211
52.21939 231
52.23951 223
52.25962 218
52.27974 200
52.29985 225
52.31996 230
52.34008 220
52.36019 237
52.3803 259
52.40042 229
52.42053 220
52.44064 239
52.46076 233
52.48087 247
52.50099 238
52.5211 203
52.54121 235
52.56133 211
52.58144 219
52.60155 227
52.62167 226
52.64178 203
52.6619 235
52.68201 195
52.70212 219
52.72224 235
52.74235 228
52.76246 218
52.78258 230
52.80269 205
52.8228 240
52.84292 244
52.86303 230
52.88315 230
52.90326 235
52.92337 215
52.94349 249
52.9636 247
52.98371 256
53.00383 253
53.02394 245
53.04406 269
53.06417 281
53.08428 287
53.1044 257
53.12451 296
53.14462 287
53.16474 289
53.18485 295
53.20497 295
53.22508 277
53.24519 289
53.26531 253
53.28542 308
53.30553 298
53.32565 280
53.34576 273
53.36587 295
53.38599 293
53.4061 269
53.42622 277
53.44633 266
53.46644 276
53.48656 300
53.50667 263
53.52678 261
53.5469 252
53.56701 279
53.58713 278
53.60724 271
53.62735 258
53.64747 247
53.66758 264
53.68769 263
53.70781 242
53.72792 248
53.74804 251
53.76815 251
53.78826 244
53.80838 244
53.82849 249
53.8486 248
53.86872 252
53.88883 270
53.90894 231
53.92906 254
53.94917 276
53.96929 276
53.9894 260
54.00951 254
54.02963 256
54.04974 293
54.06985 260
54.08997 260
54.11008 264
54.1302 274
54.15031 258
54.17042 241
54.19054 241
54.21065 251
54.23076 246
54.25088 254
54.27099 262
54.29111 250
54.31122 242
54.33133 262
54.35145 228
54.37156 259
54.39167 286
54.41179 279
54.4319 234
54.45201 279
54.47213 259
54.49224 273
54.51236 280
54.53247 252
54.55258 288
54.5727 274
54.59281 296
54.61292 303
54.63304 330
54.65315 305
54.67327 375
54.69338 425
54.71349 427
54.73361 503
54.75372 556
54.77383 577
54.79395 690
54.81406 725
54.83417 736
54.85429 761
54.8744 781
54.89452 667
54.91463 639
54.93474 537
54.95486 550
54.97497 484
54.99508 465
55.0152 460
55.03531 423
55.05543 423
55.07554 345
55.09565 360
55.11577 339
55.13588 327
55.15599 305
55.17611 349
55.19622 395
55.21634 393
55.23645 372
55.25656 442
55.27668 467
55.29679 485
55.3169 487
55.33702 415
55.35713 410
55.37724 381
55.39736 354
55.41747 350
55.43759 328
55.4577 357
55.47781 318
55.49793 305
55.51804 310
55.53815 272
55.55827 259
55.57838 240
55.5985 282
55.61861 281
55.63872 274
55.65884 243
55.67895 228
55.69906 267
55.71918 247
55.73929 238
55.75941 240
55.77952 231
55.79963 241
55.81975 207
55.83986 216
55.85997 215
55.88009 200
55.9002 236
55.92031 226
55.94043 210
55.96054 223
55.98066 224
56.00077 185
56.02088 208
56.041 188
56.06111 236
56.08122 202
56.10134 233
56.12145 236
56.14157 236
56.16168 223
56.18179 215
56.20191 222
56.22202 226
56.24213 234
56.26225 233
56.28236 260
56.30248 231
56.32259 237
56.3427 238
56.36282 253
56.38293 230
56.40304 225
56.42316 240
56.44327 215
56.46338 246
56.4835 234
56.50361 249
56.52373 229
56.54384 222
56.56395 215
56.58407 250
56.60418 233
56.62429 246
56.64441 215
56.66452 240
56.68464 217
56.70475 217
56.72486 219
56.74498 233
56.76509 228
56.7852 204
56.80532 213
56.82543 188
56.84554 215
56.86566 224
56.88577 212
56.90589 224
56.926 219
56.94611 204
56.96623 210
56.98634 201
57.00645 233
57.02657 214
57.04668 190
57.0668 251
57.08691 238
57.10702 219
57.12714 227
57.14725 248
57.16736 231
57.18748 226
57.20759 215
57.22771 229
57.24782 220
57.26793 243
57.28805 223
57.30816 215
57.32827 207
57.34839 250
57.3685 228
57.38861 235
57.40873 211
57.42884 236
57.44896 251
57.46907 201
57.48918 221
57.5093 240
57.52941 208
57.54952 220
57.56964 191
57.58975 217
57.60987 207
57.62998 207
57.65009 200
57.67021 229
57.69032 214
57.71043 200
57.73055 200
57.75066 204
57.77078 206
57.79089 203
57.811 215
57.83112 233
57.85123 221
57.87134 210
57.89146 212
57.91157 217
57.93168 233
57.9518 223
57.97191 213
57.99203 201
58.01214 201
58.03225 226
58.05237 191
58.07248 234
58.09259 197
58.11271 194
58.13282 230
58.15294 206
58.17305 225
58.19316 205
58.21328 217
58.23339 213
58.2535 210
58.27362 219
58.29373 219
58.31385 236
58.33396 218
58.35407 199
58.37419 196
58.3943 207
58.41441 168
58.43453 229
58.45464 198
58.47475 203
58.49487 213
58.51498 233
58.5351 219
58.55521 209
58.57532 213
58.59544 220
58.61555 227
58.63566 240
58.65578 238
58.67589 234
58.69601 248
58.71612 256
58.73623 233
58.75635 226
58.77646 212
58.79657 214
58.81669 220
58.8368 206
58.85691 230
58.87703 224
58.89714 233
58.91726 233
58.93737 236
58.95748 217
58.9776 236
58.99771 203
59.01782 207
59.03794 193
59.05805 195
59.07817 200
59.09828 217
59.11839 191
59.13851 189
59.15862 208
59.17873 214
59.19885 195
59.21896 199
59.23908 213
59.25919 202
59.2793 224
59.29942 214
59.31953 212
59.33964 220
59.35976 225
59.37987 228
59.39998 228
59.4201 236
59.44021 241
59.46033 212
59.48044 252
59.50055 259
59.52067 242
59.54078 294
59.56089 287
59.58101 280
59.60112 296
59.62124 327
59.64135 371
59.66146 353
59.68158 332
59.70169 421
59.7218 441
59.74192 537
59.76203 573
59.78215 619
59.80226 753
59.82237 817
59.84249 967
59.8626 1086
59.88271 1191
59.90283 1310
59.92294 1342
59.94305 1385
59.96317 1311
59.98328 1103
60.0034 970
60.02351 872
60.04362 821
60.06374 811
60.08385 800
60.10396 794
60.12408 729
60.14419 634
60.16431 466
60.18442 401
60.20453 363
60.22465 323
60.24476 272
60.26487 280
60.28499 293
60.3051 279
60.32522 280
60.34533 242
60.36544 255
60.38556 282
60.40567 275
60.42578 264
60.4459 259
60.46601 268
60.48612 260
60.50624 251
60.52635 232
60.54647 237
60.56658 229
60.58669 253
60.60681 214
60.62692 257
60.64703 234
60.66715 218
60.68726 193
60.70738 228
60.72749 220
60.7476 211
60.76772 234
60.78783 215
60.80794 202
60.82806 253
60.84817 247
60.86828 249
60.8884 220
60.90851 226
60.92863 241
60.94874 216
60.96885 199
60.98897 215
61.00908 253
61.02919 273
61.04931 223
61.06942 233
61.08954 236
61.10965 263
61.12976 252
61.14988 248
61.16999 232
61.1901 278
61.21022 229
61.23033 213
61.25045 234
61.27056 250
61.29067 229
61.31079 252
61.3309 219
61.35101 257
61.37113 248
61.39124 257
61.41135 225
61.43147 283
61.45158 239
61.4717 274
61.49181 254
61.51192 252
61.53204 214
61.55215 253
61.57226 270
61.59238 284
61.61249 257
61.63261 284
61.65272 262
61.67283 265
61.69295 277
61.71306 272
61.73317 282
61.75329 283
61.7734 271
61.79352 301
61.81363 285
61.83374 276
61.85386 308
61.87397 274
61.89408 292
61.9142 286
61.93431 298
61.95442 294
61.97454 293
61.99465 296
62.01477 274
62.03488 296
62.05499 299
62.07511 284
62.09522 304
62.11533 314
62.13545 265
62.15556 293
62.17568 274
62.19579 247
62.2159 267
62.23602 268
62.25613 250
62.27624 286
62.29636 254
62.31647 228
62.33659 255
62.3567 289
62.37681 233
62.39693 245
62.41704 247
62.43715 241
62.45727 247
62.47738 242
62.49749 261
62.51761 249
62.53772 262
62.55784 254
62.57795 202
62.59806 284
62.61818 240
62.63829 265
62.6584 274
62.67852 249
62.69863 256
62.71875 225
62.73886 261
62.75897 268
62.77909 225
62.7992 236
62.81931 225
62.83943 225
62.85954 232
62.87965 244
62.89977 235
62.91988 236
62.94 254
62.96011 249
62.98022 246
63.00034 211
63.02045 244
63.04056 268
63.06068 248
63.08079 268
63.10091 273
63.12102 271
63.14113 280
63.16125 270
63.18136 291
63.20147 271
63.22159 284
63.2417 293
63.26182 278
63.28193 300
63.30204 292
63.32216 255
63.34227 311
63.36238 257
63.3825 306
63.40261 271
63.42272 260
63.44284 258
63.46295 276
63.48307 266
63.50318 239
63.52329 232
63.54341 266
63.56352 268
63.58363 273
63.60375 243
63.62386 248
63.64398 274
63.66409 278
63.6842 273
63.70432 297
63.72443 270
63.74454 283
63.76466 296
63.78477 309
63.80489 307
63.825 323
63.84511 329
63.86523 348
63.88534 334
63.90545 359
63.92557 421
63.94568 419
63.96579 431
63.98591 452
64.00602 432
64.02614 462
64.04625 428
64.06636 395
64.08648 409
64.10659 399
64.1267 341
64.14682 351
64.16693 301
64.18705 338
64.20716 335
64.22727 301
64.24739 273
64.2675 248
64.28761 267
64.30773 281
64.32784 224
64.34796 240
64.36807 240
64.38818 244
64.4083 227
64.42841 242
64.44852 275
64.46864 213
64.48875 242
64.50886 200
64.52898 240
64.54909 269
64.56921 229
64.58932 248
64.60943 225
64.62955 214
64.64966 220
64.66977 207
64.68989 234
64.71 227
64.73012 244
64.75023 229
64.77034 217
64.79046 222
64.81057 228
64.83068 211
64.8508 216
64.87091 225
64.89102 225
64.91114 234
64.93125 245
64.95137 215
64.97148 228
64.99159 202
65.01171 200
65.03182 201
65.05193 228
65.07205 226
65.09216 220
65.11228 219
65.13239 217
65.1525 210
65.17262 229
65.19273 209
65.21284 219
65.23296 238
65.25307 239
65.27319 235
65.2933 235
65.31341 211
65.33353 251
65.35364 228
65.37375 223
65.39387 225
65.41398 234
65.43409 216
65.45421 237
65.47432 224
65.49444 234
65.51455 237
65.53466 213
65.55478 222
65.57489 241
65.595 235
65.61512 246
65.63523 242
65.65535 234
65.67546 269
65.69557 248
65.71569 266
65.7358 259
65.75591 279
65.77603 281
65.79614 271
65.81626 234
65.83637 257
65.85648 240
65.8766 232
65.89671 225
65.91682 235
65.93694 226
65.95705 212
65.97716 217
65.99728 228
66.01739 215
66.03751 212
66.05762 237
66.07773 219
66.09785 236
66.11796 191
66.13807 237
66.15819 229
66.1783 237
66.19842 223
66.21853 250
66.23864 235
66.25876 250
66.27887 234
66.29898 240
66.3191 250
66.33921 215
66.35933 232
66.37944 232
66.39955 229
66.41967 256
66.43978 261
66.45989 281
66.48001 249
66.50012 293
66.52023 268
66.54035 286
66.56046 250
66.58058 263
66.60069 242
66.6208 238
66.64092 246
66.66103 224
66.68114 271
66.70126 269
66.72137 238
66.74149 239
66.7616 237
66.78171 232
66.80183 213
66.82194 229
66.84205 256
66.86217 251
66.88228 240
66.90239 216
66.92251 252
66.94262 256
66.96274 236
66.98285 246
67.00296 257
67.02308 247
67.04319 231
67.0633 231
67.08342 244
67.10353 233
67.12365 254
67.14376 245
67.16387 257
67.18399 272
67.2041 251
67.22421 248
67.24433 239
67.26444 280
67.28456 283
67.30467 258
67.32478 278
67.3449 262
67.36501 288
67.38512 281
67.40524 310
67.42535 307
67.44546 327
67.46558 315
67.48569 357
67.50581 370
67.52592 415
67.54603 437
67.56615 520
67.58626 563
67.60637 600
67.62649 709
67.6466 777
67.66672 823
67.68683 883
67.70694 933
67.72706 883
67.74717 861
67.76728 785
67.7874 696
67.80751 662
67.82763 667
67.84774 666
67.86785 706
67.88797 726
67.90808 782
67.92819 785
67.94831 787
67.96842 742
67.98853 772
68.00865 827
68.02876 907
68.04888 1012
68.06899 997
68.0891 1139
68.10922 1203
68.12933 1185
68.14944 1143
68.16956 1133
68.18967 967
68.20979 1030
68.2299 1026
68.25001 971
68.27013 1073
68.29024 1055
68.31035 1068
68.33047 984
68.35058 856
68.3707 702
68.39081 647
68.41092 550
68.43104 517
68.45115 538
68.47126 505
68.49138 511
68.51149 469
68.5316 413
68.55172 374
68.57183 350
68.59195 310
68.61206 287
68.63217 277
68.65229 300
68.6724 288
68.69251 311
68.71263 301
68.73274 294
68.75286 289
68.77297 347
68.79308 266
68.8132 307
68.83331 298
68.85342 276
68.87354 279
68.89365 294
68.91376 283
68.93388 318
68.95399 283
68.97411 286
68.99422 298
69.01433 285
69.03445 304
69.05456 279
69.07467 293
69.09479 303
69.1149 324
69.13502 325
69.15513 367
69.17524 361
69.19536 315
69.21547 308
69.23558 302
69.2557 288
69.27581 283
69.29593 320
69.31604 289
69.33615 262
69.35627 281
69.37638 255
69.39649 288
69.41661 260
69.43672 293
69.45683 266
69.47695 273
69.49706 258
69.51718 298
69.53729 273
69.5574 300
69.57752 263
69.59763 283
69.61774 273
69.63786 263
69.65797 276
69.67809 310
69.6982 313
69.71831 286
69.73843 301
69.75854 305
69.77865 280
69.79877 286
69.81888 298
69.839 289
69.85911 288
69.87922 298
69.89934 321
69.91945 272
69.93956 297
69.95968 283
69.97979 282
69.9999 314
70.02002 241
70.04013 279
70.06025 247
70.08036 271
70.10047 241
70.12059 251
70.1407 248
70.16081 253
70.18093 241
70.20104 249
70.22116 243
70.24127 260
70.26138 281
70.2815 252
70.30161 272
70.32172 254
70.34184 224
70.36195 226
70.38207 235
70.40218 233
70.42229 236
70.44241 267
70.46252 236
70.48263 254
70.50275 236
70.52286 258
70.54297 259
70.56309 241
70.5832 237
70.60332 224
70.62343 244
70.64354 240
70.66366 236
70.68377 228
70.70388 230
70.724 265
70.74411 245
70.76423 256
70.78434 252
70.80445 240
70.82457 279
70.84468 242
70.86479 261
70.88491 258
70.90502 244
70.92513 261
70.94525 279
70.96536 248
70.98548 267
71.00559 246
71.0257 231
71.04582 227
71.06593 260
71.08604 271
71.10616 266
71.12627 269
71.14639 257
71.1665 226
71.18661 253
71.20673 220
71.22684 234
71.24695 239
71.26707 232
71.28718 271
71.3073 267
71.32741 247
71.34752 257
71.36764 287
71.38775 274
71.40786 291
71.42798 287
71.44809 271
71.4682 276
71.48832 291
71.50843 244
71.52855 257
71.54866 312
71.56877 289
71.58889 261
71.609 274
71.62911 267
71.64923 287
71.66934 276
71.68946 309
71.70957 324
71.72968 277
71.7498 290
71.76991 250
71.79002 271
71.81014 276
71.83025 281
71.85037 266
71.87048 291
71.89059 276
71.91071 284
71.93082 270
71.95093 274
71.97105 299
71.99116 267
72.01127 273
72.03139 262
72.0515 270
72.07162 275
72.09173 275
72.11184 245
72.13196 286
72.15207 287
72.17218 270
72.1923 279
72.21241 255
72.23253 305
72.25264 286
72.27275 270
72.29287 267
72.31298 288
72.33309 264
72.35321 256
72.37332 256
72.39344 291
72.41355 269
72.43366 274
72.45378 259
72.47389 274
72.494 276
72.51412 263
72.53423 278
72.55434 252
72.57446 245
72.59457 271
72.61469 240
72.6348 249
72.65491 230
72.67503 237
72.69514 288
72.71525 281
72.73537 276
72.75548 266
72.7756 244
72.79571 286
72.81582 278
72.83594 327
72.85605 262
72.87616 248
72.89628 268
72.91639 255
72.9365 252
72.95662 265
72.97673 278
72.99685 267
73.01696 287
73.03707 287
73.05719 290
73.0773 294
73.09741 292
73.11753 322
73.13764 308
73.15776 318
73.17787 331
73.19798 320
73.2181 323
73.23821 378
73.25832 343
73.27844 368
73.29855 394
73.31867 423
73.33878 454
73.35889 479
73.37901 467
73.39912 507
73.41923 521
73.43935 553
73.45946 504
73.47957 499
73.49969 472
73.5198 470
73.53992 461
73.56003 426
73.58014 417
73.60026 473
73.62037 486
73.64048 419
73.6606 473
73.68071 419
73.70083 400
73.72094 369
73.74105 345
73.76117 385
73.78128 370
73.80139 352
73.82151 319
73.84162 331
73.86174 345
73.88185 301
73.90196 312
73.92208 333
73.94219 342
73.9623 349
73.98242 336
74.00253 321
74.02264 342
74.04276 366
74.06287 354
74.08299 317
74.1031 337
74.12321 310
74.14333 321
74.16344 318
74.18355 374
74.20367 353
74.22378 318
74.2439 359
74.26401 372
74.28412 343
74.30424 321
74.32435 341
74.34446 353
74.36458 296
74.38469 334
74.40481 366
74.42492 294
74.44503 338
74.46515 316
74.48526 376
74.50537 311
74.52549 300
74.5456 314
74.56571 344
74.58583 332
74.60594 310
74.62606 319
74.64617 308
74.66628 324
74.6864 299
74.70651 303
74.72662 301
74.74674 325
74.76685 307
74.78697 288
74.80708 321
74.82719 297
74.84731 341
74.86742 329
74.88753 340
74.90765 291
74.92776 310
74.94787 314
74.96799 314
74.9881 287
75.00822 288
