3.00117 22299
3.02128 21319
3.0414 20921
3.06151 20034
3.08162 19980
3.10174 19041
3.12185 18795
3.14197 18239
3.16208 17238
3.18219 17106
3.20231 16516
3.22242 15764
3.24253 15660
3.26265 14750
3.28276 14687
3.30288 14100
3.32299 13474
3.3431 13443
3.36322 12674
3.38333 12582
3.40344 11796
3.42356 11460
3.44367 11361
3.46379 10660
3.4839 10260
3.50401 9902
3.52413 9649
3.54424 9473
3.56435 8727
3.58447 8628
3.60458 8206
3.62469 7986
3.64481 7853
3.66492 7234
3.68504 7325
3.70515 6685
3.72526 6405
3.74538 6336
3.76549 5727
3.7856 5903
3.80572 5440
3.82583 5230
3.84595 5089
3.86606 4787
3.88617 4601
3.90629 4394
3.9264 4167
3.94651 4094
3.96663 3859
3.98674 3663
4.00686 3534
4.02697 3463
4.04708 3331
4.0672 3010
4.08731 2933
4.10742 2728
4.12754 2644
4.14765 2767
4.16776 2285
4.18788 2297
4.20799 2257
4.22811 2233
4.24822 2096
4.26833 1927
4.28845 1893
4.30856 1843
4.32867 1773
4.34879 1857
4.3689 1530
4.38902 1592
4.40913 1585
4.42924 1553
4.44936 1636
4.46947 1458
4.48958 1410
4.5097 1387
4.52981 1341
4.54992 1340
4.57004 1186
4.59015 1267
4.61027 1271
4.63038 1186
4.65049 1212
4.67061 1085
4.69072 1053
4.71083 1107
4.73095 1052
4.75106 1015
4.77118 975
4.79129 962
4.8114 997
4.83152 889
4.85163 960
4.87174 812
4.89186 934
4.91197 868
4.93209 849
4.9522 838
4.97231 735
4.99243 726
5.01254 791
5.03265 736
5.05277 710
5.07288 680
5.09299 601
5.11311 681
5.13322 661
5.15334 654
5.17345 569
5.19356 600
5.21368 590
5.23379 582
5.2539 554
5.27402 534
5.29413 494
5.31425 501
5.33436 537
5.35447 466
5.37459 501
5.3947 452
5.41481 441
5.43493 422
5.45504 402
5.47516 423
5.49527 379
5.51538 413
5.5355 400
5.55561 360
5.57572 367
5.59584 371
5.61595 304
5.63606 351
5.65618 347
5.67629 344
5.69641 314
5.71652 326
5.73663 351
5.75675 312
5.77686 260
5.79697 270
5.81709 333
5.8372 271
5.85732 303
5.87743 290
5.89754 287
5.91766 280
5.93777 281
5.95788 270
5.978 253
5.99811 270
6.01823 210
6.03834 283
6.05845 251
6.07857 245
6.09868 243
6.11879 229
6.13891 232
6.15902 238
6.17913 240
6.19925 242
6.21936 225
6.23948 210
6.25959 217
6.2797 224
6.29982 222
6.31993 221
6.34004 240
6.36016 234
6.38027 237
6.40039 217
6.4205 217
6.44061 218
6.46073 227
6.48084 219
6.50095 228
6.52107 213
6.54118 186
6.56129 218
6.58141 214
6.60152 224
6.62164 218
6.64175 210
6.66186 186
6.68198 220
6.70209 173
6.7222 194
6.74232 235
6.76243 201
6.78255 189
6.80266 186
6.82277 206
6.84289 174
6.863 186
6.88311 216
6.90323 225
6.92334 196
6.94346 215
6.96357 184
6.98368 222
7.0038 197
7.02391 210
7.04402 215
7.06414 200
7.08425 207
7.10436 189
7.12448 200
7.14459 201
7.16471 210
7.18482 176
7.20493 198
7.22505 182
7.24516 210
7.26527 190
7.28539 197
7.3055 195
7.32562 193
7.34573 204
7.36584 190
7.38596 239
7.40607 180
7.42618 212
7.4463 227
7.46641 198
7.48653 234
7.50664 208
7.52675 205
7.54687 221
7.56698 212
7.58709 230
7.60721 194
7.62732 200
7.64743 215
7.66755 217
7.68766 228
7.70778 217
7.72789 193
7.748 194
7.76812 205
7.78823 203
7.80834 207
7.82846 217
7.84857 222
7.86869 199
7.8888 239
7.90891 213
7.92903 205
7.94914 207
7.96925 235
7.98937 225
8.00948 222
8.0296 197
8.04971 220
8.06982 226
8.08994 207
8.11005 206
8.13016 210
8.15028 214
8.17039 213
8.1905 232
8.21062 222
8.23073 205
8.25085 223
8.27096 195
8.29107 195
8.31119 216
8.3313 215
8.35141 247
8.37153 231
8.39164 221
8.41176 227
8.43187 238
8.45198 243
8.4721 233
8.49221 224
8.51232 213
8.53244 196
8.55255 190
8.57266 224
8.59278 227
8.61289 226
8.63301 209
8.65312 215
8.67323 192
8.69335 192
8.71346 188
8.73357 232
8.75369 239
8.7738 251
8.79392 218
8.81403 241
8.83414 190
8.85426 211
8.87437 209
8.89448 204
8.9146 217
8.93471 217
8.95483 192
8.97494 193
8.99505 227
9.01517 212
9.03528 235
9.05539 219
9.07551 201
9.09562 204
9.11573 241
9.13585 193
9.15596 203
9.17608 233
9.19619 220
9.2163 225
9.23642 218
9.25653 227
9.27664 234
9.29676 228
9.31687 218
9.33699 236
9.3571 196
9.37721 226
9.39733 200
9.41744 245
9.43755 216
9.45767 212
9.47778 202
9.4979 234
9.51801 220
9.53812 214
9.55824 204
9.57835 209
9.59846 238
9.61858 205
9.63869 208
9.6588 217
9.67892 208
9.69903 216
9.71915 226
9.73926 232
9.75937 221
9.77949 210
9.7996 218
9.81971 221
9.83983 256
9.85994 262
9.88006 197
9.90017 214
9.92028 221
9.9404 216
9.96051 236
9.98062 214
10.00074 218
10.02085 208
10.04097 221
10.06108 179
10.08119 230
10.10131 224
10.12142 229
10.14153 231
10.16165 221
10.18176 198
10.20187 239
10.22199 231
10.2421 195
10.26222 204
10.28233 234
10.30244 223
10.32256 242
10.34267 232
10.36278 222
10.3829 202
10.40301 212
10.42313 230
10.44324 192
10.46335 186
10.48347 220
10.50358 204
10.52369 230
10.54381 209
10.56392 203
10.58403 229
10.60415 237
10.62426 215
10.64438 242
10.66449 190
10.6846 219
10.70472 200
10.72483 225
10.74494 222
10.76506 198
10.78517 217
10.80529 197
10.8254 239
10.84551 235
10.86563 229
10.88574 217
10.90585 227
10.92597 182
10.94608 216
10.9662 223
10.98631 218
11.00642 225
11.02654 236
11.04665 245
11.06676 241
11.08688 214
11.10699 206
11.1271 209
11.14722 230
11.16733 233
11.18745 201
11.20756 205
11.22767 234
11.24779 228
11.2679 240
11.28801 259
11.30813 225
11.32824 232
11.34836 222
11.36847 239
11.38858 225
11.4087 234
11.42881 212
11.44892 243
11.46904 218
11.48915 241
11.50927 233
11.52938 220
11.54949 253
11.56961 240
11.58972 228
11.60983 234
11.62995 214
11.65006 238
11.67017 218
11.69029 236
11.7104 212
11.73052 267
11.75063 226
11.77074 260
11.79086 277
11.81097 268
11.83108 259
11.8512 253
11.87131 285
11.89143 281
11.91154 275
11.93165 279
11.95177 255
11.97188 274
11.99199 302
12.01211 297
12.03222 321
12.05234 282
12.07245 329
12.09256 338
12.11268 357
12.13279 387
12.1529 366
12.17302 384
12.19313 420
12.21324 396
12.23336 434
12.25347 543
12.27359 496
12.2937 474
12.31381 496
12.33393 510
12.35404 508
12.37415 494
12.39427 458
12.41438 436
12.4345 409
12.45461 376
12.47472 379
12.49484 305
12.51495 336
12.53506 335
12.55518 304
12.57529 314
12.5954 304
12.61552 241
12.63563 232
12.65575 254
12.67586 285
12.69597 256
12.71609 247
12.7362 247
12.75631 229
12.77643 241
12.79654 230
12.81666 262
12.83677 196
12.85688 244
12.877 220
12.89711 233
12.91722 230
12.93734 207
12.95745 216
12.97757 209
12.99768 224
13.01779 218
13.03791 221
13.05802 236
13.07813 184
13.09825 234
13.11836 213
13.13847 183
13.15859 175
13.1787 198
13.19882 230
13.21893 240
13.23904 200
13.25916 208
13.27927 177
13.29938 246
13.3195 214
13.33961 216
13.35973 215
13.37984 191
13.39995 196
13.42007 224
13.44018 184
13.46029 197
13.48041 217
13.50052 214
13.52064 202
13.54075 211
13.56086 195
13.58098 198
13.60109 181
13.6212 167
13.64132 182
13.66143 214
13.68154 182
13.70166 208
13.72177 196
13.74189 187
13.762 190
13.78211 210
13.80223 199
13.82234 205
13.84245 203
13.86257 171
13.88268 195
13.9028 180
13.92291 203
13.94302 196
13.96314 221
13.98325 208
14.00336 204
14.02348 205
14.04359 173
14.06371 167
14.08382 181
14.10393 192
14.12405 208
14.14416 188
14.16427 186
14.18439 226
14.2045 187
14.22461 191
14.24473 202
14.26484 185
14.28496 200
14.30507 191
14.32518 174
14.3453 196
14.36541 182
14.38552 207
14.40564 199
14.42575 179
14.44587 171
14.46598 197
14.48609 207
14.50621 199
14.52632 196
14.54643 163
14.56655 177
14.58666 175
14.60677 208
14.62689 178
14.647 200
14.66712 187
14.68723 175
14.70734 193
14.72746 176
14.74757 168
14.76768 170
14.7878 186
14.80791 192
14.82803 188
14.84814 191
14.86825 172
14.88837 169
14.90848 184
14.92859 180
14.94871 202
14.96882 206
14.98894 184
15.00905 196
15.02916 184
15.04928 170
15.06939 182
15.0895 163
15.10962 166
15.12973 198
15.14984 178
15.16996 181
15.19007 178
15.21019 186
15.2303 206
15.25041 176
15.27053 207
15.29064 165
15.31075 158
15.33087 194
15.35098 188
15.3711 189
15.39121 192
15.41132 186
15.43144 166
15.45155 189
15.47166 186
15.49178 167
15.51189 183
15.53201 189
15.55212 170
15.57223 178
15.59235 191
15.61246 161
15.63257 195
15.65269 197
15.6728 185
15.69291 169
15.71303 211
15.73314 165
15.75326 185
15.77337 211
15.79348 197
15.8136 187
15.83371 181
15.85382 180
15.87394 170
15.89405 156
15.91417 181
15.93428 178
15.95439 175
15.97451 188
15.99462 168
16.01473 169
16.03485 196
16.05496 169
16.07508 200
16.09519 175
16.1153 164
16.13542 174
16.15553 170
16.17564 167
16.19576 192
16.21587 167
16.23598 151
16.2561 169
16.27621 172
16.29633 184
16.31644 146
16.33655 172
16.35667 177
16.37678 156
16.39689 177
16.41701 178
16.43712 150
16.45724 199
16.47735 181
16.49746 202
16.51758 180
16.53769 164
16.5578 184
16.57792 171
16.59803 193
16.61814 161
16.63826 169
16.65837 183
16.67849 172
16.6986 185
16.71871 152
16.73883 170
16.75894 186
16.77905 149
16.79917 158
16.81928 173
16.8394 185
16.85951 181
16.87962 158
16.89974 172
16.91985 142
16.93996 144
16.96008 168
16.98019 146
17.00031 196
17.02042 177
17.04053 187
17.06065 167
17.08076 172
17.10087 168
17.12099 166
17.1411 187
17.16121 177
17.18133 167
17.20144 151
17.22156 181
17.24167 146
17.26178 161
17.2819 164
17.30201 183
17.32212 173
17.34224 166
17.36235 177
17.38247 183
17.40258 177
17.42269 167
17.44281 167
17.46292 177
17.48303 168
17.50315 184
17.52326 148
17.54338 170
17.56349 162
17.5836 165
17.60372 159
17.62383 180
17.64394 161
17.66406 169
17.68417 181
17.70428 158
17.7244 197
17.74451 179
17.76463 175
17.78474 178
17.80485 179
17.82497 167
17.84508 182
17.86519 179
17.88531 181
17.90542 170
17.92554 184
17.94565 192
17.96576 163
17.98588 167
18.00599 199
18.0261 168
18.04622 162
18.06633 169
18.08645 167
18.10656 184
18.12667 186
18.14679 140
18.1669 183
18.18701 158
18.20713 156
18.22724 167
18.24735 179
18.26747 163
18.28758 154
18.3077 171
18.32781 155
18.34792 176
18.36804 180
18.38815 160
18.40826 186
18.42838 181
18.44849 151
18.46861 187
18.48872 182
18.50883 162
18.52895 179
18.54906 191
18.56917 166
18.58929 174
18.6094 171
18.62951 180
18.64963 181
18.66974 188
18.68986 199
18.70997 191
18.73008 171
18.7502 203
18.77031 164
18.79042 192
18.81054 191
18.83065 181
18.85077 175
18.87088 178
18.89099 200
18.91111 200
18.93122 140
18.95133 192
18.97145 167
18.99156 176
19.01168 187
19.03179 173
19.0519 158
19.07202 165
19.09213 194
19.11224 192
19.13236 183
19.15247 193
19.17258 185
19.1927 172
19.21281 166
19.23293 191
19.25304 187
19.27315 171
19.29327 172
19.31338 163
19.33349 181
19.35361 158
19.37372 172
19.39384 187
19.41395 208
19.43406 180
19.45418 176
19.47429 182
19.4944 184
19.51452 205
19.53463 195
19.55475 189
19.57486 188
19.59497 187
19.61509 198
19.6352 217
19.65531 243
19.67543 229
19.69554 237
19.71565 259
19.73577 271
19.75588 275
19.776 284
19.79611 330
19.81622 339
19.83634 364
19.85645 401
19.87656 379
19.89668 411
19.91679 465
19.93691 400
19.95702 384
19.97713 433
19.99725 350
20.01736 350
20.03747 390
20.05759 347
20.0777 372
20.09782 373
20.11793 382
20.13804 388
20.15816 435
20.17827 383
20.19838 433
20.2185 425
20.23861 383
20.25872 423
20.27884 386
20.29895 410
20.31907 413
20.33918 492
20.35929 411
20.37941 419
20.39952 435
20.41963 409
20.43975 456
20.45986 513
20.47998 505
20.50009 518
20.5202 531
20.54032 544
20.56043 539
20.58054 521
20.60066 585
20.62077 673
20.64088 691
20.661 840
20.68111 1086
20.70123 1353
20.72134 1800
20.74145 2488
20.76157 3525
20.78168 4888
20.80179 6402
20.82191 7638
20.84202 8421
20.86214 8502
20.88225 7348
20.90236 5570
20.92248 3805
20.94259 2487
20.9627 1560
20.98282 947
21.00293 717
21.02305 577
21.04316 592
21.06327 575
21.08339 492
21.1035 524
21.12361 494
21.14373 453
21.16384 471
21.18395 427
21.20407 453
21.22418 431
21.2443 424
21.26441 458
21.28452 395
21.30464 374
21.32475 432
21.34486 403
21.36498 401
21.38509 424
21.40521 367
21.42532 336
21.44543 364
21.46555 374
21.48566 363
21.50577 333
21.52589 307
21.546 355
21.56612 328
21.58623 330
21.60634 328
21.62646 297
21.64657 302
21.66668 305
21.6868 306
21.70691 289
21.72702 290
21.74714 297
21.76725 287
21.78737 263
21.80748 265
21.82759 235
21.84771 308
21.86782 260
21.88793 293
21.90805 293
21.92816 275
21.94828 281
21.96839 306
21.9885 310
22.00862 253
22.02873 280
22.04884 279
22.06896 297
22.08907 262
22.10919 262
22.1293 276
22.14941 255
22.16953 260
22.18964 263
22.20975 279
22.22987 269
22.24998 241
22.27009 253
22.29021 240
22.31032 261
22.33044 259
22.35055 234
22.37066 252
22.39078 279
22.41089 280
22.431 246
22.45112 248
22.47123 232
22.49135 229
22.51146 240
22.53157 263
22.55169 245
22.5718 223
22.59191 250
22.61203 261
22.63214 268
22.65225 258
22.67237 234
22.69248 257
22.7126 210
22.73271 248
22.75282 240
22.77294 238
22.79305 243
22.81316 248
22.83328 235
22.85339 225
22.87351 265
22.89362 225
22.91373 223
22.93385 219
22.95396 255
22.97407 238
22.99419 241
23.0143 254
23.03442 221
23.05453 231
23.07464 256
23.09476 251
23.11487 228
23.13498 250
23.1551 227
23.17521 240
23.19532 265
23.21544 234
23.23555 216
23.25567 240
23.27578 191
23.29589 211
23.31601 243
23.33612 226
23.35623 236
23.37635 233
23.39646 232
23.41658 228
23.43669 215
23.4568 233
23.47692 218
23.49703 237
23.51714 261
23.53726 257
23.55737 290
23.57749 211
23.5976 269
23.61771 252
23.63783 218
23.65794 260
23.67805 226
23.69817 212
23.71828 246
23.73839 193
23.75851 266
23.77862 229
23.79874 249
23.81885 229
23.83896 268
23.85908 257
23.87919 270
23.8993 267
23.91942 292
23.93953 304
23.95965 324
23.97976 305
23.99987 331
24.01999 337
24.0401 307
24.06021 301
24.08033 271
24.10044 329
24.12056 261
24.14067 264
24.16078 248
24.1809 263
24.20101 254
24.22112 233
24.24124 272
24.26135 275
24.28146 225
24.30158 259
24.32169 277
24.34181 279
24.36192 252
24.38203 281
24.40215 253
24.42226 251
24.44237 283
24.46249 292
24.4826 262
24.50272 273
24.52283 296
24.54294 281
24.56306 298
24.58317 320
24.60328 315
24.6234 317
24.64351 361
24.66362 376
24.68374 357
24.70385 382
24.72397 396
24.74408 412
24.76419 408
24.78431 402
24.80442 434
24.82453 395
24.84465 446
24.86476 426
24.88488 417
24.90499 371
24.9251 398
24.94522 357
24.96533 371
24.98544 329
25.00556 344
25.02567 313
25.04579 342
25.0659 320
25.08601 290
25.10613 335
25.12624 308
25.14635 298
25.16647 318
25.18658 288
25.20669 334
25.22681 267
25.24692 276
25.26704 299
25.28715 310
25.30726 286
25.32738 277
25.34749 278
25.3676 308
25.38772 291
25.40783 277
25.42795 288
25.44806 263
25.46817 268
25.48829 318
25.5084 268
25.52851 262
25.54863 270
25.56874 284
25.58886 291
25.60897 320
25.62908 323
25.6492 335
25.66931 346
25.68942 393
25.70954 444
25.72965 432
25.74976 453
25.76988 436
25.78999 476
25.81011 472
25.83022 479
25.85033 506
25.87045 486
25.89056 532
25.91067 514
25.93079 518
25.9509 545
25.97102 512
25.99113 556
26.01124 569
26.03136 565
26.05147 562
26.07158 644
26.0917 614
26.11181 671
26.13193 701
26.15204 709
26.17215 808
26.19227 892
26.21238 937
26.23249 963
26.25261 1061
26.27272 1123
26.29283 1202
26.31295 1319
26.33306 1462
26.35318 1629
26.37329 1895
26.3934 2114
26.41352 2693
26.43363 3383
26.45374 4434
26.47386 6019
26.49397 8363
26.51409 11887
26.5342 16635
26.55431 22624
26.57443 29473
26.59454 36819
26.61465 40810
26.63477 40363
26.65488 35519
26.67499 28410
26.69511 21767
26.71522 15433
26.73534 9952
26.75545 5875
26.77556 3436
26.79568 2422
26.81579 1926
26.8359 1620
26.85602 1517
26.87613 1401
26.89625 1268
26.91636 1117
26.93647 1037
26.95659 892
26.9767 847
26.99681 785
27.01693 681
27.03704 666
27.05716 605
27.07727 606
27.09738 557
27.1175 502
27.13761 477
27.15772 528
27.17784 491
27.19795 453
27.21806 457
27.23818 429
27.25829 407
27.27841 447
27.29852 448
27.31863 414
27.33875 417
27.35886 426
27.37897 424
27.39909 424
27.4192 432
27.43932 417
27.45943 394
27.47954 383
27.49966 405
27.51977 427
27.53988 416
27.56 354
27.58011 379
27.60023 372
27.62034 315
27.64045 344
27.66057 329
27.68068 349
27.70079 355
27.72091 323
27.74102 350
27.76113 368
27.78125 307
27.80136 331
27.82148 300
27.84159 345
27.8617 344
27.88182 340
27.90193 347
27.92204 292
27.94216 346
27.96227 311
27.98239 350
28.0025 339
28.02261 345
28.04273 296
28.06284 262
28.08295 301
28.10307 309
28.12318 267
28.1433 274
28.16341 291
28.18352 245
28.20364 262
28.22375 276
28.24386 306
28.26398 268
28.28409 296
28.3042 285
28.32432 282
28.34443 297
28.36455 284
28.38466 256
28.40477 261
28.42489 253
28.445 264
28.46511 271
28.48523 249
28.50534 273
28.52546 293
28.54557 268
28.56568 259
28.5858 287
28.60591 242
28.62602 284
28.64614 252
28.66625 268
28.68636 250
28.70648 261
28.72659 252
28.74671 258
28.76682 235
28.78693 266
28.80705 263
28.82716 237
28.84727 262
28.86739 245
28.8875 246
28.90762 223
28.92773 234
28.94784 231
28.96796 254
28.98807 268
29.00818 259
29.0283 282
29.04841 260
29.06853 247
29.08864 220
29.10875 259
29.12887 239
29.14898 235
29.16909 243
29.18921 245
29.20932 240
29.22943 241
29.24955 232
29.26966 222
29.28978 240
29.30989 220
29.33 225
29.35012 246
29.37023 216
29.39034 236
29.41046 248
29.43057 219
29.45069 233
29.4708 216
29.49091 258
29.51103 216
29.53114 233
29.55125 233
29.57137 237
29.59148 246
29.6116 225
29.63171 238
29.65182 246
29.67194 210
29.69205 225
29.71216 246
29.73228 223
29.75239 233
29.7725 229
29.79262 254
29.81273 223
29.83285 219
29.85296 242
29.87307 226
29.89319 237
29.9133 227
29.93341 256
29.95353 220
29.97364 219
29.99376 233
30.01387 249
30.03398 225
30.0541 214
30.07421 206
30.09432 223
30.11444 196
30.13455 249
30.15467 223
30.17478 218
30.19489 232
30.21501 202
30.23512 228
30.25523 237
30.27535 226
30.29546 217
30.31557 201
30.33569 213
30.3558 219
30.37592 244
30.39603 226
30.41614 229
30.43626 227
30.45637 237
30.47648 235
30.4966 227
30.51671 207
30.53683 212
30.55694 241
30.57705 210
30.59717 193
30.61728 227
30.63739 209
30.65751 218
30.67762 210
30.69773 211
30.71785 224
30.73796 208
30.75808 212
30.77819 205
30.7983 225
30.81842 219
30.83853 237
30.85864 236
30.87876 219
30.89887 219
30.91899 219
30.9391 170
30.95921 200
30.97933 199
30.99944 221
31.01955 223
31.03967 200
31.05978 215
31.0799 188
31.10001 183
31.12012 212
31.14024 190
31.16035 207
31.18046 228
31.20058 226
31.22069 211
31.2408 223
31.26092 199
31.28103 207
31.30115 210
31.32126 203
31.34137 228
31.36149 186
31.3816 206
31.40171 228
31.42183 237
31.44194 206
31.46206 218
31.48217 190
31.50228 198
31.5224 218
31.54251 196
31.56262 185
31.58274 220
31.60285 217
31.62297 202
31.64308 207
31.66319 190
31.68331 225
31.70342 165
31.72353 201
31.74365 191
31.76376 183
31.78387 191
31.80399 186
31.8241 184
31.84422 207
31.86433 169
31.88444 186
31.90456 206
31.92467 193
31.94478 189
31.9649 205
31.98501 198
32.00513 171
32.02524 191
32.04535 179
32.06547 205
32.08558 211
32.10569 151
32.12581 199
32.14592 188
32.16604 181
32.18615 190
32.20626 185
32.22638 201
32.24649 217
32.2666 183
32.28672 176
32.30683 193
32.32694 177
32.34706 195
32.36717 204
32.38729 209
32.4074 186
32.42751 195
32.44763 212
32.46774 196
32.48785 200
32.50797 212
32.52808 174
32.5482 211
32.56831 198
32.58842 176
32.60854 179
32.62865 185
32.64876 179
32.66888 183
32.68899 202
32.7091 196
32.72922 185
32.74933 212
32.76945 166
32.78956 209
32.80967 196
32.82979 194
32.8499 189
32.87001 195
32.89013 168
32.91024 198
32.93036 145
32.95047 187
32.97058 215
32.9907 192
33.01081 205
33.03092 191
33.05104 187
33.07115 214
33.09127 203
33.11138 231
33.13149 197
33.15161 179
33.17172 207
33.19183 167
33.21195 193
33.23206 209
33.25217 183
33.27229 223
33.2924 187
33.31252 229
33.33263 202
33.35274 178
33.37286 192
33.39297 170
33.41308 210
33.4332 181
33.45331 182
33.47343 202
33.49354 193
33.51365 158
33.53377 187
33.55388 206
33.57399 177
33.59411 183
33.61422 184
33.63434 180
33.65445 162
33.67456 163
33.69468 174
33.71479 161
33.7349 165
33.75502 175
33.77513 174
33.79524 160
33.81536 175
33.83547 177
33.85559 166
33.8757 167
33.89581 150
33.91593 144
33.93604 142
33.95615 174
33.97627 169
33.99638 181
34.0165 178
34.03661 182
34.05672 174
34.07684 161
34.09695 165
34.11706 157
34.13718 168
34.15729 151
34.17741 160
34.19752 151
34.21763 152
34.23775 173
34.25786 182
34.27797 172
34.29809 171
34.3182 163
34.33831 168
34.35843 166
34.37854 168
34.39866 178
34.41877 176
34.43888 173
34.459 184
34.47911 176
34.49922 170
34.51934 168
34.53945 162
34.55957 176
34.57968 173
34.59979 174
34.61991 220
34.64002 223
34.66013 226
34.68025 185
34.70036 211
34.72047 200
34.74059 228
34.7607 209
34.78082 226
34.80093 234
34.82104 219
34.84116 247
34.86127 263
34.88138 272
34.9015 247
34.92161 281
34.94173 276
34.96184 264
34.98195 257
35.00207 274
35.02218 264
35.04229 262
35.06241 268
35.08252 242
35.10264 244
35.12275 244
35.14286 253
35.16298 249
35.18309 246
35.2032 215
35.22332 213
35.24343 220
35.26354 244
35.28366 246
35.30377 223
35.32389 221
35.344 261
35.36411 253
35.38423 234
35.40434 243
35.42445 264
35.44457 233
35.46468 262
35.4848 256
35.50491 240
35.52502 244
35.54514 243
35.56525 277
35.58536 259
35.60548 225
35.62559 247
35.64571 243
35.66582 264
35.68593 268
35.70605 287
35.72616 279
35.74627 256
35.76639 263
35.7865 261
35.80661 276
35.82673 281
35.84684 299
35.86696 277
35.88707 275
35.90718 274
35.9273 257
35.94741 273
35.96752 263
35.98764 264
36.00775 268
36.02787 254
36.04798 257
36.06809 286
36.08821 270
36.10832 288
36.12843 252
36.14855 291
36.16866 297
36.18878 288
36.20889 318
36.229 341
36.24912 327
36.26923 359
36.28934 384
36.30946 503
36.32957 494
36.34968 646
36.3698 710
36.38991 972
36.41003 1165
36.43014 1461
36.45025 1833
36.47037 2268
36.49048 2515
36.51059 2792
36.53071 2673
36.55082 2369
36.57094 2091
36.59105 1727
36.61116 1440
36.63128 1215
36.65139 968
36.6715 709
36.69162 511
36.71173 416
36.73184 385
36.75196 334
36.77207 335
36.79219 317
36.8123 314
36.83241 282
36.85253 257
36.87264 294
36.89275 275
36.91287 289
36.93298 271
36.9531 256
36.97321 272
36.99332 275
37.01344 257
37.03355 237
37.05366 254
37.07378 240
37.09389 233
37.11401 238
37.13412 237
37.15423 201
37.17435 193
37.19446 193
37.21457 239
37.23469 232
37.2548 229
37.27491 219
37.29503 231
37.31514 240
37.33526 219
37.35537 231
37.37548 235
37.3956 236
37.41571 237
37.43582 226
37.45594 225
37.47605 203
37.49617 195
37.51628 226
37.53639 247
37.55651 223
37.57662 221
37.59673 253
37.61685 234
37.63696 210
37.65708 265
37.67719 253
37.6973 221
37.71742 213
37.73753 250
37.75764 240
37.77776 232
37.79787 219
37.81798 230
37.8381 238
37.85821 254
37.87833 235
37.89844 228
37.91855 217
37.93867 227
37.95878 214
37.97889 222
37.99901 220
38.01912 229
38.03924 198
38.05935 222
38.07946 263
38.09958 267
38.11969 263
38.1398 250
38.15992 273
38.18003 259
38.20015 248
38.22026 246
38.24037 246
38.26049 248
38.2806 249
38.30071 239
38.32083 260
38.34094 263
38.36105 302
38.38117 255
38.40128 260
38.4214 246
38.44151 249
38.46162 249
38.48174 263
38.50185 246
38.52196 256
38.54208 254
38.56219 248
38.58231 232
38.60242 252
38.62253 230
38.64265 252
38.66276 234
38.68287 253
38.70299 224
38.7231 234
38.74321 214
38.76333 254
38.78344 236
38.80356 242
38.82367 244
38.84378 248
38.8639 252
38.88401 274
38.90412 248
38.92424 270
38.94435 260
38.96447 268
38.98458 241
39.00469 289
39.02481 273
39.04492 272
39.06503 281
39.08515 300
39.10526 293
39.12538 290
39.14549 329
39.1656 335
39.18572 366
39.20583 414
39.22594 414
39.24606 471
39.26617 554
39.28628 654
39.3064 832
39.32651 1026
39.34663 1307
39.36674 1679
39.38685 2011
39.40697 2312
39.42708 2384
39.44719 2351
39.46731 2180
39.48742 1861
39.50754 1632
39.52765 1375
39.54776 1252
39.56788 1091
39.58799 753
39.6081 559
39.62822 408
39.64833 328
39.66845 303
39.68856 291
39.70867 255
39.72879 265
39.7489 261
39.76901 273
39.78913 255
39.80924 268
39.82935 229
39.84947 237
39.86958 239
39.8897 247
39.90981 250
39.92992 242
39.95004 264
39.97015 262
39.99026 266
40.01038 278
40.03049 320
40.05061 307
40.07072 319
40.09083 383
40.11095 445
40.13106 556
40.15117 577
40.17129 757
40.1914 856
40.21152 1064
40.23163 1158
40.25174 1314
40.27186 1238
40.29197 1136
40.31208 1025
40.3322 814
40.35231 729
40.37242 693
40.39254 580
40.41265 472
40.43277 334
40.45288 314
40.47299 257
40.49311 225
40.51322 230
40.53333 229
40.55345 198
40.57356 225
40.59368 219
40.61379 195
40.6339 202
40.65402 227
40.67413 202
40.69424 191
40.71436 196
40.73447 195
40.75458 218
40.7747 191
40.79481 206
40.81493 212
40.83504 242
40.85515 190
40.87527 222
40.89538 221
40.91549 207
40.93561 216
40.95572 193
40.97584 191
40.99595 210
41.01606 204
41.03618 171
41.05629 193
41.0764 206
41.09652 181
41.11663 212
41.13675 203
41.15686 212
41.17697 193
41.19709 200
41.2172 214
41.23731 209
41.25743 211
41.27754 230
41.29765 225
41.31777 214
41.33788 212
41.358 221
41.37811 209
41.39822 206
41.41834 197
41.43845 187
41.45856 196
41.47868 199
41.49879 206
41.51891 200
41.53902 210
41.55913 194
41.57925 205
41.59936 192
41.61947 200
41.63959 188
41.6597 191
41.67982 192
41.69993 227
41.72004 183
41.74016 194
41.76027 183
41.78038 204
41.8005 201
41.82061 192
41.84072 181
41.86084 225
41.88095 237
41.90107 194
41.92118 221
41.94129 186
41.96141 206
41.98152 200
42.00163 219
42.02175 204
42.04186 251
42.06198 228
42.08209 231
42.1022 242
42.12232 235
42.14243 263
42.16254 274
42.18266 277
42.20277 313
42.22289 397
42.243 420
42.26311 527
42.28323 594
42.30334 752
42.32345 932
42.34357 1096
42.36368 1382
42.38379 1573
42.40391 1833
42.42402 1750
42.44414 1499
42.46425 1366
42.48436 1149
42.50448 1064
42.52459 961
42.5447 802
42.56482 679
42.58493 546
42.60505 385
42.62516 302
42.64527 269
42.66539 256
42.6855 230
42.70561 204
42.72573 215
42.74584 209
42.76595 192
42.78607 179
42.80618 195
42.8263 185
42.84641 187
42.86652 192
42.88664 175
42.90675 159
42.92686 185
42.94698 179
42.96709 193
42.98721 164
43.00732 168
43.02743 194
43.04755 164
43.06766 182
43.08777 157
43.10789 186
43.128 155
43.14812 164
43.16823 164
43.18834 174
43.20846 188
43.22857 177
43.24868 196
43.2688 179
43.28891 159
43.30902 173
43.32914 186
43.34925 166
43.36937 172
43.38948 168
43.40959 166
43.42971 163
43.44982 150
43.46993 176
43.49005 173
43.51016 182
43.53028 147
43.55039 156
43.5705 176
43.59062 163
43.61073 165
43.63084 169
43.65096 176
43.67107 168
43.69119 156
43.7113 163
43.73141 167
43.75153 165
43.77164 186
43.79175 170
43.81187 160
43.83198 166
43.85209 180
43.87221 179
43.89232 160
43.91244 160
43.93255 165
43.95266 150
43.97278 164
43.99289 155
44.013 154
44.03312 181
44.05323 162
44.07335 159
44.09346 172
44.11357 161
44.13369 171
44.1538 177
44.17391 169
44.19403 172
44.21414 149
44.23426 178
44.25437 195
44.27448 143
44.2946 170
44.31471 156
44.33482 146
44.35494 196
44.37505 151
44.39516 149
44.41528 166
44.43539 178
44.45551 172
44.47562 165
44.49573 170
44.51585 162
44.53596 180
44.55607 178
44.57619 165
44.5963 136
44.61642 143
44.63653 160
44.65664 187
44.67676 160
44.69687 180
44.71698 202
44.7371 152
44.75721 150
44.77732 163
44.79744 167
44.81755 171
44.83767 190
44.85778 153
44.87789 199
44.89801 173
44.91812 170
44.93823 157
44.95835 171
44.97846 177
44.99858 195
45.01869 184
45.0388 178
45.05892 170
45.07903 171
45.09914 191
45.11926 168
45.13937 204
45.15949 173
45.1796 190
45.19971 214
45.21983 193
45.23994 166
45.26005 177
45.28017 186
45.30028 177
45.32039 197
45.34051 210
45.36062 212
45.38074 209
45.40085 202
45.42096 204
45.44108 199
45.46119 226
45.4813 235
45.50142 249
45.52153 248
45.54165 255
45.56176 319
45.58187 352
45.60199 373
45.6221 459
45.64221 556
45.66233 653
45.68244 777
45.70256 987
45.72267 1106
45.74278 1199
45.7629 1220
45.78301 1092
45.80312 1023
45.82324 823
45.84335 790
45.86346 665
45.88358 658
45.90369 549
45.92381 480
45.94392 343
45.96403 263
45.98415 258
46.00426 227
46.02437 226
46.04449 225
46.0646 187
46.08472 210
46.10483 179
46.12494 203
46.14506 194
46.16517 177
46.18528 186
46.2054 184
46.22551 189
46.24563 176
46.26574 187
46.28585 189
46.30597 180
46.32608 177
46.34619 156
46.36631 165
46.38642 172
46.40653 166
46.42665 186
46.44676 186
46.46688 178
46.48699 175
46.5071 177
46.52722 168
46.54733 180
46.56744 158
46.58756 168
46.60767 161
46.62779 168
46.6479 179
46.66801 190
46.68813 176
46.70824 181
46.72835 187
46.74847 166
46.76858 183
46.78869 168
46.80881 180
46.82892 180
46.84904 170
46.86915 153
46.88926 161
46.90938 175
46.92949 162
46.9496 165
46.96972 173
46.98983 187
47.00995 157
47.03006 163
47.05017 160
47.07029 166
47.0904 148
47.11051 163
47.13063 160
47.15074 178
47.17086 171
47.19097 142
47.21108 162
47.2312 156
47.25131 163
47.27142 180
47.29154 151
47.31165 157
47.33176 157
47.35188 188
47.37199 160
47.39211 182
47.41222 147
47.43233 152
47.45245 166
47.47256 161
47.49267 176
47.51279 167
47.5329 148
47.55302 175
47.57313 161
47.59324 144
47.61336 148
47.63347 143
47.65358 150
47.6737 161
47.69381 151
47.71393 156
47.73404 160
47.75415 157
47.77427 159
47.79438 166
47.81449 154
47.83461 161
47.85472 143
47.87483 166
47.89495 174
47.91506 165
47.93518 169
47.95529 153
47.9754 157
47.99552 158
48.01563 159
48.03574 172
48.05586 142
48.07597 150
48.09609 155
48.1162 155
48.13631 158
48.15643 157
48.17654 181
48.19665 146
48.21677 146
48.23688 161
48.257 164
48.27711 208
48.29722 149
48.31734 156
48.33745 146
48.35756 152
48.37768 161
48.39779 167
48.4179 147
48.43802 175
48.45813 168
48.47825 188
48.49836 172
48.51847 167
48.53859 167
48.5587 186
48.57881 152
48.59893 163
48.61904 186
48.63916 171
48.65927 153
48.67938 173
48.6995 172
48.71961 164
48.73972 178
48.75984 160
48.77995 159
48.80006 161
48.82018 169
48.84029 183
48.86041 164
48.88052 191
48.90063 188
48.92075 183
48.94086 166
48.96097 171
48.98109 173
49.0012 212
49.02132 163
49.04143 189
49.06154 188
49.08166 196
49.10177 167
49.12188 184
49.142 193
49.16211 180
49.18223 172
49.20234 157
49.22245 198
49.24257 183
49.26268 171
49.28279 180
49.30291 199
49.32302 203
49.34313 194
49.36325 161
49.38336 168
49.40348 197
49.42359 204
49.4437 171
49.46382 174
49.48393 215
49.50404 208
49.52416 227
49.54427 217
49.56439 192
49.5845 226
49.60461 222
49.62473 191
49.64484 228
49.66495 255
49.68507 241
49.70518 273
49.7253 288
49.74541 281
49.76552 337
49.78564 388
49.80575 421
49.82586 411
49.84598 501
49.86609 515
49.8862 647
49.90632 721
49.92643 855
49.94655 1039
49.96666 1329
49.98677 1674
50.00689 2018
50.027 2419
50.04711 3080
50.06723 3391
50.08734 3685
50.10746 3697
50.12757 3472
50.14768 2940
50.1678 2333
50.18791 2105
50.20802 2042
50.22814 1974
50.24825 1808
50.26837 1485
50.28848 1089
50.30859 741
50.32871 513
50.34882 432
50.36893 393
50.38905 355
50.40916 331
50.42927 307
50.44939 305
50.4695 294
50.48962 274
50.50973 293
50.52984 275
50.54996 277
50.57007 298
50.59018 301
50.6103 269
50.63041 257
50.65053 256
50.67064 254
50.69075 256
50.71087 243
50.73098 233
50.75109 249
50.77121 226
50.79132 215
50.81143 191
50.83155 200
50.85166 200
50.87178 189
50.89189 176
50.912 180
50.93212 187
50.95223 178
50.97234 170
50.99246 179
51.01257 178
51.03269 170
51.0528 170
51.07291 185
51.09303 190
51.11314 134
51.13325 184
51.15337 156
51.17348 158
51.1936 175
51.21371 170
51.23382 144
51.25394 190
51.27405 156
51.29416 145
51.31428 163
51.33439 167
51.3545 169
51.37462 167
51.39473 169
51.41485 166
51.43496 140
51.45507 169
51.47519 156
51.4953 139
51.51541 157
51.53553 161
51.55564 146
51.57576 115
51.59587 143
51.61598 149
51.6361 141
51.65621 156
51.67632 138
51.69644 146
51.71655 160
51.73667 163
51.75678 154
51.77689 165
51.79701 135
51.81712 147
51.83723 125
51.85735 152
51.87746 163
51.89757 175
51.91769 154
51.9378 151
51.95792 148
51.97803 155
51.99814 143
52.01826 138
52.03837 138
52.05848 141
52.0786 159
52.09871 151
52.11883 148
52.13894 149
52.15905 140
52.17917 164
52.19928 149
52.21939 134
52.23951 139
52.25962 134
52.27974 144
52.29985 137
52.31996 148
52.34008 151
52.36019 141
52.3803 145
52.40042 147
52.42053 146
52.44064 139
52.46076 135
52.48087 144
52.50099 149
52.5211 154
52.54121 133
52.56133 117
52.58144 144
52.60155 167
52.62167 141
52.64178 151
52.6619 158
52.68201 171
52.70212 149
52.72224 152
52.74235 166
52.76246 153
52.78258 143
52.80269 118
52.8228 147
52.84292 160
52.86303 188
52.88315 150
52.90326 150
52.92337 143
52.94349 170
52.9636 153
52.98371 145
53.00383 146
53.02394 167
53.04406 153
53.06417 165
53.08428 138
53.1044 182
53.12451 170
53.14462 169
53.16474 155
53.18485 171
53.20497 169
53.22508 146
53.24519 228
53.26531 168
53.28542 168
53.30553 153
53.32565 179
53.34576 181
53.36587 190
53.38599 188
53.4061 170
53.42622 161
53.44633 159
53.46644 184
53.48656 178
53.50667 191
53.52678 165
53.5469 175
53.56701 167
53.58713 160
53.60724 179
53.62735 169
53.64747 183
53.66758 200
53.68769 188
53.70781 188
53.72792 182
53.74804 176
53.76815 186
53.78826 139
53.80838 176
53.82849 161
53.8486 172
53.86872 156
53.88883 161
53.90894 188
53.92906 157
53.94917 178
53.96929 147
53.9894 174
54.00951 182
54.02963 190
54.04974 199
54.06985 203
54.08997 192
54.11008 180
54.1302 189
54.15031 189
54.17042 189
54.19054 187
54.21065 214
54.23076 191
54.25088 225
54.27099 214
54.29111 214
54.31122 204
54.33133 210
54.35145 190
54.37156 206
54.39167 207
54.41179 225
54.4319 244
54.45201 234
54.47213 210
54.49224 218
54.51236 248
54.53247 255
54.55258 278
54.5727 292
54.59281 268
54.61292 315
54.63304 361
54.65315 419
54.67327 444
54.69338 542
54.71349 603
54.73361 706
54.75372 858
54.77383 914
54.79395 1087
54.81406 1127
54.83417 1216
54.85429 1206
54.8744 1048
54.89452 837
54.91463 783
54.93474 771
54.95486 721
54.97497 697
54.99508 693
55.0152 572
55.03531 515
55.05543 431
55.07554 381
55.09565 353
55.11577 355
55.13588 331
55.15599 388
55.17611 395
55.19622 461
55.21634 506
55.23645 523
55.25656 547
55.27668 622
55.29679 605
55.3169 509
55.33702 484
55.35713 481
55.37724 414
55.39736 414
55.41747 381
55.43759 406
55.4577 335
55.47781 311
55.49793 278
55.51804 253
55.53815 247
55.55827 207
55.57838 196
55.5985 178
55.61861 188
55.63872 186
55.65884 173
55.67895 195
55.69906 194
55.71918 177
55.73929 173
55.75941 161
55.77952 175
55.79963 188
55.81975 151
55.83986 164
55.85997 151
55.88009 173
55.9002 198
55.92031 177
55.94043 161
55.96054 154
55.98066 158
56.00077 193
56.02088 167
56.041 182
56.06111 154
56.08122 158
56.10134 165
56.12145 185
56.14157 189
56.16168 146
56.18179 154
56.20191 161
56.22202 187
56.24213 156
56.26225 158
56.28236 153
56.30248 177
56.32259 156
56.3427 145
56.36282 153
56.38293 161
56.40304 150
56.42316 147
56.44327 150
56.46338 160
56.4835 182
56.50361 187
56.52373 161
56.54384 176
56.56395 160
56.58407 155
56.60418 151
56.62429 146
56.64441 175
56.66452 157
56.68464 155
56.70475 155
56.72486 166
56.74498 145
56.76509 180
56.7852 137
56.80532 169
56.82543 173
56.84554 157
56.86566 147
56.88577 159
56.90589 150
56.926 153
56.94611 158
56.96623 165
56.98634 165
57.00645 134
57.02657 178
57.04668 161
57.0668 180
57.08691 196
57.10702 177
57.12714 185
57.14725 196
57.16736 194
57.18748 229
57.20759 202
57.22771 209
57.24782 187
57.26793 187
57.28805 201
57.30816 178
57.32827 190
57.34839 187
57.3685 165
57.38861 194
57.40873 150
57.42884 168
57.44896 171
57.46907 161
57.48918 154
57.5093 165
57.52941 162
57.54952 168
57.56964 162
57.58975 148
57.60987 170
57.62998 146
57.65009 171
57.67021 162
57.69032 146
57.71043 146
57.73055 136
57.75066 160
57.77078 140
57.79089 147
57.811 156
57.83112 178
57.85123 154
57.87134 153
57.89146 143
57.91157 158
57.93168 161
57.9518 161
57.97191 150
57.99203 155
58.01214 152
58.03225 155
58.05237 161
58.07248 131
58.09259 175
58.11271 161
58.13282 140
58.15294 161
58.17305 125
58.19316 146
58.21328 160
58.23339 138
58.2535 144
58.27362 170
58.29373 143
58.31385 176
58.33396 156
58.35407 164
58.37419 158
58.3943 140
58.41441 176
58.43453 138
58.45464 161
58.47475 164
58.49487 156
58.51498 158
58.5351 149
58.55521 164
58.57532 145
58.59544 159
58.61555 139
58.63566 188
58.65578 130
58.67589 164
58.69601 156
58.71612 166
58.73623 158
58.75635 167
58.77646 140
58.79657 152
58.81669 160
58.8368 164
58.85691 138
58.87703 134
58.89714 173
58.91726 147
58.93737 157
58.95748 152
58.9776 149
58.99771 158
59.01782 162
59.03794 167
59.05805 145
59.07817 179
59.09828 166
59.11839 147
59.13851 169
59.15862 163
59.17873 194
59.19885 168
59.21896 195
59.23908 184
59.25919 174
59.2793 183
59.29942 183
59.31953 190
59.33964 177
59.35976 165
59.37987 177
59.39998 180
59.4201 213
59.44021 182
59.46033 186
59.48044 221
59.50055 211
59.52067 225
59.54078 239
59.56089 243
59.58101 268
59.60112 315
59.62124 347
59.64135 352
59.66146 416
59.68158 456
59.70169 527
59.7218 625
59.74192 720
59.76203 837
59.78215 994
59.80226 1266
59.82237 1474
59.84249 1758
59.8626 2016
59.88271 2193
59.90283 2330
59.92294 2255
59.94305 1997
59.96317 1729
59.98328 1412
60.0034 1262
60.02351 1242
60.04362 1246
60.06374 1297
60.08385 1206
60.10396 1030
60.12408 815
60.14419 608
60.16431 445
60.18442 337
60.20453 305
60.22465 288
60.24476 235
60.26487 222
60.28499 219
60.3051 219
60.32522 232
60.34533 179
60.36544 186
60.38556 173
60.40567 207
60.42578 200
60.4459 172
60.46601 159
60.48612 153
60.50624 185
60.52635 175
60.54647 167
60.56658 153
60.58669 158
60.60681 149
60.62692 162
60.64703 166
60.66715 144
60.68726 150
60.70738 181
60.72749 175
60.7476 152
60.76772 141
60.78783 167
60.80794 171
60.82806 168
60.84817 153
60.86828 146
60.8884 160
60.90851 165
60.92863 140
60.94874 144
60.96885 135
60.98897 166
61.00908 158
61.02919 160
61.04931 140
61.06942 139
61.08954 130
61.10965 161
61.12976 139
61.14988 163
61.16999 140
61.1901 146
61.21022 147
61.23033 163
61.25045 132
61.27056 161
61.29067 137
61.31079 167
61.3309 160
61.35101 138
61.37113 131
61.39124 153
61.41135 173
61.43147 154
61.45158 126
61.4717 139
61.49181 168
61.51192 155
61.53204 155
61.55215 139
61.57226 157
61.59238 157
61.61249 157
61.63261 161
61.65272 148
61.67283 158
61.69295 140
61.71306 179
61.73317 166
61.75329 178
61.7734 172
61.79352 143
61.81363 151
61.83374 152
61.85386 154
61.87397 187
61.89408 154
61.9142 174
61.93431 169
61.95442 205
61.97454 199
61.99465 187
62.01477 189
62.03488 190
62.05499 186
62.07511 200
62.09522 204
62.11533 192
62.13545 203
62.15556 196
62.17568 242
62.19579 247
62.2159 208
62.23602 216
62.25613 223
62.27624 224
62.29636 217
62.31647 205
62.33659 241
62.3567 230
62.37681 203
62.39693 202
62.41704 204
62.43715 163
62.45727 203
62.47738 179
62.49749 175
62.51761 189
62.53772 182
62.55784 173
62.57795 169
62.59806 161
62.61818 139
62.63829 171
62.6584 148
62.67852 159
62.69863 159
62.71875 153
62.73886 172
62.75897 153
62.77909 145
62.7992 143
62.81931 150
62.83943 160
62.85954 172
62.87965 153
62.89977 168
62.91988 143
62.94 156
62.96011 150
62.98022 137
63.00034 165
63.02045 169
63.04056 165
63.06068 142
63.08079 144
63.10091 154
63.12102 154
63.14113 129
63.16125 165
63.18136 136
63.20147 132
63.22159 147
63.2417 141
63.26182 172
63.28193 164
63.30204 161
63.32216 155
63.34227 153
63.36238 160
63.3825 148
63.40261 162
63.42272 147
63.44284 155
63.46295 156
63.48307 168
63.50318 156
63.52329 187
63.54341 180
63.56352 158
63.58363 171
63.60375 175
63.62386 169
63.64398 181
63.66409 174
63.6842 173
63.70432 197
63.72443 185
63.74454 215
63.76466 230
63.78477 190
63.80489 255
63.825 237
63.84511 266
63.86523 306
63.88534 345
63.90545 411
63.92557 464
63.94568 516
63.96579 494
63.98591 538
64.00602 532
64.02614 459
64.04625 374
64.06636 355
64.08648 329
64.10659 310
64.1267 358
64.14682 335
64.16693 329
64.18705 307
64.20716 287
64.22727 239
64.24739 223
64.2675 188
64.28761 151
64.30773 175
64.32784 164
64.34796 149
64.36807 178
64.38818 171
64.4083 171
64.42841 166
64.44852 162
64.46864 161
64.48875 127
64.50886 146
64.52898 167
64.54909 152
64.56921 152
64.58932 137
64.60943 128
64.62955 136
64.64966 151
64.66977 151
64.68989 137
64.71 129
64.73012 146
64.75023 157
64.77034 150
64.79046 119
64.81057 133
64.83068 143
64.8508 143
64.87091 164
64.89102 127
64.91114 144
64.93125 138
64.95137 153
64.97148 158
64.99159 149
65.01171 119
65.03182 134
65.05193 144
65.07205 145
65.09216 139
65.11228 127
65.13239 139
65.1525 169
65.17262 128
65.19273 148
65.21284 143
65.23296 141
65.25307 125
65.27319 130
65.2933 136
65.31341 153
65.33353 136
65.35364 141
65.37375 146
65.39387 153
65.41398 143
65.43409 151
65.45421 145
65.47432 158
65.49444 157
65.51455 144
65.53466 172
65.55478 174
65.57489 165
65.595 188
65.61512 169
65.63523 199
65.65535 216
65.67546 210
65.69557 220
65.71569 254
65.7358 206
65.75591 208
65.77603 201
65.79614 200
65.81626 177
65.83637 186
65.85648 193
65.8766 215
65.89671 190
65.91682 213
65.93694 182
65.95705 176
65.97716 160
65.99728 158
66.01739 157
66.03751 160
66.05762 141
66.07773 168
66.09785 137
66.11796 136
66.13807 158
66.15819 133
66.1783 140
66.19842 143
66.21853 158
66.23864 157
66.25876 122
66.27887 142
66.29898 153
66.3191 154
66.33921 142
66.35933 145
66.37944 149
66.39955 161
66.41967 155
66.43978 145
66.45989 135
66.48001 129
66.50012 154
66.52023 148
66.54035 139
66.56046 141
66.58058 150
66.60069 152
66.6208 161
66.64092 156
66.66103 156
66.68114 155
66.70126 156
66.72137 177
66.74149 157
66.7616 147
66.78171 137
66.80183 144
66.82194 153
66.84205 161
66.86217 164
66.88228 152
66.90239 143
66.92251 157
66.94262 154
66.96274 173
66.98285 162
67.00296 168
67.02308 163
67.04319 140
67.0633 153
67.08342 165
67.10353 167
67.12365 181
67.14376 193
67.16387 180
67.18399 194
67.2041 186
67.22421 212
67.24433 216
67.26444 184
67.28456 226
67.30467 223
67.32478 222
67.3449 221
67.36501 246
67.38512 227
67.40524 255
67.42535 296
67.44546 338
67.46558 350
67.48569 407
67.50581 449
67.52592 523
67.54603 560
67.56615 654
67.58626 809
67.60637 923
67.62649 1068
67.6466 1145
67.66672 1281
67.68683 1372
67.70694 1284
67.72706 1239
67.74717 1051
67.76728 922
67.7874 893
67.80751 824
67.82763 865
67.84774 870
67.86785 1004
67.88797 1003
67.90808 1028
67.92819 1001
67.94831 1051
67.96842 1062
67.98853 1142
68.00865 1286
68.02876 1380
68.04888 1575
68.06899 1748
68.0891 1691
68.10922 1792
68.12933 1632
68.14944 1576
68.16956 1505
68.18967 1426
68.20979 1506
68.2299 1580
68.25001 1621
68.27013 1706
68.29024 1506
68.31035 1370
68.33047 1092
68.35058 978
68.3707 805
68.39081 700
68.41092 682
68.43104 647
68.45115 621
68.47126 568
68.49138 480
68.51149 424
68.5316 324
68.55172 301
68.57183 277
68.59195 234
68.61206 232
68.63217 216
68.65229 200
68.6724 191
68.69251 185
68.71263 191
68.73274 156
68.75286 172
68.77297 195
68.79308 166
68.8132 164
68.83331 170
68.85342 169
68.87354 167
68.89365 161
68.91376 160
68.93388 188
68.95399 160
68.97411 154
68.99422 166
69.01433 176
69.03445 176
69.05456 162
69.07467 141
69.09479 147
69.1149 152
69.13502 150
69.15513 158
69.17524 135
69.19536 149
69.21547 150
69.23558 135
69.2557 153
69.27581 171
69.29593 135
69.31604 139
69.33615 145
69.35627 146
69.37638 145
69.39649 134
69.41661 137
69.43672 133
69.45683 137
69.47695 147
69.49706 146
69.51718 142
69.53729 129
69.5574 130
69.57752 151
69.59763 154
69.61774 128
69.63786 122
69.65797 139
69.67809 138
69.6982 166
69.71831 127
69.73843 148
69.75854 140
69.77865 139
69.79877 136
69.81888 134
69.839 133
69.85911 130
69.87922 133
69.89934 123
69.91945 144
69.93956 120
69.95968 118
69.97979 132
69.9999 125
70.02002 139
70.04013 159
70.06025 133
70.08036 114
70.10047 137
70.12059 130
70.1407 117
70.16081 135
70.18093 145
70.20104 139
70.22116 128
70.24127 136
70.26138 125
70.2815 133
70.30161 146
70.32172 132
70.34184 121
70.36195 154
70.38207 116
70.40218 128
70.42229 145
70.44241 144
70.46252 124
70.48263 115
70.50275 129
70.52286 128
70.54297 120
70.56309 130
70.5832 125
70.60332 146
70.62343 109
70.64354 128
70.66366 141
70.68377 104
70.70388 156
70.724 128
70.74411 125
70.76423 142
70.78434 132
70.80445 125
70.82457 116
70.84468 153
70.86479 134
70.88491 146
70.90502 144
70.92513 154
70.94525 134
70.96536 142
70.98548 110
71.00559 127
71.0257 132
71.04582 135
71.06593 136
71.08604 134
71.10616 125
71.12627 109
71.14639 134
71.1665 129
71.18661 140
71.20673 135
71.22684 117
71.24695 112
71.26707 118
71.28718 122
71.3073 142
71.32741 126
71.34752 147
71.36764 144
71.38775 139
71.40786 136
71.42798 103
71.44809 137
71.4682 139
71.48832 162
71.50843 142
71.52855 150
71.54866 148
71.56877 127
71.58889 122
71.609 133
71.62911 144
71.64923 134
71.66934 137
71.68946 130
71.70957 125
71.72968 123
71.7498 118
71.76991 120
71.79002 131
71.81014 126
71.83025 135
71.85037 144
71.87048 109
71.89059 132
71.91071 134
71.93082 146
71.95093 112
71.97105 144
71.99116 135
72.01127 142
72.03139 120
72.0515 134
72.07162 129
72.09173 132
72.11184 116
72.13196 132
72.15207 118
72.17218 142
72.1923 137
72.21241 127
72.23253 110
72.25264 110
72.27275 109
72.29287 123
72.31298 125
72.33309 152
72.35321 119
72.37332 118
72.39344 124
72.41355 123
72.43366 109
72.45378 109
72.47389 127
72.494 135
72.51412 126
72.53423 136
72.55434 133
72.57446 141
72.59457 122
72.61469 145
72.6348 121
72.65491 145
72.67503 109
72.69514 149
72.71525 144
72.73537 108
72.75548 110
72.7756 111
72.79571 139
72.81582 137
72.83594 140
72.85605 136
72.87616 147
72.89628 127
72.91639 137
72.9365 162
72.95662 166
72.97673 139
72.99685 114
73.01696 133
73.03707 144
73.05719 164
73.0773 162
73.09741 160
73.11753 167
73.13764 156
73.15776 194
73.17787 195
73.19798 204
73.2181 200
73.23821 262
73.25832 291
73.27844 288
73.29855 341
73.31867 374
73.33878 405
73.35889 456
73.37901 528
73.39912 522
73.41923 551
73.43935 483
73.45946 479
73.47957 383
73.49969 315
73.5198 312
73.53992 299
73.56003 285
73.58014 304
73.60026 322
73.62037 313
73.64048 308
73.6606 300
73.68071 256
73.70083 232
73.72094 176
73.74105 183
73.76117 157
73.78128 149
73.80139 161
73.82151 130
73.84162 160
73.86174 129
73.88185 133
73.90196 133
73.92208 144
73.94219 143
73.9623 144
73.98242 128
74.00253 133
74.02264 118
74.04276 133
74.06287 110
74.08299 142
74.1031 127
74.12321 132
74.14333 125
74.16344 135
74.18355 133
74.20367 146
74.22378 131
74.2439 125
74.26401 131
74.28412 140
74.30424 123
74.32435 123
74.34446 134
74.36458 146
74.38469 144
74.40481 122
74.42492 134
74.44503 157
74.46515 115
74.48526 160
74.50537 128
74.52549 129
74.5456 117
74.56571 129
74.58583 126
74.60594 124
74.62606 120
74.64617 137
74.66628 138
74.6864 113
74.70651 134
74.72662 114
74.74674 155
74.76685 138
74.78697 133
74.80708 127
74.82719 133
74.84731 123
74.86742 144
74.88753 149
74.90765 137
74.92776 147
74.94787 143
74.96799 147
74.9881 136
75.00822 131
