3.00117 21182
3.02128 20118
3.0414 19893
3.06151 18952
3.08162 19145
3.10174 18298
3.12185 17926
3.14197 17352
3.16208 16564
3.18219 16342
3.20231 16021
3.22242 15497
3.24253 15149
3.26265 14125
3.28276 14122
3.30288 13521
3.32299 13085
3.3431 12935
3.36322 12217
3.38333 12068
3.40344 11894
3.42356 11277
3.44367 11065
3.46379 10371
3.4839 10458
3.50401 10016
3.52413 9399
3.54424 9069
3.56435 8753
3.58447 8661
3.60458 8455
3.62469 8000
3.64481 7807
3.66492 7496
3.68504 7348
3.70515 7098
3.72526 6498
3.74538 6388
3.76549 6201
3.7856 6043
3.80572 5919
3.82583 5333
3.84595 5342
3.86606 4987
3.88617 5003
3.90629 4640
3.9264 4442
3.94651 4284
3.96663 4132
3.98674 4140
4.00686 3883
4.02697 3592
4.04708 3615
4.0672 3482
4.08731 3323
4.10742 3216
4.12754 3023
4.14765 2905
4.16776 2753
4.18788 2827
4.20799 2853
4.22811 2517
4.24822 2609
4.26833 2376
4.28845 2383
4.30856 2365
4.32867 2239
4.34879 2187
4.3689 2128
4.38902 2125
4.40913 2063
4.42924 1956
4.44936 2013
4.46947 1907
4.48958 1977
4.5097 1978
4.52981 1836
4.54992 1817
4.57004 1742
4.59015 1676
4.61027 1781
4.63038 1634
4.65049 1713
4.67061 1693
4.69072 1598
4.71083 1699
4.73095 1579
4.75106 1556
4.77118 1499
4.79129 1474
4.8114 1412
4.83152 1404
4.85163 1373
4.87174 1460
4.89186 1364
4.91197 1421
4.93209 1283
4.9522 1344
4.97231 1202
4.99243 1408
5.01254 1323
5.03265 1281
5.05277 1230
5.07288 1266
5.09299 1208
5.11311 1315
5.13322 1158
5.15334 1216
5.17345 1158
5.19356 1173
5.21368 1182
5.23379 1154
5.2539 1096
5.27402 1083
5.29413 1100
5.31425 1123
5.33436 1040
5.35447 1047
5.37459 1106
5.3947 1057
5.41481 1074
5.43493 963
5.45504 1009
5.47516 1004
5.49527 969
5.51538 1040
5.5355 981
5.55561 989
5.57572 1011
5.59584 952
5.61595 949
5.63606 917
5.65618 910
5.67629 920
5.69641 982
5.71652 903
5.73663 918
5.75675 998
5.77686 922
5.79697 949
5.81709 937
5.8372 871
5.85732 919
5.87743 863
5.89754 878
5.91766 844
5.93777 898
5.95788 844
5.978 983
5.99811 821
6.01823 843
6.03834 862
6.05845 873
6.07857 832
6.09868 773
6.11879 848
6.13891 829
6.15902 868
6.17913 779
6.19925 753
6.21936 850
6.23948 847
6.25959 824
6.2797 801
6.29982 802
6.31993 814
6.34004 799
6.36016 771
6.38027 838
6.40039 798
6.4205 818
6.44061 833
6.46073 805
6.48084 741
6.50095 747
6.52107 699
6.54118 766
6.56129 749
6.58141 769
6.60152 734
6.62164 761
6.64175 764
6.66186 683
6.68198 702
6.70209 768
6.7222 714
6.74232 744
6.76243 706
6.78255 721
6.80266 708
6.82277 762
6.84289 730
6.863 688
6.88311 722
6.90323 732
6.92334 707
6.94346 675
6.96357 741
6.98368 709
7.0038 702
7.02391 713
7.04402 753
7.06414 704
7.08425 697
7.10436 687
7.12448 702
7.14459 668
7.16471 665
7.18482 692
7.20493 706
7.22505 662
7.24516 701
7.26527 691
7.28539 648
7.3055 650
7.32562 687
7.34573 706
7.36584 737
7.38596 685
7.40607 676
7.42618 699
7.4463 698
7.46641 639
7.48653 691
7.50664 651
7.52675 653
7.54687 606
7.56698 622
7.58709 610
7.60721 674
7.62732 636
7.64743 649
7.66755 698
7.68766 621
7.70778 650
7.72789 660
7.748 691
7.76812 667
7.78823 637
7.80834 690
7.82846 709
7.84857 666
7.86869 678
7.8888 627
7.90891 704
7.92903 621
7.94914 606
7.96925 668
7.98937 642
8.00948 645
8.0296 680
8.04971 660
8.06982 651
8.08994 687
8.11005 629
8.13016 647
8.15028 640
8.17039 630
8.1905 634
8.21062 642
8.23073 602
8.25085 626
8.27096 632
8.29107 624
8.31119 645
8.3313 594
8.35141 616
8.37153 621
8.39164 652
8.41176 605
8.43187 689
8.45198 659
8.4721 667
8.49221 619
8.51232 653
8.53244 670
8.55255 604
8.57266 605
8.59278 649
8.61289 638
8.63301 662
8.65312 610
8.67323 661
8.69335 633
8.71346 634
8.73357 648
8.75369 619
8.7738 582
8.79392 635
8.81403 598
8.83414 596
8.85426 592
8.87437 619
8.89448 623
8.9146 638
8.93471 657
8.95483 610
8.97494 590
8.99505 645
9.01517 639
9.03528 648
9.05539 654
9.07551 626
9.09562 646
9.11573 582
9.13585 600
9.15596 660
9.17608 602
9.19619 643
9.2163 690
9.23642 604
9.25653 634
9.27664 664
9.29676 642
9.31687 614
9.33699 674
9.3571 665
9.37721 657
9.39733 651
9.41744 655
9.43755 631
9.45767 613
9.47778 680
9.4979 618
9.51801 603
9.53812 634
9.55824 627
9.57835 643
9.59846 644
9.61858 600
9.63869 594
9.6588 587
9.67892 632
9.69903 623
9.71915 606
9.73926 643
9.75937 666
9.77949 643
9.7996 597
9.81971 637
9.83983 617
9.85994 604
9.88006 642
9.90017 617
9.92028 637
9.9404 616
9.96051 595
9.98062 653
10.00074 586
10.02085 663
10.04097 592
10.06108 601
10.08119 614
10.10131 556
10.12142 628
10.14153 615
10.16165 623
10.18176 625
10.20187 646
10.22199 619
10.2421 573
10.26222 578
10.28233 606
10.30244 608
10.32256 650
10.34267 617
10.36278 628
10.3829 640
10.40301 633
10.42313 617
10.44324 596
10.46335 589
10.48347 597
10.50358 642
10.52369 642
10.54381 622
10.56392 628
10.58403 625
10.60415 557
10.62426 603
10.64438 665
10.66449 646
10.6846 602
10.70472 645
10.72483 604
10.74494 595
10.76506 645
10.78517 693
10.80529 580
10.8254 566
10.84551 611
10.86563 573
10.88574 607
10.90585 633
10.92597 611
10.94608 640
10.9662 614
10.98631 589
11.00642 624
11.02654 642
11.04665 614
11.06676 592
11.08688 653
11.10699 571
11.1271 579
11.14722 658
11.16733 636
11.18745 673
11.20756 636
11.22767 664
11.24779 605
11.2679 625
11.28801 642
11.30813 651
11.32824 615
11.34836 666
11.36847 672
11.38858 652
11.4087 647
11.42881 623
11.44892 637
11.46904 676
11.48915 668
11.50927 645
11.52938 688
11.54949 614
11.56961 652
11.58972 690
11.60983 673
11.62995 695
11.65006 626
11.67017 650
11.69029 623
11.7104 678
11.73052 658
11.75063 712
11.77074 677
11.79086 659
11.81097 711
11.83108 702
11.8512 687
11.87131 732
11.89143 753
11.91154 735
11.93165 708
11.95177 770
11.97188 776
11.99199 728
12.01211 768
12.03222 772
12.05234 728
12.07245 735
12.09256 772
12.11268 786
12.13279 749
12.1529 767
12.17302 748
12.19313 788
12.21324 787
12.23336 806
12.25347 751
12.27359 796
12.2937 771
12.31381 723
12.33393 799
12.35404 717
12.37415 705
12.39427 687
12.41438 686
12.4345 702
12.45461 681
12.47472 696
12.49484 673
12.51495 665
12.53506 708
12.55518 661
12.57529 677
12.5954 671
12.61552 654
12.63563 642
12.65575 682
12.67586 651
12.69597 640
12.71609 633
12.7362 593
12.75631 606
12.77643 637
12.79654 600
12.81666 646
12.83677 621
12.85688 590
12.877 650
12.89711 637
12.91722 650
12.93734 606
12.95745 619
12.97757 647
12.99768 601
13.01779 608
13.03791 623
13.05802 599
13.07813 575
13.09825 593
13.11836 636
13.13847 584
13.15859 611
13.1787 618
13.19882 641
13.21893 573
13.23904 568
13.25916 621
13.27927 639
13.29938 614
13.3195 583
13.33961 607
13.35973 559
13.37984 605
13.39995 592
13.42007 584
13.44018 629
13.46029 516
13.48041 567
13.50052 585
13.52064 608
13.54075 574
13.56086 588
13.58098 567
13.60109 603
13.6212 571
13.64132 603
13.66143 573
13.68154 537
13.70166 563
13.72177 601
13.74189 544
13.762 590
13.78211 543
13.80223 606
13.82234 635
13.84245 565
13.86257 622
13.88268 628
13.9028 565
13.92291 558
13.94302 600
13.96314 575
13.98325 644
14.00336 572
14.02348 555
14.04359 592
14.06371 578
14.08382 589
14.10393 547
14.12405 577
14.14416 584
14.16427 569
14.18439 538
14.2045 579
14.22461 576
14.24473 543
14.26484 581
14.28496 575
14.30507 554
14.32518 591
14.3453 549
14.36541 602
14.38552 578
14.40564 571
14.42575 651
14.44587 557
14.46598 584
14.48609 562
14.50621 559
14.52632 584
14.54643 570
14.56655 543
14.58666 554
14.60677 579
14.62689 582
14.647 583
14.66712 572
14.68723 563
14.70734 622
14.72746 560
14.74757 569
14.76768 581
14.7878 563
14.80791 554
14.82803 570
14.84814 570
14.86825 545
14.88837 526
14.90848 546
14.92859 560
14.94871 559
14.96882 582
14.98894 587
15.00905 575
15.02916 555
15.04928 577
15.06939 583
15.0895 591
15.10962 553
15.12973 556
15.14984 608
15.16996 572
15.19007 569
15.21019 538
15.2303 580
15.25041 619
15.27053 620
15.29064 587
15.31075 577
15.33087 567
15.35098 558
15.3711 576
15.39121 590
15.41132 566
15.43144 605
15.45155 567
15.47166 583
15.49178 568
15.51189 571
15.53201 561
15.55212 591
15.57223 515
15.59235 614
15.61246 569
15.63257 596
15.65269 571
15.6728 550
15.69291 542
15.71303 540
15.73314 607
15.75326 580
15.77337 575
15.79348 601
15.8136 617
15.83371 579
15.85382 545
15.87394 544
15.89405 560
15.91417 579
15.93428 606
15.95439 622
15.97451 560
15.99462 564
16.01473 571
16.03485 611
16.05496 570
16.07508 609
16.09519 594
16.1153 559
16.13542 623
16.15553 560
16.17564 566
16.19576 616
16.21587 617
16.23598 631
16.2561 598
16.27621 590
16.29633 549
16.31644 572
16.33655 597
16.35667 614
16.37678 539
16.39689 574
16.41701 632
16.43712 577
16.45724 574
16.47735 587
16.49746 592
16.51758 589
16.53769 556
16.5578 583
16.57792 550
16.59803 587
16.61814 577
16.63826 585
16.65837 581
16.67849 564
16.6986 588
16.71871 580
16.73883 610
16.75894 560
16.77905 560
16.79917 579
16.81928 561
16.8394 557
16.85951 629
16.87962 584
16.89974 569
16.91985 598
16.93996 556
16.96008 590
16.98019 577
17.00031 569
17.02042 544
17.04053 596
17.06065 601
17.08076 590
17.10087 583
17.12099 627
17.1411 577
17.16121 579
17.18133 606
17.20144 559
17.22156 617
17.24167 592
17.26178 581
17.2819 572
17.30201 593
17.32212 586
17.34224 558
17.36235 589
17.38247 569
17.40258 656
17.42269 587
17.44281 613
17.46292 570
17.48303 593
17.50315 609
17.52326 578
17.54338 567
17.56349 610
17.5836 614
17.60372 607
17.62383 621
17.64394 584
17.66406 606
17.68417 600
17.70428 618
17.7244 634
17.74451 602
17.76463 617
17.78474 647
17.80485 587
17.82497 667
17.84508 598
17.86519 610
17.88531 608
17.90542 613
17.92554 626
17.94565 656
17.96576 586
17.98588 554
18.00599 624
18.0261 621
18.04622 599
18.06633 624
18.08645 640
18.10656 649
18.12667 628
18.14679 567
18.1669 597
18.18701 630
18.20713 550
18.22724 594
18.24735 612
18.26747 595
18.28758 596
18.3077 587
18.32781 592
18.34792 619
18.36804 606
18.38815 580
18.40826 596
18.42838 564
18.44849 624
18.46861 584
18.48872 617
18.50883 596
18.52895 607
18.54906 607
18.56917 585
18.58929 585
18.6094 666
18.62951 565
18.64963 628
18.66974 588
18.68986 569
18.70997 628
18.73008 605
18.7502 610
18.77031 647
18.79042 623
18.81054 632
18.83065 596
18.85077 610
18.87088 613
18.89099 626
18.91111 634
18.93122 573
18.95133 606
18.97145 595
18.99156 629
19.01168 620
19.03179 619
19.0519 590
19.07202 646
19.09213 630
19.11224 647
19.13236 618
19.15247 627
19.17258 644
19.1927 634
19.21281 626
19.23293 681
19.25304 652
19.27315 642
19.29327 693
19.31338 678
19.33349 618
19.35361 688
19.37372 704
19.39384 646
19.41395 712
19.43406 642
19.45418 714
19.47429 712
19.4944 707
19.51452 729
19.53463 732
19.55475 800
19.57486 745
19.59497 764
19.61509 734
19.6352 760
19.65531 830
19.67543 867
19.69554 856
19.71565 899
19.73577 836
19.75588 876
19.776 970
19.79611 944
19.81622 930
19.83634 995
19.85645 973
19.87656 992
19.89668 967
19.91679 994
19.93691 1038
19.95702 994
19.97713 935
19.99725 942
20.01736 927
20.03747 973
20.05759 962
20.0777 1005
20.09782 959
20.11793 936
20.13804 951
20.15816 905
20.17827 953
20.19838 859
20.2185 920
20.23861 951
20.25872 950
20.27884 965
20.29895 908
20.31907 923
20.33918 835
20.35929 954
20.37941 886
20.39952 873
20.41963 914
20.43975 929
20.45986 930
20.47998 928
20.50009 868
20.5202 898
20.54032 918
20.56043 915
20.58054 903
20.60066 941
20.62077 927
20.64088 880
20.661 1000
20.68111 958
20.70123 1031
20.72134 1075
20.74145 1130
20.76157 1278
20.78168 1508
20.80179 1623
20.82191 1672
20.84202 1756
20.86214 1682
20.88225 1509
20.90236 1327
20.92248 1225
20.94259 1070
20.9627 1058
20.98282 1035
21.00293 1056
21.02305 984
21.04316 1090
21.06327 1058
21.08339 1052
21.1035 1042
21.12361 1107
21.14373 1071
21.16384 1106
21.18395 1017
21.20407 1122
21.22418 1152
21.2443 1059
21.26441 1178
21.28452 1129
21.30464 1150
21.32475 1138
21.34486 1136
21.36498 1173
21.38509 1127
21.40521 1061
21.42532 1077
21.44543 1081
21.46555 1067
21.48566 993
21.50577 957
21.52589 995
21.546 979
21.56612 954
21.58623 880
21.60634 886
21.62646 884
21.64657 880
21.66668 884
21.6868 898
21.70691 858
21.72702 847
21.74714 812
21.76725 792
21.78737 815
21.80748 762
21.82759 851
21.84771 788
21.86782 802
21.88793 812
21.90805 820
21.92816 794
21.94828 807
21.96839 821
21.9885 818
22.00862 782
22.02873 859
22.04884 772
22.06896 805
22.08907 810
22.10919 787
22.1293 754
22.14941 771
22.16953 765
22.18964 769
22.20975 789
22.22987 745
22.24998 747
22.27009 740
22.29021 752
22.31032 784
22.33044 744
22.35055 765
22.37066 777
22.39078 732
22.41089 765
22.431 779
22.45112 728
22.47123 715
22.49135 718
22.51146 775
22.53157 749
22.55169 708
22.5718 677
22.59191 694
22.61203 732
22.63214 700
22.65225 709
22.67237 783
22.69248 738
22.7126 715
22.73271 726
22.75282 717
22.77294 728
22.79305 743
22.81316 703
22.83328 724
22.85339 744
22.87351 686
22.89362 718
22.91373 729
22.93385 731
22.95396 741
22.97407 704
22.99419 762
23.0143 665
23.03442 722
23.05453 734
23.07464 724
23.09476 725
23.11487 746
23.13498 747
23.1551 695
23.17521 686
23.19532 692
23.21544 739
23.23555 711
23.25567 686
23.27578 718
23.29589 747
23.31601 705
23.33612 733
23.35623 667
23.37635 656
23.39646 695
23.41658 720
23.43669 712
23.4568 748
23.47692 740
23.49703 708
23.51714 768
23.53726 745
23.55737 753
23.57749 747
23.5976 720
23.61771 749
23.63783 698
23.65794 747
23.67805 771
23.69817 755
23.71828 791
23.73839 794
23.75851 821
23.77862 787
23.79874 846
23.81885 817
23.83896 811
23.85908 761
23.87919 781
23.8993 749
23.91942 764
23.93953 738
23.95965 748
23.97976 810
23.99987 743
24.01999 789
24.0401 708
24.06021 794
24.08033 747
24.10044 792
24.12056 724
24.14067 721
24.16078 812
24.1809 780
24.20101 754
24.22112 755
24.24124 751
24.26135 725
24.28146 796
24.30158 744
24.32169 728
24.34181 745
24.36192 701
24.38203 728
24.40215 752
24.42226 726
24.44237 747
24.46249 764
24.4826 744
24.50272 762
24.52283 749
24.54294 756
24.56306 764
24.58317 781
24.60328 782
24.6234 758
24.64351 740
24.66362 766
24.68374 817
24.70385 789
24.72397 816
24.74408 819
24.76419 843
24.78431 814
24.80442 844
24.82453 755
24.84465 822
24.86476 816
24.88488 860
24.90499 857
24.9251 839
24.94522 803
24.96533 799
24.98544 853
25.00556 856
25.02567 886
25.04579 826
25.0659 836
25.08601 847
25.10613 769
25.12624 819
25.14635 811
25.16647 793
25.18658 832
25.20669 778
25.22681 819
25.24692 767
25.26704 784
25.28715 786
25.30726 811
25.32738 747
25.34749 784
25.3676 788
25.38772 768
25.40783 766
25.42795 765
25.44806 785
25.46817 759
25.48829 759
25.5084 714
25.52851 760
25.54863 784
25.56874 769
25.58886 809
25.60897 780
25.62908 714
25.6492 748
25.66931 754
25.68942 725
25.70954 764
25.72965 741
25.74976 742
25.76988 687
25.78999 705
25.81011 766
25.83022 707
25.85033 770
25.87045 759
25.89056 729
25.91067 748
25.93079 754
25.9509 717
25.97102 720
25.99113 731
26.01124 784
26.03136 742
26.05147 687
26.07158 741
26.0917 755
26.11181 782
26.13193 776
26.15204 762
26.17215 747
26.19227 808
26.21238 778
26.23249 839
26.25261 740
26.27272 820
26.29283 811
26.31295 802
26.33306 874
26.35318 878
26.37329 957
26.3934 912
26.41352 977
26.43363 1088
26.45374 1176
26.47386 1388
26.49397 1656
26.51409 2083
26.5342 2592
26.55431 3371
26.57443 3877
26.59454 4333
26.61465 4451
26.63477 4076
26.65488 3517
26.67499 2800
26.69511 2251
26.71522 1752
26.73534 1337
26.75545 1083
26.77556 988
26.79568 937
26.81579 831
26.8359 822
26.85602 844
26.87613 817
26.89625 798
26.91636 763
26.93647 745
26.95659 751
26.9767 737
26.99681 757
27.01693 798
27.03704 723
27.05716 810
27.07727 757
27.09738 694
27.1175 712
27.13761 738
27.15772 655
27.17784 736
27.19795 684
27.21806 702
27.23818 681
27.25829 725
27.27841 710
27.29852 779
27.31863 724
27.33875 755
27.35886 779
27.37897 748
27.39909 771
27.4192 793
27.43932 834
27.45943 740
27.47954 795
27.49966 747
27.51977 728
27.53988 740
27.56 720
27.58011 678
27.60023 754
27.62034 719
27.64045 692
27.66057 748
27.68068 739
27.70079 646
27.72091 669
27.74102 689
27.76113 682
27.78125 741
27.80136 750
27.82148 675
27.84159 754
27.8617 702
27.88182 727
27.90193 726
27.92204 751
27.94216 722
27.96227 647
27.98239 685
28.0025 686
28.02261 690
28.04273 699
28.06284 673
28.08295 667
28.10307 665
28.12318 638
28.1433 672
28.16341 642
28.18352 652
28.20364 698
28.22375 634
28.24386 637
28.26398 647
28.28409 616
28.3042 665
28.32432 652
28.34443 635
28.36455 669
28.38466 647
28.40477 671
28.42489 661
28.445 635
28.46511 596
28.48523 668
28.50534 651
28.52546 640
28.54557 598
28.56568 628
28.5858 651
28.60591 642
28.62602 590
28.64614 626
28.66625 625
28.68636 664
28.70648 624
28.72659 617
28.74671 667
28.76682 648
28.78693 615
28.80705 623
28.82716 660
28.84727 649
28.86739 641
28.8875 616
28.90762 624
28.92773 634
28.94784 650
28.96796 607
28.98807 647
29.00818 634
29.0283 596
29.04841 633
29.06853 672
29.08864 666
29.10875 651
29.12887 670
29.14898 572
29.16909 680
29.18921 613
29.20932 664
29.22943 602
29.24955 621
29.26966 641
29.28978 641
29.30989 677
29.33 648
29.35012 626
29.37023 657
29.39034 688
29.41046 638
29.43057 682
29.45069 653
29.4708 637
29.49091 632
29.51103 664
29.53114 614
29.55125 627
29.57137 636
29.59148 563
29.6116 654
29.63171 589
29.65182 617
29.67194 622
29.69205 645
29.71216 625
29.73228 663
29.75239 637
29.7725 591
29.79262 626
29.81273 635
29.83285 650
29.85296 622
29.87307 693
29.89319 649
29.9133 644
29.93341 616
29.95353 650
29.97364 636
29.99376 648
30.01387 658
30.03398 634
30.0541 627
30.07421 658
30.09432 652
30.11444 667
30.13455 660
30.15467 673
30.17478 663
30.19489 682
30.21501 679
30.23512 681
30.25523 718
30.27535 633
30.29546 703
30.31557 653
30.33569 602
30.3558 654
30.37592 708
30.39603 690
30.41614 626
30.43626 652
30.45637 619
30.47648 644
30.4966 640
30.51671 627
30.53683 633
30.55694 652
30.57705 703
30.59717 721
30.61728 615
30.63739 604
30.65751 671
30.67762 601
30.69773 714
30.71785 639
30.73796 686
30.75808 661
30.77819 665
30.7983 607
30.81842 663
30.83853 641
30.85864 627
30.87876 646
30.89887 664
30.91899 635
30.9391 612
30.95921 639
30.97933 637
30.99944 623
31.01955 588
31.03967 641
31.05978 613
31.0799 613
31.10001 638
31.12012 606
31.14024 618
31.16035 644
31.18046 653
31.20058 680
31.22069 648
31.2408 641
31.26092 604
31.28103 647
31.30115 638
31.32126 597
31.34137 616
31.36149 626
31.3816 634
31.40171 626
31.42183 640
31.44194 577
31.46206 622
31.48217 616
31.50228 614
31.5224 639
31.54251 608
31.56262 632
31.58274 623
31.60285 611
31.62297 666
31.64308 676
31.66319 614
31.68331 654
31.70342 640
31.72353 656
31.74365 635
31.76376 627
31.78387 628
31.80399 623
31.8241 586
31.84422 612
31.86433 572
31.88444 628
31.90456 660
31.92467 603
31.94478 623
31.9649 652
31.98501 622
32.00513 576
32.02524 661
32.04535 598
32.06547 590
32.08558 616
32.10569 651
32.12581 595
32.14592 625
32.16604 642
32.18615 680
32.20626 623
32.22638 639
32.24649 658
32.2666 624
32.28672 690
32.30683 681
32.32694 694
32.34706 722
32.36717 692
32.38729 764
32.4074 783
32.42751 771
32.44763 866
32.46774 893
32.48785 807
32.50797 813
32.52808 851
32.5482 855
32.56831 812
32.58842 784
32.60854 795
32.62865 722
32.64876 765
32.66888 647
32.68899 740
32.7091 671
32.72922 700
32.74933 627
32.76945 677
32.78956 632
32.80967 680
32.82979 683
32.8499 676
32.87001 658
32.89013 715
32.91024 705
32.93036 736
32.95047 659
32.97058 668
32.9907 697
33.01081 712
33.03092 712
33.05104 732
33.07115 700
33.09127 729
33.11138 705
33.13149 720
33.15161 627
33.17172 707
33.19183 757
33.21195 770
33.23206 779
33.25217 780
33.27229 761
33.2924 783
33.31252 723
33.33263 704
33.35274 743
33.37286 749
33.39297 702
33.41308 790
33.4332 746
33.45331 725
33.47343 744
33.49354 727
33.51365 752
33.53377 725
33.55388 740
33.57399 754
33.59411 730
33.61422 675
33.63434 705
33.65445 688
33.67456 709
33.69468 678
33.71479 719
33.7349 661
33.75502 664
33.77513 657
33.79524 682
33.81536 701
33.83547 630
33.85559 655
33.8757 655
33.89581 629
33.91593 646
33.93604 659
33.95615 663
33.97627 617
33.99638 651
34.0165 642
34.03661 638
34.05672 679
34.07684 674
34.09695 688
34.11706 668
34.13718 688
34.15729 641
34.17741 717
34.19752 661
34.21763 682
34.23775 635
34.25786 661
34.27797 705
34.29809 707
34.3182 654
34.33831 672
34.35843 694
34.37854 695
34.39866 709
34.41877 670
34.43888 680
34.459 704
34.47911 716
34.49922 704
34.51934 691
34.53945 671
34.55957 693
34.57968 753
34.59979 692
34.61991 733
34.64002 783
34.66013 704
34.68025 715
34.70036 827
34.72047 780
34.74059 826
34.7607 815
34.78082 826
34.80093 868
34.82104 813
34.84116 814
34.86127 833
34.88138 858
34.9015 884
34.92161 871
34.94173 930
34.96184 849
34.98195 898
35.00207 841
35.02218 857
35.04229 856
35.06241 866
35.08252 810
35.10264 898
35.12275 904
35.14286 919
35.16298 937
35.18309 973
35.2032 955
35.22332 932
35.24343 851
35.26354 909
35.28366 906
35.30377 868
35.32389 898
35.344 853
35.36411 847
35.38423 874
35.40434 847
35.42445 814
35.44457 833
35.46468 798
35.4848 825
35.50491 847
35.52502 812
35.54514 870
35.56525 843
35.58536 846
35.60548 858
35.62559 800
35.64571 843
35.66582 801
35.68593 818
35.70605 801
35.72616 829
35.74627 805
35.76639 825
35.7865 809
35.80661 861
35.82673 864
35.84684 842
35.86696 763
35.88707 806
35.90718 794
35.9273 848
35.94741 758
35.96752 777
35.98764 821
36.00775 803
36.02787 812
36.04798 812
36.06809 828
36.08821 819
36.10832 816
36.12843 827
36.14855 795
36.16866 801
36.18878 806
36.20889 781
36.229 791
36.24912 835
36.26923 812
36.28934 824
36.30946 868
36.32957 866
36.34968 771
36.3698 867
36.38991 845
36.41003 921
36.43014 931
36.45025 961
36.47037 973
36.49048 1051
36.51059 1095
36.53071 1036
36.55082 1064
36.57094 949
36.59105 992
36.61116 898
36.63128 953
36.65139 906
36.6715 907
36.69162 951
36.71173 932
36.73184 893
36.75196 911
36.77207 921
36.79219 945
36.8123 970
36.83241 1029
36.85253 965
36.87264 964
36.89275 962
36.91287 1003
36.93298 949
36.9531 983
36.97321 959
36.99332 913
37.01344 876
37.03355 906
37.05366 916
37.07378 895
37.09389 875
37.11401 827
37.13412 835
37.15423 818
37.17435 826
37.19446 747
37.21457 809
37.23469 772
37.2548 716
37.27491 797
37.29503 743
37.31514 752
37.33526 735
37.35537 719
37.37548 727
37.3956 768
37.41571 781
37.43582 746
37.45594 783
37.47605 708
37.49617 743
37.51628 748
37.53639 753
37.55651 686
37.57662 703
37.59673 768
37.61685 727
37.63696 665
37.65708 732
37.67719 717
37.6973 717
37.71742 725
37.73753 720
37.75764 734
37.77776 720
37.79787 741
37.81798 728
37.8381 760
37.85821 759
37.87833 663
37.89844 721
37.91855 708
37.93867 717
37.95878 736
37.97889 719
37.99901 697
38.01912 766
38.03924 755
38.05935 738
38.07946 703
38.09958 750
38.11969 765
38.1398 737
38.15992 770
38.18003 730
38.20015 773
38.22026 756
38.24037 753
38.26049 748
38.2806 763
38.30071 787
38.32083 767
38.34094 770
38.36105 747
38.38117 768
38.40128 772
38.4214 727
38.44151 777
38.46162 715
38.48174 714
38.50185 752
38.52196 734
38.54208 811
38.56219 764
38.58231 672
38.60242 682
38.62253 674
38.64265 724
38.66276 728
38.68287 700
38.70299 727
38.7231 719
38.74321 728
38.76333 693
38.78344 698
38.80356 679
38.82367 721
38.84378 726
38.8639 687
38.88401 687
38.90412 690
38.92424 724
38.94435 663
38.96447 699
38.98458 707
39.00469 684
39.02481 719
39.04492 676
39.06503 722
39.08515 695
39.10526 669
39.12538 737
39.14549 663
39.1656 690
39.18572 741
39.20583 705
39.22594 702
39.24606 713
39.26617 687
39.28628 754
39.3064 674
39.32651 755
39.34663 754
39.36674 839
39.38685 778
39.40697 898
39.42708 910
39.44719 858
39.46731 845
39.48742 782
39.50754 748
39.52765 790
39.54776 760
39.56788 723
39.58799 741
39.6081 721
39.62822 696
39.64833 664
39.66845 650
39.68856 635
39.70867 694
39.72879 622
39.7489 674
39.76901 635
39.78913 684
39.80924 653
39.82935 640
39.84947 703
39.86958 662
39.8897 668
39.90981 702
39.92992 683
39.95004 661
39.97015 694
39.99026 712
40.01038 712
40.03049 693
40.05061 708
40.07072 657
40.09083 709
40.11095 742
40.13106 723
40.15117 768
40.17129 825
40.1914 825
40.21152 896
40.23163 897
40.25174 903
40.27186 846
40.29197 831
40.31208 844
40.3322 781
40.35231 811
40.37242 786
40.39254 743
40.41265 744
40.43277 678
40.45288 703
40.47299 713
40.49311 718
40.51322 731
40.53333 696
40.55345 711
40.57356 663
40.59368 700
40.61379 628
40.6339 666
40.65402 619
40.67413 676
40.69424 638
40.71436 628
40.73447 668
40.75458 635
40.7747 643
40.79481 671
40.81493 667
40.83504 674
40.85515 683
40.87527 659
40.89538 707
40.91549 749
40.93561 630
40.95572 640
40.97584 648
40.99595 688
41.01606 654
41.03618 650
41.05629 644
41.0764 708
41.09652 694
41.11663 682
41.13675 673
41.15686 665
41.17697 688
41.19709 678
41.2172 653
41.23731 716
41.25743 703
41.27754 730
41.29765 670
41.31777 684
41.33788 691
41.358 661
41.37811 685
41.39822 675
41.41834 709
41.43845 676
41.45856 633
41.47868 709
41.49879 732
41.51891 704
41.53902 679
41.55913 691
41.57925 700
41.59936 691
41.61947 688
41.63959 729
41.6597 684
41.67982 739
41.69993 720
41.72004 727
41.74016 682
41.76027 659
41.78038 612
41.8005 706
41.82061 658
41.84072 698
41.86084 669
41.88095 658
41.90107 689
41.92118 614
41.94129 613
41.96141 572
41.98152 616
42.00163 657
42.02175 629
42.04186 612
42.06198 635
42.08209 614
42.1022 606
42.12232 627
42.14243 620
42.16254 613
42.18266 649
42.20277 637
42.22289 613
42.243 630
42.26311 644
42.28323 675
42.30334 669
42.32345 700
42.34357 737
42.36368 762
42.38379 757
42.40391 813
42.42402 798
42.44414 751
42.46425 723
42.48436 699
42.50448 700
42.52459 768
42.5447 637
42.56482 669
42.58493 666
42.60505 609
42.62516 637
42.64527 668
42.66539 640
42.6855 606
42.70561 612
42.72573 633
42.74584 608
42.76595 645
42.78607 624
42.80618 662
42.8263 588
42.84641 609
42.86652 627
42.88664 613
42.90675 606
42.92686 637
42.94698 631
42.96709 624
42.98721 654
43.00732 625
43.02743 643
43.04755 611
43.06766 617
43.08777 612
43.10789 593
43.128 569
43.14812 627
43.16823 587
43.18834 604
43.20846 602
43.22857 648
43.24868 608
43.2688 568
43.28891 643
43.30902 567
43.32914 623
43.34925 591
43.36937 606
43.38948 622
43.40959 611
43.42971 642
43.44982 619
43.46993 639
43.49005 598
43.51016 623
43.53028 636
43.55039 595
43.5705 577
43.59062 625
43.61073 624
43.63084 642
43.65096 615
43.67107 605
43.69119 601
43.7113 602
43.73141 584
43.75153 608
43.77164 616
43.79175 589
43.81187 608
43.83198 593
43.85209 570
43.87221 608
43.89232 619
43.91244 586
43.93255 594
43.95266 607
43.97278 615
43.99289 570
44.013 543
44.03312 630
44.05323 586
44.07335 589
44.09346 575
44.11357 618
44.13369 648
44.1538 619
44.17391 584
44.19403 661
44.21414 577
44.23426 572
44.25437 583
44.27448 643
44.2946 573
44.31471 618
44.33482 623
44.35494 571
44.37505 588
44.39516 577
44.41528 591
44.43539 590
44.45551 611
44.47562 570
44.49573 635
44.51585 586
44.53596 604
44.55607 624
44.57619 599
44.5963 596
44.61642 621
44.63653 580
44.65664 623
44.67676 600
44.69687 595
44.71698 568
44.7371 626
44.75721 581
44.77732 617
44.79744 618
44.81755 640
44.83767 596
44.85778 610
44.87789 588
44.89801 641
44.91812 643
44.93823 583
44.95835 623
44.97846 634
44.99858 677
45.01869 633
45.0388 629
45.05892 643
45.07903 598
45.09914 618
45.11926 640
45.13937 619
45.15949 620
45.1796 599
45.19971 602
45.21983 627
45.23994 605
45.26005 610
45.28017 599
45.30028 629
45.32039 613
45.34051 609
45.36062 637
45.38074 668
45.40085 609
45.42096 647
45.44108 622
45.46119 640
45.4813 647
45.50142 641
45.52153 623
45.54165 627
45.56176 665
45.58187 678
45.60199 615
45.6221 624
45.64221 621
45.66233 692
45.68244 742
45.70256 728
45.72267 752
45.74278 718
45.7629 717
45.78301 666
45.80312 709
45.82324 703
45.84335 697
45.86346 724
45.88358 656
45.90369 653
45.92381 651
45.94392 619
45.96403 661
45.98415 652
46.00426 631
46.02437 606
46.04449 619
46.0646 632
46.08472 583
46.10483 640
46.12494 626
46.14506 609
46.16517 582
46.18528 620
46.2054 585
46.22551 609
46.24563 617
46.26574 641
46.28585 592
46.30597 623
46.32608 606
46.34619 614
46.36631 617
46.38642 575
46.40653 653
46.42665 607
46.44676 635
46.46688 640
46.48699 653
46.5071 595
46.52722 619
46.54733 583
46.56744 667
46.58756 598
46.60767 596
46.62779 560
46.6479 590
46.66801 575
46.68813 601
46.70824 611
46.72835 605
46.74847 638
46.76858 646
46.78869 600
46.80881 615
46.82892 567
46.84904 664
46.86915 600
46.88926 575
46.90938 616
46.92949 634
46.9496 611
46.96972 603
46.98983 612
47.00995 619
47.03006 601
47.05017 601
47.07029 608
47.0904 610
47.11051 624
47.13063 622
47.15074 656
47.17086 617
47.19097 562
47.21108 580
47.2312 603
47.25131 643
47.27142 576
47.29154 611
47.31165 580
47.33176 587
47.35188 640
47.37199 625
47.39211 595
47.41222 620
47.43233 668
47.45245 588
47.47256 602
47.49267 662
47.51279 666
47.5329 586
47.55302 624
47.57313 603
47.59324 619
47.61336 651
47.63347 641
47.65358 631
47.6737 607
47.69381 590
47.71393 621
47.73404 631
47.75415 602
47.77427 576
47.79438 622
47.81449 620
47.83461 662
47.85472 648
47.87483 624
47.89495 634
47.91506 629
47.93518 635
47.95529 599
47.9754 633
47.99552 621
48.01563 610
48.03574 614
48.05586 568
48.07597 621
48.09609 562
48.1162 564
48.13631 551
48.15643 582
48.17654 629
48.19665 618
48.21677 624
48.23688 608
48.257 629
48.27711 596
48.29722 595
48.31734 622
48.33745 605
48.35756 629
48.37768 611
48.39779 627
48.4179 627
48.43802 628
48.45813 618
48.47825 614
48.49836 623
48.51847 619
48.53859 647
48.5587 611
48.57881 634
48.59893 624
48.61904 670
48.63916 649
48.65927 661
48.67938 633
48.6995 639
48.71961 673
48.73972 648
48.75984 640
48.77995 679
48.80006 574
48.82018 642
48.84029 595
48.86041 617
48.88052 616
48.90063 604
48.92075 618
48.94086 668
48.96097 586
48.98109 660
49.0012 604
49.02132 614
49.04143 595
49.06154 607
49.08166 615
49.10177 658
49.12188 623
49.142 642
49.16211 626
49.18223 611
49.20234 588
49.22245 620
49.24257 618
49.26268 584
49.28279 569
49.30291 590
49.32302 615
49.34313 612
49.36325 602
49.38336 585
49.40348 611
49.42359 580
49.4437 611
49.46382 592
49.48393 603
49.50404 608
49.52416 628
49.54427 579
49.56439 598
49.5845 588
49.60461 629
49.62473 621
49.64484 561
49.66495 603
49.68507 610
49.70518 592
49.7253 620
49.74541 635
49.76552 601
49.78564 617
49.80575 648
49.82586 599
49.84598 594
49.86609 621
49.8862 671
49.90632 618
49.92643 657
49.94655 701
49.96666 721
49.98677 764
50.00689 778
50.027 855
50.04711 928
50.06723 945
50.08734 947
50.10746 849
50.12757 952
50.14768 815
50.1678 806
50.18791 774
50.20802 823
50.22814 746
50.24825 731
50.26837 711
50.28848 674
50.30859 650
50.32871 609
50.34882 627
50.36893 634
50.38905 607
50.40916 623
50.42927 653
50.44939 626
50.4695 645
50.48962 618
50.50973 669
50.52984 613
50.54996 632
50.57007 691
50.59018 631
50.6103 607
50.63041 660
50.65053 628
50.67064 636
50.69075 591
50.71087 683
50.73098 660
50.75109 629
50.77121 669
50.79132 607
50.81143 621
50.83155 641
50.85166 627
50.87178 628
50.89189 622
50.912 596
50.93212 639
50.95223 608
50.97234 602
50.99246 632
51.01257 632
51.03269 616
51.0528 594
51.07291 597
51.09303 650
51.11314 605
51.13325 610
51.15337 620
51.17348 604
51.1936 617
51.21371 582
51.23382 660
51.25394 623
51.27405 568
51.29416 566
51.31428 603
51.33439 594
51.3545 574
51.37462 624
51.39473 585
51.41485 563
51.43496 562
51.45507 600
51.47519 585
51.4953 598
51.51541 609
51.53553 653
51.55564 613
51.57576 555
51.59587 623
51.61598 573
51.6361 602
51.65621 606
51.67632 558
51.69644 622
51.71655 595
51.73667 572
51.75678 548
51.77689 553
51.79701 635
51.81712 558
51.83723 576
51.85735 580
51.87746 570
51.89757 552
51.91769 615
51.9378 624
51.95792 630
51.97803 589
51.99814 591
52.01826 574
52.03837 599
52.05848 590
52.0786 589
52.09871 612
52.11883 573
52.13894 589
52.15905 626
52.17917 583
52.19928 568
52.21939 610
52.23951 599
52.25962 611
52.27974 561
52.29985 546
52.31996 583
52.34008 572
52.36019 560
52.3803 580
52.40042 577
52.42053 588
52.44064 568
52.46076 644
52.48087 642
52.50099 576
52.5211 584
52.54121 631
52.56133 597
52.58144 664
52.60155 614
52.62167 645
52.64178 637
52.6619 616
52.68201 644
52.70212 622
52.72224 650
52.74235 565
52.76246 651
52.78258 604
52.80269 673
52.8228 598
52.84292 670
52.86303 702
52.88315 677
52.90326 636
52.92337 703
52.94349 698
52.9636 681
52.98371 721
53.00383 704
53.02394 740
53.04406 772
53.06417 755
53.08428 735
53.1044 767
53.12451 755
53.14462 708
53.16474 736
53.18485 712
53.20497 701
53.22508 703
53.24519 741
53.26531 669
53.28542 722
53.30553 757
53.32565 731
53.34576 703
53.36587 741
53.38599 729
53.4061 735
53.42622 709
53.44633 736
53.46644 701
53.48656 754
53.50667 727
53.52678 730
53.5469 705
53.56701 717
53.58713 722
53.60724 705
53.62735 726
53.64747 727
53.66758 760
53.68769 761
53.70781 695
53.72792 712
53.74804 723
53.76815 743
53.78826 696
53.80838 704
53.82849 713
53.8486 724
53.86872 675
53.88883 678
53.90894 669
53.92906 702
53.94917 675
53.96929 679
53.9894 756
54.00951 671
54.02963 694
54.04974 711
54.06985 684
54.08997 744
54.11008 706
54.1302 721
54.15031 642
54.17042 709
54.19054 736
54.21065 705
54.23076 726
54.25088 692
54.27099 668
54.29111 720
54.31122 723
54.33133 679
54.35145 686
54.37156 713
54.39167 713
54.41179 687
54.4319 757
54.45201 753
54.47213 705
54.49224 657
54.51236 716
54.53247 694
54.55258 669
54.5727 741
54.59281 728
54.61292 726
54.63304 696
54.65315 715
54.67327 727
54.69338 720
54.71349 760
54.73361 801
54.75372 751
54.77383 738
54.79395 762
54.81406 811
54.83417 772
54.85429 780
54.8744 750
54.89452 725
54.91463 766
54.93474 725
54.95486 743
54.97497 670
54.99508 700
55.0152 676
55.03531 722
55.05543 670
55.07554 646
55.09565 608
55.11577 670
55.13588 622
55.15599 690
55.17611 711
55.19622 687
55.21634 704
55.23645 706
55.25656 668
55.27668 682
55.29679 725
55.3169 721
55.33702 674
55.35713 618
55.37724 714
55.39736 654
55.41747 651
55.43759 704
55.4577 659
55.47781 648
55.49793 643
55.51804 686
55.53815 655
55.55827 661
55.57838 603
55.5985 608
55.61861 647
55.63872 640
55.65884 618
55.67895 659
55.69906 692
55.71918 680
55.73929 635
55.75941 657
55.77952 627
55.79963 647
55.81975 590
55.83986 630
55.85997 653
55.88009 659
55.9002 629
55.92031 666
55.94043 655
55.96054 613
55.98066 638
56.00077 697
56.02088 627
56.041 624
56.06111 653
56.08122 644
56.10134 649
56.12145 657
56.14157 618
56.16168 647
56.18179 605
56.20191 610
56.22202 613
56.24213 631
56.26225 609
56.28236 619
56.30248 685
56.32259 594
56.3427 605
56.36282 683
56.38293 618
56.40304 679
56.42316 600
56.44327 620
56.46338 642
56.4835 594
56.50361 605
56.52373 631
56.54384 630
56.56395 646
56.58407 638
56.60418 619
56.62429 639
56.64441 622
56.66452 588
56.68464 623
56.70475 620
56.72486 621
56.74498 613
56.76509 615
56.7852 609
56.80532 605
56.82543 617
56.84554 630
56.86566 614
56.88577 644
56.90589 583
56.926 639
56.94611 618
56.96623 615
56.98634 601
57.00645 628
57.02657 615
57.04668 589
57.0668 652
57.08691 614
57.10702 629
57.12714 618
57.14725 637
57.16736 647
57.18748 600
57.20759 607
57.22771 627
57.24782 629
57.26793 604
57.28805 613
57.30816 614
57.32827 635
57.34839 618
57.3685 612
57.38861 604
57.40873 604
57.42884 611
57.44896 645
57.46907 628
57.48918 635
57.5093 584
57.52941 602
57.54952 595
57.56964 606
57.58975 617
57.60987 649
57.62998 560
57.65009 626
57.67021 627
57.69032 637
57.71043 594
57.73055 603
57.75066 583
57.77078 605
57.79089 614
57.811 617
57.83112 608
57.85123 639
57.87134 646
57.89146 639
57.91157 635
57.93168 639
57.9518 592
57.97191 643
57.99203 656
58.01214 586
58.03225 617
58.05237 595
58.07248 575
58.09259 601
58.11271 603
58.13282 622
58.15294 592
58.17305 646
58.19316 597
58.21328 596
58.23339 642
58.2535 594
58.27362 581
58.29373 637
58.31385 582
58.33396 528
58.35407 636
58.37419 623
58.3943 613
58.41441 608
58.43453 583
58.45464 604
58.47475 587
58.49487 627
58.51498 613
58.5351 605
58.55521 583
58.57532 646
58.59544 619
58.61555 582
58.63566 589
58.65578 621
58.67589 600
58.69601 568
58.71612 588
58.73623 606
58.75635 596
58.77646 615
58.79657 600
58.81669 630
58.8368 610
58.85691 614
58.87703 630
58.89714 600
58.91726 641
58.93737 655
58.95748 584
58.9776 620
58.99771 627
59.01782 636
59.03794 636
59.05805 623
59.07817 641
59.09828 620
59.11839 665
59.13851 593
59.15862 604
59.17873 629
59.19885 630
59.21896 602
59.23908 640
59.25919 683
59.2793 607
59.29942 653
59.31953 674
59.33964 638
59.35976 641
59.37987 583
59.39998 667
59.4201 640
59.44021 638
59.46033 647
59.48044 637
59.50055 669
59.52067 688
59.54078 649
59.56089 648
59.58101 656
59.60112 657
59.62124 665
59.64135 651
59.66146 642
59.68158 679
59.70169 652
59.7218 729
59.74192 655
59.76203 669
59.78215 732
59.80226 754
59.82237 790
59.84249 889
59.8626 813
59.88271 879
59.90283 836
59.92294 837
59.94305 791
59.96317 793
59.98328 776
60.0034 759
60.02351 727
60.04362 742
60.06374 720
60.08385 746
60.10396 673
60.12408 690
60.14419 620
60.16431 658
60.18442 614
60.20453 657
60.22465 611
60.24476 646
60.26487 636
60.28499 609
60.3051 647
60.32522 606
60.34533 621
60.36544 558
60.38556 624
60.40567 626
60.42578 615
60.4459 616
60.46601 632
60.48612 609
60.50624 661
60.52635 653
60.54647 595
60.56658 602
60.58669 636
60.60681 691
60.62692 627
60.64703 626
60.66715 594
60.68726 651
60.70738 595
60.72749 612
60.7476 597
60.76772 610
60.78783 602
60.80794 666
60.82806 625
60.84817 626
60.86828 604
60.8884 621
60.90851 600
60.92863 619
60.94874 624
60.96885 625
60.98897 637
61.00908 643
61.02919 656
61.04931 656
61.06942 628
61.08954 622
61.10965 664
61.12976 630
61.14988 679
61.16999 655
61.1901 639
61.21022 642
61.23033 605
61.25045 662
61.27056 647
61.29067 652
61.31079 711
61.3309 660
61.35101 645
61.37113 647
61.39124 749
61.41135 727
61.43147 709
61.45158 655
61.4717 687
61.49181 665
61.51192 690
61.53204 658
61.55215 677
61.57226 731
61.59238 718
61.61249 731
61.63261 675
61.65272 710
61.67283 716
61.69295 728
61.71306 705
61.73317 708
61.75329 735
61.7734 733
61.79352 719
61.81363 730
61.83374 700
61.85386 707
61.87397 723
61.89408 731
61.9142 721
61.93431 677
61.95442 772
61.97454 706
61.99465 730
62.01477 674
62.03488 720
62.05499 763
62.07511 724
62.09522 695
62.11533 746
62.13545 723
62.15556 737
62.17568 775
62.19579 708
62.2159 737
62.23602 749
62.25613 758
62.27624 741
62.29636 731
62.31647 736
62.33659 696
62.3567 695
62.37681 720
62.39693 735
62.41704 665
62.43715 701
62.45727 648
62.47738 660
62.49749 646
62.51761 670
62.53772 633
62.55784 627
62.57795 628
62.59806 638
62.61818 634
62.63829 639
62.6584 678
62.67852 623
62.69863 680
62.71875 652
62.73886 660
62.75897 630
62.77909 634
62.7992 660
62.81931 664
62.83943 615
62.85954 588
62.87965 593
62.89977 621
62.91988 618
62.94 639
62.96011 670
62.98022 631
63.00034 640
63.02045 676
63.04056 628
63.06068 635
63.08079 685
63.10091 666
63.12102 629
63.14113 679
63.16125 664
63.18136 650
63.20147 679
63.22159 643
63.2417 672
63.26182 666
63.28193 682
63.30204 671
63.32216 746
63.34227 691
63.36238 620
63.3825 651
63.40261 696
63.42272 698
63.44284 640
63.46295 623
63.48307 668
63.50318 617
63.52329 671
63.54341 641
63.56352 666
63.58363 642
63.60375 687
63.62386 678
63.64398 640
63.66409 646
63.6842 669
63.70432 650
63.72443 634
63.74454 688
63.76466 660
63.78477 622
63.80489 665
63.825 662
63.84511 649
63.86523 664
63.88534 684
63.90545 693
63.92557 672
63.94568 661
63.96579 676
63.98591 713
64.00602 673
64.02614 664
64.04625 674
64.06636 652
64.08648 657
64.10659 673
64.1267 702
64.14682 636
64.16693 619
64.18705 652
64.20716 646
64.22727 632
64.24739 675
64.2675 661
64.28761 622
64.30773 649
64.32784 633
64.34796 595
64.36807 643
64.38818 605
64.4083 637
64.42841 641
64.44852 612
64.46864 649
64.48875 595
64.50886 672
64.52898 651
64.54909 637
64.56921 619
64.58932 609
64.60943 625
64.62955 605
64.64966 599
64.66977 655
64.68989 637
64.71 644
64.73012 604
64.75023 576
64.77034 610
64.79046 632
64.81057 629
64.83068 566
64.8508 666
64.87091 613
64.89102 659
64.91114 639
64.93125 575
64.95137 611
64.97148 618
64.99159 603
65.01171 635
65.03182 649
65.05193 603
65.07205 579
65.09216 655
65.11228 630
65.13239 597
65.1525 607
65.17262 632
65.19273 626
65.21284 594
65.23296 572
65.25307 569
65.27319 599
65.2933 559
65.31341 604
65.33353 583
65.35364 623
65.37375 591
65.39387 587
65.41398 566
65.43409 605
65.45421 571
65.47432 600
65.49444 611
65.51455 579
65.53466 625
65.55478 594
65.57489 599
65.595 605
65.61512 551
65.63523 599
65.65535 570
65.67546 588
65.69557 582
65.71569 572
65.7358 628
65.75591 577
65.77603 586
65.79614 624
65.81626 617
65.83637 613
65.85648 615
65.8766 603
65.89671 599
65.91682 644
65.93694 588
65.95705 593
65.97716 575
65.99728 575
66.01739 594
66.03751 574
66.05762 634
66.07773 582
66.09785 593
66.11796 603
66.13807 581
66.15819 626
66.1783 583
66.19842 577
66.21853 572
66.23864 605
66.25876 565
66.27887 586
66.29898 570
66.3191 586
66.33921 611
66.35933 621
66.37944 605
66.39955 573
66.41967 573
66.43978 634
66.45989 597
66.48001 613
66.50012 600
66.52023 589
66.54035 612
66.56046 585
66.58058 570
66.60069 565
66.6208 597
66.64092 589
66.66103 574
66.68114 587
66.70126 552
66.72137 630
66.74149 617
66.7616 554
66.78171 582
66.80183 611
66.82194 558
66.84205 596
66.86217 574
66.88228 590
66.90239 604
66.92251 583
66.94262 592
66.96274 603
66.98285 589
67.00296 613
67.02308 571
67.04319 583
67.0633 593
67.08342 570
67.10353 602
67.12365 630
67.14376 563
67.16387 618
67.18399 634
67.2041 602
67.22421 606
67.24433 553
67.26444 615
67.28456 614
67.30467 605
67.32478 573
67.3449 585
67.36501 586
67.38512 624
67.40524 571
67.42535 614
67.44546 591
67.46558 602
67.48569 600
67.50581 630
67.52592 601
67.54603 687
67.56615 680
67.58626 673
67.60637 672
67.62649 739
67.6466 700
67.66672 749
67.68683 745
67.70694 734
67.72706 722
67.74717 709
67.76728 637
67.7874 629
67.80751 656
67.82763 664
67.84774 688
67.86785 679
67.88797 662
67.90808 645
67.92819 741
67.94831 645
67.96842 662
67.98853 735
68.00865 746
68.02876 728
68.04888 778
68.06899 772
68.0891 832
68.10922 745
68.12933 745
68.14944 740
68.16956 742
68.18967 745
68.20979 723
68.2299 781
68.25001 773
68.27013 729
68.29024 686
68.31035 701
68.33047 727
68.35058 629
68.3707 618
68.39081 637
68.41092 693
68.43104 622
68.45115 643
68.47126 621
68.49138 621
68.51149 631
68.5316 600
68.55172 565
68.57183 605
68.59195 610
68.61206 651
68.63217 592
68.65229 595
68.6724 606
68.69251 590
68.71263 629
68.73274 624
68.75286 609
68.77297 588
68.79308 603
68.8132 573
68.83331 599
68.85342 594
68.87354 561
68.89365 629
68.91376 580
68.93388 576
68.95399 614
68.97411 605
68.99422 604
69.01433 579
69.03445 616
69.05456 618
69.07467 591
69.09479 593
69.1149 583
69.13502 575
69.15513 606
69.17524 598
69.19536 619
69.21547 573
69.23558 604
69.2557 586
69.27581 608
69.29593 585
69.31604 576
69.33615 562
69.35627 621
69.37638 568
69.39649 589
69.41661 653
69.43672 573
69.45683 584
69.47695 598
69.49706 589
69.51718 541
69.53729 583
69.5574 607
69.57752 619
69.59763 623
69.61774 604
69.63786 613
69.65797 588
69.67809 603
69.6982 565
69.71831 599
69.73843 596
69.75854 612
69.77865 591
69.79877 548
69.81888 612
69.839 628
69.85911 609
69.87922 593
69.89934 617
69.91945 613
69.93956 593
69.95968 624
69.97979 634
69.9999 611
70.02002 594
70.04013 605
70.06025 583
70.08036 633
70.10047 597
70.12059 595
70.1407 577
70.16081 605
70.18093 569
70.20104 576
70.22116 601
70.24127 592
70.26138 634
70.2815 613
70.30161 609
70.32172 597
70.34184 600
70.36195 575
70.38207 597
70.40218 586
70.42229 573
70.44241 600
70.46252 583
70.48263 576
70.50275 601
70.52286 586
70.54297 567
70.56309 599
70.5832 561
70.60332 579
70.62343 580
70.64354 569
70.66366 583
70.68377 559
70.70388 574
70.724 562
70.74411 537
70.76423 537
70.78434 600
70.80445 571
70.82457 526
70.84468 578
70.86479 598
70.88491 570
70.90502 563
70.92513 574
70.94525 591
70.96536 553
70.98548 561
71.00559 571
71.0257 544
71.04582 558
71.06593 582
71.08604 594
71.10616 581
71.12627 581
71.14639 559
71.1665 541
71.18661 566
71.20673 576
71.22684 575
71.24695 573
71.26707 597
71.28718 560
71.3073 610
71.32741 581
71.34752 552
71.36764 556
71.38775 575
71.40786 565
71.42798 545
71.44809 575
71.4682 557
71.48832 589
71.50843 588
71.52855 618
71.54866 567
71.56877 585
71.58889 586
71.609 597
71.62911 566
71.64923 593
71.66934 571
71.68946 628
71.70957 600
71.72968 577
71.7498 592
71.76991 570
71.79002 564
71.81014 607
71.83025 610
71.85037 619
71.87048 623
71.89059 611
71.91071 583
71.93082 588
71.95093 626
71.97105 577
71.99116 576
72.01127 612
72.03139 578
72.0515 623
72.07162 612
72.09173 596
72.11184 589
72.13196 556
72.15207 605
72.17218 594
72.1923 587
72.21241 607
72.23253 645
72.25264 589
72.27275 613
72.29287 606
72.31298 558
72.33309 600
72.35321 583
72.37332 612
72.39344 629
72.41355 585
72.43366 608
72.45378 598
72.47389 599
72.494 589
72.51412 565
72.53423 583
72.55434 574
72.57446 584
72.59457 598
72.61469 607
72.6348 570
72.65491 602
72.67503 573
72.69514 581
72.71525 611
72.73537 576
72.75548 631
72.7756 564
72.79571 609
72.81582 582
72.83594 569
72.85605 568
72.87616 600
72.89628 587
72.91639 595
72.9365 597
72.95662 614
72.97673 641
72.99685 577
73.01696 601
73.03707 588
73.05719 572
73.0773 608
73.09741 594
73.11753 546
73.13764 577
73.15776 559
73.17787 540
73.19798 582
73.2181 608
73.23821 592
73.25832 618
73.27844 604
73.29855 598
73.31867 582
73.33878 639
73.35889 635
73.37901 653
73.39912 646
73.41923 653
73.43935 621
73.45946 656
73.47957 650
73.49969 585
73.5198 596
73.53992 690
73.56003 601
73.58014 603
73.60026 623
73.62037 600
73.64048 636
73.6606 570
73.68071 564
73.70083 604
73.72094 572
73.74105 596
73.76117 588
73.78128 608
73.80139 573
73.82151 581
73.84162 610
73.86174 580
73.88185 579
73.90196 555
73.92208 582
73.94219 559
73.9623 574
73.98242 540
74.00253 560
74.02264 535
74.04276 604
74.06287 610
74.08299 613
74.1031 575
74.12321 577
74.14333 573
74.16344 580
74.18355 560
74.20367 578
74.22378 581
74.2439 575
74.26401 592
74.28412 584
74.30424 604
74.32435 564
74.34446 631
74.36458 586
74.38469 602
74.40481 611
74.42492 585
74.44503 568
74.46515 572
74.48526 601
74.50537 615
74.52549 575
74.5456 589
74.56571 591
74.58583 564
74.60594 601
74.62606 587
74.64617 585
74.66628 564
74.6864 582
74.70651 579
74.72662 578
74.74674 573
74.76685 562
74.78697 560
74.80708 544
74.82719 566
74.84731 575
74.86742 550
74.88753 600
74.90765 552
74.92776 574
74.94787 567
74.96799 572
74.9881 560
75.00822 600
