3.00117 23172.1581636308
3.02128 22961.4186540451
3.0414 22284
3.06151 21523.8037398584
3.08162 21279.442954376
3.10174 20468.9464971359
3.12185 20225.2026088358
3.14197 19425.9905172197
3.16208 19087.2730024629
3.18219 18484.528197744
3.20231 17385.7114326716
3.22242 17316.8831629329
3.24253 16832.0880458807
3.26265 16360.2388163423
3.28276 16029.1403651526
3.30288 15360.3967315768
3.32299 15210.1430129637
3.3431 14679
3.36322 14351.6913250338
3.38333 13846.867048433
3.40344 13084.0940172019
3.42356 12901.509382523
3.44367 12452.6195060922
3.46379 12201.0917746566
3.4839 11889
3.50401 11336.8698213648
3.52413 11181.1968862385
3.54424 10340.8572366343
3.56435 10292.5766977375
3.58447 10182.8695861044
3.60458 9401.50967629799
3.62469 9274.0468944661
3.64481 8984.82148575218
3.66492 8723.88056029213
3.68504 8562.14974264568
3.70515 8011.2309635532
3.72526 7912.56610403047
3.74538 7420.32318581376
3.76549 7354.04536001225
3.7856 7042
3.80572 6639.72861093261
3.82583 6484.79873777401
3.84595 6190.67434539028
3.86606 5737.94269901345
3.88617 5988.28252320356
3.90629 5392.15189196033
3.9264 5500
3.94651 5095.81706593765
3.96663 5032.18141787563
3.98674 5015.28561189609
4.00686 4468.74045126833
4.02697 4384.06408979489
4.04708 4202.25272876903
4.0672 4042
4.08731 4091.89591208382
4.10742 3707.80209671899
4.12754 3707.70888048445
4.14765 3367.58658053865
4.16776 3391.71411744256
4.18788 3384.28679523849
4.20799 2996.08822089402
4.22811 3059.01081364176
4.24822 2880.74579757632
4.26833 2744.08294504029
4.28845 2863.95764406087
4.30856 2671.40830361364
4.32867 2574.04587266471
4.34879 2516.0682926008
4.3689 2376
4.38902 2409.87546638747
4.40913 2166.83089708733
4.42924 2220.01936855078
4.44936 2119.13665214689
4.46947 2175.80092925611
4.48958 2227.14035032711
4.5097 1968
4.52981 1961.05542723238
4.54992 2037.95648758431
4.57004 1916.86283457626
4.59015 1902.21770312151
4.61027 1763.06239233936
4.63038 1839.93244596828
4.65049 1801.05749441697
4.67061 1732.03517785988
4.69072 1820.89334516074
4.71083 1569.80762329193
4.73095 1657.32922756422
4.75106 1693.06369585396
4.77118 1637.06473249755
4.79129 1544.07694850519
4.8114 1407
4.83152 1503.0556295409
4.85163 1464.93412064737
4.87174 1451.9359537235
4.89186 1398.0548407522
4.91197 1384.09101807119
4.93209 1325.97220422715
4.9522 1443
4.97231 1311.92298386192
4.99243 1249.0347857664
5.01254 1300.05164386671
5.03265 1279.09190728421
5.05277 1263.97930379215
5.07288 1271.04246598195
5.09299 1198.02034098459
5.11311 1205.00403043134
5.13322 1193.99639464112
5.15334 1213.06070604547
5.17345 1209.82435028628
5.19356 1114.08833527835
5.21368 1122.01486731592
5.23379 1067.01828130858
5.2539 1085
5.27402 1100.93542927651
5.29413 1014.99773821652
5.31425 1085.05858962904
5.33436 1002.26072481368
5.35447 927.955111889923
5.37459 1032.94884095679
5.3947 1057
5.41481 970.964721644061
5.43493 934.958500979935
5.45504 916.034175390752
5.47516 935.081132624394
5.49527 867.001690867758
5.51538 924.985348533378
5.5355 876
5.55561 884.993575099914
5.57572 843.986068671843
5.59584 853.952279554067
5.61595 815.93547030466
5.63606 869.069056335629
5.65618 754.07168261307
5.67629 782.967849637581
5.69641 824.011661768523
5.71652 827.976690408304
5.73663 791.961443506701
5.75675 798.092021613076
5.77686 814.111313364751
5.79697 732.016867485522
5.81709 793.979880112527
5.8372 764
5.85732 744.027465654797
5.87743 765.925529790656
5.89754 666.881530971248
5.91766 684.910503243666
5.93777 712.973576271892
5.95788 742.942052790408
5.978 787
5.99811 698.962711692623
6.01823 678.002652607135
6.03834 684.045554862491
6.05845 716.942003458272
6.07857 720.012587063039
6.09868 705.025352241077
6.11879 700.973450616999
6.13891 768.000387096436
6.15902 726.018257827395
6.17913 770.903037619927
6.19925 621.822881674079
6.21936 676.864733962415
6.23948 680.026483174834
6.25959 661.004645862172
6.2797 663
6.29982 664.969672380433
6.31993 619.969938423921
6.34004 646.108246852028
6.36016 690.969906048644
6.38027 688.979782665365
6.40039 691.034541486794
6.4205 598
6.44061 663.009941777745
6.46073 613.965021182876
6.48084 662.141978952354
6.50095 682.143970140286
6.52107 598.047559035254
6.54118 648.914599726514
6.56129 699.004252237633
6.58141 662.995311224863
6.60152 679.989417136826
6.62164 643.989762519932
6.64175 670.004040565181
6.66186 646.984883385289
6.68198 672.025871417672
6.70209 604.01609164836
6.7222 627
6.74232 613.981318707797
6.76243 619.046202739177
6.78255 653.029910210782
6.80266 662.895647881293
6.82277 722.022484214657
6.84289 633.040533330911
6.863 612
6.88311 617.996213704056
6.90323 588.925912473656
6.92334 558.052190528032
6.94346 616.943682516959
6.96357 604.002876380197
6.98368 623.999723883312
7.0038 605
7.02391 635.008403151294
7.04402 629.000401445054
7.06414 646.028993206467
7.08425 632.12287323767
7.10436 580.029386163431
7.12448 614.943325576232
7.14459 653.995609221194
7.16471 622.966076253405
7.18482 567.002964055405
7.20493 609.021692782559
7.22505 585.989092756067
7.24516 622.910973149956
7.26527 641.014633731638
7.28539 614.0160681631
7.3055 588
7.32562 582.016151737845
7.34573 608.02256900021
7.36584 603.978379899051
7.38596 598.003212049702
7.40607 604.96957958802
7.42618 626.993032266109
7.4463 613
7.46641 588.988160152492
7.48653 581.035158452701
7.50664 610.991454845604
7.52675 571.089666282725
7.54687 559.010849996847
7.56698 554.983020386259
7.58709 588.985625989149
7.60721 598.999692813064
7.62732 595.994611348773
7.64743 590.997429973671
7.66755 595.023257856641
7.68766 602.999470875809
7.70778 598.998500757659
7.72789 595.015075795862
7.748 558
7.76812 578.995149709134
7.78823 538.948483638178
7.80834 549.105911586723
7.82846 596.015260425015
7.84857 551.025368248954
7.86869 579.98640485386
7.8888 587
7.90891 613.004514678512
7.92903 596.967138982911
7.94914 585.996144967953
7.96925 590.970857104583
7.98937 587.062578334103
8.00948 540.993801049813
8.0296 602
8.04971 609.977101160624
8.06982 560.999435112008
8.08994 594.000938253931
8.11005 556.965689181532
8.13016 592.897666640186
8.15028 616.015045919541
8.17039 584.008822288944
8.1905 592
8.21062 585.967799896903
8.23073 556.011063735064
8.25085 602.126960698121
8.27096 619.045297951757
8.29107 588.998926361254
8.31119 612.999204916001
8.3313 593
8.35141 619.999857582751
8.37153 573.909097745492
8.39164 557.109771112684
8.41176 619.049707027771
8.43187 535.032402309626
8.45198 617.892406628767
8.4721 655
8.49221 563.966897188091
8.51232 553.011130969292
8.53244 564.043449257153
8.55255 602.873291228333
8.57266 639.002059653494
8.59278 607.034197988465
8.61289 593.998249215469
8.63301 598.998126328674
8.65312 581.975621804299
8.67323 581.071433435169
8.69335 634.980539435166
8.71346 566.121840796397
8.73357 568.917700079434
8.75369 619.998847830905
8.7738 586
8.79392 604.002771655401
8.81403 586.002958910362
8.83414 617.056751303705
8.85426 613.069543595131
8.87437 585.972804121682
8.89448 624.005242196754
8.9146 573
8.93471 573.999375331441
8.95483 556.989314216416
8.97494 565.006037751874
8.99505 559.990021368216
9.01517 573.988285049483
9.03528 575.987429024668
9.05539 589.006682863776
9.07551 566.00557915561
9.09562 590.97477006322
9.11573 526.959644607265
9.13585 563.124323273854
9.15596 585.992438094995
9.17608 571.041332409417
9.19619 538.989320099219
9.2163 594
9.23642 575.991536446474
9.25653 593.009979035239
9.27664 560.873632431219
9.29676 514.972826078512
9.31687 567.954715456544
9.33699 558.002854477202
9.3571 559
9.37721 524.020514861922
9.39733 616.060443920645
9.41744 581.940498745658
9.43755 585.034234376303
9.45767 536.078572845032
9.47778 516.979809223205
9.4979 557
9.51801 573.005295119944
9.53812 578.989211334761
9.55824 551.939571018793
9.57835 539.030929957283
9.59846 558.996806534657
9.61858 527.054650231665
9.63869 502.975040980061
9.6588 576
9.67892 517.990849341266
9.69903 569.022656370007
9.71915 525.930513810773
9.73926 536.004437472836
9.75937 528.931428104235
9.77949 596.000995579378
9.7996 534
9.81971 570.007552635343
9.83983 539.970092119592
9.85994 555.040320800999
9.88006 553.043618246788
9.90017 533.993463792918
9.92028 558.977910472728
9.9404 567
9.96051 563.984758665526
9.98062 521.981738124621
10.00074 533.022289201096
10.02085 536.954290477938
10.04097 563.987951613499
10.06108 556.99057186918
10.08119 583.993071401844
10.10131 561.975048636484
10.12142 523.003718843592
10.14153 548.9945762324
10.16165 505.899245517669
10.18176 499.962576748615
10.20187 525.962015727854
10.22199 538.003269391171
10.2421 520
10.26222 526.038847611431
10.28233 565.998483131309
10.30244 534.983526102965
10.32256 574.879306625117
10.34267 609.018867423288
10.36278 575.009692992799
10.3829 587
10.40301 553.000996417178
10.42313 581.98744840199
10.44324 530.930794037427
10.46335 532.998374125521
10.48347 531.947215423899
10.50358 576.01327337902
10.52369 518.011782622238
10.54381 569.043267705117
10.56392 611.957834001949
10.58403 527.939142157431
10.60415 557.101987258084
10.62426 561.0483150085
10.64438 542.986127629169
10.66449 561.015735389273
10.6846 502
10.70472 551.04251938397
10.72483 544.952333281262
10.74494 527.025911676198
10.76506 550.010384164201
10.78517 533.957235234621
10.80529 595.985974119398
10.8254 566
10.84551 543.998677949805
10.86563 556.03887893988
10.88574 569.95308289311
10.90585 526.053285266876
10.92597 546.939597928353
10.94608 567.017457029965
10.9662 534
10.98631 556.01037806865
11.00642 556.994597448579
11.02654 552.98378181835
11.04665 545.987429285695
11.06676 563.95836587394
11.08688 578.989786201006
11.10699 600.975608673478
11.1271 655
11.14722 621.928095522178
11.16733 549.929082360652
11.18745 536.011438894743
11.20756 558.889003263172
11.22767 611.004502972268
11.24779 571.003591022881
11.2679 601
11.28801 565.992452761999
11.30813 596.065615489453
11.32824 611.954541530965
11.34836 577.018644904806
11.36847 600.958817536173
11.38858 605.016866624977
11.4087 593
11.42881 598.966968958135
11.44892 510.000177299643
11.46904 605.167522194079
11.48915 619.025638757084
11.50927 622.984325750137
11.52938 625.013656101541
11.54949 606.003246721783
11.56961 613.001881017523
11.58972 620.033230902787
11.60983 663.018975263956
11.62995 655.051177943963
11.65006 701.956763081637
11.67017 666.111534419443
11.69029 615.990348284018
11.7104 678
11.73052 669.007855378037
11.75063 696.989038695599
11.77074 666.024347833868
11.79086 722.928514579962
11.81097 708.045257357354
11.83108 694.998598976534
11.8512 696
11.87131 705.036904378062
11.89143 798.030820568109
11.91154 740.901470092667
11.93165 743.961562639193
11.95177 754.955347340334
11.97188 792.988302955548
11.99199 780.999396182523
12.01211 805.009619061859
12.03222 803.990411331618
12.05234 804.032345675111
12.07245 828.041668643387
12.09256 827.028436832645
12.11268 819.983727408384
12.13279 850.989675827807
12.1529 845
12.17302 830.013564287554
12.19313 856.004334890732
12.21324 844.033019522092
12.23336 871.048406143459
12.25347 813.018515129989
12.27359 868.966444998789
12.2937 888
12.31381 858.014690506024
12.33393 914.993088193654
12.35404 857.976996895843
12.37415 889.067161830538
12.39427 813.02252315824
12.41438 858.006073242502
12.4345 782
12.45461 795.014758871557
12.47472 782.93763029279
12.49484 723.010070067778
12.51495 780.9101081342
12.53506 738.208259575701
12.55518 650.010029628775
12.57529 705.97584871665
12.5954 704
12.61552 671.938052421968
12.63563 606.970210133774
12.65575 636.085826362213
12.67586 646.002492806457
12.69597 635.04879183596
12.71609 588.020796344842
12.7362 565
12.75631 570.014043041658
12.77643 596.989795655562
12.79654 577.039653436978
12.81666 620.008151625243
12.83677 569.041473691317
12.85688 580.004983883116
12.877 553
12.89711 568.986153128058
12.91722 511.98833498699
12.93734 552.047728217216
12.95745 530.074843482167
12.97757 525.972610510856
12.99768 560.950760720702
13.01779 594.006135908495
13.03791 530.955214401431
13.05802 477.021446559232
13.07813 533.015031467809
13.09825 489.942173141527
13.11836 516.930642943858
13.13847 522.030149567503
13.15859 504.994967568815
13.1787 526
13.19882 485.966396181755
13.21893 493.066634392567
13.23904 526.956697537892
13.25916 475.02249373281
13.27927 514.953258740202
13.29938 501.035598296544
13.3195 482
13.33961 519.019018234247
13.35973 534.989747869179
13.37984 514.954454033411
13.39995 499.023319001967
13.42007 498.981220887852
13.44018 505.022897868573
13.46029 472.999198592644
13.48041 511.017137822816
13.50052 518.998491692748
13.52064 510.943395476531
13.54075 492.085239463475
13.56086 558.930376828667
13.58098 538.036520179004
13.60109 528.989103487088
13.6212 555
13.64132 546.029010358099
13.66143 587.973907932256
13.68154 524.954869236103
13.70166 542.058936932094
13.72177 468.04427539896
13.74189 503.983194925455
13.762 498
13.78211 487.990186524173
13.80223 465.997645607887
13.82234 482.016344743363
13.84245 481.958738041544
13.86257 501.026448528827
13.88268 449.044183219866
13.9028 449
13.92291 484.997662368489
13.94302 449.982537622687
13.96314 466.035938698175
13.98325 471.972275447424
14.00336 484.01754148829
14.02348 458.017549943736
14.04359 457.000833731809
14.06371 452.003162130307
14.08382 471.018207934155
14.10393 468.957248177749
14.12405 435.978100815865
14.14416 466.885408958983
14.16427 509.004156244842
14.18439 477.00798919342
14.2045 486
14.22461 464.99403895477
14.24473 481.05225114899
14.26484 494.924102614708
14.28496 441.998291136078
14.30507 489.969974853428
14.32518 464.014947116546
14.3453 479
14.36541 462.992314587524
14.38552 458.994996505485
14.40564 461.058936139193
14.42575 492.036157990802
14.44587 460.957587148151
14.46598 521.012472076934
14.48609 427.039717504868
14.50621 423.018818219803
14.52632 454.009411717906
14.54643 452.016801103826
14.56655 474.01392156484
14.58666 457.03698954274
14.60677 457.968940336819
14.62689 484.990447882304
14.647 480
14.66712 451.005233177631
14.68723 472.984625358771
14.70734 440.005398257904
14.72746 474.989511582113
14.74757 454.968680696405
14.76768 495.029361021776
14.7878 419
14.80791 482.01618523965
14.82803 448.955513506725
14.84814 456.017885848438
14.86825 448.022520434842
14.88837 461.932616940145
14.90848 504.003698872135
14.92859 459.01940832833
14.94871 470.028738311071
14.96882 530.02083082013
14.98894 496.878995888476
15.00905 453.985899834964
15.02916 477.947367846782
15.04928 476.034059166238
15.06939 445.992726173965
15.0895 494
15.10962 485.986971218356
15.12973 499.056574907716
15.14984 519.927256930762
15.16996 455.046175187985
15.19007 486.9538937259
15.21019 482.009574301772
15.2303 479
15.25041 502.996806487841
15.27053 474.987289866084
15.29064 494.027334849823
15.31075 487.025823170319
15.33087 474.048058424734
15.35098 447.977843948618
15.3711 498
15.39121 458.975800355378
15.41132 454.047631841346
15.43144 501.972496786292
15.45155 436.11477648357
15.47166 452.897211327301
15.49178 485.013603472964
15.51189 448.005835427883
15.53201 475.015172663445
15.55212 474.970759400116
15.57223 440.977590459197
15.59235 449.028932085493
15.61246 451.997171604418
15.63257 462.963346497868
15.65269 476.013797970314
15.6728 423
15.69291 416.99242928822
15.71303 408.07380751125
15.73314 482.025387041359
15.75326 441.996867201302
15.77337 497.95670514827
15.79348 472.02714318566
15.8136 458
15.83371 411.002007588385
15.85382 457.020818860369
15.87394 436.980263390772
15.89405 452.983308320137
15.91417 433.043033539179
15.93428 425.972508075202
15.95439 461.997439142866
15.97451 444.002939672457
15.99462 474.007288133889
16.01473 437.920246351237
16.03485 413.058624052718
16.05496 456.968126730629
16.07508 448.98006953975
16.09519 489.00012665981
16.1153 443
16.13542 449.027732581471
16.15553 450.924315746511
16.17564 394.019437978905
16.19576 456.941816098632
16.21587 424.055372301461
16.23598 429.962133232066
16.2561 459
16.27621 430.001553348181
16.29633 471.050578989826
16.31644 462.920424893107
16.33655 431.977115657817
16.35667 463.990502338262
16.37678 444.995482244973
16.39689 473.997346697173
16.41701 445.988666463853
16.43712 460.043715434398
16.45724 489.958175441892
16.47735 447.001814415403
16.49746 476.047164313674
16.51758 415.001837709399
16.53769 477.98169555032
16.5578 453
16.57792 450.004201506417
16.59803 440.967581344648
16.61814 433.063091380058
16.63826 483.953288941836
16.65837 458.076119150267
16.67849 429.990725045882
16.6986 467
16.71871 437.996118580909
16.73883 463.023864356768
16.75894 441.911562910299
16.77905 425.874022916339
16.79917 504.954099173428
16.81928 457.079786843171
16.8394 410
16.85951 447.014761528311
16.87962 450.999125533285
16.89974 460.025632988987
16.91985 463.036357651715
16.93996 446.98693197475
16.96008 467.996924348561
16.98019 453.998929444101
17.00031 470.998620099488
17.02042 450.999867168848
17.04053 460.960272771837
17.06065 422.048465278131
17.08076 488.935452284597
17.10087 462.044231468943
17.12099 457.004960168638
17.1411 438
17.16121 457.009933205512
17.18133 453.95604588621
17.20144 419.973601958473
17.22156 454.830888696528
17.24167 515.062634359912
17.26178 404.068958503092
17.2819 423
17.30201 432.992430561914
17.32212 431.041849042905
17.34224 486.012040638136
17.36235 451.015518786207
17.38247 482.985313583502
17.40258 459.008891855683
17.42269 475.997612407759
17.44281 466.005375419385
17.46292 493.00304081432
17.48303 466.969858803899
17.50315 472.03703349372
17.52326 476.024553626519
17.54338 455.01647804772
17.56349 455.990773814669
17.5836 469
17.60372 450.026091136659
17.62383 502.014914842277
17.64394 465.962997915376
17.66406 475.032875065486
17.68417 437.003292800805
17.70428 474.975113883293
17.7244 470
17.74451 478.990980906763
17.76463 442.985383130826
17.78474 465.031045792486
17.80485 461.989240754065
17.82497 473.013493303978
17.84508 451.998034046873
17.86519 484.981597959818
17.88531 487.979120472643
17.90542 435.983944993601
17.92554 462.057180266354
17.94565 460.94018077879
17.96576 442.979164171739
17.98588 471.98478666698
18.00599 465.002765185565
18.0261 464
18.04622 453.037694667029
18.06633 507.996562837542
18.08645 455.950041557869
18.10656 489.943034996179
18.12667 475.055890002496
18.14679 449.999364634925
18.1669 464
18.18701 456.009797598213
18.20713 495.022375270284
18.22724 475.960269243562
18.24735 473.995229647495
18.26747 472.994895014685
18.28758 471.024481848062
18.3077 445
18.32781 486.012468903231
18.34792 472.972635476996
18.36804 458.001963865228
18.38815 461.030703318327
18.40826 446.969314059615
18.42838 479.992705060833
18.44849 452.014730191725
18.46861 448.007517585209
18.48872 475.037995861505
18.50883 506.009150445714
18.52895 481.895607227953
18.54906 466.911081613496
18.56917 532.975590407165
18.58929 488.023179467429
18.6094 483
18.62951 492.990669507103
18.64963 468.014870142668
18.66974 489.940501906411
18.68986 424.043517035938
18.70997 456.97182947998
18.73008 445.987518458152
18.7502 490
18.77031 482.989708262466
18.79042 477.01395202208
18.81054 509.084997559922
18.83065 526.094219425634
18.85077 467.025660324645
18.87088 491.995709576499
18.89099 470.993992297915
18.91111 517.011068101425
18.93122 486.947000451229
18.95133 456.011755675477
18.97145 493.099596578239
18.99156 508.024327399725
19.01168 490.99738980862
19.03179 513.990234974467
19.0519 506
19.07202 478.016878317774
19.09213 513.988716200372
19.11224 472.995916561446
19.13236 520.927617696543
19.15247 516.022007327336
19.17258 509.01329102714
19.1927 504
19.21281 556.012659955639
19.23293 535.94307317333
19.25304 518.026308007586
19.27315 554.895808213595
19.29327 567.050844485392
19.31338 531.974464926281
19.33349 594.992493890237
19.35361 547.981179731444
19.37372 559.028298268601
19.39384 575.010020512564
19.41395 574.998356416324
19.43406 575.004740289863
19.45418 572.995818795518
19.47429 601.966909726152
19.4944 664
19.51452 608.944237286445
19.53463 604.062402862654
19.55475 653.052122425545
19.57486 642.023421640392
19.59497 652.961149505193
19.61509 678.990769637008
19.6352 694
19.65531 746.045458967531
19.67543 821.993455946699
19.69554 764.965346822523
19.71565 820.824652144519
19.73577 875.898450154938
19.75588 958.929098926109
19.776 995
19.79611 994.008797328586
19.81622 1040.06002363578
19.83634 1073.96196307203
19.85645 1046.90806336738
19.87656 1145.82682478997
19.89668 1171.01261743836
19.91679 1140.02689539729
19.93691 1111.02440473663
19.95702 1207.05870627708
19.97713 1187.91872024679
19.99725 1143.9248633278
20.01736 1124.03248581249
20.03747 1112.00026669367
20.05759 1129.98262597534
20.0777 1145
20.09782 1062.92676890435
20.11793 1046.05711796851
20.13804 1092.01538753523
20.15816 1060.05371314978
20.17827 1053.02470001271
20.19838 1021.02359190738
20.2185 1016
20.23861 1037.03504447685
20.25872 1093.95212245722
20.27884 970.84799829662
20.29895 992.873833179118
20.31907 1013.00040578063
20.33918 1002.02234670603
20.35929 969.020809587997
20.37941 945.009366957504
20.39952 974.984630794985
20.41963 929.996651161236
20.43975 975.061660182627
20.45986 957.031828482983
20.47998 943.056530799064
20.50009 898.965474004378
20.5202 1013
20.54032 901.984320077138
20.56043 993.022261038382
20.58054 907.946815408462
20.60066 983.871913150342
20.62077 960.11199373736
20.64088 882.069559134796
20.661 874
20.68111 1000.01858315385
20.70123 935.910051376264
20.72134 963.185761583932
20.74145 1060.84846332789
20.76157 1063.05666557067
20.78168 1036.98090801238
20.80179 1114.94182787775
20.82191 1204.00693122537
20.84202 1183.03107756899
20.86214 1220.82510862245
20.88225 1048.79362749335
20.90236 1080.99921685872
20.92248 1004.0527693601
20.94259 1006.00664779999
20.9627 965
20.98282 992.013164214958
21.00293 964.936279850639
21.02305 960.153645312765
21.04316 1036.97758696356
21.06327 978.079716821929
21.08339 973.993437696385
21.1035 977
21.12361 967.989341943089
21.14373 953.024149063015
21.16384 967.914026606468
21.18395 885.116109328887
21.20407 891.996342240851
21.22418 896.92752482256
21.2443 984
21.26441 876.970184977304
21.28452 907.027083797568
21.30464 890.985838199606
21.32475 910.96732303538
21.34486 896.060492114483
21.36498 874.999460050414
21.38509 872.021822445142
21.40521 826.013983364841
21.42532 906.033463554167
21.44543 864.93129305715
21.46555 862.046631933173
21.48566 891.897238299427
21.50577 937.001062009546
21.52589 918.983785090198
21.546 968
21.56612 867.961786299841
21.58623 928.105986011811
21.60634 946.982257383033
21.62646 917.135160096916
21.64657 847.028307060666
21.66668 874.982750370675
21.6868 841
21.70691 801.016835289054
21.72702 860.99301936019
21.74714 797.97004463885
21.76725 841.974682523371
21.78737 783.105153394236
21.80748 752.995379422761
21.82759 774.986220376006
21.84771 790.999273427244
21.86782 784.005105456697
21.88793 803.025398055763
21.90805 795.907051896103
21.92816 762.975014446396
21.94828 814.955879353417
21.96839 829.994470112229
21.9885 829
22.00862 770.999163001917
22.02873 824.053016156469
22.04884 805.927136272235
22.06896 773.082817538673
22.08907 720.081118670436
22.10919 694.987577381612
22.1293 739
22.14941 721.003862224611
22.16953 762.039848126529
22.18964 752.962483228218
22.20975 731.109217347522
22.22987 693.973310279785
22.24998 744.986098904525
22.27009 716.003748464794
22.29021 734.993063156562
22.31032 675.943412285244
22.33044 679.146740725453
22.35055 751.975642525169
22.37066 672.109992984805
22.39078 697.931045528705
22.41089 746.000072873508
22.431 715
22.45112 725.007392670853
22.47123 713.977217826007
22.49135 709.014131070987
22.51146 725.94361103142
22.53157 757.958602805481
22.55169 766.009558642001
22.5718 733
22.59191 719.992244005797
22.61203 702.997264132613
22.63214 704.956216689479
22.65225 687.888830767556
22.67237 765.961180691276
22.69248 709.084802150769
22.7126 666
22.73271 689.984157739326
22.75282 633.013234593642
22.77294 713.095480592753
22.79305 702.988825625579
22.81316 734.006567422369
22.83328 709.970028473335
22.85339 775.995738430095
22.87351 727.994951705621
22.89362 767.005218312204
22.91373 720.952073733327
22.93385 716.933759277025
22.95396 676.986540082407
22.97407 720.982355414708
22.99419 693.002834857113
23.0143 721
23.03442 692.96204770713
23.05453 678.019009320899
23.07464 696.998641332586
23.09476 673.049311367835
23.11487 660.016399488274
23.13498 658.973444959006
23.1551 703
23.17521 708.995521099819
23.19532 696.985009350408
23.21544 693.042446758793
23.23555 717.025667420283
23.25567 683.015057584207
23.27578 711.964727984856
23.29589 726.001344141624
23.31601 719.999709147338
23.33612 721.993088445683
23.35623 709.997511966759
23.37635 706.92191438055
23.39646 658.056506954414
23.41658 680.932985427875
23.43669 765.958834674272
23.4568 829
23.47692 847.980564376684
23.49703 822.016961466938
23.51714 867.062464674346
23.53726 863.027760592913
23.55737 869.95036466663
23.57749 893.014550269708
23.5976 842
23.61771 901.026757795239
23.63783 890.89818222887
23.65794 843.089691256517
23.67805 924.033073578525
23.69817 815.113274306088
23.71828 834.950748610042
23.73839 854.002578720464
23.75851 830.979750586212
23.77862 778.943247471461
23.79874 746.027823237369
23.81885 788.070971101577
23.83896 789.992687865435
23.85908 800.007404804352
23.87919 768.019804513066
23.8993 746
23.91942 764.008953198999
23.93953 749.956986001203
23.95965 739.078046550919
23.97976 784.983808809848
23.99987 758.0108671242
24.01999 784.989679374964
24.0401 765
24.06021 727.012036259745
24.08033 790.049269596995
24.10044 769.944885430353
24.12056 754.059599177013
24.14067 719.007725769039
24.16078 743.979716016776
24.1809 757
24.20101 791.986475030544
24.22112 722.969075780125
24.24124 757.093192310798
24.26135 769.045653722726
24.28146 766.888053247178
24.30158 836.006202218457
24.32169 770.010917374023
24.34181 826.031764326491
24.36192 817.91071713448
24.38203 728.00141409796
24.40215 790.006186010318
24.42226 735.974305620068
24.44237 828.906166236278
24.46249 812.017883913502
24.4826 814
24.50272 849.002672618036
24.52283 831.006053607241
24.54294 864.052396213375
24.56306 871.973290784809
24.58317 891.994397338633
24.60328 887.980414208176
24.6234 929
24.64351 933.000930609279
24.66362 934.982256809204
24.68374 889.881203631443
24.70385 859.920944159541
24.72397 919.966113237271
24.74408 882.055959671952
24.76419 865.979962529881
24.78431 932.022356457623
24.80442 952.037679768405
24.82453 965.858971425805
24.84465 836.986810056101
24.86476 941.913023926901
24.88488 863.091331875353
24.90499 852.971891222199
24.9251 901
24.94522 839.986296466878
24.96533 894.081986059016
24.98544 894.917870883468
25.00556 862.965653103294
25.02567 901.014095611786
25.04579 843.019408853677
25.0659 843
25.08601 826.010967154487
25.10613 862.970616930142
25.12624 804.986590144575
25.14635 855.936866665864
25.16647 814.101109999395
25.18658 779.982386118816
25.20669 831.974799426664
25.22681 834.972465268516
25.24692 764.969851367173
25.26704 780.023440655723
25.28715 768.987444164059
25.30726 786.941863389689
25.32738 782.072523469667
25.34749 707.987245424443
25.3676 792
25.38772 691.926615358791
25.40783 724.136701552213
25.42795 802.093170501381
25.44806 779.151818789717
25.46817 709.016645704317
25.48829 738.999813272627
25.5084 705
25.52851 745.013384513112
25.54863 737.990477993893
25.56874 757.069260744699
25.58886 777.031737654765
25.60897 738.042079483131
25.62908 741.976556640281
25.6492 770
25.66931 810.03035957626
25.68942 860.999027616514
25.70954 810.891759279717
25.72965 799.911423224204
25.74976 842.983860671172
25.76988 808.043364987111
25.78999 765.033684992738
25.81011 718.022170980434
25.83022 796.985651797252
25.85033 677.839564328301
25.87045 664.114410979006
25.89056 696.044674903153
25.91067 656.966469005837
25.93079 723.992033228942
25.9509 667
25.97102 653.999785431282
25.99113 642.977958394849
26.01124 642.046483850926
26.03136 681.924596767808
26.05147 694.028847845362
26.07158 663.017269607999
26.0917 669
26.11181 671.99487642716
26.13193 667.032210546595
26.15204 688.950376144461
26.17215 652.91018770682
26.19227 719.044138688287
26.21238 603.06672720955
26.23249 639.969929578401
26.25261 657.995133476082
26.27272 645.996723416886
26.29283 658.034380706177
26.31295 679.025282912979
26.33306 677.013438077458
26.35318 667.01906957252
26.37329 653.992814489448
26.3934 689
26.41352 706.032166938527
26.43363 754.057445439755
26.45374 775.040966497751
26.47386 823.824202733281
26.49397 935.838415075543
26.51409 1040.93548634219
26.5342 1204
26.55431 1425.15642401028
26.57443 1780.43791190602
26.59454 1932.06345148625
26.61465 1902.13695940076
26.63477 1852.07678796464
26.65488 1728.25963278574
26.67499 1414.1085251584
26.69511 1292.91447163443
26.71522 1045.80242532543
26.73534 932.774278962594
26.75545 800.793621809411
26.77556 772.073121727684
26.79568 721.009184934244
26.81579 754.988830794532
26.8359 748
26.85602 760.99370344412
26.87613 727.947278777384
26.89625 734.166418671896
26.91636 800.0328451231
26.93647 734.997684349712
26.95659 812.975817979811
26.9767 788
26.99681 768.98375521621
27.01693 737.021840435341
27.03704 784.038755508927
27.05716 757.064324873229
27.07727 748.992629880694
27.09738 729.071076063724
27.1175 660
27.13761 750.038843563361
27.15772 752.952614485687
27.17784 709.984859789599
27.19795 729.97748751897
27.21806 719.00316589758
27.23818 737.978962276342
27.25829 734.018891600833
27.27841 713.027818402854
27.29852 805.027304867879
27.31863 760.967019307337
27.33875 801.122790370328
27.35886 835.902484079966
27.37897 910.874793659147
27.39909 969.991324641281
27.4192 990
27.43932 1105.05321195707
27.45943 1075.94040993531
27.47954 1068.99679089168
27.49966 1049.0682233787
27.51977 1033.94939070942
27.53988 1063.05933148485
27.56 938
27.58011 948.022933281005
27.60023 958.942248375988
27.62034 896.911246249637
27.64045 893.944803807438
27.66057 920.958262492743
27.68068 938.999030665764
27.70079 928.005356571384
27.72091 923.998552072102
27.74102 910.971514202847
27.76113 898.058910122796
27.78125 940.902597033995
27.80136 847.070617157802
27.82148 861.057947753435
27.84159 746.01703537407
27.8617 798
27.88182 724.947670966446
27.90193 718.951836100987
27.92204 672.04478285418
27.94216 740.984331344671
27.96227 670.090100518908
27.98239 667.992862991312
28.0025 641
28.02261 568.011048162698
28.04273 645.01097464496
28.06284 571.919610283118
28.08295 587.04860615981
28.10307 531.005928053999
28.12318 588.959211199602
28.1433 581
28.16341 591.002187141799
28.18352 569.959369924031
28.20364 530.95807408502
28.22375 538.073137204689
28.24386 564.989467845785
28.26398 541.04159534003
28.28409 526.976129710635
28.3042 597
28.32432 550.953462910149
28.34443 535.97997345996
28.36455 520.018543941559
28.38466 553.925701711354
28.40477 558.064220911714
28.42489 503.008887248528
28.445 536
28.46511 570.012545038739
28.48523 574.951716000055
28.50534 517.896375232025
28.52546 506.926937745007
28.54557 556.9665831833
28.56568 548.00299732205
28.5858 552
28.60591 496.975935800249
28.62602 486.020893408315
28.64614 523.084566077928
28.66625 551.983380031521
28.68636 548.983228486661
28.70648 562.010471008049
28.72659 533.007073337045
28.74671 529.985730209073
28.76682 492.005865407567
28.78693 548.088646744512
28.80705 561.916035721099
28.82716 523.99263453765
28.84727 555.998112739479
28.86739 514.019115049809
28.8875 508
28.90762 514.004555450852
28.92773 523.027241925842
28.94784 544.024790897656
28.96796 543.016126319984
28.98807 524.059730058213
29.00818 506.940062753614
29.0283 593
29.04841 514.970804075178
29.06853 523.028833476664
29.08864 522.004500918238
29.10875 522.077616302941
29.12887 481.000356840919
29.14898 515.986229548281
29.16909 499.998994385705
29.18921 526.003976049543
29.20932 497.960070674694
29.22943 484.039735720465
29.24955 527.051806620617
29.26966 515.03385740649
29.28978 504.02167664472
29.30989 491.982499521677
29.33 538
29.35012 477.991209070855
29.37023 535.065430926899
29.39034 514.88867556812
29.41046 482.952111328455
29.43057 528.996944902271
29.45069 489.006874038765
29.4708 523
29.49091 512.972617310919
29.51103 468.029924578226
29.53114 531.05833700476
29.55125 511.020743771482
29.57137 536.96742694093
29.59148 533.012826510669
29.6116 526
29.63171 522.997910301671
29.65182 514.987083991476
29.67194 502.992292937224
29.69205 518.093662050496
29.71216 567.905045704512
29.73228 592.007065654274
29.75239 569.008029606049
29.7725 592
29.79262 664.014384243035
29.81273 621.940550845313
29.83285 619.025096471236
29.85296 626.971413158356
29.87307 641.998054171002
29.89319 625.012658001934
29.9133 607
29.93341 615.006675601319
29.95353 612.953365741922
29.97364 567.94108123403
29.99376 581.88766170289
30.01387 630.01533541667
30.03398 591.984995316565
30.0541 641
30.07421 557.976376544633
30.09432 587.045349765614
30.11444 591.934333640322
30.13455 567.926916601561
30.15467 626.969490828208
30.17478 590.044567903626
30.19489 567.01058502317
30.21501 552.007918824232
30.23512 577.990694380722
30.25523 546.004981220621
30.27535 578.998102409636
30.29546 545.006586807996
30.31557 579.974482196064
30.33569 551.023297574374
30.3558 530
30.37592 550.965661566664
30.39603 494.01421335363
30.41614 566.083562349271
30.43626 540.078231846528
30.45637 533.971267063843
30.47648 559.977973739958
30.4966 558
30.51671 524.006459454525
30.53683 581.079009712756
30.55694 584.916259236531
30.57705 533.070129154764
30.59717 550.920573481958
30.61728 582.037655129885
30.63739 516.00322970649
30.65751 574.019692598387
30.67762 581.042778689246
30.69773 648.015834245527
30.71785 599.928112157416
30.73796 611.011453626297
30.75808 578.013780880163
30.77819 605.977093204267
30.7983 630
30.81842 595.981601159166
30.83853 604.01568217001
30.85864 590.923044252542
30.87876 553.016897056456
30.89887 577.949263196486
30.91899 589.00969546444
30.9391 566
30.95921 583.986184156872
30.97933 524.97012472885
30.99944 552.024444156314
31.01955 529.042180479988
31.03967 532.006640088962
31.05978 521.986278851548
31.0799 547
31.10001 520.001829581316
31.12012 555.015177665727
31.14024 535.966456600504
31.16035 534.026560372132
31.18046 502.083921945253
31.20058 479.982711232804
31.22069 536.961475633766
31.2408 574
31.26092 490.965559635295
31.28103 528.068771785764
31.30115 541.000341563922
31.32126 540.02113151885
31.34137 524.012844675826
31.36149 524.001509860516
31.3816 509
31.40171 486.994564650133
31.42183 492.025384323591
31.44194 505.999807113371
31.46206 498.991317797803
31.48217 516.976657856345
31.50228 521.997884457446
31.5224 510
31.54251 464.002220158159
31.56262 520.05715383917
31.58274 538.981293355781
31.60285 517.071176421592
31.62297 496.007298329571
31.64308 498.008899365087
31.66319 478.006601556804
31.68331 489.017418933146
31.70342 518.996212733854
31.72353 489.974700592333
31.74365 501.044289550214
31.76376 507.006647904015
31.78387 501.006798492398
31.80399 502.995255420078
31.8241 521
31.84422 536.986943708293
31.86433 501.953667719667
31.88444 494.016799052508
31.90456 502.005427633337
31.92467 498.974075367017
31.94478 527.988962214765
31.9649 524
31.98501 544.993219600225
32.00513 504.976248317862
32.02524 523.023076182623
32.04535 515.99374834036
32.06547 530.996667036697
32.08558 510.029172652124
32.10569 503.983062981657
32.12581 547.001981139098
32.14592 504.953097126999
32.16604 490.027296133382
32.18615 528.15314454516
32.20626 574.016537973306
32.22638 517.061406617743
32.24649 500.982008130139
32.2666 561
32.28672 572.984254186329
32.30683 546.958702575244
32.32694 548.102821598471
32.34706 621.909888906097
32.36717 607.084295346881
32.38729 550.017461678865
32.4074 546
32.42751 568.016826085458
32.44763 599.014738083332
32.46774 574.89534038398
32.48785 536.963422704888
32.50797 581.977641734046
32.52808 551.032191571732
32.5482 546
32.56831 552.004846555464
32.58842 567.017568569508
32.60854 571.959325774676
32.62865 545.004363812394
32.64876 568.963039886644
32.66888 561.024257991341
32.68899 546.99352205357
32.7091 574
32.72922 565.999131562895
32.74933 569.970642405274
32.76945 542.018581805704
32.78956 584.931206706076
32.80967 584.029893630378
32.82979 591.966855394959
32.8499 662
32.87001 567.956165086465
32.89013 543.012314261429
32.91024 576.157824084385
32.93036 655.974513761874
32.95047 600.088480345061
32.97058 586.982883628085
32.9907 605
33.01081 600.000246730747
33.03092 605.995729468628
33.05104 590.979339647042
33.07115 599.931159041755
33.09127 631.966363686999
33.11138 636.009668214616
33.13149 621.008259098558
33.15161 620.014002837175
33.17172 660.020947648635
33.19183 653.984321262799
33.21195 648.970090587118
33.23206 629.032246837718
33.25217 625.988015585432
33.27229 631.004967375655
33.2924 615
33.31252 624.99618463348
33.33263 605.984004189324
33.35274 595.919865325065
33.37286 548.997714927556
33.39297 601.919371804683
33.41308 606.04585931055
33.4332 560
33.45331 599.00331215575
33.47343 553.926312329453
33.49354 542.039969906369
33.51365 562.017386858439
33.53377 544.974956001283
33.55388 591.970541049435
33.57399 589.001531244635
33.59411 585.982424367144
33.61422 534.982410843611
33.63434 560.056235743052
33.65445 568.008621163547
33.67456 572.012250043226
33.69468 554.020715376477
33.71479 538.006245169317
33.7349 531
33.75502 535.998464175495
33.77513 533.015121866731
33.79524 551.012145444894
33.81536 538.038638644842
33.83547 531.978162589565
33.85559 550.001624090002
33.8757 538
33.89581 569.998676658195
33.91593 533.973280963086
33.93604 547.011040184617
33.95615 531.032714715197
33.97627 527.019238441665
33.99638 513.986318014633
34.0165 550
34.03661 556.00266000304
34.05672 553.964056592649
34.07684 498.936403142132
34.09695 516.868733872291
34.11706 565.956724979712
34.13718 557.01930941109
34.15729 556.985611420617
34.17741 580.987855608667
34.19752 541.020551269616
34.21763 603.012044836748
34.23775 556.986688345622
34.25786 602.973472532882
34.27797 568.022541472084
34.29809 589.996110007666
34.3182 579
34.33831 611.995452761842
34.35843 562.957694048357
34.37854 581.059518964117
34.39866 598.967204089604
34.41877 614.991250542156
34.43888 614.991890956046
34.459 626
34.47911 597.98154575102
34.49922 597.066665638712
34.51934 675.000329586834
34.53945 606.100358622514
34.55957 633.94275678339
34.57968 636.022968375966
34.59979 625.985038474784
34.61991 682.020221265372
34.64002 679.969340935547
34.66013 666.051696936733
34.68025 732.120806476694
34.70036 731.067770509139
34.72047 710.963518685978
34.74059 767.976668649433
34.7607 773
34.78082 763.042141867101
34.80093 826.02358815873
34.82104 790.956192654048
34.84116 807.963928410013
34.86127 800.035036892964
34.88138 793.9663551127
34.9015 852
34.92161 852.983674224104
34.94173 836.058764913116
34.96184 898.021175091232
34.98195 845.135632707281
35.00207 819.043656080939
35.02218 777.032288054641
35.04229 782.974653070729
35.06241 842.011684916951
35.08252 825.984042119119
35.10264 821.961585669836
35.12275 782.910486237842
35.14286 774.955544593139
35.16298 799.005199199118
35.18309 779.993185435082
35.2032 824
35.22332 808.972063567474
35.24343 803.035938831719
35.26354 826.97183961465
35.28366 789.018392883866
35.30377 819.954694152039
35.32389 816.015463040199
35.344 791
35.36411 819.005864019725
35.38423 798.954767999151
35.40434 788.032927649028
35.42445 819.933255310847
35.44457 828.006182026093
35.46468 802.063794254298
35.4848 764
35.50491 892.029248529287
35.52502 845.941998883679
35.54514 850.096813646627
35.56525 877.10759148531
35.58536 816.949799396886
35.60548 894.007591246871
35.62559 809.009108148011
35.64571 879.017702135259
35.66582 830.941918128425
35.68593 814.0045936124
35.70605 816.002772703166
35.72616 831.908197853831
35.74627 870.035580964015
35.76639 805.015536005691
35.7865 841
35.80661 864.982244511358
35.82673 817.013544084002
35.84684 855.945831150618
35.86696 773.062824349662
35.88707 820.92678462597
35.90718 839.963745705193
35.9273 879
35.94741 804.971293799434
35.96752 783.967011985974
35.98764 726.912858172761
36.00775 726.907163076455
36.02787 767.973837043733
36.04798 755.023105716987
36.06809 741.002792141761
36.08821 741.001813865517
36.10832 737.982094664439
36.12843 720.00792706053
36.14855 742.022135319116
36.16866 731.01579235859
36.18878 735.995186585035
36.20889 718.025070789306
36.229 677
36.24912 737.02785689346
36.26923 702.919112753923
36.28934 670.981798922491
36.30946 672.998253818741
36.32957 668.004956670439
36.34968 666.008564752849
36.3698 673
36.38991 743.014124668466
36.41003 718.957473610315
36.43014 725.063328629043
36.45025 758.948055176717
36.47037 760.015935943583
36.49048 756.984191824908
36.51059 775.003959969438
36.53071 735.976634822677
36.55082 715.015840754293
36.57094 748.038594765016
36.59105 738.945791064474
36.61116 731.96073976191
36.63128 747.032869370009
36.65139 681.020073693004
36.6715 684
36.69162 677.006913483147
36.71173 696.004406458935
36.73184 680.986243816346
36.75196 695.95121199282
36.77207 715.979532025222
36.79219 726.993194292302
36.8123 726
36.83241 662.974169857126
36.85253 650.027220345457
36.87264 671.006078740251
36.89275 654.045586877272
36.91287 652.975651071184
36.93298 680.966244769503
36.9531 691
36.97321 646.006608634647
36.99332 696.000012851916
37.01344 655.026827242967
37.03355 721.940983910434
37.05366 687.025057298351
37.07378 710.009687722796
37.09389 662.011597786968
37.11401 697.03179517605
37.13412 726.962719971309
37.15423 656.948822245035
37.17435 681.092193049617
37.19446 697.982532476783
37.21457 705.996268709762
37.23469 701.004837308175
37.2548 685
37.27491 656.99208554855
37.29503 670.067649194368
37.31514 704.957473440466
37.33526 661.967633329852
37.35537 707.055788045531
37.37548 609.024954425468
37.3956 676
37.41571 667.011086057551
37.43582 715.98685168857
37.45594 639.899015215091
37.47605 651.939561175613
37.49617 647.037595184693
37.51628 620.019300042501
37.53639 638.960853928826
37.55651 721.003685634512
37.57662 656.945701713959
37.59673 651.001645834131
37.61685 639.997820614652
37.63696 663.91813920371
37.65708 688.01979991853
37.67719 645.009110973276
37.6973 657
37.71742 652.038865696903
37.73753 704.981847474397
37.75764 640.952407212766
37.77776 691.864034364771
37.79787 724.001059288994
37.81798 705.026103492742
37.8381 678
37.85821 658.007244171264
37.87833 702.068892367213
37.89844 716.955422512133
37.91855 681.04802161852
37.93867 680.016576267677
37.95878 651.026049943871
37.97889 644.994634787999
37.99901 668.016914749632
38.01912 701.021106151335
38.03924 701.966246204035
38.05935 674.9216156246
38.07946 670.900739857789
38.09958 735.985138529432
38.11969 688.029026309682
38.1398 677
38.15992 715.976451524399
38.18003 656.989429412809
38.20015 703.033355539003
38.22026 656.098195277129
38.24037 652.949011071734
38.26049 690.991324814834
38.2806 691
38.30071 719.012949823137
38.32083 732.013000543471
38.34094 727.93244090858
38.36105 682.055999345726
38.38117 687.993518443126
38.40128 675.015747404071
38.4214 674
38.44151 702.014407158059
38.46162 709.975264660578
38.48174 668.94303798602
38.50185 671.936933433284
38.52196 685.04913520079
38.54208 649.992254598135
38.56219 687.998831577901
38.58231 650.993020233811
38.60242 667.993942332644
38.62253 647.039223497254
38.64265 699.993038300994
38.66276 640.071488577246
38.68287 663.942129480469
38.70299 675.007057960233
38.7231 651
38.74321 634.98902368209
38.76333 620.024231579009
38.78344 655.034498564657
38.80356 640.050657216252
38.82367 635.958947246002
38.84378 663.015674392253
38.8639 616
38.88401 636.015770556242
38.90412 645.98742076576
38.92424 615.917921726845
38.94435 584.01999657954
38.96447 610.91248977484
38.98458 670.965871457166
39.00469 660.024201920333
39.02481 615.99772812103
39.04492 630.980084838304
39.06503 590.00967019928
39.08515 640.053359553271
39.10526 616.028613057364
39.12538 617.032776035108
39.14549 577.98394680391
39.1656 656
39.18572 615.999164070902
39.20583 649.947754668467
39.22594 559.944921564658
39.24606 617.901830220409
39.26617 612.020752308367
39.28628 613.008668236303
39.3064 591
39.32651 598.010167103233
39.34663 612.997609487211
39.36674 600.989763659096
39.38685 615.922998385692
39.40697 647.966982362437
39.42708 651.014260529008
39.44719 624.018257685577
39.46731 598.001082224878
39.48742 630.045859975992
39.50754 649.938974449995
39.52765 598.958194988055
39.54776 620.978166221431
39.56788 596.035841477421
39.58799 579.994944880759
39.6081 593
39.62822 554.96981570049
39.64833 537.955433874836
39.66845 511.044263384639
39.68856 553.986847883003
39.70867 526.994783596577
39.72879 565.992496759304
39.7489 548
39.76901 578.012002463762
39.78913 566.942062262525
39.80924 528.968340719694
39.82935 539.946758019312
39.84947 541.050266997087
39.86958 502.997477368822
39.8897 541
39.90981 535.000157269381
39.92992 553.011459983553
39.95004 548.991129849838
39.97015 543.058464983776
39.99026 518.982840567066
40.01038 549.990411526102
40.03049 533.00252015014
40.05061 543.996300297055
40.07072 526.013685953509
40.09083 563.01428430446
40.11095 541.989380275729
40.13106 568.949505283239
40.15117 574.002055555809
40.17129 565.015832263789
40.1914 543
40.21152 610.023674391378
40.23163 590.014600795931
40.25174 623.958827348248
40.27186 552.080446568362
40.29197 587.888281491057
40.31208 627.033936502975
40.3322 558
40.35231 595.024951771807
40.37242 598.950486571135
40.39254 544.997703487529
40.41265 590.924991074285
40.43277 574.048598470192
40.45288 558.995851131168
40.47299 575.989165397491
40.49311 578.984418481095
40.51322 535.983546802844
40.53333 545.99793903695
40.55345 533.032305582164
40.57356 567.969600473194
40.59368 557.99932055222
40.61379 581.988089341222
40.6339 590
40.65402 580.974950124831
40.67413 551.980752257233
40.69424 566.063617363783
40.71436 583.043826012856
40.73447 553.970271292955
40.75458 615.959271796576
40.7747 601
40.79481 576.00450045818
40.81493 593.978020130998
40.83504 555.979300013065
40.85515 576.986817407912
40.87527 556.015987336566
40.89538 563.004514097756
40.91549 551.991582294943
40.93561 580.995388496747
40.95572 556.031919197645
40.97584 627.038095545709
40.99595 579.906862731554
41.01606 580.020146735379
41.03618 569.952036102182
41.05629 637.005945946691
41.0764 556
41.09652 577.000582776047
41.11663 535.969447569575
41.13675 559.068653697779
41.15686 568.982390364558
41.17697 582.986940885669
41.19709 574.014315305422
41.2172 544
41.23731 562.017481762253
41.25743 576.953639749153
41.27754 526.967868193056
41.29765 567.830364555406
41.31777 591.096803730953
41.33788 492.03595197645
41.358 539
41.37811 544.991639815072
41.39822 542.023196776856
41.41834 574.021105793483
41.43845 556.058768616552
41.45856 550.970284369169
41.47868 569.994314059302
41.49879 556.011299141044
41.51891 538.996100989456
41.53902 547.026970620095
41.55913 578.024568777026
41.57925 567.924980241543
41.59936 551.947954971776
41.61947 601.958738451559
41.63959 594.005213167858
41.6597 585
41.67982 538.992346582115
41.69993 581.083230969666
41.72004 613.012998522571
41.74016 595.079005499739
41.76027 547.067880746355
41.78038 524.988521803807
41.8005 546
41.82061 526.003422760735
41.84072 551.99442209035
41.86084 513.958973775484
41.88095 518.034139401477
41.90107 476.056969856602
41.92118 489.918154769111
41.94129 570.004552444501
41.96141 497.989400532388
41.98152 537.998647724384
42.00163 472.927453974269
42.02175 480.055101903327
42.04186 495.942847485695
42.06198 533.975509404195
42.08209 536.003529052261
42.1022 520
42.12232 479.992045644438
42.14243 497.002039291336
42.16254 482.016685273001
42.18266 511.980345277492
42.20277 498.995685704807
42.22289 519.998813595205
42.243 501
42.26311 517.00708114076
42.28323 526.03652334811
42.30334 549.974011229833
42.32345 516.005229771989
42.34357 549.967909762748
42.36368 543.002767711065
42.38379 559.990260082692
42.40391 577.013171964089
42.42402 596.98558024699
42.44414 557.948966747802
42.46425 552.963466834277
42.48436 532.981167840333
42.50448 553.022947870592
42.52459 506.997521028872
42.5447 555
42.56482 521.001144501581
42.58493 551.966666129635
42.60505 487.972261660465
42.62516 525.027444064708
42.64527 465.003980908174
42.66539 521.992603327843
42.6855 475
42.70561 506.021996446634
42.72573 516.963861255432
42.74584 483.973128354552
42.76595 501.917792799298
42.78607 524.993748859211
42.80618 511.022520578379
42.8263 496
42.84641 504.002037381889
42.86652 497.99025576719
42.88664 493.004173420527
42.90675 501.96692384039
42.92686 516.966986374538
42.94698 519.02848143138
42.96709 484.998979851275
42.98721 508.995159071883
43.00732 467.985809491488
43.02743 481.979019022645
43.04755 447.018243250565
43.06766 496.941212219842
43.08777 481.035486851655
43.10789 480.991271162001
43.128 502
43.14812 507.997339353785
43.16823 498.977808229625
43.18834 469.896609058984
43.20846 423.009703234007
43.22857 466.906156705522
43.24868 512.976802533156
43.2688 513
43.28891 485.983934969295
43.30902 457.982263120355
43.32914 458.039201334935
43.34925 489.913801493909
43.36937 494.07550518011
43.38948 443.970119749605
43.40959 524.988539697814
43.42971 467.975149006791
43.44982 479.038837631946
43.46993 494.962331247339
43.49005 456.989454735965
43.51016 489.946049883772
43.53028 491.002354750322
43.55039 491.007267769913
43.5705 475
43.59062 499.990219431433
43.61073 465.998933022738
43.63084 512.097646252695
43.65096 507.143892505695
43.67107 442.950578692763
43.69119 531.993030961469
43.7113 457
43.73141 492.026925403463
43.75153 493.91245037321
43.77164 436.024592144245
43.79175 508.866415556027
43.81187 491.093214988408
43.83198 437.019498297439
43.85209 465.967357911043
43.87221 512.992533193038
43.89232 452.955498316341
43.91244 459.063991779897
43.93255 494.097515915476
43.95266 518.024228952275
43.97278 489.005709401925
43.99289 508.996013739416
44.013 494
44.03312 492.98913966326
44.05323 471.983371878352
44.07335 485.078751193132
44.09346 500.062595218583
44.11357 447.029756106334
44.13369 466.994101548876
44.1538 467
44.17391 519.007039489797
44.19403 494.992286884081
44.21414 512.97763919545
44.23426 467.066569502319
44.25437 478.935283535234
44.27448 517.987227063256
44.2946 496
44.31471 466.002690652351
44.33482 490.003945198118
44.35494 464.951417692296
44.37505 469.916483222768
44.39516 500.009756772513
44.41528 469.016475656986
44.43539 477.997480088973
44.45551 461.987717207151
44.47562 458.033598988085
44.49573 504.023480167186
44.51585 486.975232513384
44.53596 498.981901309281
44.55607 486.043859322468
44.57619 475.980334315413
44.5963 521
44.61642 448.975173304536
44.63653 488.037463072737
44.65664 469.974628543566
44.67676 487.948891543182
44.69687 497.013530661911
44.71698 478.019186391164
44.7371 465
44.75721 469.015694728546
44.77732 502.99764674714
44.79744 457.889909316478
44.81755 451.824700170354
44.83767 532.00697850968
44.85778 450.056799044997
44.87789 475.967775126602
44.89801 515.997934237828
44.91812 488.990817030692
44.93823 492.958438262756
44.95835 458.068511868797
44.97846 527.955323404676
44.99858 493.012685470984
45.01869 519.997783928009
45.0388 485
45.05892 490.021483159285
45.07903 512.035282922327
45.09914 520.953768593066
45.11926 491.981274264798
45.13937 524.007724187508
45.15949 482.00912192427
45.1796 512
45.19971 527.993186658385
45.21983 498.960075314269
45.23994 496.049468341704
45.26005 523.002030175919
45.28017 505.987680052945
45.30028 542.972546747745
45.32039 526.029108293702
45.34051 483.013246547649
45.36062 547.015061019924
45.38074 501.939365044715
45.40085 523.08770204887
45.42096 536.01720429153
45.44108 517.018780552208
45.46119 506.002914923641
45.4813 507
45.50142 527.019571230295
45.52153 536.998473034314
45.54165 534.013402293828
45.56176 544.993186013302
45.58187 532.037503970019
45.60199 511.002407585486
45.6221 524
45.64221 543.009484943008
45.66233 547.963039214028
45.68244 512.979779895969
45.70256 526.995219404269
45.72267 520.963434080755
45.74278 562.992670043405
45.7629 528
45.78301 534.018222046354
45.80312 550.955383162842
45.82324 483.985296858898
45.84335 542.875519892634
45.86346 540.049701041263
45.88358 526.001014530648
45.90369 532.996030476424
45.92381 531.993579277001
45.94392 521.007614458459
45.96403 530.969155160588
45.98415 490.962285455338
46.00426 510.957562551559
46.02437 516.988352788144
46.04449 524.006750177072
46.0646 506
46.08472 536.998434328981
46.10483 490.92163131447
46.12494 483.099199904747
46.14506 550.935247669897
46.16517 529.063621752178
46.18528 504.002946452651
46.2054 518
46.22551 532.000766767559
46.24563 518.963345278064
46.26574 505.031304859435
46.28585 529.020914281227
46.30597 492.031476004798
46.32608 500.991428355212
46.34619 494.003653723261
46.36631 498.005852986526
46.38642 503.990309815576
46.40653 486.991244743707
46.42665 487.963328651475
46.44676 471.960633632102
46.46688 514.983464965749
46.48699 491.014482399554
46.5071 484
46.52722 507.049540030265
46.54733 547.979120924952
46.56744 491.921896706951
46.58756 486.029371637613
46.60767 455.018515662851
46.62779 479.97703435596
46.6479 515
46.66801 507.002073867227
46.68813 525.008472221679
46.70824 513.987999407443
46.72835 520.98408485048
46.74847 512.038083178904
46.76858 488.003217744927
46.78869 499.000329957508
46.80881 479.991010739914
46.82892 482.021905937813
46.84904 511.045887263184
46.86915 517.984066380849
46.88926 498.072025306372
46.90938 467.001542303299
46.92949 491.987944937468
46.9496 497
46.96972 488.988318293618
46.98983 484.019934572292
47.00995 511.060801971213
47.03006 515.036191716608
47.05017 493.008636000098
47.07029 498.004884715794
47.0904 474
47.11051 480.00173384486
47.13063 478.0148844679
47.15074 508.081176714718
47.17086 535.00478029872
47.19097 509.042501318043
47.21108 493.009668447108
47.2312 484
47.25131 483.005206712728
47.27142 491.989869534906
47.29154 477.024354288947
47.31165 508.970049141166
47.33176 487.060689167435
47.35188 485.959300023783
47.37199 525.009607388726
47.39211 469.994315982993
47.41222 510.020120512818
47.43233 499.0259266991
47.45245 533.95628047835
47.47256 476.031702081847
47.49267 511.976680897505
47.51279 485.009595556692
47.5329 495
47.55302 494.004069923101
47.57313 502.995724091187
47.59324 481.942737290048
47.61336 471.950297532026
47.63347 499.029824069296
47.65358 452.00466240848
47.6737 503
47.69381 497.970573231918
47.71393 444.013794850334
47.73404 497.039112443823
47.75415 465.061429667189
47.77427 482.94468553333
47.79438 502.012577719678
47.81449 478.00066646478
47.83461 490.992485692134
47.85472 454.99270045522
47.87483 482.026335199824
47.89495 472.976575722693
47.91506 482.954409482681
47.93518 498.007251506809
47.95529 472.01325056997
47.9754 460
47.99552 469.018246308227
48.01563 487.011691909305
48.03574 488.014441716868
48.05586 500.990017987143
48.07597 484.058772165301
48.09609 449.001669978972
48.1162 460
48.13631 427.007212956643
48.15643 495.099132358662
48.17654 505.913308609925
48.19665 461.977665396098
48.21677 520.921248491838
48.23688 523.036712766698
48.257 488
48.27711 507.002390860359
48.29722 494.002687758173
48.31734 511.998916691174
48.33745 479.893368455363
48.35756 463.944140300969
48.37768 505.991295230187
48.39779 492.988015678908
48.4179 544
48.43802 492.941053832873
48.45813 464.987104053086
48.47825 469.054593850818
48.49836 491.996570306917
48.51847 480.989654173634
48.53859 506.992355373477
48.5587 501
48.57881 490.985165620325
48.59893 460.006996434158
48.61904 486.998657479314
48.63916 460.003706027027
48.65927 493.956400612863
48.67938 492.018768423658
48.6995 482
48.71961 488.984361294626
48.73972 442.998384146536
48.75984 479.016155624086
48.77995 454.987290509743
48.80006 508.878134571993
48.82018 528.030798487675
48.84029 482.009036947497
48.86041 500.0097064298
48.88052 502.000036874736
48.90063 486.912345757134
48.92075 421.986991451501
48.94086 485.848164818424
48.96097 520.009567642771
48.98109 500.00415709724
49.0012 504
49.02132 489.008078249214
49.04143 527.067006218794
49.06154 539.930616556676
49.08166 491.026046232047
49.10177 511.994524879147
49.12188 494.989472468998
49.142 523
49.16211 478.997089871285
49.18223 523.054780103716
49.20234 522.981581009459
49.22245 524.984440428723
49.24257 528.996630384217
49.26268 528.006232892862
49.28279 518.005060821479
49.30291 514.002467367604
49.32302 518.993366241788
49.34313 503.987542563999
49.36325 497.942957606984
49.38336 476.962027239787
49.40348 523.975454396117
49.42359 512.006287818242
49.4437 520
49.46382 518.978153101572
49.48393 505.043202428965
49.50404 546.980855441945
49.52416 497.028204890133
49.54427 532.963281356662
49.56439 516.013447768832
49.5845 513
49.60461 545.009783188395
49.62473 542.981633298492
49.64484 529.969234026471
49.66495 515.024048904611
49.68507 509.01297184711
49.70518 505.982660353118
49.7253 532
49.74541 516.992095790279
49.76552 498.956899962321
49.78564 462.048154063605
49.80575 525.062471185331
49.82586 490.080726584145
49.84598 484.982856227753
49.86609 508.985814223841
49.8862 529
49.90632 497.935957439759
49.92643 452.038500073828
49.94655 529.135958347058
49.96666 533.003665020961
49.98677 544.999472379937
50.00689 532.999724971231
50.027 570
50.04711 626.995873912492
50.06723 577.977148430505
50.08734 611.043745170843
50.10746 590.072393286553
50.12757 571.99012081397
50.14768 588.993310003475
50.1678 582
50.18791 585.999025648265
50.20802 565.963398888504
50.22814 530.968349907999
50.24825 527.040686596155
50.26837 502.008103563332
50.28848 519.983179174231
50.30859 520.004059777928
50.32871 510.994407073253
50.34882 500.996149955791
50.36893 498.986173847158
50.38905 472.892520343583
50.40916 447.94194475547
50.42927 504.96608922927
50.44939 482.008798244084
50.4695 487
50.48962 474.017438343247
50.50973 517.038850893481
50.52984 504.942440322889
50.54996 483.024097564192
50.57007 477.009450988228
50.59018 486.950854814538
50.6103 559
50.63041 562.980303437537
50.65053 516.966922830991
50.67064 522.010922422576
50.69075 518.984606738936
50.71087 534.987082139257
50.73098 531.004716042586
50.75109 533.996370517643
50.77121 536.996785324274
50.79132 522.985599789389
50.81143 518.011032921794
50.83155 527.999864119917
50.85166 526.960859821385
50.87178 562.973879297874
50.89189 557.017215084969
50.912 522
50.93212 540.026497368498
50.95223 550.986799666735
50.97234 535.993335338018
50.99246 539.027211780863
51.01257 511.025191081061
51.03269 511.999971939167
51.0528 504
51.07291 511.007167543109
51.09303 520.996586165895
51.11314 511.995350780896
51.13325 503.104618691807
51.15337 455.000178362038
51.17348 497.972985449546
51.1936 490
51.21371 496.991656430277
51.23382 467.001369232947
51.25394 501.046632100041
51.27405 490.06477146408
51.29416 468.036320856508
51.31428 457.00000990098
51.33439 458.005851468125
51.3545 445
51.37462 487.054122428813
51.39473 509.949533297886
51.41485 448.91683206672
51.43496 458.970645628532
51.45507 455.011090123922
51.47519 454.000014951587
51.4953 457
51.51541 483.016351029957
51.53553 500.980489668318
51.55564 455.876891744585
51.57576 408.035688229338
51.59587 432.902816177435
51.61598 488.999733096871
51.6361 448
51.65621 464.004052163886
51.67632 463.033062202776
51.69644 504.964123193788
51.71655 448.014732520243
51.73667 493.986864513986
51.75678 445.037766699332
51.77689 449.994573324377
51.79701 439.989705105485
51.81712 433.020815575894
51.83723 469.036005052906
51.85735 475.02103091908
51.87746 484.025732878666
51.89757 452.038392980829
51.91769 449.99317436223
51.9378 461
51.95792 443.977263160302
51.97803 426.987535606994
51.99814 442.100338936508
52.01826 496.967816001789
52.03837 461.087463853264
52.05848 424.997713222787
52.0786 450
52.09871 448.000960656419
52.11883 462.018092566685
52.13894 456.953154700357
52.15905 436.982273069058
52.17917 467.958080236439
52.19928 476.002406857818
52.21939 475.997197835759
52.23951 476.991471121774
52.25962 456.00290930338
52.27974 465.945223005568
52.29985 423.019574203346
52.31996 480.918861117119
52.34008 468.036106211984
52.36019 455.985331193848
52.3803 496
52.40042 454.958831822112
52.42053 449.033538975274
52.44064 480.052985834703
52.46076 473.112949915011
52.48087 409.018648879341
52.50099 455.972522465486
52.5211 479
52.54121 469.990449047011
52.56133 454.000474293844
52.58144 468.024003308123
52.60155 473.971899451333
52.62167 486.005085683039
52.64178 474.994587460008
52.6619 497
52.68201 484.983269634223
52.70212 456.999993985539
52.72224 486.07326824863
52.74235 509.971591342423
52.76246 511.015537319785
52.78258 492.033914252456
52.80269 460.004372692322
52.8228 469
52.84292 461.01107400783
52.86303 482.996129107858
52.88315 466.035131713777
52.90326 501.993970223211
52.92337 474.999186389189
52.94349 510.989309883761
52.9636 499
52.98371 493.992786533375
53.00383 479.018678778987
53.02394 512.037131482155
53.04406 505.018210825976
53.06417 501.022493911013
53.08428 479.008436328102
53.1044 491
53.12451 504.003920706866
53.14462 498.973680201324
53.16474 472.003819548766
53.18485 494.983312090242
53.20497 481.002659388491
53.22508 499.984766103506
53.24519 506.990760937087
53.26531 533.004653259151
53.28542 522.991983889902
53.30553 520.980450433593
53.32565 504.008494131873
53.34576 519.012927682597
53.36587 493.015605588796
53.38599 513.983517988052
53.4061 531
53.42622 508.9844626696
53.44633 503.984559893817
53.46644 496.035806074194
53.48656 539.908696811538
53.50667 558.023795234105
53.52678 519.044614036025
53.5469 494
53.56701 519.015720039404
53.58713 542.021305563062
53.60724 543.972554738943
53.62735 540.906245422209
53.64747 585.021085115077
53.66758 522.037535522627
53.68769 544.977703551386
53.70781 568.999691822385
53.72792 549.97275169072
53.74804 534.010371080632
53.76815 555.054106001569
53.78826 560.028367719109
53.80838 544.994843470844
53.82849 570.986858309492
53.8486 577
53.86872 557.994025769853
53.88883 563.999914795852
53.90894 560.024260401159
53.92906 600.877153002843
53.94917 637.042589646392
53.96929 582.002020964633
53.9894 636
54.00951 626.986205584343
54.02963 619.027312421267
54.04974 635.963370501061
54.06985 592.063017038888
54.08997 600.977645885379
54.11008 604.995631856956
54.1302 615
54.15031 622.00438016724
54.17042 628.997342064091
54.19054 614.961823094576
54.21065 607.959177592229
54.23076 641.931325857379
54.25088 651.025230725166
54.27099 611.012884219708
54.29111 615.010400904453
54.31122 633.0082030117
54.33133 626.973193633246
54.35145 618.046362327971
54.37156 645.00526066535
54.39167 613.034656606553
54.41179 610.004779217076
54.4319 599
54.45201 624.988062059254
54.47213 584.046819233347
54.49224 655.984141849787
54.51236 559.146617785636
54.53247 569.932332590465
54.55258 602.975961516913
54.5727 612
54.59281 587.997302065688
54.61292 607.022578451869
54.63304 614.991228213121
54.65315 608.997651955923
54.67327 597.079509130163
54.69338 551.958850964947
54.71349 645.982892294646
54.73361 592.972297589894
54.75372 579.990600904262
54.77383 579.076879429462
54.79395 649.02638940663
54.81406 593.103073737436
54.83417 595.943555190448
54.85429 627.997359047844
54.8744 610
54.89452 610.008588989558
54.91463 612.987203565499
54.93474 590.93740857207
54.95486 567.006705910535
54.97497 586.950488669685
54.99508 599.033170311039
55.0152 560
55.03531 615.001770395603
55.05543 554.927125686998
55.07554 564.077994342831
55.09565 592.98544762432
55.11577 580.022184422494
55.13588 572.009340712274
55.15599 562.000785876157
55.17611 562.994361776111
55.19622 555.025783222927
55.21634 599.031401135772
55.23645 575.934138900047
55.25656 576.952071363877
55.27668 605.979929645327
55.29679 594.026710786438
55.3169 531
55.33702 552.048641358475
55.35713 587.004023101447
55.37724 551.88062100912
55.39736 515.951267450744
55.41747 569.975499614194
55.43759 546.99838874771
55.4577 575
55.47781 526.99719354766
55.49793 570.032926099762
55.51804 548.966209997824
55.53815 555.990433204841
55.55827 538.046640803506
55.57838 522.977913318565
55.5985 553
55.61861 518.006895386596
55.63872 566.999432802264
55.65884 520.99444381922
55.67895 568.956320716438
55.69906 523.122207398833
55.71918 506.958184281953
55.73929 543.023361688486
55.75941 455.99659228559
55.77952 542.07135520141
55.79963 526.89939080442
55.81975 478.014724799549
55.83986 524.925222850857
55.85997 541.947167894829
55.88009 573.017575233368
55.9002 497
55.92031 525.003498958879
55.94043 489.969703242685
55.96054 498.992896457307
55.98066 484.961043177082
56.00077 528.977226575151
56.02088 515.987415441347
56.041 555
56.06111 518.974353936618
56.08122 500.029187972136
56.10134 542.006561827217
56.12145 506.060563791412
56.14157 518.9624533821
56.16168 529.007299948945
56.18179 528.982957096055
56.20191 578.008542403922
56.22202 546.951132840528
56.24213 506.949685951155
56.26225 495.069976229494
56.28236 540.954377065521
56.30248 522.038988843288
56.32259 493.005016778495
56.3427 505
56.36282 530.007153432369
56.38293 519.981600002227
56.40304 518.012293587622
56.42316 523.006744403137
56.44327 509.029308032874
56.46338 499.987127840338
56.4835 536
56.50361 552.975594578893
56.52373 478.964848510777
56.54384 516.065319294138
56.56395 502.095881338777
56.58407 481.971123157579
56.60418 516.994155324852
56.62429 496.998842758531
56.64441 530.011806317282
56.66452 528.998648944835
56.68464 532.981508862652
56.70475 501.893760265689
56.72486 478.963638272809
56.74498 520.973306808037
56.76509 511.01466988124
56.7852 483
56.80532 465.985848713939
56.82543 464.033978025
56.84554 495.020465822004
56.86566 488.978117743678
56.88577 517.978143947554
56.90589 507.00766138602
56.926 501
56.94611 490.991754355598
56.96623 479.006466011001
56.98634 495.022620537945
57.00645 494.011982351719
57.02657 498.970416484807
57.04668 513.017453141391
57.0668 475
57.08691 486.011162281522
57.10702 503.015621782143
57.12714 516.009439471713
57.14725 500.107932421031
57.16736 460.991980978387
57.18748 494.988280291648
57.20759 475.004495735714
57.22771 497.015088287353
57.24782 513.001648870613
57.26793 504.980566278752
57.28805 489.95372115045
57.30816 474.01072273675
57.32827 482.971168085084
57.34839 509.982070018412
57.3685 526
57.38861 472.99553572342
57.40873 517.064968437874
57.42884 519.951365857913
57.44896 487.070474078912
57.46907 478.93517787471
57.48918 532.003627711542
57.5093 481
57.52941 504.004784345671
57.54952 485.99892774726
57.56964 506.001560610528
57.58975 482.034649915523
57.60987 491.980631968941
57.62998 493.004956413834
57.65009 482.011450774488
57.67021 471.015481190551
57.69032 514.997606792696
57.71043 475.989955527583
57.73055 515.073785921163
57.75066 508.031879412043
57.77078 495.025539338655
57.79089 468.999136509766
57.811 485
57.83112 453.998754544634
57.85123 487.033727152397
57.87134 473.941530836363
57.89146 453.01368036763
57.91157 462.963998987614
57.93168 488.98178935681
57.9518 493
57.97191 487.002402309379
57.99203 495.995462232942
58.01214 493.050321791638
58.03225 532.968665469939
58.05237 502.072871418923
58.07248 472.000215486133
58.09259 494.985809915568
58.11271 503.991091927908
58.13282 483.007060262014
58.15294 502.973300259955
58.17305 470.018024284235
58.19316 517.941866506511
58.21328 494.052064024371
58.23339 456.002870983439
58.2535 480
58.27362 494.989522355708
58.29373 473.986163932361
58.31385 488.066631197359
58.33396 503.021800948821
58.35407 469.059821601658
58.37419 450.992403255084
58.3943 487
58.41441 495.994083491654
58.43453 484.00848957976
58.45464 497.990550167484
58.47475 477.018834857354
58.49487 478.037114204228
58.51498 444.988860452791
58.5351 493
58.55521 476.992818744631
58.57532 491.026896527603
58.59544 506.992569639271
58.61555 485.074282611096
58.63566 475.939653419589
58.65578 512.010749621406
58.67589 466.00839665148
58.69601 489.0045730705
58.71612 459.96213854242
58.73623 440.998631411879
58.75635 458.08927682612
58.77646 489.991821195036
58.79657 470.024847449907
58.81669 485.97493439304
58.8368 531
58.85691 479.969953079837
58.87703 462.054827775482
58.89714 503.971414410368
58.91726 451.023839137309
58.93737 486.982654317287
58.95748 461.004228118957
58.9776 482
58.99771 443.996231226709
59.01782 479.031075744922
59.03794 486.01701502305
59.05805 501.991435828263
59.07817 483.046776960798
59.09828 455.018906215189
59.11839 459.98096147507
59.13851 493.991434272977
59.15862 447.99452116652
59.17873 497.072457744838
59.19885 511.000286137164
59.21896 498.091061325736
59.23908 448.005778559805
59.25919 478.994148613677
59.2793 450
59.29942 446.029883969765
59.31953 485.030035061758
59.33964 484.00654740709
59.35976 490.036323697302
59.37987 460.998898965592
59.39998 485.996963364895
59.4201 448
59.44021 436.026953481931
59.46033 513.044900073815
59.48044 473.878393477231
59.50055 445.966318840922
59.52067 482.948939383464
59.54078 485.033128518647
59.56089 448.0029205728
59.58101 470.005800231783
59.60112 456.986199016427
59.62124 469.081496096939
59.64135 494.91062058156
59.66146 435.992282345502
59.68158 492.985351946836
59.70169 445.01768838491
59.7218 464
59.74192 488.002646778772
59.76203 483.008721666277
59.78215 504.054931269876
59.80226 516.984843599015
59.82237 521.002620618028
59.84249 531.977895310436
59.8626 579
59.88271 532.983494747319
59.90283 542.035647488846
59.92294 543.941332264387
59.94305 506.034025394003
59.96317 520.976960248321
59.98328 520.006019883481
60.0034 524
60.02351 529.982532524251
60.04362 490.020541493437
60.06374 557.06721441019
60.08385 536.04426495608
60.10396 541.021300759985
60.12408 511.01409144991
60.14419 527.985939969284
60.16431 529.979131867085
60.18442 473.977593389176
60.20453 488.009303201159
60.22465 467.948802601465
60.24476 468.961999315327
60.26487 494.962363442179
60.28499 501.011900279841
60.3051 469
60.32522 485.005646546423
60.34533 473.999443233419
60.36544 482.979910621345
60.38556 453.043695958976
60.40567 451.992265766599
60.42578 464.963015660278
60.4459 505
60.46601 491.010380795263
60.48612 526.977702951084
60.50624 458.945353112607
60.52635 494.910160837181
60.54647 486.05367136055
60.56658 459.997128086713
60.58669 479.996885671104
60.60681 472.004049105136
60.62692 484.976340477551
60.64703 454.049082330263
60.66715 519.993884959063
60.68726 459.016140785137
60.70738 510.991993229003
60.72749 468.996958165023
60.7476 520
60.76772 454.974665246671
60.78783 488.017749800167
60.80794 451.937398826086
60.82806 461.928782209758
60.84817 483.027850758094
60.86828 447.005829173315
60.8884 478
60.90851 485.006105936517
60.92863 497.9761202588
60.94874 453.91732523025
60.96885 446.927371269614
60.98897 469.044949180659
61.00908 422.980490561095
61.02919 502.97348066213
61.04931 494.991681172313
61.06942 494.989737367683
61.08954 473.989919103985
61.10965 478.957068753499
61.12976 456.95412391754
61.14988 505.993961304054
61.16999 472.001056232941
61.1901 502
61.21022 449.974980172297
61.23033 495.133823057351
61.25045 549.916305966043
61.27056 459.124637450614
61.29067 480.883897743916
61.31079 546.992470859325
61.3309 508
61.35101 474.998839607744
61.37113 500.063581371691
61.39124 526.975871163344
61.41135 498.99266446207
61.43147 526.003938770744
61.45158 493.010113150358
61.4717 531
61.49181 558.987854892644
61.51192 521.009443104834
61.53204 567.021157816965
61.55215 523.113683246889
61.57226 514.967486334206
61.59238 528.004810503831
61.61249 520.989513609416
61.63261 557.003683717893
61.65272 529.976291991779
61.67283 524.98804635504
61.69295 519.056947395113
61.71306 562.940062598367
61.73317 566.999651540065
61.75329 579.990083333424
61.7734 582
61.79352 541.003118292928
61.81363 583.038396624704
61.83374 574.991468998649
61.85386 605.880732805149
61.87397 654.993686404124
61.89408 622.028332058377
61.9142 625
61.93431 653.02141546309
61.95442 672.952390653261
61.97454 601.990480275617
61.99465 654.96794520179
62.01477 622.975773726165
62.03488 681.000156369294
62.05499 619.013557206936
62.07511 677.048283401117
62.09522 736.992910993925
62.11533 684.933055130531
62.13545 690.114108032739
62.15556 732.989816604405
62.17568 701.033550650167
62.19579 691.996635268074
62.2159 714
62.23602 766.032550416903
62.25613 767.978128498245
62.27624 749.955886172064
62.29636 733.002973410736
62.31647 733.033761144039
62.33659 698.006380963484
62.3567 713
62.37681 708.995164716401
62.39693 699.97909342312
62.41704 675.933673122638
62.43715 646.035671687154
62.45727 656.949328267218
62.47738 678.025445142511
62.49749 614.030047059723
62.51761 597.012019530538
62.53772 631.014690867462
62.55784 629.025278459156
62.57795 654.008973803439
62.59806 622.09521447524
62.61818 576.045667974918
62.63829 555.983388198609
62.6584 596
62.67852 531.003015012912
62.69863 612.095855708445
62.71875 606.919453205962
62.73886 573.101944136194
62.75897 528.994334667588
62.77909 566.991234322928
62.7992 548
62.81931 546.995732438643
62.83943 534.014294621493
62.85954 563.036750627925
62.87965 555.050691712061
62.89977 540.008870877768
62.91988 533.021790724003
62.94 512
62.96011 535.996188642764
62.98022 500.987984054345
63.00034 532.087927959378
63.02045 555.007220950155
63.04056 531.071227562823
63.06068 509.988938522154
63.08079 526.011853312792
63.10091 489.01063052442
63.12102 553.019428099715
63.14113 508.940568142922
63.16125 512.042321138577
63.18136 528.937333288601
63.20147 547.057017395395
63.22159 471.025966389843
63.2417 468
63.26182 478.033232109818
63.28193 529.059078720741
63.30204 539.988190929228
63.32216 532.013556224986
63.34227 525.017475436059
63.36238 519.9824335462
63.3825 539
63.40261 493.986334871208
63.42272 510.039846838043
63.44284 535.986527757278
63.46295 519.957869097602
63.48307 551.023957316529
63.50318 502.006356997013
63.52329 543.989878952158
63.54341 524.997071096178
63.56352 549.018248717363
63.58363 536.95281031592
63.60375 517.030261603663
63.62386 536.039624189557
63.64398 487.022390868325
63.66409 503.993140980787
63.6842 514
63.70432 566.981717414439
63.72443 492.942886789438
63.74454 518.049596067779
63.76466 518.967254793003
63.78477 540.037164223252
63.80489 483.012157212694
63.825 512
63.84511 532.008465356542
63.86523 555.033370375879
63.88534 566.996979044064
63.90545 558.018009136287
63.92557 556.99921181119
63.94568 554.006842447708
63.96579 540.011937043125
63.98591 525.007913718335
64.00602 557.011364857013
64.02614 541.978656513942
64.04625 544.98912629256
64.06636 533.991584989
64.08648 553.985605360583
64.10659 545.014454475785
64.1267 524
64.14682 553.005740950351
64.16693 527.965541759211
64.18705 530.044122040294
64.20716 539.029522836
64.22727 524.960475323523
64.24739 569.999224067672
64.2675 525
64.28761 529.002983603671
64.30773 504.923194164974
64.32784 469.039540615665
64.34796 525.93125022724
64.36807 507.066378936468
64.38818 492.955811006977
64.4083 549
64.42841 487.985381500217
64.44852 514.02011134936
64.46864 494.939023295784
64.48875 489.92463874385
64.50886 525.995048823323
64.52898 493.030665072478
64.54909 482.005580885753
64.56921 472.006324066993
64.58932 499.011368015755
64.60943 488.988761122321
64.62955 497.031822086835
64.64966 499.027103475067
64.66977 483.996049362385
64.68989 495.004538655191
64.71 471
64.73012 492.020474794005
64.75023 499.010026731588
64.77034 495.929338094857
64.79046 453.998784449557
64.81057 490.972511674115
64.83068 476.008028619139
64.8508 489
64.87091 473.985522662356
64.89102 458.015579346479
64.91114 492.040950337978
64.93125 487.02739094258
64.95137 481.014323990837
64.97148 463.022448394773
64.99159 447.001069527567
65.01171 462.013991439773
65.03182 474.973734275712
65.05193 437.003514257482
65.07205 477.057932713803
65.09216 457.070551392605
65.11228 450.959660978222
65.13239 492.010908454041
65.1525 426
65.17262 462.04232208583
65.19273 467.975074664354
65.21284 455.006409017221
65.23296 465.010318448142
65.25307 448.005253389606
65.27319 468.984523243539
65.2933 477
65.31341 430.995416679499
65.33353 467.061089796176
65.35364 465.900922807179
65.37375 431.86788456657
65.39387 523.983202505598
65.41398 445.058163642351
65.43409 461.981911106629
65.45421 477.00446103757
65.47432 482.990829821872
65.49444 473.031636107098
65.51455 502.007101396975
65.53466 474.048150162813
65.55478 470.001906984383
65.57489 461.003560248566
65.595 456
65.61512 446.00800352727
65.63523 459.987091930584
65.65535 430.953684882047
65.67546 443.930283559354
65.69557 476.975512699282
65.71569 476.002239960119
65.7358 463
65.75591 435.021416243029
65.77603 512.022698725379
65.79614 462.959180722332
65.81626 488.010342678858
65.83637 444.023371160486
65.85648 473.974600761271
65.8766 465
65.89671 442.987567815453
65.91682 424.00034264922
65.93694 441.035238147066
65.95705 446.013037590543
65.97716 440.993713579408
65.99728 449.995511414624
66.01739 448.998598357314
66.03751 460.007068392731
66.05762 454.958496498764
66.07773 413.01728418707
66.09785 459.019154396207
66.11796 420.042492782511
66.13807 445.942082891563
66.15819 453.017349540615
66.1783 411
66.19842 449.039376421823
66.21853 442.912898957932
66.23864 386.009371772079
66.25876 447.892501462308
66.27887 459.003386992626
66.29898 465.99093472214
66.3191 460
66.33921 429.002308347641
66.35933 456.000967260971
66.37944 433.008980517399
66.39955 470.935322539143
66.41967 463.027848214821
66.43978 447.023167330677
66.45989 438.980198584417
66.48001 486.991974735246
66.50012 420.970679855761
66.52023 448.025828884237
66.54035 436.0126186816
66.56046 470.937992413466
66.58058 468.033763566501
66.60069 436.998645107168
66.6208 463
66.64092 432.953727570059
66.66103 413.042090196271
66.68114 467.07164177253
66.70126 460.062021188269
66.72137 436.006549073938
66.74149 454.983316838234
66.7616 474
66.78171 429.977459267759
66.80183 421.056968196223
66.82194 469.019540113189
66.84205 440.050552194523
66.86217 446.991795533584
66.88228 439.004621250498
66.90239 437.008427163805
66.92251 422.010685907675
66.94262 477.05088578725
66.96274 487.943792997971
66.98285 452.974204691941
67.00296 465.992410676881
67.02308 455.995877919512
67.04319 466.01016711344
67.0633 420
67.08342 434.045493227837
67.10353 474.01405792937
67.12365 455.956126645382
67.14376 448.033116437782
67.16387 438.950216373255
67.18399 478.013491322628
67.2041 414
67.22421 472.00398526767
67.24433 414.956043889787
67.26444 458.136089985609
67.28456 488.050308216929
67.30467 444.014435223131
67.32478 459.023196378015
67.3449 397
67.36501 416.022704637357
67.38512 450.014155432119
67.40524 448.99276820867
67.42535 445.036261768451
67.44546 432.972085639876
67.46558 464.981918462076
67.48569 453.013249940337
67.50581 436.000703856342
67.52592 454.023902970542
67.54603 471.011153493361
67.56615 473.007534174123
67.58626 477.003191581939
67.60637 473.990519934422
67.62649 486.996959533599
67.6466 493
67.66672 527.008942339405
67.68683 493.911332346052
67.70694 458.043190534053
67.72706 518.90631432025
67.74717 524.018728626392
67.76728 500.053478034072
67.7874 452
67.80751 507.013880727655
67.82763 477.93213402258
67.84774 474.109905224662
67.86785 523.100686699393
67.88797 421.078036317501
67.90808 455.952098150497
67.92819 472.992185732352
67.94831 496.004486663163
67.96842 491.002153710709
67.98853 510.036432816392
68.00865 517.952973496027
68.02876 499.957951264109
68.04888 530.029393534331
68.06899 461.009791077465
68.0891 513
68.10922 520.971277142696
68.12933 492.997510284356
68.14944 515.035340995009
68.16956 508.048283491845
68.18967 490.989106526055
68.20979 516.989127546325
68.2299 513
68.25001 483.997048853431
68.27013 510.064993167561
68.29024 527.927615744678
68.31035 471.03658699983
68.33047 496.000740925199
68.35058 451.042858738732
68.3707 450
68.39081 492.013472583828
68.41092 499.003869425216
68.43104 508.01070079164
68.45115 502.966422998717
68.47126 485.040149060921
68.49138 466.01647242771
68.51149 458.995836365183
68.5316 478
68.55172 481.984540923072
68.57183 454.961249207372
68.59195 444.013656322859
68.61206 454.992064044005
68.63217 459.960544575192
68.65229 493.996472392836
68.6724 456
68.69251 412.00693355815
68.71263 451.998531570682
68.73274 416.003226134843
68.75286 457.975642555528
68.77297 426.031027667954
68.79308 443.971411236468
68.8132 461
68.83331 473.007444837858
68.85342 476.977392922324
68.87354 452.025681039692
68.89365 476.079009937404
68.91376 418.969729677199
68.93388 487.99398058373
68.95399 423.013485117791
68.97411 459.007564927811
68.99422 427.981166170735
69.01433 449.04582598401
69.03445 467.032509468404
69.05456 475.010094332984
69.07467 458.029608706961
69.09479 454.987856039383
69.1149 483
69.13502 441.948384290866
69.15513 429.072492531753
69.17524 477.931901011478
69.19536 390.055913167534
69.21547 454.883331552579
69.23558 484.999512290705
69.2557 473
69.27581 447.996258450584
69.29593 452.994164045827
69.31604 443.016081526956
69.33615 458.033329689684
69.35627 427.999144047715
69.37638 457.989188404729
69.39649 441.002442144561
69.41661 446.987909200807
69.43672 410.009009805072
69.45683 469.081157603013
69.47695 473.913231633265
69.49706 435.033047843716
69.51718 438.006263230167
69.53729 422.99710677093
69.5574 445
69.57752 433.00829121588
69.59763 459.007215045937
69.61774 447.028193434526
69.63786 479.997441762296
69.65797 438.069358050222
69.67809 430.981329532111
69.6982 471
69.71831 440.004309743547
69.73843 495.063049394855
69.75854 489.944263398631
69.77865 468.027431570832
69.79877 467.990497241158
69.81888 468.014394726971
69.839 453
69.85911 468.995577431964
69.87922 433.972031989244
69.89934 430.008826902239
69.91945 443.093153275813
69.93956 485.973239303457
69.95968 468.016536185102
69.97979 464.006450273625
69.9999 440
70.02002 444.014884674189
70.04013 444.95611591783
70.06025 408.993921730496
70.08036 443.928317026058
70.10047 449.032595053229
70.12059 431.992283685921
70.1407 465
70.16081 442.993347534008
70.18093 440.960860431808
70.20104 414.062020185062
70.22116 481.952124585763
70.24127 433.105742940493
70.26138 407.962858422361
70.2815 467
70.30161 445.991988996237
70.32172 456.008264376933
70.34184 458.037548854824
70.36195 487.970196012134
70.38207 467.059581681115
70.40218 434.014116153976
70.42229 433.002705110588
70.44241 426.005954585134
70.46252 448.00259042216
70.48263 427.975354558726
70.50275 430.023795283197
70.52286 435.995630909115
70.54297 434.009591667601
70.56309 431.994261339649
70.5832 444
70.60332 424.003495424945
70.62343 441.984807220427
70.64354 407.978064341331
70.66366 429.963929491446
70.68377 433.975529921528
70.70388 457.002785145393
70.724 426
70.74411 415.997986779859
70.76423 407.986866664321
70.78434 413.060353119243
70.80445 449.967198030213
70.82457 428.057143620297
70.84468 404.994988187213
70.86479 428.989559769912
70.88491 439.00648814901
70.90502 454.001859408493
70.92513 434.951299915435
70.94525 416.036603740109
70.96536 436.045949628786
70.98548 388.006324580824
71.00559 428.986416680447
71.0257 411
71.04582 411.053790183284
71.06593 474.009985393886
71.08604 437.999516111237
71.10616 475.005726156031
71.12627 425.040837979469
71.14639 450.980091499333
71.1665 458
71.18661 420.001094923547
71.20673 461.05086148027
71.22684 458.956641277152
71.24695 436.053934825975
71.26707 426.98091625048
71.28718 442.011543425407
71.3073 418
71.32741 449.002710048517
71.34752 425.99535647318
71.36764 438.966742819927
71.38775 404.978604200403
71.40786 454.939674638324
71.42798 437.033316780827
71.44809 420.999152609847
71.4682 433
71.48832 427.960964501694
71.50843 391.024278395221
71.52855 449.09336298721
71.54866 441.033006514667
71.56877 444.975173369756
71.58889 449.012940723683
71.609 411
71.62911 434.019425086997
71.64923 459.003385091476
71.66934 460.059324840229
71.68946 500.991690660257
71.70957 463.05644379682
71.72968 440.035772554119
71.7498 406
71.76991 453.01595634288
71.79002 456.010848177856
71.81014 474.980763871477
71.83025 442.034946080083
71.85037 457.977662856488
71.87048 456.00376969996
71.89059 468.983496910087
71.91071 490.988061354593
71.93082 428.942975361608
71.95093 415.037965286436
71.97105 457.09892766841
71.99116 471.033237215133
72.01127 444.018173831074
72.03139 449.998879563588
72.0515 444
72.07162 460.015032903729
72.09173 460.981090256755
72.11184 444.981113166092
72.13196 446.982830278061
72.15207 455.988088826482
72.17218 464.986613636135
72.1923 481
72.21241 473.980498935374
72.23253 446.057766966959
72.25264 502.943705669345
72.27275 406.111733502514
72.29287 455.899612707471
72.31298 469.034972441129
72.33309 426.008180588039
72.35321 436.000904802078
72.37332 420.994117200149
72.39344 438.055613737745
72.41355 466.07253867341
72.43366 484.0134743688
72.45378 455.035059734027
72.47389 445.983224530473
72.494 486
72.51412 451.008393358883
72.53423 507.054259117005
72.55434 487.913952160308
72.57446 454.043839157867
72.59457 438.027092923924
72.61469 428.990225026087
72.6348 464
72.65491 450.988263113438
72.67503 429.962516381212
72.69514 421.067913545542
72.71525 480.897848324592
72.73537 479.037048087165
72.75548 439.067227160231
72.7756 390
72.79571 463.013223599808
72.81582 431.991314795401
72.83594 468.046834375195
72.85605 458.018560140436
72.87616 459.041326913294
72.89628 427.002212600149
72.91639 451.995764571038
72.9365 438
72.95662 460.010540289938
72.97673 449.988466141408
72.99685 466.095713106445
73.01696 503.969182191217
73.03707 497.011690313306
73.05719 487.017496733044
73.0773 440
73.09741 442.9964603089
73.11753 431.035688543506
73.13764 478.033308004854
73.15776 457.025452516579
73.17787 469.984396946817
73.19798 466.001958074346
73.2181 466
73.23821 443.997218993884
73.25832 463.027903398485
73.27844 481.008712744541
73.29855 474.031118824457
73.31867 474.958701602231
73.33878 503.011273984615
73.35889 457.017970417138
73.37901 466.022286619113
73.39912 508.009851504131
73.41923 489.981235684943
73.43935 496.011204225155
73.45946 493.98708502399
73.47957 503.014175769377
73.49969 477.009613993469
73.5198 489
73.53992 527.993082545977
73.56003 478.929462959186
73.58014 468.032264855245
73.60026 487.981529466773
73.62037 483.012741120036
73.64048 479.999134974267
73.6606 471
73.68071 445.008960805328
73.70083 485.001390543299
73.72094 451.997814084942
73.74105 499.880569660739
73.76117 509.030141813149
73.78128 479.029854058777
73.80139 463.997419907734
73.82151 473.997104977185
73.84162 462.011998845752
73.86174 481.963409586623
73.88185 438.980361772484
73.90196 472.954451939404
73.92208 460.020654493906
73.94219 456.993938819353
73.9623 467
73.98242 450.997935382124
74.00253 465.014071481376
74.02264 473.060380294747
74.04276 504.027809941684
74.06287 456.038300383119
74.08299 478.979435347779
74.1031 495
74.12321 455.990441830369
74.14333 470.036885658627
74.16344 491.050428536878
74.18355 502.074754086525
74.20367 451.037384431474
74.22378 457.004947930055
74.2439 433
74.26401 439.994944904007
74.28412 423.019484768495
74.30424 469.037741529171
74.32435 444.080356242895
74.34446 435.977538968034
74.36458 461.959249378068
74.38469 493.002071395697
74.40481 460.986479247944
74.42492 457.004944902571
74.44503 453.979516249882
74.46515 431.937429044252
74.48526 425.939678606541
74.50537 464.995577012983
74.52549 437.004389568003
74.5456 468
74.56571 483.992300288591
74.58583 451.95904097334
74.60594 440.992790366791
74.62606 443.96442494124
74.64617 466.985005396869
74.66628 456.021812759677
74.6864 440
74.70651 448.005551024122
74.72662 446.979744116174
74.74674 435.062324821847
74.76685 478.02996912525
74.78697 418.050982478748
74.80708 435.977680838661
74.82719 444.987345497507
74.84731 473.994894089535
74.86742 436.991555237154
74.88753 464.021511063074
74.90765 444.936841897551
74.92776 435.993481078319
74.94787 453.941185748589
74.96799 478.017428335886
74.9881 412
75.00822 462.087124087094
