3.00117 20541
3.02128 19634
3.0414 19350
3.06151 18988
3.08162 18359
3.10174 17847
3.12185 17282
3.14197 17078
3.16208 16334
3.18219 15837
3.20231 15662
3.22242 14786
3.24253 14589
3.26265 14041
3.28276 13730
3.30288 13446
3.32299 12760
3.3431 12494
3.36322 11980
3.38333 11665
3.40344 11565
3.42356 10765
3.44367 10757
3.46379 10177
3.4839 9857
3.50401 9567
3.52413 9014
3.54424 9065
3.56435 8727
3.58447 8303
3.60458 8077
3.62469 7536
3.64481 7474
3.66492 7117
3.68504 6809
3.70515 6695
3.72526 6314
3.74538 6289
3.76549 5888
3.7856 5623
3.80572 5424
3.82583 5116
3.84595 5083
3.86606 4755
3.88617 4623
3.90629 4436
3.9264 4110
3.94651 4238
3.96663 3995
3.98674 3617
4.00686 3491
4.02697 3374
4.04708 3219
4.0672 3080
4.08731 2972
4.10742 2872
4.12754 2762
4.14765 2650
4.16776 2526
4.18788 2378
4.20799 2216
4.22811 2106
4.24822 2157
4.26833 2179
4.28845 2006
4.30856 1835
4.32867 1860
4.34879 1854
4.3689 1807
4.38902 1641
4.40913 1715
4.42924 1697
4.44936 1615
4.46947 1632
4.48958 1490
4.5097 1514
4.52981 1446
4.54992 1485
4.57004 1486
4.59015 1244
4.61027 1312
4.63038 1309
4.65049 1288
4.67061 1246
4.69072 1163
4.71083 1172
4.73095 1132
4.75106 1138
4.77118 1091
4.79129 983
4.8114 1009
4.83152 1107
4.85163 1073
4.87174 996
4.89186 997
4.91197 890
4.93209 942
4.9522 917
4.97231 861
4.99243 867
5.01254 865
5.03265 819
5.05277 894
5.07288 871
5.09299 810
5.11311 722
5.13322 704
5.15334 719
5.17345 752
5.19356 685
5.21368 676
5.23379 653
5.2539 670
5.27402 666
5.29413 663
5.31425 619
5.33436 651
5.35447 616
5.37459 593
5.3947 603
5.41481 609
5.43493 582
5.45504 614
5.47516 496
5.49527 531
5.51538 563
5.5355 569
5.55561 561
5.57572 506
5.59584 544
5.61595 465
5.63606 503
5.65618 503
5.67629 423
5.69641 473
5.71652 484
5.73663 457
5.75675 470
5.77686 446
5.79697 441
5.81709 427
5.8372 426
5.85732 446
5.87743 412
5.89754 418
5.91766 421
5.93777 421
5.95788 430
5.978 474
5.99811 412
6.01823 435
6.03834 415
6.05845 368
6.07857 407
6.09868 393
6.11879 403
6.13891 396
6.15902 409
6.17913 419
6.19925 399
6.21936 347
6.23948 366
6.25959 374
6.2797 383
6.29982 369
6.31993 375
6.34004 378
6.36016 379
6.38027 360
6.40039 370
6.4205 382
6.44061 350
6.46073 348
6.48084 379
6.50095 348
6.52107 361
6.54118 323
6.56129 354
6.58141 348
6.60152 365
6.62164 388
6.64175 365
6.66186 387
6.68198 342
6.70209 376
6.7222 348
6.74232 342
6.76243 329
6.78255 355
6.80266 360
6.82277 333
6.84289 339
6.863 316
6.88311 342
6.90323 378
6.92334 347
6.94346 382
6.96357 349
6.98368 343
7.0038 363
7.02391 323
7.04402 336
7.06414 317
7.08425 310
7.10436 329
7.12448 382
7.14459 349
7.16471 333
7.18482 335
7.20493 354
7.22505 296
7.24516 309
7.26527 333
7.28539 305
7.3055 323
7.32562 330
7.34573 316
7.36584 323
7.38596 337
7.40607 343
7.42618 329
7.4463 332
7.46641 354
7.48653 304
7.50664 324
7.52675 312
7.54687 308
7.56698 377
7.58709 329
7.60721 302
7.62732 340
7.64743 316
7.66755 321
7.68766 304
7.70778 347
7.72789 345
7.748 309
7.76812 303
7.78823 350
7.80834 312
7.82846 347
7.84857 339
7.86869 330
7.8888 323
7.90891 315
7.92903 373
7.94914 359
7.96925 309
7.98937 315
8.00948 293
8.0296 346
8.04971 296
8.06982 373
8.08994 328
8.11005 354
8.13016 357
8.15028 355
8.17039 336
8.1905 308
8.21062 294
8.23073 334
8.25085 345
8.27096 366
8.29107 309
8.31119 319
8.3313 322
8.35141 342
8.37153 290
8.39164 360
8.41176 293
8.43187 339
8.45198 335
8.4721 329
8.49221 362
8.51232 357
8.53244 340
8.55255 310
8.57266 326
8.59278 367
8.61289 336
8.63301 386
8.65312 335
8.67323 352
8.69335 351
8.71346 316
8.73357 362
8.75369 313
8.7738 313
8.79392 335
8.81403 349
8.83414 377
8.85426 337
8.87437 331
8.89448 329
8.9146 364
8.93471 315
8.95483 296
8.97494 337
8.99505 321
9.01517 349
9.03528 342
9.05539 351
9.07551 324
9.09562 300
9.11573 331
9.13585 340
9.15596 324
9.17608 334
9.19619 305
9.2163 314
9.23642 330
9.25653 307
9.27664 359
9.29676 336
9.31687 323
9.33699 321
9.3571 329
9.37721 340
9.39733 332
9.41744 313
9.43755 332
9.45767 333
9.47778 315
9.4979 349
9.51801 323
9.53812 336
9.55824 341
9.57835 304
9.59846 329
9.61858 339
9.63869 316
9.6588 340
9.67892 327
9.69903 343
9.71915 349
9.73926 364
9.75937 301
9.77949 332
9.7996 273
9.81971 331
9.83983 338
9.85994 327
9.88006 331
9.90017 333
9.92028 331
9.9404 346
9.96051 316
9.98062 303
10.00074 304
10.02085 302
10.04097 339
10.06108 302
10.08119 367
10.10131 354
10.12142 328
10.14153 371
10.16165 298
10.18176 304
10.20187 351
10.22199 326
10.2421 343
10.26222 341
10.28233 362
10.30244 309
10.32256 359
10.34267 335
10.36278 365
10.3829 328
10.40301 350
10.42313 381
10.44324 350
10.46335 386
10.48347 377
10.50358 370
10.52369 310
10.54381 357
10.56392 324
10.58403 365
10.60415 336
10.62426 323
10.64438 339
10.66449 302
10.6846 311
10.70472 366
10.72483 337
10.74494 304
10.76506 367
10.78517 350
10.80529 357
10.8254 350
10.84551 344
10.86563 304
10.88574 326
10.90585 310
10.92597 327
10.94608 363
10.9662 339
10.98631 333
11.00642 361
11.02654 346
11.04665 325
11.06676 347
11.08688 332
11.10699 348
11.1271 363
11.14722 307
11.16733 373
11.18745 323
11.20756 310
11.22767 333
11.24779 322
11.2679 339
11.28801 356
11.30813 325
11.32824 348
11.34836 346
11.36847 361
11.38858 343
11.4087 362
11.42881 389
11.44892 346
11.46904 375
11.48915 361
11.50927 354
11.52938 349
11.54949 342
11.56961 347
11.58972 381
11.60983 365
11.62995 345
11.65006 362
11.67017 358
11.69029 322
11.7104 349
11.73052 367
11.75063 371
11.77074 360
11.79086 354
11.81097 369
11.83108 367
11.8512 325
11.87131 349
11.89143 345
11.91154 348
11.93165 322
11.95177 371
11.97188 325
11.99199 363
12.01211 343
12.03222 309
12.05234 346
12.07245 350
12.09256 335
12.11268 337
12.13279 335
12.1529 349
12.17302 346
12.19313 322
12.21324 315
12.23336 327
12.25347 327
12.27359 334
12.2937 329
12.31381 310
12.33393 340
12.35404 319
12.37415 348
12.39427 338
12.41438 342
12.4345 320
12.45461 317
12.47472 283
12.49484 305
12.51495 317
12.53506 340
12.55518 295
12.57529 291
12.5954 268
12.61552 317
12.63563 290
12.65575 296
12.67586 296
12.69597 289
12.71609 297
12.7362 288
12.75631 334
12.77643 300
12.79654 277
12.81666 330
12.83677 295
12.85688 319
12.877 251
12.89711 304
12.91722 308
12.93734 267
12.95745 308
12.97757 329
12.99768 323
13.01779 295
13.03791 286
13.05802 299
13.07813 311
13.09825 338
13.11836 305
13.13847 282
13.15859 307
13.1787 256
13.19882 294
13.21893 304
13.23904 288
13.25916 286
13.27927 321
13.29938 279
13.3195 304
13.33961 309
13.35973 276
13.37984 303
13.39995 307
13.42007 311
13.44018 309
13.46029 301
13.48041 313
13.50052 277
13.52064 279
13.54075 323
13.56086 295
13.58098 305
13.60109 262
13.6212 304
13.64132 310
13.66143 290
13.68154 299
13.70166 310
13.72177 324
13.74189 311
13.762 261
13.78211 301
13.80223 294
13.82234 298
13.84245 306
13.86257 319
13.88268 303
13.9028 340
13.92291 299
13.94302 286
13.96314 298
13.98325 273
14.00336 286
14.02348 270
14.04359 263
14.06371 272
14.08382 306
14.10393 298
14.12405 303
14.14416 318
14.16427 289
14.18439 304
14.2045 287
14.22461 267
14.24473 277
14.26484 287
14.28496 264
14.30507 285
14.32518 247
14.3453 303
14.36541 292
14.38552 245
14.40564 272
14.42575 281
14.44587 283
14.46598 322
14.48609 278
14.50621 298
14.52632 315
14.54643 228
14.56655 287
14.58666 303
14.60677 266
14.62689 271
14.647 309
14.66712 272
14.68723 278
14.70734 284
14.72746 272
14.74757 265
14.76768 278
14.7878 279
14.80791 282
14.82803 311
14.84814 265
14.86825 280
14.88837 258
14.90848 285
14.92859 274
14.94871 264
14.96882 306
14.98894 300
15.00905 288
15.02916 258
15.04928 285
15.06939 254
15.0895 274
15.10962 268
15.12973 264
15.14984 261
15.16996 259
15.19007 291
15.21019 294
15.2303 279
15.25041 267
15.27053 272
15.29064 297
15.31075 270
15.33087 304
15.35098 309
15.3711 276
15.39121 280
15.41132 264
15.43144 289
15.45155 273
15.47166 259
15.49178 253
15.51189 265
15.53201 286
15.55212 277
15.57223 264
15.59235 283
15.61246 260
15.63257 279
15.65269 260
15.6728 270
15.69291 266
15.71303 275
15.73314 251
15.75326 256
15.77337 265
15.79348 255
15.8136 290
15.83371 281
15.85382 271
15.87394 254
15.89405 288
15.91417 287
15.93428 251
15.95439 260
15.97451 300
15.99462 265
16.01473 276
16.03485 250
16.05496 267
16.07508 252
16.09519 276
16.1153 259
16.13542 280
16.15553 256
16.17564 254
16.19576 255
16.21587 241
16.23598 264
16.2561 274
16.27621 255
16.29633 272
16.31644 281
16.33655 249
16.35667 280
16.37678 291
16.39689 251
16.41701 295
16.43712 274
16.45724 262
16.47735 262
16.49746 288
16.51758 267
16.53769 276
16.5578 266
16.57792 284
16.59803 286
16.61814 247
16.63826 233
16.65837 253
16.67849 294
16.6986 282
16.71871 286
16.73883 281
16.75894 266
16.77905 295
16.79917 243
16.81928 288
16.8394 268
16.85951 275
16.87962 279
16.89974 285
16.91985 293
16.93996 252
16.96008 287
16.98019 254
17.00031 262
17.02042 257
17.04053 303
17.06065 289
17.08076 225
17.10087 298
17.12099 261
17.1411 289
17.16121 289
17.18133 257
17.20144 270
17.22156 259
17.24167 249
17.26178 285
17.2819 265
17.30201 282
17.32212 288
17.34224 289
17.36235 267
17.38247 283
17.40258 234
17.42269 268
17.44281 242
17.46292 317
17.48303 291
17.50315 299
17.52326 310
17.54338 258
17.56349 297
17.5836 285
17.60372 277
17.62383 296
17.64394 285
17.66406 307
17.68417 231
17.70428 298
17.7244 278
17.74451 284
17.76463 299
17.78474 283
17.80485 260
17.82497 264
17.84508 277
17.86519 280
17.88531 298
17.90542 286
17.92554 281
17.94565 285
17.96576 264
17.98588 283
18.00599 308
18.0261 274
18.04622 289
18.06633 275
18.08645 298
18.10656 290
18.12667 294
18.14679 286
18.1669 233
18.18701 281
18.20713 274
18.22724 279
18.24735 266
18.26747 271
18.28758 285
18.3077 291
18.32781 309
18.34792 281
18.36804 287
18.38815 292
18.40826 271
18.42838 274
18.44849 277
18.46861 284
18.48872 273
18.50883 288
18.52895 263
18.54906 267
18.56917 266
18.58929 293
18.6094 301
18.62951 276
18.64963 284
18.66974 265
18.68986 255
18.70997 290
18.73008 293
18.7502 266
18.77031 297
18.79042 252
18.81054 270
18.83065 302
18.85077 316
18.87088 256
18.89099 284
18.91111 250
18.93122 289
18.95133 272
18.97145 281
18.99156 275
19.01168 307
19.03179 281
19.0519 277
19.07202 284
19.09213 268
19.11224 282
19.13236 255
19.15247 270
19.17258 322
19.1927 291
19.21281 299
19.23293 289
19.25304 319
19.27315 299
19.29327 316
19.31338 306
19.33349 289
19.35361 287
19.37372 289
19.39384 304
19.41395 284
19.43406 273
19.45418 295
19.47429 330
19.4944 315
19.51452 329
19.53463 357
19.55475 354
19.57486 342
19.59497 351
19.61509 364
19.6352 403
19.65531 391
19.67543 396
19.69554 383
19.71565 401
19.73577 431
19.75588 468
19.776 436
19.79611 424
19.81622 473
19.83634 438
19.85645 459
19.87656 490
19.89668 510
19.91679 458
19.93691 458
19.95702 458
19.97713 453
19.99725 467
20.01736 454
20.03747 442
20.05759 454
20.0777 448
20.09782 471
20.11793 429
20.13804 473
20.15816 434
20.17827 491
20.19838 442
20.2185 436
20.23861 452
20.25872 432
20.27884 486
20.29895 459
20.31907 467
20.33918 498
20.35929 454
20.37941 482
20.39952 469
20.41963 491
20.43975 513
20.45986 479
20.47998 479
20.50009 547
20.5202 548
20.54032 532
20.56043 534
20.58054 628
20.60066 710
20.62077 760
20.64088 902
20.661 1130
20.68111 1327
20.70123 1731
20.72134 2231
20.74145 2760
20.76157 3425
20.78168 3967
20.80179 4428
20.82191 4883
20.84202 4725
20.86214 4381
20.88225 3635
20.90236 2720
20.92248 1877
20.94259 1324
20.9627 942
20.98282 824
21.00293 731
21.02305 692
21.04316 629
21.06327 641
21.08339 544
21.1035 525
21.12361 513
21.14373 523
21.16384 526
21.18395 552
21.20407 502
21.22418 499
21.2443 509
21.26441 483
21.28452 461
21.30464 470
21.32475 457
21.34486 469
21.36498 500
21.38509 451
21.40521 459
21.42532 473
21.44543 449
21.46555 442
21.48566 387
21.50577 441
21.52589 370
21.546 395
21.56612 432
21.58623 423
21.60634 422
21.62646 358
21.64657 418
21.66668 401
21.6868 398
21.70691 406
21.72702 409
21.74714 413
21.76725 355
21.78737 376
21.80748 387
21.82759 375
21.84771 387
21.86782 451
21.88793 381
21.90805 401
21.92816 437
21.94828 412
21.96839 456
21.9885 440
22.00862 433
22.02873 451
22.04884 397
22.06896 401
22.08907 412
22.10919 366
22.1293 363
22.14941 367
22.16953 378
22.18964 366
22.20975 358
22.22987 380
22.24998 424
22.27009 378
22.29021 376
22.31032 359
22.33044 363
22.35055 407
22.37066 336
22.39078 353
22.41089 340
22.431 329
22.45112 332
22.47123 352
22.49135 330
22.51146 315
22.53157 367
22.55169 317
22.5718 304
22.59191 333
22.61203 316
22.63214 338
22.65225 348
22.67237 343
22.69248 361
22.7126 353
22.73271 294
22.75282 317
22.77294 342
22.79305 358
22.81316 349
22.83328 344
22.85339 328
22.87351 342
22.89362 375
22.91373 342
22.93385 327
22.95396 347
22.97407 352
22.99419 363
23.0143 390
23.03442 340
23.05453 370
23.07464 320
23.09476 375
23.11487 384
23.13498 396
23.1551 337
23.17521 373
23.19532 356
23.21544 364
23.23555 373
23.25567 373
23.27578 342
23.29589 316
23.31601 299
23.33612 328
23.35623 328
23.37635 361
23.39646 322
23.41658 330
23.43669 379
23.4568 380
23.47692 331
23.49703 348
23.51714 352
23.53726 364
23.55737 344
23.57749 361
23.5976 387
23.61771 325
23.63783 398
23.65794 357
23.67805 368
23.69817 327
23.71828 369
23.73839 350
23.75851 369
23.77862 384
23.79874 409
23.81885 375
23.83896 400
23.85908 412
23.87919 420
23.8993 437
23.91942 449
23.93953 401
23.95965 411
23.97976 452
23.99987 449
24.01999 433
24.0401 412
24.06021 421
24.08033 366
24.10044 416
24.12056 367
24.14067 414
24.16078 397
24.1809 396
24.20101 364
24.22112 405
24.24124 391
24.26135 413
24.28146 418
24.30158 359
24.32169 433
24.34181 382
24.36192 378
24.38203 419
24.40215 385
24.42226 420
24.44237 393
24.46249 341
24.4826 362
24.50272 365
24.52283 356
24.54294 377
24.56306 359
24.58317 369
24.60328 359
24.6234 364
24.64351 371
24.66362 325
24.68374 404
24.70385 354
24.72397 373
24.74408 389
24.76419 364
24.78431 386
24.80442 373
24.82453 351
24.84465 358
24.86476 396
24.88488 372
24.90499 371
24.9251 396
24.94522 381
24.96533 397
24.98544 395
25.00556 350
25.02567 368
25.04579 397
25.0659 364
25.08601 365
25.10613 400
25.12624 408
25.14635 389
25.16647 378
25.18658 373
25.20669 386
25.22681 421
25.24692 394
25.26704 383
25.28715 413
25.30726 414
25.32738 405
25.34749 410
25.3676 394
25.38772 417
25.40783 420
25.42795 428
25.44806 461
25.46817 408
25.48829 455
25.5084 433
25.52851 461
25.54863 458
25.56874 454
25.58886 467
25.60897 470
25.62908 453
25.6492 467
25.66931 477
25.68942 496
25.70954 469
25.72965 498
25.74976 493
25.76988 468
25.78999 534
25.81011 494
25.83022 483
25.85033 492
25.87045 579
25.89056 485
25.91067 526
25.93079 507
25.9509 545
25.97102 569
25.99113 605
26.01124 570
26.03136 569
26.05147 600
26.07158 559
26.0917 675
26.11181 704
26.13193 695
26.15204 761
26.17215 859
26.19227 822
26.21238 873
26.23249 961
26.25261 997
26.27272 1172
26.29283 1235
26.31295 1374
26.33306 1559
26.35318 1956
26.37329 2312
26.3934 2785
26.41352 3666
26.43363 4761
26.45374 5926
26.47386 7645
26.49397 9880
26.51409 12370
26.5342 14801
26.55431 17542
26.57443 19967
26.59454 20930
26.61465 20976
26.63477 19158
26.65488 16009
26.67499 12043
26.69511 9032
26.71522 6388
26.73534 4067
26.75545 2604
26.77556 1821
26.79568 1370
26.81579 1243
26.8359 1113
26.85602 986
26.87613 1007
26.89625 893
26.91636 826
26.93647 818
26.95659 695
26.9767 664
26.99681 715
27.01693 650
27.03704 643
27.05716 605
27.07727 577
27.09738 573
27.1175 515
27.13761 503
27.15772 502
27.17784 539
27.19795 514
27.21806 506
27.23818 513
27.25829 486
27.27841 508
27.29852 555
27.31863 570
27.33875 548
27.35886 586
27.37897 646
27.39909 604
27.4192 587
27.43932 602
27.45943 617
27.47954 591
27.49966 542
27.51977 475
27.53988 511
27.56 474
27.58011 468
27.60023 436
27.62034 444
27.64045 455
27.66057 444
27.68068 523
27.70079 490
27.72091 500
27.74102 499
27.76113 544
27.78125 486
27.80136 554
27.82148 550
27.84159 519
27.8617 530
27.88182 501
27.90193 510
27.92204 487
27.94216 537
27.96227 471
27.98239 423
28.0025 428
28.02261 461
28.04273 402
28.06284 381
28.08295 388
28.10307 389
28.12318 414
28.1433 398
28.16341 381
28.18352 384
28.20364 352
28.22375 359
28.24386 368
28.26398 391
28.28409 398
28.3042 413
28.32432 405
28.34443 418
28.36455 372
28.38466 393
28.40477 369
28.42489 352
28.445 353
28.46511 346
28.48523 351
28.50534 338
28.52546 353
28.54557 378
28.56568 330
28.5858 379
28.60591 343
28.62602 360
28.64614 324
28.66625 338
28.68636 357
28.70648 310
28.72659 337
28.74671 322
28.76682 341
28.78693 299
28.80705 341
28.82716 326
28.84727 326
28.86739 377
28.8875 326
28.90762 351
28.92773 329
28.94784 328
28.96796 334
28.98807 292
29.00818 314
29.0283 308
29.04841 325
29.06853 325
29.08864 366
29.10875 326
29.12887 330
29.14898 326
29.16909 322
29.18921 357
29.20932 345
29.22943 361
29.24955 349
29.26966 326
29.28978 331
29.30989 342
29.33 370
29.35012 342
29.37023 350
29.39034 379
29.41046 334
29.43057 321
29.45069 359
29.4708 317
29.49091 302
29.51103 353
29.53114 312
29.55125 359
29.57137 314
29.59148 285
29.6116 308
29.63171 337
29.65182 376
29.67194 326
29.69205 321
29.71216 305
29.73228 343
29.75239 326
29.7725 311
29.79262 330
29.81273 347
29.83285 378
29.85296 359
29.87307 309
29.89319 320
29.9133 327
29.93341 325
29.95353 348
29.97364 331
29.99376 357
30.01387 328
30.03398 316
30.0541 340
30.07421 342
30.09432 350
30.11444 357
30.13455 392
30.15467 369
30.17478 336
30.19489 368
30.21501 336
30.23512 348
30.25523 338
30.27535 352
30.29546 354
30.31557 326
30.33569 351
30.3558 328
30.37592 340
30.39603 327
30.41614 334
30.43626 343
30.45637 350
30.47648 326
30.4966 334
30.51671 329
30.53683 338
30.55694 349
30.57705 344
30.59717 322
30.61728 344
30.63739 333
30.65751 341
30.67762 353
30.69773 330
30.71785 376
30.73796 358
30.75808 349
30.77819 368
30.7983 342
30.81842 398
30.83853 335
30.85864 338
30.87876 315
30.89887 345
30.91899 315
30.9391 306
30.95921 337
30.97933 307
30.99944 295
31.01955 272
31.03967 301
31.05978 313
31.0799 292
31.10001 298
31.12012 283
31.14024 322
31.16035 303
31.18046 315
31.20058 314
31.22069 300
31.2408 314
31.26092 326
31.28103 279
31.30115 304
31.32126 299
31.34137 288
31.36149 321
31.3816 294
31.40171 325
31.42183 295
31.44194 303
31.46206 249
31.48217 311
31.50228 323
31.5224 339
31.54251 283
31.56262 274
31.58274 308
31.60285 265
31.62297 307
31.64308 284
31.66319 294
31.68331 317
31.70342 307
31.72353 283
31.74365 327
31.76376 286
31.78387 315
31.80399 301
31.8241 289
31.84422 315
31.86433 299
31.88444 327
31.90456 307
31.92467 279
31.94478 273
31.9649 313
31.98501 307
32.00513 309
32.02524 282
32.04535 298
32.06547 304
32.08558 318
32.10569 296
32.12581 323
32.14592 310
32.16604 294
32.18615 294
32.20626 299
32.22638 305
32.24649 314
32.2666 349
32.28672 307
32.30683 315
32.32694 335
32.34706 305
32.36717 327
32.38729 335
32.4074 323
32.42751 314
32.44763 304
32.46774 339
32.48785 343
32.50797 334
32.52808 312
32.5482 329
32.56831 301
32.58842 321
32.60854 298
32.62865 326
32.64876 291
32.66888 321
32.68899 319
32.7091 326
32.72922 316
32.74933 305
32.76945 312
32.78956 308
32.80967 318
32.82979 346
32.8499 351
32.87001 366
32.89013 360
32.91024 332
32.93036 381
32.95047 346
32.97058 373
32.9907 361
33.01081 370
33.03092 349
33.05104 356
33.07115 335
33.09127 374
33.11138 345
33.13149 324
33.15161 354
33.17172 379
33.19183 371
33.21195 340
33.23206 382
33.25217 385
33.27229 351
33.2924 362
33.31252 339
33.33263 353
33.35274 336
33.37286 339
33.39297 353
33.41308 329
33.4332 337
33.45331 347
33.47343 365
33.49354 339
33.51365 323
33.53377 345
33.55388 347
33.57399 326
33.59411 326
33.61422 339
33.63434 302
33.65445 310
33.67456 291
33.69468 324
33.71479 303
33.7349 305
33.75502 321
33.77513 329
33.79524 296
33.81536 313
33.83547 320
33.85559 324
33.8757 307
33.89581 304
33.91593 304
33.93604 324
33.95615 319
33.97627 311
33.99638 299
34.0165 308
34.03661 290
34.05672 355
34.07684 308
34.09695 288
34.11706 316
34.13718 305
34.15729 283
34.17741 361
34.19752 288
34.21763 315
34.23775 293
34.25786 341
34.27797 325
34.29809 315
34.3182 324
34.33831 320
34.35843 329
34.37854 362
34.39866 336
34.41877 300
34.43888 333
34.459 363
34.47911 352
34.49922 339
34.51934 354
34.53945 315
34.55957 354
34.57968 364
34.59979 332
34.61991 316
34.64002 388
34.66013 394
34.68025 367
34.70036 326
34.72047 377
34.74059 362
34.7607 435
34.78082 369
34.80093 372
34.82104 363
34.84116 399
34.86127 393
34.88138 398
34.9015 416
34.92161 379
34.94173 409
34.96184 386
34.98195 407
35.00207 389
35.02218 375
35.04229 384
35.06241 408
35.08252 388
35.10264 410
35.12275 361
35.14286 376
35.16298 384
35.18309 390
35.2032 387
35.22332 396
35.24343 351
35.26354 402
35.28366 382
35.30377 417
35.32389 381
35.344 405
35.36411 403
35.38423 434
35.40434 442
35.42445 437
35.44457 386
35.46468 461
35.4848 438
35.50491 429
35.52502 470
35.54514 423
35.56525 415
35.58536 405
35.60548 413
35.62559 448
35.64571 413
35.66582 358
35.68593 415
35.70605 396
35.72616 393
35.74627 421
35.76639 402
35.7865 398
35.80661 432
35.82673 414
35.84684 388
35.86696 407
35.88707 371
35.90718 372
35.9273 392
35.94741 382
35.96752 345
35.98764 383
36.00775 395
36.02787 378
36.04798 369
36.06809 378
36.08821 406
36.10832 397
36.12843 387
36.14855 431
36.16866 425
36.18878 456
36.20889 446
36.229 498
36.24912 490
36.26923 531
36.28934 521
36.30946 603
36.32957 674
36.34968 822
36.3698 967
36.38991 1075
36.41003 1206
36.43014 1320
36.45025 1459
36.47037 1561
36.49048 1610
36.51059 1570
36.53071 1625
36.55082 1451
36.57094 1130
36.59105 990
36.61116 912
36.63128 817
36.65139 683
36.6715 581
36.69162 529
36.71173 450
36.73184 437
36.75196 459
36.77207 446
36.79219 440
36.8123 424
36.83241 413
36.85253 443
36.87264 384
36.89275 396
36.91287 391
36.93298 412
36.9531 417
36.97321 398
36.99332 408
37.01344 339
37.03355 368
37.05366 371
37.07378 382
37.09389 360
37.11401 335
37.13412 378
37.15423 334
37.17435 336
37.19446 332
37.21457 352
37.23469 351
37.2548 345
37.27491 302
37.29503 350
37.31514 357
37.33526 324
37.35537 348
37.37548 342
37.3956 328
37.41571 348
37.43582 332
37.45594 328
37.47605 340
37.49617 311
37.51628 301
37.53639 341
37.55651 341
37.57662 329
37.59673 339
37.61685 319
37.63696 333
37.65708 331
37.67719 339
37.6973 297
37.71742 346
37.73753 334
37.75764 304
37.77776 294
37.79787 301
37.81798 310
37.8381 326
37.85821 366
37.87833 317
37.89844 305
37.91855 297
37.93867 324
37.95878 317
37.97889 338
37.99901 278
38.01912 292
38.03924 304
38.05935 338
38.07946 298
38.09958 328
38.11969 341
38.1398 330
38.15992 311
38.18003 343
38.20015 291
38.22026 328
38.24037 308
38.26049 315
38.2806 321
38.30071 318
38.32083 339
38.34094 306
38.36105 306
38.38117 325
38.40128 326
38.4214 289
38.44151 345
38.46162 294
38.48174 291
38.50185 311
38.52196 336
38.54208 312
38.56219 288
38.58231 325
38.60242 299
38.62253 331
38.64265 345
38.66276 304
38.68287 336
38.70299 322
38.7231 285
38.74321 322
38.76333 281
38.78344 313
38.80356 313
38.82367 303
38.84378 298
38.8639 334
38.88401 335
38.90412 353
38.92424 348
38.94435 324
38.96447 344
38.98458 366
39.00469 344
39.02481 360
39.04492 366
39.06503 352
39.08515 346
39.10526 376
39.12538 415
39.14549 436
39.1656 452
39.18572 460
39.20583 547
39.22594 559
39.24606 653
39.26617 724
39.28628 810
39.3064 935
39.32651 1074
39.34663 1220
39.36674 1338
39.38685 1407
39.40697 1527
39.42708 1515
39.44719 1439
39.46731 1245
39.48742 1104
39.50754 1002
39.52765 854
39.54776 737
39.56788 628
39.58799 528
39.6081 454
39.62822 418
39.64833 390
39.66845 339
39.68856 356
39.70867 359
39.72879 350
39.7489 346
39.76901 349
39.78913 337
39.80924 305
39.82935 301
39.84947 350
39.86958 310
39.8897 330
39.90981 331
39.92992 355
39.95004 348
39.97015 360
39.99026 391
40.01038 403
40.03049 427
40.05061 431
40.07072 462
40.09083 565
40.11095 543
40.13106 665
40.15117 713
40.17129 743
40.1914 844
40.21152 905
40.23163 877
40.25174 957
40.27186 829
40.29197 763
40.31208 684
40.3322 621
40.35231 567
40.37242 538
40.39254 493
40.41265 441
40.43277 375
40.45288 381
40.47299 361
40.49311 335
40.51322 336
40.53333 297
40.55345 340
40.57356 307
40.59368 291
40.61379 316
40.6339 302
40.65402 314
40.67413 340
40.69424 306
40.71436 341
40.73447 306
40.75458 328
40.7747 314
40.79481 306
40.81493 337
40.83504 293
40.85515 330
40.87527 313
40.89538 303
40.91549 290
40.93561 327
40.95572 330
40.97584 328
40.99595 342
41.01606 297
41.03618 340
41.05629 305
41.0764 306
41.09652 306
41.11663 296
41.13675 300
41.15686 307
41.17697 314
41.19709 333
41.2172 323
41.23731 324
41.25743 308
41.27754 331
41.29765 293
41.31777 319
41.33788 303
41.358 287
41.37811 263
41.39822 295
41.41834 277
41.43845 303
41.45856 291
41.47868 323
41.49879 331
41.51891 318
41.53902 294
41.55913 312
41.57925 305
41.59936 313
41.61947 322
41.63959 315
41.6597 336
41.67982 301
41.69993 319
41.72004 331
41.74016 338
41.76027 297
41.78038 327
41.8005 306
41.82061 316
41.84072 321
41.86084 303
41.88095 304
41.90107 312
41.92118 329
41.94129 322
41.96141 322
41.98152 301
42.00163 318
42.02175 295
42.04186 313
42.06198 325
42.08209 314
42.1022 364
42.12232 367
42.14243 369
42.16254 377
42.18266 420
42.20277 454
42.22289 525
42.243 598
42.26311 641
42.28323 743
42.30334 874
42.32345 901
42.34357 1009
42.36368 965
42.38379 1083
42.40391 1107
42.42402 1109
42.44414 1040
42.46425 858
42.48436 754
42.50448 691
42.52459 643
42.5447 576
42.56482 516
42.58493 465
42.60505 361
42.62516 345
42.64527 328
42.66539 320
42.6855 340
42.70561 314
42.72573 300
42.74584 309
42.76595 297
42.78607 295
42.80618 306
42.8263 302
42.84641 282
42.86652 307
42.88664 272
42.90675 258
42.92686 296
42.94698 251
42.96709 295
42.98721 284
43.00732 288
43.02743 281
43.04755 271
43.06766 292
43.08777 293
43.10789 281
43.128 293
43.14812 272
43.16823 280
43.18834 280
43.20846 311
43.22857 279
43.24868 287
43.2688 287
43.28891 263
43.30902 259
43.32914 268
43.34925 266
43.36937 240
43.38948 277
43.40959 274
43.42971 277
43.44982 238
43.46993 276
43.49005 257
43.51016 266
43.53028 272
43.55039 253
43.5705 272
43.59062 269
43.61073 269
43.63084 256
43.65096 267
43.67107 250
43.69119 245
43.7113 303
43.73141 261
43.75153 261
43.77164 249
43.79175 271
43.81187 269
43.83198 249
43.85209 273
43.87221 256
43.89232 271
43.91244 256
43.93255 254
43.95266 269
43.97278 245
43.99289 291
44.013 257
44.03312 280
44.05323 292
44.07335 280
44.09346 281
44.11357 263
44.13369 269
44.1538 232
44.17391 259
44.19403 265
44.21414 270
44.23426 276
44.25437 263
44.27448 269
44.2946 270
44.31471 249
44.33482 270
44.35494 268
44.37505 269
44.39516 268
44.41528 266
44.43539 285
44.45551 266
44.47562 250
44.49573 271
44.51585 249
44.53596 286
44.55607 280
44.57619 261
44.5963 288
44.61642 249
44.63653 245
44.65664 256
44.67676 261
44.69687 259
44.71698 295
44.7371 281
44.75721 258
44.77732 270
44.79744 267
44.81755 252
44.83767 273
44.85778 271
44.87789 278
44.89801 255
44.91812 277
44.93823 255
44.95835 253
44.97846 280
44.99858 247
45.01869 254
45.0388 253
45.05892 284
45.07903 273
45.09914 275
45.11926 281
45.13937 266
45.15949 255
45.1796 287
45.19971 261
45.21983 293
45.23994 283
45.26005 300
45.28017 302
45.30028 263
45.32039 298
45.34051 273
45.36062 308
45.38074 292
45.40085 293
45.42096 295
45.44108 328
45.46119 354
45.4813 357
45.50142 374
45.52153 384
45.54165 399
45.56176 467
45.58187 483
45.60199 547
45.6221 587
45.64221 634
45.66233 702
45.68244 792
45.70256 786
45.72267 761
45.74278 794
45.7629 825
45.78301 711
45.80312 653
45.82324 617
45.84335 578
45.86346 511
45.88358 510
45.90369 415
45.92381 416
45.94392 348
45.96403 317
45.98415 303
46.00426 283
46.02437 264
46.04449 287
46.0646 293
46.08472 287
46.10483 285
46.12494 294
46.14506 269
46.16517 298
46.18528 276
46.2054 254
46.22551 265
46.24563 264
46.26574 273
46.28585 255
46.30597 265
46.32608 256
46.34619 260
46.36631 271
46.38642 260
46.40653 266
46.42665 275
46.44676 259
46.46688 242
46.48699 246
46.5071 262
46.52722 275
46.54733 243
46.56744 227
46.58756 291
46.60767 276
46.62779 258
46.6479 258
46.66801 258
46.68813 272
46.70824 274
46.72835 252
46.74847 250
46.76858 268
46.78869 247
46.80881 256
46.82892 269
46.84904 294
46.86915 265
46.88926 274
46.90938 274
46.92949 268
46.9496 247
46.96972 276
46.98983 283
47.00995 261
47.03006 288
47.05017 250
47.07029 312
47.0904 269
47.11051 279
47.13063 278
47.15074 274
47.17086 284
47.19097 240
47.21108 274
47.2312 271
47.25131 279
47.27142 294
47.29154 261
47.31165 282
47.33176 251
47.35188 288
47.37199 252
47.39211 268
47.41222 265
47.43233 235
47.45245 276
47.47256 238
47.49267 260
47.51279 287
47.5329 272
47.55302 259
47.57313 270
47.59324 267
47.61336 255
47.63347 247
47.65358 281
47.6737 275
47.69381 261
47.71393 250
47.73404 293
47.75415 257
47.77427 266
47.79438 270
47.81449 238
47.83461 260
47.85472 276
47.87483 276
47.89495 233
47.91506 252
47.93518 227
47.95529 244
47.9754 283
47.99552 287
48.01563 245
48.03574 245
48.05586 248
48.07597 236
48.09609 267
48.1162 257
48.13631 258
48.15643 275
48.17654 278
48.19665 256
48.21677 242
48.23688 271
48.257 263
48.27711 261
48.29722 243
48.31734 277
48.33745 274
48.35756 267
48.37768 243
48.39779 277
48.4179 274
48.43802 264
48.45813 254
48.47825 273
48.49836 245
48.51847 258
48.53859 270
48.5587 247
48.57881 312
48.59893 303
48.61904 287
48.63916 288
48.65927 272
48.67938 289
48.6995 286
48.71961 296
48.73972 257
48.75984 262
48.77995 288
48.80006 269
48.82018 258
48.84029 250
48.86041 282
48.88052 276
48.90063 303
48.92075 280
48.94086 237
48.96097 256
48.98109 281
49.0012 285
49.02132 293
49.04143 252
49.06154 305
49.08166 290
49.10177 275
49.12188 297
49.142 259
49.16211 311
49.18223 311
49.20234 301
49.22245 269
49.24257 281
49.26268 281
49.28279 315
49.30291 311
49.32302 289
49.34313 327
49.36325 314
49.38336 326
49.40348 322
49.42359 312
49.4437 286
49.46382 317
49.48393 277
49.50404 303
49.52416 323
49.54427 308
49.56439 343
49.5845 320
49.60461 343
49.62473 336
49.64484 319
49.66495 363
49.68507 404
49.70518 390
49.7253 386
49.74541 418
49.76552 446
49.78564 470
49.80575 528
49.82586 537
49.84598 648
49.86609 734
49.8862 810
49.90632 902
49.92643 1021
49.94655 1236
49.96666 1372
49.98677 1697
50.00689 1776
50.027 1889
50.04711 2115
50.06723 2358
50.08734 2334
50.10746 2243
50.12757 2040
50.14768 1697
50.1678 1498
50.18791 1402
50.20802 1326
50.22814 1180
50.24825 1022
50.26837 868
50.28848 663
50.30859 552
50.32871 467
50.34882 415
50.36893 369
50.38905 381
50.40916 427
50.42927 346
50.44939 341
50.4695 385
50.48962 337
50.50973 365
50.52984 351
50.54996 356
50.57007 357
50.59018 373
50.6103 333
50.63041 302
50.65053 325
50.67064 326
50.69075 288
50.71087 312
50.73098 314
50.75109 300
50.77121 294
50.79132 256
50.81143 310
50.83155 287
50.85166 263
50.87178 275
50.89189 264
50.912 288
50.93212 267
50.95223 252
50.97234 267
50.99246 296
51.01257 230
51.03269 269
51.0528 279
51.07291 280
51.09303 294
51.11314 287
51.13325 275
51.15337 279
51.17348 283
51.1936 269
51.21371 292
51.23382 249
51.25394 256
51.27405 244
51.29416 283
51.31428 262
51.33439 266
51.3545 283
51.37462 274
51.39473 241
51.41485 279
51.43496 275
51.45507 281
51.47519 245
51.4953 269
51.51541 255
51.53553 269
51.55564 267
51.57576 255
51.59587 250
51.61598 269
51.6361 276
51.65621 256
51.67632 262
51.69644 229
51.71655 245
51.73667 239
51.75678 256
51.77689 260
51.79701 234
51.81712 267
51.83723 243
51.85735 244
51.87746 245
51.89757 247
51.91769 238
51.9378 250
51.95792 270
51.97803 280
51.99814 281
52.01826 239
52.03837 267
52.05848 232
52.0786 222
52.09871 242
52.11883 266
52.13894 269
52.15905 243
52.17917 281
52.19928 278
52.21939 247
52.23951 228
52.25962 257
52.27974 261
52.29985 249
52.31996 259
52.34008 254
52.36019 253
52.3803 230
52.40042 247
52.42053 255
52.44064 249
52.46076 252
52.48087 285
52.50099 289
52.5211 264
52.54121 265
52.56133 260
52.58144 245
52.60155 235
52.62167 252
52.64178 272
52.6619 261
52.68201 256
52.70212 239
52.72224 260
52.74235 258
52.76246 262
52.78258 253
52.80269 284
52.8228 281
52.84292 281
52.86303 279
52.88315 320
52.90326 277
52.92337 268
52.94349 271
52.9636 263
52.98371 278
53.00383 307
53.02394 289
53.04406 306
53.06417 261
53.08428 297
53.1044 274
53.12451 313
53.14462 279
53.16474 290
53.18485 291
53.20497 279
53.22508 306
53.24519 294
53.26531 268
53.28542 266
53.30553 314
53.32565 317
53.34576 300
53.36587 304
53.38599 292
53.4061 280
53.42622 307
53.44633 275
53.46644 288
53.48656 290
53.50667 286
53.52678 297
53.5469 293
53.56701 311
53.58713 290
53.60724 318
53.62735 313
53.64747 326
53.66758 298
53.68769 304
53.70781 292
53.72792 307
53.74804 297
53.76815 284
53.78826 336
53.80838 312
53.82849 329
53.8486 292
53.86872 327
53.88883 317
53.90894 321
53.92906 307
53.94917 333
53.96929 321
53.9894 330
54.00951 303
54.02963 321
54.04974 311
54.06985 320
54.08997 323
54.11008 324
54.1302 277
54.15031 310
54.17042 296
54.19054 337
54.21065 327
54.23076 293
54.25088 321
54.27099 316
54.29111 301
54.31122 315
54.33133 317
54.35145 315
54.37156 325
54.39167 305
54.41179 308
54.4319 316
54.45201 328
54.47213 350
54.49224 345
54.51236 332
54.53247 378
54.55258 389
54.5727 398
54.59281 418
54.61292 450
54.63304 462
54.65315 546
54.67327 597
54.69338 582
54.71349 664
54.73361 703
54.75372 710
54.77383 829
54.79395 821
54.81406 853
54.83417 814
54.85429 761
54.8744 693
54.89452 655
54.91463 616
54.93474 599
54.95486 574
54.97497 570
54.99508 520
55.0152 475
55.03531 458
55.05543 399
55.07554 392
55.09565 396
55.11577 416
55.13588 404
55.15599 416
55.17611 489
55.19622 490
55.21634 487
55.23645 532
55.25656 547
55.27668 511
55.29679 492
55.3169 483
55.33702 460
55.35713 461
55.37724 401
55.39736 404
55.41747 395
55.43759 384
55.4577 338
55.47781 336
55.49793 317
55.51804 330
55.53815 283
55.55827 305
55.57838 269
55.5985 266
55.61861 282
55.63872 266
55.65884 305
55.67895 259
55.69906 289
55.71918 263
55.73929 267
55.75941 241
55.77952 267
55.79963 273
55.81975 250
55.83986 284
55.85997 260
55.88009 268
55.9002 262
55.92031 275
55.94043 247
55.96054 285
55.98066 260
56.00077 268
56.02088 267
56.041 290
56.06111 278
56.08122 294
56.10134 273
56.12145 255
56.14157 298
56.16168 262
56.18179 280
56.20191 263
56.22202 281
56.24213 259
56.26225 267
56.28236 246
56.30248 243
56.32259 256
56.3427 249
56.36282 278
56.38293 283
56.40304 250
56.42316 275
56.44327 250
56.46338 232
56.4835 290
56.50361 275
56.52373 280
56.54384 272
56.56395 270
56.58407 276
56.60418 247
56.62429 237
56.64441 260
56.66452 277
56.68464 219
56.70475 254
56.72486 259
56.74498 252
56.76509 262
56.7852 254
56.80532 260
56.82543 242
56.84554 272
56.86566 260
56.88577 267
56.90589 265
56.926 291
56.94611 258
56.96623 280
56.98634 256
57.00645 250
57.02657 297
57.04668 259
57.0668 271
57.08691 270
57.10702 308
57.12714 260
57.14725 272
57.16736 282
57.18748 299
57.20759 286
57.22771 287
57.24782 260
57.26793 259
57.28805 289
57.30816 287
57.32827 287
57.34839 276
57.3685 266
57.38861 258
57.40873 285
57.42884 260
57.44896 269
57.46907 263
57.48918 263
57.5093 285
57.52941 262
57.54952 255
57.56964 273
57.58975 272
57.60987 262
57.62998 262
57.65009 303
57.67021 281
57.69032 266
57.71043 270
57.73055 249
57.75066 240
57.77078 255
57.79089 278
57.811 273
57.83112 257
57.85123 241
57.87134 255
57.89146 269
57.91157 254
57.93168 256
57.9518 224
57.97191 265
57.99203 258
58.01214 268
58.03225 275
58.05237 254
58.07248 263
58.09259 259
58.11271 251
58.13282 252
58.15294 281
58.17305 260
58.19316 255
58.21328 250
58.23339 274
58.2535 240
58.27362 270
58.29373 271
58.31385 249
58.33396 246
58.35407 251
58.37419 240
58.3943 266
58.41441 277
58.43453 241
58.45464 255
58.47475 257
58.49487 260
58.51498 279
58.5351 238
58.55521 258
58.57532 244
58.59544 276
58.61555 293
58.63566 227
58.65578 246
58.67589 286
58.69601 284
58.71612 275
58.73623 268
58.75635 271
58.77646 276
58.79657 273
58.81669 259
58.8368 253
58.85691 256
58.87703 243
58.89714 243
58.91726 263
58.93737 274
58.95748 292
58.9776 261
58.99771 257
59.01782 257
59.03794 284
59.05805 295
59.07817 281
59.09828 283
59.11839 267
59.13851 281
59.15862 271
59.17873 301
59.19885 289
59.21896 261
59.23908 305
59.25919 268
59.2793 258
59.29942 264
59.31953 293
59.33964 300
59.35976 286
59.37987 271
59.39998 301
59.4201 326
59.44021 300
59.46033 309
59.48044 327
59.50055 362
59.52067 343
59.54078 359
59.56089 371
59.58101 377
59.60112 434
59.62124 451
59.64135 480
59.66146 526
59.68158 626
59.70169 661
59.7218 724
59.74192 842
59.76203 940
59.78215 1078
59.80226 1181
59.82237 1270
59.84249 1395
59.8626 1417
59.88271 1500
59.90283 1551
59.92294 1381
59.94305 1260
59.96317 1125
59.98328 1057
60.0034 944
60.02351 871
60.04362 866
60.06374 778
60.08385 742
60.10396 677
60.12408 549
60.14419 497
60.16431 384
60.18442 375
60.20453 354
60.22465 329
60.24476 297
60.26487 299
60.28499 286
60.3051 309
60.32522 301
60.34533 265
60.36544 274
60.38556 304
60.40567 276
60.42578 270
60.4459 268
60.46601 245
60.48612 255
60.50624 266
60.52635 255
60.54647 283
60.56658 304
60.58669 261
60.60681 264
60.62692 263
60.64703 301
60.66715 293
60.68726 272
60.70738 290
60.72749 273
60.7476 269
60.76772 291
60.78783 270
60.80794 273
60.82806 282
60.84817 272
60.86828 245
60.8884 279
60.90851 244
60.92863 242
60.94874 269
60.96885 296
60.98897 249
61.00908 240
61.02919 330
61.04931 266
61.06942 255
61.08954 253
61.10965 268
61.12976 267
61.14988 273
61.16999 271
61.1901 283
61.21022 289
61.23033 273
61.25045 258
61.27056 265
61.29067 279
61.31079 297
61.3309 253
61.35101 263
61.37113 261
61.39124 287
61.41135 272
61.43147 274
61.45158 301
61.4717 266
61.49181 269
61.51192 271
61.53204 276
61.55215 286
61.57226 271
61.59238 271
61.61249 286
61.63261 303
61.65272 288
61.67283 264
61.69295 276
61.71306 302
61.73317 284
61.75329 302
61.7734 284
61.79352 314
61.81363 285
61.83374 292
61.85386 276
61.87397 285
61.89408 304
61.9142 283
61.93431 290
61.95442 279
61.97454 319
61.99465 317
62.01477 310
62.03488 317
62.05499 294
62.07511 312
62.09522 320
62.11533 332
62.13545 307
62.15556 303
62.17568 313
62.19579 271
62.2159 274
62.23602 326
62.25613 282
62.27624 293
62.29636 318
62.31647 292
62.33659 284
62.3567 267
62.37681 277
62.39693 271
62.41704 319
62.43715 282
62.45727 304
62.47738 283
62.49749 263
62.51761 289
62.53772 273
62.55784 284
62.57795 298
62.59806 271
62.61818 274
62.63829 261
62.6584 269
62.67852 283
62.69863 310
62.71875 284
62.73886 258
62.75897 258
62.77909 269
62.7992 255
62.81931 266
62.83943 273
62.85954 298
62.87965 273
62.89977 241
62.91988 249
62.94 254
62.96011 244
62.98022 255
63.00034 259
63.02045 260
63.04056 291
63.06068 283
63.08079 289
63.10091 286
63.12102 277
63.14113 250
63.16125 258
63.18136 283
63.20147 283
63.22159 263
63.2417 275
63.26182 252
63.28193 261
63.30204 256
63.32216 255
63.34227 273
63.36238 276
63.3825 275
63.40261 253
63.42272 258
63.44284 292
63.46295 283
63.48307 300
63.50318 287
63.52329 240
63.54341 260
63.56352 306
63.58363 253
63.60375 306
63.62386 299
63.64398 285
63.66409 284
63.6842 292
63.70432 324
63.72443 317
63.74454 336
63.76466 333
63.78477 335
63.80489 383
63.825 380
63.84511 389
63.86523 462
63.88534 442
63.90545 521
63.92557 480
63.94568 517
63.96579 502
63.98591 476
64.00602 464
64.02614 448
64.04625 409
64.06636 413
64.08648 430
64.10659 381
64.1267 429
64.14682 388
64.16693 367
64.18705 336
64.20716 360
64.22727 314
64.24739 312
64.2675 304
64.28761 274
64.30773 285
64.32784 298
64.34796 273
64.36807 235
64.38818 265
64.4083 261
64.42841 269
64.44852 248
64.46864 266
64.48875 254
64.50886 256
64.52898 253
64.54909 246
64.56921 251
64.58932 221
64.60943 249
64.62955 256
64.64966 248
64.66977 262
64.68989 249
64.71 260
64.73012 257
64.75023 242
64.77034 247
64.79046 255
64.81057 252
64.83068 245
64.8508 232
64.87091 248
64.89102 235
64.91114 263
64.93125 226
64.95137 246
64.97148 254
64.99159 248
65.01171 249
65.03182 232
65.05193 244
65.07205 248
65.09216 239
65.11228 252
65.13239 262
65.1525 255
65.17262 245
65.19273 226
65.21284 252
65.23296 246
65.25307 236
65.27319 231
65.2933 244
65.31341 242
65.33353 231
65.35364 251
65.37375 262
65.39387 237
65.41398 254
65.43409 292
65.45421 267
65.47432 258
65.49444 269
65.51455 272
65.53466 271
65.55478 282
65.57489 301
65.595 258
65.61512 303
65.63523 287
65.65535 280
65.67546 282
65.69557 279
65.71569 287
65.7358 277
65.75591 298
65.77603 289
65.79614 277
65.81626 281
65.83637 282
65.85648 274
65.8766 256
65.89671 256
65.91682 275
65.93694 250
65.95705 266
65.97716 250
65.99728 241
66.01739 283
66.03751 259
66.05762 238
66.07773 239
66.09785 265
66.11796 258
66.13807 249
66.15819 268
66.1783 256
66.19842 235
66.21853 256
66.23864 251
66.25876 244
66.27887 271
66.29898 223
66.3191 247
66.33921 234
66.35933 248
66.37944 247
66.39955 248
66.41967 260
66.43978 243
66.45989 250
66.48001 243
66.50012 255
66.52023 266
66.54035 245
66.56046 250
66.58058 238
66.60069 266
66.6208 265
66.64092 249
66.66103 246
66.68114 266
66.70126 250
66.72137 239
66.74149 247
66.7616 250
66.78171 255
66.80183 242
66.82194 252
66.84205 262
66.86217 245
66.88228 233
66.90239 253
66.92251 257
66.94262 265
66.96274 243
66.98285 272
67.00296 250
67.02308 264
67.04319 255
67.0633 233
67.08342 246
67.10353 254
67.12365 252
67.14376 251
67.16387 308
67.18399 265
67.2041 266
67.22421 286
67.24433 288
67.26444 332
67.28456 314
67.30467 324
67.32478 345
67.3449 335
67.36501 380
67.38512 383
67.40524 390
67.42535 395
67.44546 430
67.46558 454
67.48569 513
67.50581 539
67.52592 609
67.54603 679
67.56615 790
67.58626 868
67.60637 859
67.62649 959
67.6466 949
67.66672 965
67.68683 946
67.70694 879
67.72706 876
67.74717 830
67.76728 810
67.7874 794
67.80751 761
67.82763 838
67.84774 815
67.86785 838
67.88797 867
67.90808 881
67.92819 891
67.94831 1020
67.96842 1025
67.98853 1044
68.00865 1142
68.02876 1229
68.04888 1279
68.06899 1289
68.0891 1266
68.10922 1244
68.12933 1191
68.14944 1260
68.16956 1092
68.18967 1169
68.20979 1174
68.2299 1176
68.25001 1148
68.27013 1061
68.29024 1006
68.31035 873
68.33047 823
68.35058 686
68.3707 641
68.39081 593
68.41092 542
68.43104 543
68.45115 480
68.47126 440
68.49138 431
68.51149 378
68.5316 339
68.55172 348
68.57183 332
68.59195 312
68.61206 325
68.63217 272
68.65229 287
68.6724 292
68.69251 259
68.71263 269
68.73274 263
68.75286 267
68.77297 262
68.79308 266
68.8132 239
68.83331 242
68.85342 265
68.87354 271
68.89365 252
68.91376 243
68.93388 253
68.95399 224
68.97411 208
68.99422 251
69.01433 264
69.03445 241
69.05456 242
69.07467 232
69.09479 243
69.1149 265
69.13502 230
69.15513 252
69.17524 244
69.19536 251
69.21547 244
69.23558 266
69.2557 261
69.27581 265
69.29593 256
69.31604 275
69.33615 236
69.35627 247
69.37638 261
69.39649 248
69.41661 264
69.43672 232
69.45683 228
69.47695 240
69.49706 228
69.51718 233
69.53729 248
69.5574 223
69.57752 237
69.59763 266
69.61774 262
69.63786 246
69.65797 228
69.67809 246
69.6982 225
69.71831 245
69.73843 243
69.75854 267
69.77865 250
69.79877 259
69.81888 237
69.839 275
69.85911 231
69.87922 229
69.89934 243
69.91945 219
69.93956 262
69.95968 260
69.97979 273
69.9999 255
70.02002 246
70.04013 221
70.06025 214
70.08036 243
70.10047 235
70.12059 228
70.1407 242
70.16081 231
70.18093 240
70.20104 226
70.22116 210
70.24127 262
70.26138 210
70.2815 217
70.30161 218
70.32172 231
70.34184 253
70.36195 244
70.38207 237
70.40218 230
70.42229 255
70.44241 217
70.46252 227
70.48263 253
70.50275 221
70.52286 222
70.54297 255
70.56309 215
70.5832 226
70.60332 222
70.62343 218
70.64354 237
70.66366 236
70.68377 243
70.70388 233
70.724 235
70.74411 209
70.76423 248
70.78434 240
70.80445 237
70.82457 232
70.84468 212
70.86479 241
70.88491 245
70.90502 251
70.92513 253
70.94525 254
70.96536 226
70.98548 229
71.00559 229
71.0257 222
71.04582 214
71.06593 248
71.08604 255
71.10616 228
71.12627 205
71.14639 237
71.1665 244
71.18661 207
71.20673 259
71.22684 264
71.24695 231
71.26707 247
71.28718 237
71.3073 220
71.32741 255
71.34752 239
71.36764 249
71.38775 245
71.40786 235
71.42798 235
71.44809 232
71.4682 236
71.48832 250
71.50843 249
71.52855 251
71.54866 244
71.56877 237
71.58889 249
71.609 263
71.62911 240
71.64923 232
71.66934 245
71.68946 217
71.70957 234
71.72968 252
71.7498 248
71.76991 236
71.79002 253
71.81014 229
71.83025 226
71.85037 260
71.87048 208
71.89059 226
71.91071 255
71.93082 229
71.95093 253
71.97105 259
71.99116 228
72.01127 231
72.03139 246
72.0515 240
72.07162 232
72.09173 245
72.11184 271
72.13196 260
72.15207 268
72.17218 237
72.1923 224
72.21241 253
72.23253 235
72.25264 219
72.27275 252
72.29287 227
72.31298 250
72.33309 220
72.35321 241
72.37332 217
72.39344 259
72.41355 246
72.43366 240
72.45378 220
72.47389 228
72.494 211
72.51412 235
72.53423 216
72.55434 251
72.57446 253
72.59457 206
72.61469 202
72.6348 241
72.65491 249
72.67503 252
72.69514 238
72.71525 251
72.73537 232
72.75548 224
72.7756 249
72.79571 252
72.81582 252
72.83594 249
72.85605 246
72.87616 240
72.89628 246
72.91639 246
72.9365 229
72.95662 261
72.97673 248
72.99685 272
73.01696 263
73.03707 235
73.05719 243
73.0773 263
73.09741 284
73.11753 291
73.13764 305
73.15776 307
73.17787 288
73.19798 320
73.2181 331
73.23821 333
73.25832 366
73.27844 410
73.29855 424
73.31867 446
73.33878 469
73.35889 472
73.37901 512
73.39912 480
73.41923 468
73.43935 450
73.45946 419
73.47957 420
73.49969 411
73.5198 355
73.53992 379
73.56003 363
73.58014 339
73.60026 354
73.62037 345
73.64048 312
73.6606 304
73.68071 319
73.70083 257
73.72094 258
73.74105 237
73.76117 238
73.78128 252
73.80139 243
73.82151 263
73.84162 227
73.86174 260
73.88185 228
73.90196 225
73.92208 239
73.94219 242
73.9623 228
73.98242 227
74.00253 241
74.02264 264
74.04276 225
74.06287 249
74.08299 218
74.1031 210
74.12321 246
74.14333 229
74.16344 208
74.18355 203
74.20367 251
74.22378 223
74.2439 207
74.26401 249
74.28412 240
74.30424 231
74.32435 218
74.34446 220
74.36458 244
74.38469 238
74.40481 259
74.42492 232
74.44503 263
74.46515 232
74.48526 237
74.50537 249
74.52549 250
74.5456 223
74.56571 237
74.58583 259
74.60594 231
74.62606 220
74.64617 235
74.66628 230
74.6864 238
74.70651 225
74.72662 226
74.74674 238
74.76685 266
74.78697 247
74.80708 256
74.82719 231
74.84731 259
74.86742 237
74.88753 237
74.90765 249
74.92776 253
74.94787 253
74.96799 260
74.9881 232
75.00822 262
