3.00117 22184
3.02128 21493
3.0414 20841
3.06151 20221
3.08162 19921
3.10174 19751
3.12185 18610
3.14197 18284
3.16208 17661
3.18219 16977
3.20231 16802
3.22242 15940
3.24253 15812
3.26265 15411
3.28276 14475
3.30288 14472
3.32299 13503
3.3431 13442
3.36322 13151
3.38333 12389
3.40344 12425
3.42356 11767
3.44367 11342
3.46379 11037
3.4839 10323
3.50401 10436
3.52413 9757
3.54424 9449
3.56435 9282
3.58447 8925
3.60458 8678
3.62469 8072
3.64481 7923
3.66492 7532
3.68504 7370
3.70515 7339
3.72526 6785
3.74538 6495
3.76549 6432
3.7856 6083
3.80572 5967
3.82583 5490
3.84595 5353
3.86606 5212
3.88617 4778
3.90629 4913
3.9264 4424
3.94651 4309
3.96663 4037
3.98674 4007
4.00686 3889
4.02697 3508
4.04708 3422
4.0672 3377
4.08731 3113
4.10742 3205
4.12754 2883
4.14765 2822
4.16776 2722
4.18788 2646
4.20799 2583
4.22811 2284
4.24822 2310
4.26833 2287
4.28845 2196
4.30856 2219
4.32867 1900
4.34879 1972
4.3689 1953
4.38902 1867
4.40913 1797
4.42924 1646
4.44936 1752
4.46947 1624
4.48958 1676
4.5097 1677
4.52981 1445
4.54992 1498
4.57004 1504
4.59015 1494
4.61027 1384
4.63038 1330
4.65049 1388
4.67061 1321
4.69072 1333
4.71083 1278
4.73095 1179
4.75106 1208
4.77118 1225
4.79129 1122
4.8114 1062
4.83152 1064
4.85163 998
4.87174 1129
4.89186 1015
4.91197 938
4.93209 937
4.9522 890
4.97231 1019
4.99243 972
5.01254 910
5.03265 900
5.05277 824
5.07288 952
5.09299 843
5.11311 768
5.13322 827
5.15334 764
5.17345 771
5.19356 825
5.21368 774
5.23379 727
5.2539 752
5.27402 712
5.29413 678
5.31425 648
5.33436 677
5.35447 663
5.37459 640
5.3947 663
5.41481 579
5.43493 598
5.45504 602
5.47516 613
5.49527 586
5.51538 582
5.5355 556
5.55561 533
5.57572 515
5.59584 497
5.61595 554
5.63606 530
5.65618 516
5.67629 482
5.69641 536
5.71652 512
5.73663 487
5.75675 442
5.77686 476
5.79697 473
5.81709 457
5.8372 453
5.85732 412
5.87743 470
5.89754 417
5.91766 461
5.93777 462
5.95788 403
5.978 460
5.99811 413
6.01823 429
6.03834 458
6.05845 411
6.07857 442
6.09868 430
6.11879 454
6.13891 400
6.15902 408
6.17913 482
6.19925 430
6.21936 420
6.23948 427
6.25959 447
6.2797 433
6.29982 439
6.31993 399
6.34004 366
6.36016 431
6.38027 425
6.40039 404
6.4205 392
6.44061 378
6.46073 392
6.48084 353
6.50095 397
6.52107 380
6.54118 369
6.56129 387
6.58141 408
6.60152 404
6.62164 377
6.64175 390
6.66186 392
6.68198 400
6.70209 411
6.7222 384
6.74232 399
6.76243 375
6.78255 374
6.80266 361
6.82277 366
6.84289 364
6.863 383
6.88311 388
6.90323 390
6.92334 342
6.94346 387
6.96357 354
6.98368 335
7.0038 378
7.02391 378
7.04402 343
7.06414 360
7.08425 383
7.10436 388
7.12448 374
7.14459 389
7.16471 358
7.18482 371
7.20493 376
7.22505 409
7.24516 356
7.26527 348
7.28539 361
7.3055 393
7.32562 359
7.34573 374
7.36584 417
7.38596 349
7.40607 381
7.42618 405
7.4463 358
7.46641 365
7.48653 405
7.50664 371
7.52675 419
7.54687 369
7.56698 380
7.58709 337
7.60721 397
7.62732 451
7.64743 344
7.66755 365
7.68766 370
7.70778 354
7.72789 392
7.748 387
7.76812 343
7.78823 380
7.80834 366
7.82846 365
7.84857 370
7.86869 388
7.8888 372
7.90891 345
7.92903 355
7.94914 384
7.96925 360
7.98937 350
8.00948 373
8.0296 385
8.04971 377
8.06982 380
8.08994 400
8.11005 372
8.13016 448
8.15028 406
8.17039 390
8.1905 396
8.21062 402
8.23073 428
8.25085 389
8.27096 401
8.29107 425
8.31119 375
8.3313 386
8.35141 358
8.37153 437
8.39164 418
8.41176 402
8.43187 398
8.45198 385
8.4721 392
8.49221 424
8.51232 376
8.53244 381
8.55255 387
8.57266 449
8.59278 390
8.61289 424
8.63301 403
8.65312 408
8.67323 435
8.69335 402
8.71346 478
8.73357 429
8.75369 461
8.7738 458
8.79392 475
8.81403 453
8.83414 466
8.85426 488
8.87437 484
8.89448 454
8.9146 439
8.93471 367
8.95483 408
8.97494 366
8.99505 378
9.01517 386
9.03528 360
9.05539 391
9.07551 371
9.09562 381
9.11573 341
9.13585 366
9.15596 342
9.17608 350
9.19619 378
9.2163 331
9.23642 367
9.25653 326
9.27664 338
9.29676 360
9.31687 357
9.33699 359
9.3571 342
9.37721 313
9.39733 325
9.41744 366
9.43755 337
9.45767 345
9.47778 355
9.4979 357
9.51801 368
9.53812 346
9.55824 323
9.57835 363
9.59846 356
9.61858 333
9.63869 345
9.6588 335
9.67892 326
9.69903 346
9.71915 335
9.73926 373
9.75937 345
9.77949 346
9.7996 344
9.81971 313
9.83983 351
9.85994 335
9.88006 347
9.90017 344
9.92028 331
9.9404 322
9.96051 332
9.98062 341
10.00074 317
10.02085 329
10.04097 319
10.06108 297
10.08119 307
10.10131 356
10.12142 349
10.14153 319
10.16165 326
10.18176 299
10.20187 337
10.22199 332
10.2421 355
10.26222 342
10.28233 332
10.30244 309
10.32256 364
10.34267 341
10.36278 365
10.3829 352
10.40301 337
10.42313 358
10.44324 382
10.46335 347
10.48347 396
10.50358 355
10.52369 353
10.54381 395
10.56392 332
10.58403 350
10.60415 360
10.62426 369
10.64438 343
10.66449 351
10.6846 317
10.70472 355
10.72483 351
10.74494 358
10.76506 370
10.78517 360
10.80529 351
10.8254 336
10.84551 312
10.86563 297
10.88574 366
10.90585 321
10.92597 375
10.94608 341
10.9662 354
10.98631 303
11.00642 337
11.02654 358
11.04665 357
11.06676 353
11.08688 338
11.10699 369
11.1271 323
11.14722 324
11.16733 374
11.18745 330
11.20756 283
11.22767 379
11.24779 355
11.2679 343
11.28801 357
11.30813 332
11.32824 341
11.34836 310
11.36847 343
11.38858 365
11.4087 364
11.42881 348
11.44892 369
11.46904 377
11.48915 327
11.50927 335
11.52938 337
11.54949 337
11.56961 343
11.58972 391
11.60983 331
11.62995 356
11.65006 379
11.67017 359
11.69029 354
11.7104 354
11.73052 373
11.75063 358
11.77074 369
11.79086 411
11.81097 393
11.83108 351
11.8512 425
11.87131 443
11.89143 430
11.91154 469
11.93165 459
11.95177 438
11.97188 473
11.99199 483
12.01211 505
12.03222 451
12.05234 515
12.07245 446
12.09256 469
12.11268 547
12.13279 485
12.1529 528
12.17302 523
12.19313 526
12.21324 545
12.23336 588
12.25347 590
12.27359 544
12.2937 580
12.31381 601
12.33393 589
12.35404 563
12.37415 569
12.39427 526
12.41438 572
12.4345 530
12.45461 466
12.47472 526
12.49484 448
12.51495 430
12.53506 372
12.55518 430
12.57529 413
12.5954 395
12.61552 406
12.63563 400
12.65575 372
12.67586 384
12.69597 350
12.71609 352
12.7362 336
12.75631 343
12.77643 364
12.79654 348
12.81666 313
12.83677 379
12.85688 314
12.877 335
12.89711 351
12.91722 360
12.93734 343
12.95745 315
12.97757 334
12.99768 313
13.01779 330
13.03791 357
13.05802 338
13.07813 347
13.09825 323
13.11836 341
13.13847 344
13.15859 363
13.1787 333
13.19882 355
13.21893 307
13.23904 315
13.25916 307
13.27927 330
13.29938 310
13.3195 311
13.33961 288
13.35973 309
13.37984 353
13.39995 318
13.42007 335
13.44018 326
13.46029 308
13.48041 342
13.50052 325
13.52064 275
13.54075 330
13.56086 311
13.58098 360
13.60109 345
13.6212 351
13.64132 340
13.66143 362
13.68154 331
13.70166 335
13.72177 318
13.74189 366
13.762 330
13.78211 343
13.80223 336
13.82234 347
13.84245 328
13.86257 313
13.88268 315
13.9028 309
13.92291 302
13.94302 332
13.96314 321
13.98325 303
14.00336 287
14.02348 335
14.04359 281
14.06371 337
14.08382 289
14.10393 289
14.12405 312
14.14416 318
14.16427 314
14.18439 283
14.2045 256
14.22461 297
14.24473 283
14.26484 330
14.28496 309
14.30507 308
14.32518 281
14.3453 291
14.36541 302
14.38552 290
14.40564 293
14.42575 297
14.44587 275
14.46598 296
14.48609 303
14.50621 280
14.52632 299
14.54643 287
14.56655 292
14.58666 279
14.60677 260
14.62689 289
14.647 301
14.66712 284
14.68723 285
14.70734 298
14.72746 267
14.74757 294
14.76768 299
14.7878 299
14.80791 312
14.82803 299
14.84814 274
14.86825 335
14.88837 319
14.90848 300
14.92859 291
14.94871 319
14.96882 317
14.98894 319
15.00905 303
15.02916 314
15.04928 336
15.06939 299
15.0895 344
15.10962 374
15.12973 290
15.14984 291
15.16996 329
15.19007 289
15.21019 284
15.2303 310
15.25041 330
15.27053 314
15.29064 236
15.31075 285
15.33087 283
15.35098 281
15.3711 266
15.39121 282
15.41132 297
15.43144 297
15.45155 263
15.47166 348
15.49178 286
15.51189 302
15.53201 299
15.55212 262
15.57223 260
15.59235 285
15.61246 291
15.63257 280
15.65269 326
15.6728 301
15.69291 292
15.71303 285
15.73314 280
15.75326 311
15.77337 296
15.79348 275
15.8136 288
15.83371 291
15.85382 325
15.87394 319
15.89405 262
15.91417 298
15.93428 253
15.95439 298
15.97451 276
15.99462 293
16.01473 324
16.03485 264
16.05496 266
16.07508 266
16.09519 287
16.1153 274
16.13542 264
16.15553 260
16.17564 263
16.19576 288
16.21587 303
16.23598 301
16.2561 284
16.27621 274
16.29633 297
16.31644 319
16.33655 304
16.35667 275
16.37678 294
16.39689 303
16.41701 287
16.43712 275
16.45724 299
16.47735 294
16.49746 273
16.51758 292
16.53769 297
16.5578 322
16.57792 287
16.59803 299
16.61814 274
16.63826 291
16.65837 277
16.67849 263
16.6986 255
16.71871 271
16.73883 269
16.75894 283
16.77905 276
16.79917 315
16.81928 289
16.8394 273
16.85951 291
16.87962 276
16.89974 328
16.91985 289
16.93996 325
16.96008 291
16.98019 297
17.00031 266
17.02042 288
17.04053 303
17.06065 259
17.08076 294
17.10087 307
17.12099 309
17.1411 289
17.16121 279
17.18133 258
17.20144 300
17.22156 294
17.24167 310
17.26178 263
17.2819 291
17.30201 264
17.32212 245
17.34224 270
17.36235 266
17.38247 288
17.40258 316
17.42269 280
17.44281 283
17.46292 311
17.48303 253
17.50315 281
17.52326 308
17.54338 284
17.56349 283
17.5836 274
17.60372 289
17.62383 330
17.64394 306
17.66406 290
17.68417 287
17.70428 331
17.7244 307
17.74451 284
17.76463 274
17.78474 308
17.80485 281
17.82497 320
17.84508 300
17.86519 306
17.88531 278
17.90542 302
17.92554 269
17.94565 266
17.96576 328
17.98588 300
18.00599 297
18.0261 301
18.04622 331
18.06633 309
18.08645 305
18.10656 274
18.12667 292
18.14679 302
18.1669 323
18.18701 328
18.20713 303
18.22724 303
18.24735 320
18.26747 313
18.28758 339
18.3077 319
18.32781 306
18.34792 311
18.36804 290
18.38815 312
18.40826 261
18.42838 304
18.44849 316
18.46861 307
18.48872 308
18.50883 278
18.52895 286
18.54906 300
18.56917 255
18.58929 300
18.6094 272
18.62951 312
18.64963 288
18.66974 312
18.68986 336
18.70997 291
18.73008 289
18.7502 329
18.77031 291
18.79042 298
18.81054 287
18.83065 311
18.85077 342
18.87088 323
18.89099 326
18.91111 337
18.93122 305
18.95133 331
18.97145 320
18.99156 310
19.01168 309
19.03179 295
19.0519 291
19.07202 308
19.09213 355
19.11224 292
19.13236 293
19.15247 285
19.17258 342
19.1927 356
19.21281 337
19.23293 412
19.25304 367
19.27315 359
19.29327 380
19.31338 401
19.33349 380
19.35361 375
19.37372 350
19.39384 383
19.41395 360
19.43406 382
19.45418 378
19.47429 398
19.4944 396
19.51452 391
19.53463 354
19.55475 411
19.57486 386
19.59497 399
19.61509 424
19.6352 433
19.65531 401
19.67543 461
19.69554 449
19.71565 479
19.73577 506
19.75588 567
19.776 529
19.79611 576
19.81622 574
19.83634 595
19.85645 585
19.87656 588
19.89668 619
19.91679 578
19.93691 568
19.95702 564
19.97713 542
19.99725 526
20.01736 554
20.03747 569
20.05759 566
20.0777 521
20.09782 566
20.11793 528
20.13804 531
20.15816 593
20.17827 509
20.19838 543
20.2185 518
20.23861 599
20.25872 553
20.27884 587
20.29895 582
20.31907 600
20.33918 563
20.35929 539
20.37941 587
20.39952 587
20.41963 570
20.43975 555
20.45986 601
20.47998 558
20.50009 596
20.5202 607
20.54032 668
20.56043 659
20.58054 700
20.60066 698
20.62077 838
20.64088 929
20.661 1076
20.68111 1162
20.70123 1408
20.72134 1682
20.74145 2012
20.76157 2543
20.78168 2959
20.80179 3425
20.82191 3902
20.84202 4006
20.86214 3930
20.88225 3403
20.90236 2727
20.92248 2049
20.94259 1554
20.9627 1182
20.98282 1088
21.00293 969
21.02305 896
21.04316 874
21.06327 825
21.08339 776
21.1035 703
21.12361 665
21.14373 640
21.16384 566
21.18395 580
21.20407 555
21.22418 563
21.2443 552
21.26441 566
21.28452 541
21.30464 527
21.32475 502
21.34486 582
21.36498 546
21.38509 521
21.40521 461
21.42532 521
21.44543 491
21.46555 486
21.48566 489
21.50577 500
21.52589 497
21.546 468
21.56612 424
21.58623 484
21.60634 506
21.62646 469
21.64657 474
21.66668 459
21.6868 440
21.70691 459
21.72702 470
21.74714 457
21.76725 469
21.78737 491
21.80748 495
21.82759 543
21.84771 548
21.86782 552
21.88793 551
21.90805 573
21.92816 654
21.94828 618
21.96839 692
21.9885 683
22.00862 704
22.02873 701
22.04884 577
22.06896 535
22.08907 522
22.10919 476
22.1293 473
22.14941 427
22.16953 431
22.18964 441
22.20975 464
22.22987 469
22.24998 482
22.27009 464
22.29021 465
22.31032 504
22.33044 473
22.35055 493
22.37066 461
22.39078 494
22.41089 460
22.431 505
22.45112 447
22.47123 473
22.49135 487
22.51146 445
22.53157 455
22.55169 436
22.5718 438
22.59191 429
22.61203 419
22.63214 438
22.65225 390
22.67237 421
22.69248 398
22.7126 425
22.73271 465
22.75282 470
22.77294 460
22.79305 415
22.81316 439
22.83328 495
22.85339 471
22.87351 429
22.89362 501
22.91373 500
22.93385 468
22.95396 533
22.97407 458
22.99419 461
23.0143 462
23.03442 499
23.05453 416
23.07464 458
23.09476 439
23.11487 430
23.13498 432
23.1551 466
23.17521 440
23.19532 473
23.21544 454
23.23555 456
23.25567 464
23.27578 456
23.29589 477
23.31601 455
23.33612 482
23.35623 466
23.37635 488
23.39646 519
23.41658 490
23.43669 537
23.4568 559
23.47692 558
23.49703 598
23.51714 590
23.53726 639
23.55737 662
23.57749 651
23.5976 612
23.61771 593
23.63783 637
23.65794 580
23.67805 571
23.69817 559
23.71828 551
23.73839 538
23.75851 540
23.77862 558
23.79874 519
23.81885 578
23.83896 577
23.85908 530
23.87919 526
23.8993 580
23.91942 531
23.93953 507
23.95965 528
23.97976 566
23.99987 520
24.01999 519
24.0401 471
24.06021 508
24.08033 458
24.10044 487
24.12056 490
24.14067 491
24.16078 484
24.1809 489
24.20101 508
24.22112 510
24.24124 521
24.26135 544
24.28146 543
24.30158 532
24.32169 569
24.34181 575
24.36192 585
24.38203 569
24.40215 541
24.42226 546
24.44237 523
24.46249 564
24.4826 552
24.50272 503
24.52283 510
24.54294 531
24.56306 532
24.58317 540
24.60328 558
24.6234 542
24.64351 564
24.66362 612
24.68374 574
24.70385 516
24.72397 552
24.74408 596
24.76419 579
24.78431 560
24.80442 573
24.82453 602
24.84465 595
24.86476 597
24.88488 564
24.90499 599
24.9251 589
24.94522 590
24.96533 548
24.98544 536
25.00556 552
25.02567 564
25.04579 565
25.0659 521
25.08601 501
25.10613 547
25.12624 487
25.14635 513
25.16647 562
25.18658 529
25.20669 524
25.22681 480
25.24692 493
25.26704 498
25.28715 489
25.30726 501
25.32738 502
25.34749 546
25.3676 508
25.38772 503
25.40783 558
25.42795 567
25.44806 584
25.46817 639
25.48829 650
25.5084 667
25.52851 696
25.54863 753
25.56874 703
25.58886 785
25.60897 720
25.62908 741
25.6492 682
25.66931 663
25.68942 614
25.70954 576
25.72965 557
25.74976 576
25.76988 591
25.78999 538
25.81011 526
25.83022 553
25.85033 554
25.87045 592
25.89056 585
25.91067 564
25.93079 565
25.9509 561
25.97102 580
25.99113 575
26.01124 574
26.03136 694
26.05147 615
26.07158 651
26.0917 617
26.11181 686
26.13193 745
26.15204 754
26.17215 822
26.19227 865
26.21238 950
26.23249 997
26.25261 1042
26.27272 1141
26.29283 1339
26.31295 1473
26.33306 1692
26.35318 1944
26.37329 2195
26.3934 2658
26.41352 3105
26.43363 3896
26.45374 4644
26.47386 5685
26.49397 7011
26.51409 8479
26.5342 10309
26.55431 12145
26.57443 14023
26.59454 15800
26.61465 16380
26.63477 15943
26.65488 13705
26.67499 10973
26.69511 8063
26.71522 6065
26.73534 4163
26.75545 2673
26.77556 1755
26.79568 1512
26.81579 1330
26.8359 1270
26.85602 1175
26.87613 1091
26.89625 1081
26.91636 1107
26.93647 966
26.95659 971
26.9767 963
26.99681 1016
27.01693 982
27.03704 926
27.05716 895
27.07727 853
27.09738 890
27.1175 802
27.13761 745
27.15772 698
27.17784 698
27.19795 693
27.21806 614
27.23818 668
27.25829 682
27.27841 699
27.29852 809
27.31863 801
27.33875 831
27.35886 900
27.37897 934
27.39909 925
27.4192 1028
27.43932 1112
27.45943 1169
27.47954 1086
27.49966 1023
27.51977 949
27.53988 845
27.56 854
27.58011 708
27.60023 693
27.62034 722
27.64045 728
27.66057 733
27.68068 765
27.70079 898
27.72091 910
27.74102 973
27.76113 1035
27.78125 994
27.80136 945
27.82148 855
27.84159 940
27.8617 834
27.88182 808
27.90193 738
27.92204 747
27.94216 790
27.96227 775
27.98239 745
28.0025 677
28.02261 695
28.04273 609
28.06284 577
28.08295 544
28.10307 524
28.12318 490
28.1433 468
28.16341 494
28.18352 526
28.20364 444
28.22375 498
28.24386 456
28.26398 530
28.28409 495
28.3042 503
28.32432 462
28.34443 489
28.36455 449
28.38466 479
28.40477 442
28.42489 444
28.445 416
28.46511 392
28.48523 379
28.50534 415
28.52546 388
28.54557 390
28.56568 359
28.5858 360
28.60591 375
28.62602 368
28.64614 375
28.66625 387
28.68636 378
28.70648 379
28.72659 381
28.74671 364
28.76682 356
28.78693 344
28.80705 324
28.82716 362
28.84727 391
28.86739 346
28.8875 367
28.90762 362
28.92773 420
28.94784 343
28.96796 366
28.98807 379
29.00818 379
29.0283 354
29.04841 381
29.06853 340
29.08864 368
29.10875 352
29.12887 358
29.14898 380
29.16909 371
29.18921 398
29.20932 350
29.22943 357
29.24955 357
29.26966 416
29.28978 370
29.30989 395
29.33 442
29.35012 373
29.37023 431
29.39034 427
29.41046 381
29.43057 425
29.45069 422
29.4708 393
29.49091 389
29.51103 441
29.53114 406
29.55125 422
29.57137 403
29.59148 443
29.6116 441
29.63171 436
29.65182 496
29.67194 497
29.69205 509
29.71216 473
29.73228 487
29.75239 519
29.7725 493
29.79262 491
29.81273 524
29.83285 477
29.85296 505
29.87307 482
29.89319 486
29.9133 460
29.93341 431
29.95353 432
29.97364 443
29.99376 418
30.01387 444
30.03398 429
30.0541 433
30.07421 375
30.09432 420
30.11444 421
30.13455 416
30.15467 428
30.17478 435
30.19489 427
30.21501 447
30.23512 453
30.25523 447
30.27535 510
30.29546 461
30.31557 469
30.33569 453
30.3558 471
30.37592 476
30.39603 423
30.41614 455
30.43626 424
30.45637 478
30.47648 495
30.4966 499
30.51671 451
30.53683 443
30.55694 445
30.57705 440
30.59717 381
30.61728 445
30.63739 433
30.65751 440
30.67762 464
30.69773 529
30.71785 497
30.73796 545
30.75808 454
30.77819 574
30.7983 541
30.81842 515
30.83853 478
30.85864 463
30.87876 435
30.89887 426
30.91899 385
30.9391 378
30.95921 390
30.97933 367
30.99944 338
31.01955 351
31.03967 329
31.05978 351
31.0799 333
31.10001 352
31.12012 348
31.14024 367
31.16035 360
31.18046 354
31.20058 362
31.22069 365
31.2408 356
31.26092 354
31.28103 362
31.30115 345
31.32126 396
31.34137 366
31.36149 368
31.3816 332
31.40171 367
31.42183 352
31.44194 370
31.46206 338
31.48217 357
31.50228 361
31.5224 326
31.54251 336
31.56262 350
31.58274 345
31.60285 368
31.62297 349
31.64308 335
31.66319 346
31.68331 361
31.70342 344
31.72353 333
31.74365 342
31.76376 331
31.78387 299
31.80399 346
31.8241 309
31.84422 331
31.86433 350
31.88444 352
31.90456 327
31.92467 330
31.94478 299
31.9649 349
31.98501 305
32.00513 343
32.02524 327
32.04535 384
32.06547 366
32.08558 356
32.10569 336
32.12581 357
32.14592 360
32.16604 395
32.18615 359
32.20626 337
32.22638 391
32.24649 401
32.2666 418
32.28672 385
32.30683 335
32.32694 410
32.34706 396
32.36717 358
32.38729 358
32.4074 354
32.42751 360
32.44763 318
32.46774 396
32.48785 350
32.50797 327
32.52808 309
32.5482 333
32.56831 330
32.58842 324
32.60854 315
32.62865 343
32.64876 318
32.66888 301
32.68899 309
32.7091 329
32.72922 331
32.74933 287
32.76945 299
32.78956 337
32.80967 304
32.82979 315
32.8499 319
32.87001 316
32.89013 319
32.91024 331
32.93036 317
32.95047 326
32.97058 343
32.9907 345
33.01081 342
33.03092 322
33.05104 325
33.07115 349
33.09127 361
33.11138 364
33.13149 325
33.15161 313
33.17172 347
33.19183 371
33.21195 327
33.23206 336
33.25217 334
33.27229 311
33.2924 323
33.31252 314
33.33263 307
33.35274 342
33.37286 324
33.39297 323
33.41308 336
33.4332 322
33.45331 347
33.47343 317
33.49354 318
33.51365 331
33.53377 321
33.55388 330
33.57399 321
33.59411 334
33.61422 361
33.63434 361
33.65445 386
33.67456 343
33.69468 374
33.71479 357
33.7349 353
33.75502 375
33.77513 347
33.79524 383
33.81536 378
33.83547 413
33.85559 399
33.8757 406
33.89581 400
33.91593 401
33.93604 419
33.95615 397
33.97627 421
33.99638 387
34.0165 433
34.03661 422
34.05672 450
34.07684 465
34.09695 492
34.11706 442
34.13718 535
34.15729 504
34.17741 500
34.19752 513
34.21763 521
34.23775 544
34.25786 585
34.27797 497
34.29809 493
34.3182 521
34.33831 477
34.35843 505
34.37854 486
34.39866 474
34.41877 481
34.43888 442
34.459 460
34.47911 438
34.49922 487
34.51934 467
34.53945 459
34.55957 448
34.57968 454
34.59979 462
34.61991 435
34.64002 490
34.66013 460
34.68025 495
34.70036 481
34.72047 488
34.74059 510
34.7607 495
34.78082 554
34.80093 531
34.82104 564
34.84116 601
34.86127 544
34.88138 563
34.9015 585
34.92161 611
34.94173 501
34.96184 539
34.98195 529
35.00207 533
35.02218 532
35.04229 522
35.06241 520
35.08252 519
35.10264 529
35.12275 497
35.14286 503
35.16298 487
35.18309 438
35.2032 487
35.22332 517
35.24343 462
35.26354 487
35.28366 522
35.30377 475
35.32389 522
35.344 491
35.36411 508
35.38423 492
35.40434 509
35.42445 469
35.44457 543
35.46468 516
35.4848 487
35.50491 453
35.52502 523
35.54514 471
35.56525 450
35.58536 473
35.60548 517
35.62559 474
35.64571 446
35.66582 465
35.68593 447
35.70605 443
35.72616 434
35.74627 438
35.76639 482
35.7865 473
35.80661 483
35.82673 462
35.84684 452
35.86696 445
35.88707 495
35.90718 505
35.9273 446
35.94741 459
35.96752 495
35.98764 456
36.00775 423
36.02787 436
36.04798 500
36.06809 447
36.08821 427
36.10832 452
36.12843 464
36.14855 481
36.16866 484
36.18878 399
36.20889 475
36.229 541
36.24912 540
36.26923 543
36.28934 566
36.30946 607
36.32957 639
36.34968 702
36.3698 849
36.38991 878
36.41003 939
36.43014 1012
36.45025 1158
36.47037 1272
36.49048 1347
36.51059 1364
36.53071 1397
36.55082 1210
36.57094 1095
36.59105 939
36.61116 905
36.63128 835
36.65139 671
36.6715 609
36.69162 509
36.71173 485
36.73184 430
36.75196 446
36.77207 487
36.79219 444
36.8123 459
36.83241 440
36.85253 473
36.87264 416
36.89275 480
36.91287 450
36.93298 468
36.9531 457
36.97321 467
36.99332 506
37.01344 432
37.03355 412
37.05366 445
37.07378 445
37.09389 441
37.11401 466
37.13412 431
37.15423 425
37.17435 431
37.19446 420
37.21457 378
37.23469 454
37.2548 434
37.27491 392
37.29503 383
37.31514 406
37.33526 431
37.35537 431
37.37548 391
37.3956 419
37.41571 422
37.43582 396
37.45594 423
37.47605 415
37.49617 423
37.51628 448
37.53639 395
37.55651 402
37.57662 392
37.59673 403
37.61685 407
37.63696 436
37.65708 405
37.67719 412
37.6973 374
37.71742 444
37.73753 446
37.75764 382
37.77776 411
37.79787 387
37.81798 408
37.8381 376
37.85821 386
37.87833 381
37.89844 365
37.91855 390
37.93867 352
37.95878 405
37.97889 374
37.99901 367
38.01912 364
38.03924 395
38.05935 399
38.07946 380
38.09958 381
38.11969 387
38.1398 412
38.15992 393
38.18003 419
38.20015 403
38.22026 441
38.24037 430
38.26049 388
38.2806 433
38.30071 434
38.32083 415
38.34094 411
38.36105 427
38.38117 407
38.40128 465
38.4214 409
38.44151 437
38.46162 437
38.48174 435
38.50185 411
38.52196 448
38.54208 439
38.56219 399
38.58231 429
38.60242 437
38.62253 443
38.64265 403
38.66276 412
38.68287 444
38.70299 392
38.7231 389
38.74321 403
38.76333 372
38.78344 378
38.80356 372
38.82367 376
38.84378 364
38.8639 406
38.88401 385
38.90412 385
38.92424 412
38.94435 432
38.96447 436
38.98458 398
39.00469 438
39.02481 451
39.04492 395
39.06503 502
39.08515 430
39.10526 486
39.12538 501
39.14549 551
39.1656 530
39.18572 567
39.20583 559
39.22594 625
39.24606 656
39.26617 680
39.28628 759
39.3064 829
39.32651 908
39.34663 1015
39.36674 1102
39.38685 1137
39.40697 1228
39.42708 1255
39.44719 1289
39.46731 1231
39.48742 1052
39.50754 873
39.52765 751
39.54776 735
39.56788 644
39.58799 599
39.6081 464
39.62822 464
39.64833 376
39.66845 445
39.68856 388
39.70867 434
39.72879 424
39.7489 360
39.76901 368
39.78913 375
39.80924 390
39.82935 391
39.84947 345
39.86958 351
39.8897 356
39.90981 376
39.92992 391
39.95004 394
39.97015 379
39.99026 433
40.01038 403
40.03049 446
40.05061 462
40.07072 517
40.09083 514
40.11095 517
40.13106 553
40.15117 588
40.17129 625
40.1914 710
40.21152 670
40.23163 764
40.25174 749
40.27186 766
40.29197 728
40.31208 671
40.3322 611
40.35231 533
40.37242 528
40.39254 471
40.41265 433
40.43277 402
40.45288 384
40.47299 365
40.49311 378
40.51322 364
40.53333 349
40.55345 304
40.57356 348
40.59368 341
40.61379 339
40.6339 345
40.65402 332
40.67413 363
40.69424 383
40.71436 309
40.73447 372
40.75458 355
40.7747 366
40.79481 340
40.81493 342
40.83504 343
40.85515 354
40.87527 366
40.89538 375
40.91549 351
40.93561 342
40.95572 365
40.97584 333
40.99595 328
41.01606 348
41.03618 346
41.05629 348
41.0764 355
41.09652 340
41.11663 354
41.13675 317
41.15686 361
41.17697 365
41.19709 346
41.2172 362
41.23731 297
41.25743 362
41.27754 335
41.29765 363
41.31777 368
41.33788 362
41.358 336
41.37811 372
41.39822 363
41.41834 375
41.43845 402
41.45856 383
41.47868 413
41.49879 393
41.51891 393
41.53902 425
41.55913 401
41.57925 400
41.59936 452
41.61947 413
41.63959 451
41.6597 422
41.67982 443
41.69993 450
41.72004 460
41.74016 445
41.76027 500
41.78038 464
41.8005 457
41.82061 426
41.84072 448
41.86084 387
41.88095 406
41.90107 424
41.92118 364
41.94129 356
41.96141 381
41.98152 379
42.00163 363
42.02175 346
42.04186 399
42.06198 369
42.08209 422
42.1022 395
42.12232 415
42.14243 431
42.16254 452
42.18266 501
42.20277 488
42.22289 513
42.243 562
42.26311 628
42.28323 651
42.30334 677
42.32345 759
42.34357 865
42.36368 831
42.38379 892
42.40391 969
42.42402 1006
42.44414 901
42.46425 815
42.48436 713
42.50448 653
42.52459 651
42.5447 628
42.56482 495
42.58493 478
42.60505 432
42.62516 352
42.64527 381
42.66539 418
42.6855 366
42.70561 365
42.72573 378
42.74584 370
42.76595 340
42.78607 329
42.80618 337
42.8263 349
42.84641 329
42.86652 359
42.88664 333
42.90675 325
42.92686 297
42.94698 306
42.96709 336
42.98721 304
43.00732 298
43.02743 297
43.04755 304
43.06766 307
43.08777 312
43.10789 340
43.128 287
43.14812 267
43.16823 302
43.18834 307
43.20846 277
43.22857 313
43.24868 286
43.2688 291
43.28891 269
43.30902 300
43.32914 300
43.34925 308
43.36937 294
43.38948 305
43.40959 296
43.42971 301
43.44982 290
43.46993 289
43.49005 302
43.51016 292
43.53028 334
43.55039 289
43.5705 326
43.59062 290
43.61073 284
43.63084 289
43.65096 304
43.67107 315
43.69119 299
43.7113 302
43.73141 328
43.75153 290
43.77164 304
43.79175 268
43.81187 299
43.83198 291
43.85209 270
43.87221 298
43.89232 298
43.91244 322
43.93255 292
43.95266 293
43.97278 305
43.99289 284
44.013 317
44.03312 319
44.05323 288
44.07335 296
44.09346 283
44.11357 283
44.13369 328
44.1538 299
44.17391 321
44.19403 286
44.21414 326
44.23426 296
44.25437 312
44.27448 303
44.2946 303
44.31471 321
44.33482 293
44.35494 283
44.37505 295
44.39516 292
44.41528 325
44.43539 269
44.45551 304
44.47562 282
44.49573 284
44.51585 310
44.53596 298
44.55607 305
44.57619 330
44.5963 306
44.61642 289
44.63653 320
44.65664 305
44.67676 338
44.69687 295
44.71698 279
44.7371 318
44.75721 340
44.77732 336
44.79744 321
44.81755 324
44.83767 326
44.85778 350
44.87789 339
44.89801 321
44.91812 363
44.93823 370
44.95835 319
44.97846 331
44.99858 339
45.01869 341
45.0388 339
45.05892 356
45.07903 341
45.09914 310
45.11926 401
45.13937 356
45.15949 319
45.1796 363
45.19971 352
45.21983 389
45.23994 340
45.26005 353
45.28017 361
45.30028 392
45.32039 363
45.34051 383
45.36062 389
45.38074 376
45.40085 413
45.42096 397
45.44108 379
45.46119 405
45.4813 437
45.50142 431
45.52153 489
45.54165 421
45.56176 496
45.58187 501
45.60199 537
45.6221 555
45.64221 612
45.66233 618
45.68244 650
45.70256 693
45.72267 732
45.74278 784
45.7629 765
45.78301 768
45.80312 685
45.82324 633
45.84335 581
45.86346 510
45.88358 517
45.90369 478
45.92381 457
45.94392 386
45.96403 358
45.98415 390
46.00426 325
46.02437 328
46.04449 361
46.0646 304
46.08472 341
46.10483 364
46.12494 348
46.14506 334
46.16517 321
46.18528 321
46.2054 297
46.22551 327
46.24563 321
46.26574 305
46.28585 339
46.30597 304
46.32608 316
46.34619 347
46.36631 314
46.38642 283
46.40653 292
46.42665 307
46.44676 333
46.46688 296
46.48699 297
46.5071 297
46.52722 307
46.54733 290
46.56744 303
46.58756 284
46.60767 281
46.62779 282
46.6479 317
46.66801 317
46.68813 341
46.70824 281
46.72835 293
46.74847 312
46.76858 332
46.78869 310
46.80881 305
46.82892 314
46.84904 315
46.86915 337
46.88926 320
46.90938 322
46.92949 281
46.9496 336
46.96972 352
46.98983 310
47.00995 335
47.03006 289
47.05017 318
47.07029 355
47.0904 290
47.11051 352
47.13063 315
47.15074 340
47.17086 325
47.19097 301
47.21108 315
47.2312 297
47.25131 328
47.27142 358
47.29154 335
47.31165 313
47.33176 336
47.35188 310
47.37199 361
47.39211 360
47.41222 343
47.43233 355
47.45245 346
47.47256 322
47.49267 312
47.51279 281
47.5329 322
47.55302 292
47.57313 305
47.59324 292
47.61336 328
47.63347 314
47.65358 299
47.6737 302
47.69381 316
47.71393 301
47.73404 319
47.75415 309
47.77427 307
47.79438 307
47.81449 284
47.83461 300
47.85472 305
47.87483 287
47.89495 306
47.91506 287
47.93518 289
47.95529 295
47.9754 283
47.99552 300
48.01563 269
48.03574 279
48.05586 286
48.07597 310
48.09609 318
48.1162 283
48.13631 319
48.15643 289
48.17654 315
48.19665 298
48.21677 332
48.23688 298
48.257 310
48.27711 321
48.29722 277
48.31734 327
48.33745 302
48.35756 277
48.37768 311
48.39779 311
48.4179 321
48.43802 304
48.45813 322
48.47825 301
48.49836 307
48.51847 329
48.53859 290
48.5587 320
48.57881 310
48.59893 327
48.61904 318
48.63916 276
48.65927 351
48.67938 301
48.6995 353
48.71961 330
48.73972 314
48.75984 349
48.77995 312
48.80006 306
48.82018 335
48.84029 309
48.86041 332
48.88052 342
48.90063 328
48.92075 338
48.94086 316
48.96097 324
48.98109 346
49.0012 348
49.02132 345
49.04143 328
49.06154 322
49.08166 313
49.10177 365
49.12188 356
49.142 327
49.16211 316
49.18223 353
49.20234 329
49.22245 355
49.24257 303
49.26268 302
49.28279 321
49.30291 326
49.32302 350
49.34313 353
49.36325 303
49.38336 343
49.40348 353
49.42359 327
49.4437 310
49.46382 351
49.48393 324
49.50404 305
49.52416 343
49.54427 352
49.56439 343
49.5845 338
49.60461 369
49.62473 367
49.64484 385
49.66495 407
49.68507 454
49.70518 416
49.7253 461
49.74541 451
49.76552 519
49.78564 536
49.80575 575
49.82586 566
49.84598 610
49.86609 710
49.8862 730
49.90632 808
49.92643 888
49.94655 980
49.96666 1021
49.98677 1162
50.00689 1297
50.027 1398
50.04711 1558
50.06723 1666
50.08734 1771
50.10746 1701
50.12757 1767
50.14768 1508
50.1678 1203
50.18791 1075
50.20802 1038
50.22814 1042
50.24825 945
50.26837 832
50.28848 706
50.30859 576
50.32871 473
50.34882 506
50.36893 444
50.38905 440
50.40916 391
50.42927 408
50.44939 437
50.4695 453
50.48962 442
50.50973 418
50.52984 531
50.54996 510
50.57007 462
50.59018 457
50.6103 426
50.63041 457
50.65053 426
50.67064 412
50.69075 418
50.71087 438
50.73098 422
50.75109 376
50.77121 399
50.79132 354
50.81143 327
50.83155 336
50.85166 352
50.87178 338
50.89189 330
50.912 352
50.93212 306
50.95223 311
50.97234 316
50.99246 286
51.01257 294
51.03269 300
51.0528 306
51.07291 300
51.09303 326
51.11314 332
51.13325 296
51.15337 313
51.17348 326
51.1936 304
51.21371 319
51.23382 321
51.25394 292
51.27405 295
51.29416 334
51.31428 308
51.33439 323
51.3545 307
51.37462 305
51.39473 282
51.41485 311
51.43496 340
51.45507 291
51.47519 324
51.4953 295
51.51541 261
51.53553 271
51.55564 303
51.57576 317
51.59587 283
51.61598 285
51.6361 278
51.65621 285
51.67632 290
51.69644 255
51.71655 278
51.73667 289
51.75678 276
51.77689 279
51.79701 268
51.81712 266
51.83723 261
51.85735 273
51.87746 267
51.89757 274
51.91769 270
51.9378 282
51.95792 301
51.97803 261
51.99814 276
52.01826 261
52.03837 277
52.05848 302
52.0786 289
52.09871 301
52.11883 282
52.13894 293
52.15905 262
52.17917 275
52.19928 291
52.21939 318
52.23951 280
52.25962 325
52.27974 280
52.29985 301
52.31996 276
52.34008 293
52.36019 276
52.3803 294
52.40042 288
52.42053 317
52.44064 300
52.46076 294
52.48087 298
52.50099 334
52.5211 322
52.54121 303
52.56133 318
52.58144 308
52.60155 285
52.62167 308
52.64178 305
52.6619 320
52.68201 330
52.70212 324
52.72224 297
52.74235 276
52.76246 293
52.78258 326
52.80269 275
52.8228 286
52.84292 326
52.86303 312
52.88315 281
52.90326 306
52.92337 306
52.94349 308
52.9636 304
52.98371 288
53.00383 293
53.02394 309
53.04406 307
53.06417 321
53.08428 312
53.1044 303
53.12451 316
53.14462 299
53.16474 314
53.18485 302
53.20497 313
53.22508 326
53.24519 266
53.26531 324
53.28542 276
53.30553 329
53.32565 315
53.34576 292
53.36587 287
53.38599 323
53.4061 300
53.42622 300
53.44633 305
53.46644 277
53.48656 285
53.50667 303
53.52678 326
53.5469 328
53.56701 302
53.58713 311
53.60724 304
53.62735 274
53.64747 301
53.66758 311
53.68769 283
53.70781 295
53.72792 302
53.74804 297
53.76815 308
53.78826 316
53.80838 331
53.82849 310
53.8486 285
53.86872 339
53.88883 307
53.90894 326
53.92906 307
53.94917 325
53.96929 305
53.9894 333
54.00951 320
54.02963 312
54.04974 326
54.06985 350
54.08997 296
54.11008 380
54.1302 360
54.15031 345
54.17042 344
54.19054 352
54.21065 339
54.23076 349
54.25088 348
54.27099 361
54.29111 349
54.31122 373
54.33133 374
54.35145 366
54.37156 367
54.39167 383
54.41179 366
54.4319 359
54.45201 381
54.47213 373
54.49224 387
54.51236 412
54.53247 425
54.55258 436
54.5727 422
54.59281 479
54.61292 499
54.63304 480
54.65315 493
54.67327 558
54.69338 576
54.71349 597
54.73361 630
54.75372 656
54.77383 701
54.79395 789
54.81406 803
54.83417 802
54.85429 827
54.8744 704
54.89452 704
54.91463 631
54.93474 588
54.95486 518
54.97497 585
54.99508 577
55.0152 533
55.03531 490
55.05543 524
55.07554 472
55.09565 450
55.11577 466
55.13588 453
55.15599 500
55.17611 469
55.19622 483
55.21634 508
55.23645 481
55.25656 553
55.27668 560
55.29679 489
55.3169 525
55.33702 487
55.35713 461
55.37724 466
55.39736 427
55.41747 425
55.43759 400
55.4577 413
55.47781 387
55.49793 375
55.51804 368
55.53815 342
55.55827 364
55.57838 303
55.5985 379
55.61861 319
55.63872 354
55.65884 366
55.67895 334
55.69906 324
55.71918 318
55.73929 319
55.75941 338
55.77952 319
55.79963 385
55.81975 318
55.83986 317
55.85997 341
55.88009 312
55.9002 322
55.92031 339
55.94043 319
55.96054 306
55.98066 301
56.00077 311
56.02088 286
56.041 319
56.06111 299
56.08122 332
56.10134 306
56.12145 308
56.14157 330
56.16168 298
56.18179 310
56.20191 299
56.22202 308
56.24213 304
56.26225 323
56.28236 341
56.30248 303
56.32259 285
56.3427 326
56.36282 316
56.38293 336
56.40304 316
56.42316 325
56.44327 326
56.46338 320
56.4835 295
56.50361 319
56.52373 319
56.54384 315
56.56395 330
56.58407 330
56.60418 276
56.62429 297
56.64441 315
56.66452 304
56.68464 305
56.70475 302
56.72486 319
56.74498 283
56.76509 287
56.7852 305
56.80532 283
56.82543 315
56.84554 294
56.86566 315
56.88577 307
56.90589 291
56.926 294
56.94611 344
56.96623 316
56.98634 299
57.00645 313
57.02657 318
57.04668 331
57.0668 323
57.08691 302
57.10702 304
57.12714 319
57.14725 323
57.16736 329
57.18748 326
57.20759 352
57.22771 326
57.24782 328
57.26793 313
57.28805 303
57.30816 306
57.32827 293
57.34839 298
57.3685 305
57.38861 318
57.40873 302
57.42884 296
57.44896 274
57.46907 326
57.48918 316
57.5093 272
57.52941 280
57.54952 283
57.56964 323
57.58975 301
57.60987 316
57.62998 295
57.65009 284
57.67021 284
57.69032 306
57.71043 287
57.73055 285
57.75066 297
57.77078 277
57.79089 285
57.811 278
57.83112 309
57.85123 283
57.87134 282
57.89146 318
57.91157 295
57.93168 287
57.9518 276
57.97191 284
57.99203 276
58.01214 261
58.03225 278
58.05237 310
58.07248 288
58.09259 292
58.11271 253
58.13282 291
58.15294 282
58.17305 297
58.19316 276
58.21328 302
58.23339 317
58.2535 271
58.27362 285
58.29373 289
58.31385 300
58.33396 326
58.35407 315
58.37419 319
58.3943 321
58.41441 307
58.43453 287
58.45464 298
58.47475 317
58.49487 320
58.51498 297
58.5351 310
58.55521 338
58.57532 330
58.59544 293
58.61555 314
58.63566 312
58.65578 316
58.67589 317
58.69601 317
58.71612 316
58.73623 281
58.75635 307
58.77646 291
58.79657 325
58.81669 300
58.8368 287
58.85691 273
58.87703 300
58.89714 282
58.91726 302
58.93737 284
58.95748 312
58.9776 306
58.99771 303
59.01782 310
59.03794 306
59.05805 283
59.07817 301
59.09828 249
59.11839 283
59.13851 278
59.15862 322
59.17873 298
59.19885 301
59.21896 337
59.23908 340
59.25919 303
59.2793 311
59.29942 328
59.31953 331
59.33964 317
59.35976 297
59.37987 326
59.39998 361
59.4201 330
59.44021 393
59.46033 335
59.48044 359
59.50055 368
59.52067 409
59.54078 417
59.56089 413
59.58101 431
59.60112 471
59.62124 479
59.64135 540
59.66146 552
59.68158 548
59.70169 614
59.7218 681
59.74192 746
59.76203 779
59.78215 906
59.80226 1010
59.82237 1026
59.84249 1158
59.8626 1166
59.88271 1164
59.90283 1272
59.92294 1249
59.94305 1255
59.96317 1070
59.98328 932
60.0034 879
60.02351 777
60.04362 787
60.06374 817
60.08385 772
60.10396 708
60.12408 651
60.14419 552
60.16431 477
60.18442 459
60.20453 494
60.22465 428
60.24476 427
60.26487 402
60.28499 431
60.3051 401
60.32522 437
60.34533 397
60.36544 369
60.38556 363
60.40567 386
60.42578 346
60.4459 370
60.46601 357
60.48612 364
60.50624 326
60.52635 388
60.54647 350
60.56658 306
60.58669 320
60.60681 342
60.62692 356
60.64703 286
60.66715 328
60.68726 320
60.70738 352
60.72749 314
60.7476 336
60.76772 283
60.78783 289
60.80794 353
60.82806 297
60.84817 329
60.86828 327
60.8884 327
60.90851 300
60.92863 321
60.94874 303
60.96885 316
60.98897 334
61.00908 308
61.02919 324
61.04931 332
61.06942 268
61.08954 328
61.10965 318
61.12976 326
61.14988 326
61.16999 277
61.1901 322
61.21022 301
61.23033 308
61.25045 314
61.27056 340
61.29067 319
61.31079 348
61.3309 320
61.35101 315
61.37113 316
61.39124 347
61.41135 315
61.43147 327
61.45158 304
61.4717 313
61.49181 316
61.51192 327
61.53204 318
61.55215 333
61.57226 308
61.59238 339
61.61249 326
61.63261 353
61.65272 277
61.67283 328
61.69295 335
61.71306 320
61.73317 325
61.75329 347
61.7734 353
61.79352 359
61.81363 324
61.83374 351
61.85386 320
61.87397 338
61.89408 356
61.9142 324
61.93431 339
61.95442 365
61.97454 353
61.99465 339
62.01477 363
62.03488 372
62.05499 367
62.07511 349
62.09522 339
62.11533 391
62.13545 381
62.15556 356
62.17568 363
62.19579 392
62.2159 376
62.23602 377
62.25613 352
62.27624 386
62.29636 356
62.31647 346
62.33659 377
62.3567 377
62.37681 356
62.39693 354
62.41704 337
62.43715 345
62.45727 351
62.47738 303
62.49749 337
62.51761 338
62.53772 313
62.55784 321
62.57795 355
62.59806 322
62.61818 326
62.63829 324
62.6584 326
62.67852 322
62.69863 314
62.71875 308
62.73886 330
62.75897 329
62.77909 295
62.7992 317
62.81931 322
62.83943 311
62.85954 308
62.87965 325
62.89977 333
62.91988 294
62.94 290
62.96011 292
62.98022 318
63.00034 297
63.02045 349
63.04056 302
63.06068 303
63.08079 309
63.10091 287
63.12102 310
63.14113 312
63.16125 291
63.18136 259
63.20147 296
63.22159 324
63.2417 332
63.26182 274
63.28193 304
63.30204 307
63.32216 297
63.34227 309
63.36238 297
63.3825 310
63.40261 324
63.42272 338
63.44284 284
63.46295 352
63.48307 310
63.50318 337
63.52329 352
63.54341 324
63.56352 308
63.58363 362
63.60375 342
63.62386 341
63.64398 354
63.66409 319
63.6842 368
63.70432 392
63.72443 378
63.74454 397
63.76466 407
63.78477 382
63.80489 377
63.825 385
63.84511 381
63.86523 401
63.88534 437
63.90545 469
63.92557 511
63.94568 482
63.96579 503
63.98591 476
64.00602 470
64.02614 504
64.04625 463
64.06636 426
64.08648 388
64.10659 402
64.1267 415
64.14682 375
64.16693 374
64.18705 357
64.20716 368
64.22727 351
64.24739 335
64.2675 308
64.28761 294
64.30773 267
64.32784 305
64.34796 295
64.36807 291
64.38818 283
64.4083 278
64.42841 260
64.44852 315
64.46864 269
64.48875 272
64.50886 289
64.52898 268
64.54909 291
64.56921 273
64.58932 281
64.60943 265
64.62955 322
64.64966 274
64.66977 309
64.68989 307
64.71 289
64.73012 286
64.75023 291
64.77034 300
64.79046 299
64.81057 281
64.83068 274
64.8508 293
64.87091 271
64.89102 286
64.91114 319
64.93125 268
64.95137 279
64.97148 282
64.99159 299
65.01171 277
65.03182 280
65.05193 283
65.07205 316
65.09216 304
65.11228 291
65.13239 281
65.1525 287
65.17262 297
65.19273 294
65.21284 319
65.23296 331
65.25307 286
65.27319 304
65.2933 329
65.31341 292
65.33353 298
65.35364 299
65.37375 305
65.39387 277
65.41398 286
65.43409 288
65.45421 283
65.47432 306
65.49444 315
65.51455 290
65.53466 303
65.55478 306
65.57489 303
65.595 294
65.61512 304
65.63523 299
65.65535 324
65.67546 323
65.69557 313
65.71569 336
65.7358 292
65.75591 349
65.77603 313
65.79614 323
65.81626 278
65.83637 299
65.85648 328
65.8766 285
65.89671 301
65.91682 288
65.93694 283
65.95705 281
65.97716 282
65.99728 273
66.01739 287
66.03751 297
66.05762 298
66.07773 284
66.09785 286
66.11796 274
66.13807 292
66.15819 284
66.1783 265
66.19842 292
66.21853 277
66.23864 303
66.25876 308
66.27887 298
66.29898 309
66.3191 266
66.33921 284
66.35933 305
66.37944 296
66.39955 262
66.41967 285
66.43978 304
66.45989 269
66.48001 266
66.50012 322
66.52023 291
66.54035 299
66.56046 294
66.58058 303
66.60069 289
66.6208 294
66.64092 294
66.66103 304
66.68114 299
66.70126 267
66.72137 299
66.74149 306
66.7616 266
66.78171 295
66.80183 285
66.82194 286
66.84205 301
66.86217 284
66.88228 294
66.90239 292
66.92251 287
66.94262 310
66.96274 280
66.98285 305
67.00296 292
67.02308 327
67.04319 286
67.0633 281
67.08342 298
67.10353 316
67.12365 318
67.14376 323
67.16387 325
67.18399 317
67.2041 312
67.22421 347
67.24433 304
67.26444 317
67.28456 353
67.30467 397
67.32478 325
67.3449 345
67.36501 407
67.38512 427
67.40524 402
67.42535 431
67.44546 463
67.46558 445
67.48569 428
67.50581 522
67.52592 566
67.54603 612
67.56615 666
67.58626 699
67.60637 761
67.62649 742
67.6466 848
67.66672 891
67.68683 902
67.70694 912
67.72706 862
67.74717 813
67.76728 739
67.7874 687
67.80751 702
67.82763 741
67.84774 774
67.86785 793
67.88797 775
67.90808 821
67.92819 807
67.94831 785
67.96842 915
67.98853 901
68.00865 935
68.02876 927
68.04888 1066
68.06899 1072
68.0891 1114
68.10922 1146
68.12933 1123
68.14944 1070
68.16956 1005
68.18967 904
68.20979 997
68.2299 913
68.25001 981
68.27013 990
68.29024 975
68.31035 834
68.33047 757
68.35058 726
68.3707 557
68.39081 564
68.41092 540
68.43104 510
68.45115 501
68.47126 474
68.49138 484
68.51149 422
68.5316 390
68.55172 351
68.57183 332
68.59195 346
68.61206 331
68.63217 318
68.65229 328
68.6724 333
68.69251 319
68.71263 295
68.73274 309
68.75286 339
68.77297 268
68.79308 293
68.8132 305
68.83331 302
68.85342 273
68.87354 295
68.89365 295
68.91376 287
68.93388 309
68.95399 267
68.97411 278
68.99422 300
69.01433 280
69.03445 298
69.05456 299
69.07467 297
69.09479 279
69.1149 303
69.13502 289
69.15513 304
69.17524 302
69.19536 301
69.21547 292
69.23558 288
69.2557 272
69.27581 272
69.29593 332
69.31604 279
69.33615 292
69.35627 294
69.37638 290
69.39649 300
69.41661 270
69.43672 317
69.45683 248
69.47695 293
69.49706 293
69.51718 276
69.53729 311
69.5574 309
69.57752 303
69.59763 288
69.61774 298
69.63786 285
69.65797 301
69.67809 274
69.6982 284
69.71831 320
69.73843 278
69.75854 254
69.77865 292
69.79877 281
69.81888 296
69.839 315
69.85911 296
69.87922 293
69.89934 276
69.91945 306
69.93956 281
69.95968 298
69.97979 272
69.9999 265
70.02002 303
70.04013 271
70.06025 287
70.08036 308
70.10047 275
70.12059 271
70.1407 288
70.16081 308
70.18093 294
70.20104 283
70.22116 282
70.24127 278
70.26138 287
70.2815 301
70.30161 267
70.32172 301
70.34184 267
70.36195 282
70.38207 257
70.40218 274
70.42229 263
70.44241 267
70.46252 279
70.48263 302
70.50275 255
70.52286 284
70.54297 304
70.56309 270
70.5832 264
70.60332 287
70.62343 284
70.64354 293
70.66366 304
70.68377 275
70.70388 267
70.724 269
70.74411 290
70.76423 292
70.78434 288
70.80445 271
70.82457 289
70.84468 284
70.86479 300
70.88491 273
70.90502 310
70.92513 311
70.94525 287
70.96536 251
70.98548 280
71.00559 272
71.0257 312
71.04582 255
71.06593 275
71.08604 319
71.10616 283
71.12627 304
71.14639 282
71.1665 292
71.18661 277
71.20673 291
71.22684 303
71.24695 305
71.26707 306
71.28718 285
71.3073 276
71.32741 281
71.34752 291
71.36764 300
71.38775 291
71.40786 307
71.42798 291
71.44809 266
71.4682 328
71.48832 317
71.50843 276
71.52855 304
71.54866 312
71.56877 271
71.58889 303
71.609 320
71.62911 288
71.64923 277
71.66934 276
71.68946 269
71.70957 288
71.72968 263
71.7498 275
71.76991 290
71.79002 276
71.81014 298
71.83025 272
71.85037 271
71.87048 281
71.89059 253
71.91071 293
71.93082 274
71.95093 295
71.97105 292
71.99116 307
72.01127 289
72.03139 290
72.0515 279
72.07162 251
72.09173 293
72.11184 296
72.13196 298
72.15207 303
72.17218 296
72.1923 252
72.21241 286
72.23253 293
72.25264 270
72.27275 279
72.29287 304
72.31298 290
72.33309 306
72.35321 280
72.37332 284
72.39344 313
72.41355 274
72.43366 308
72.45378 276
72.47389 275
72.494 319
72.51412 313
72.53423 313
72.55434 292
72.57446 279
72.59457 260
72.61469 267
72.6348 295
72.65491 295
72.67503 292
72.69514 305
72.71525 309
72.73537 280
72.75548 308
72.7756 318
72.79571 281
72.81582 334
72.83594 298
72.85605 287
72.87616 256
72.89628 300
72.91639 280
72.9365 308
72.95662 298
72.97673 329
72.99685 312
73.01696 326
73.03707 277
73.05719 342
73.0773 342
73.09741 316
73.11753 334
73.13764 334
73.15776 356
73.17787 386
73.19798 390
73.2181 380
73.23821 383
73.25832 381
73.27844 389
73.29855 433
73.31867 426
73.33878 470
73.35889 476
73.37901 431
73.39912 481
73.41923 500
73.43935 471
73.45946 468
73.47957 434
73.49969 420
73.5198 374
73.53992 356
73.56003 407
73.58014 402
73.60026 350
73.62037 401
73.64048 358
73.6606 344
73.68071 361
73.70083 324
73.72094 332
73.74105 327
73.76117 339
73.78128 279
73.80139 290
73.82151 294
73.84162 301
73.86174 291
73.88185 293
73.90196 286
73.92208 277
73.94219 291
73.9623 272
73.98242 295
74.00253 280
74.02264 277
74.04276 276
74.06287 273
74.08299 284
74.1031 307
74.12321 250
74.14333 274
74.16344 280
74.18355 277
74.20367 291
74.22378 285
74.2439 267
74.26401 310
74.28412 288
74.30424 265
74.32435 257
74.34446 261
74.36458 256
74.38469 286
74.40481 303
74.42492 270
74.44503 267
74.46515 279
74.48526 306
74.50537 275
74.52549 286
74.5456 315
74.56571 293
74.58583 294
74.60594 305
74.62606 258
74.64617 291
74.66628 301
74.6864 266
74.70651 280
74.72662 295
74.74674 293
74.76685 264
74.78697 263
74.80708 270
74.82719 271
74.84731 288
74.86742 277
74.88753 279
74.90765 283
74.92776 299
74.94787 293
74.96799 299
74.9881 302
75.00822 276
