3.00117 20293
3.02128 20127
3.0414 19372
3.06151 18977
3.08162 18423
3.10174 17910
3.12185 17483
3.14197 16668
3.16208 16381
3.18219 15882
3.20231 14969
3.22242 15237
3.24253 14224
3.26265 14254
3.28276 13777
3.30288 13286
3.32299 13075
3.3431 12395
3.36322 12006
3.38333 11622
3.40344 11382
3.42356 11031
3.44367 10553
3.46379 10246
3.4839 9837
3.50401 9473
3.52413 9122
3.54424 8709
3.56435 8773
3.58447 8280
3.60458 8009
3.62469 7874
3.64481 7191
3.66492 7099
3.68504 6659
3.70515 6751
3.72526 6404
3.74538 5927
3.76549 5907
3.7856 5573
3.80572 5334
3.82583 5365
3.84595 4813
3.86606 4670
3.88617 4575
3.90629 4348
3.9264 4326
3.94651 3955
3.96663 3829
3.98674 3551
4.00686 3512
4.02697 3452
4.04708 3269
4.0672 3117
4.08731 3075
4.10742 2797
4.12754 2838
4.14765 2585
4.16776 2568
4.18788 2467
4.20799 2383
4.22811 2434
4.24822 2063
4.26833 2156
4.28845 2057
4.30856 2014
4.32867 1929
4.34879 1843
4.3689 1831
4.38902 1787
4.40913 1746
4.42924 1750
4.44936 1537
4.46947 1512
4.48958 1619
4.5097 1543
4.52981 1490
4.54992 1456
4.57004 1406
4.59015 1386
4.61027 1448
4.63038 1331
4.65049 1297
4.67061 1263
4.69072 1356
4.71083 1297
4.73095 1242
4.75106 1146
4.77118 1128
4.79129 1149
4.8114 1134
4.83152 1162
4.85163 1058
4.87174 1058
4.89186 1076
4.91197 1017
4.93209 1040
4.9522 1006
4.97231 976
4.99243 996
5.01254 905
5.03265 921
5.05277 882
5.07288 862
5.09299 923
5.11311 831
5.13322 839
5.15334 780
5.17345 806
5.19356 828
5.21368 735
5.23379 808
5.2539 797
5.27402 717
5.29413 672
5.31425 737
5.33436 734
5.35447 717
5.37459 647
5.3947 699
5.41481 687
5.43493 595
5.45504 622
5.47516 645
5.49527 575
5.51538 694
5.5355 631
5.55561 574
5.57572 606
5.59584 578
5.61595 615
5.63606 600
5.65618 582
5.67629 515
5.69641 489
5.71652 575
5.73663 541
5.75675 515
5.77686 527
5.79697 525
5.81709 516
5.8372 527
5.85732 508
5.87743 504
5.89754 471
5.91766 512
5.93777 534
5.95788 500
5.978 509
5.99811 511
6.01823 488
6.03834 486
6.05845 468
6.07857 476
6.09868 461
6.11879 439
6.13891 437
6.15902 460
6.17913 452
6.19925 473
6.21936 494
6.23948 442
6.25959 446
6.2797 490
6.29982 477
6.31993 489
6.34004 449
6.36016 497
6.38027 459
6.40039 491
6.4205 457
6.44061 470
6.46073 432
6.48084 411
6.50095 475
6.52107 468
6.54118 435
6.56129 445
6.58141 466
6.60152 482
6.62164 443
6.64175 450
6.66186 433
6.68198 408
6.70209 396
6.7222 449
6.74232 449
6.76243 466
6.78255 443
6.80266 435
6.82277 413
6.84289 389
6.863 436
6.88311 454
6.90323 422
6.92334 388
6.94346 434
6.96357 411
6.98368 438
7.0038 414
7.02391 470
7.04402 441
7.06414 366
7.08425 452
7.10436 391
7.12448 450
7.14459 423
7.16471 446
7.18482 439
7.20493 426
7.22505 418
7.24516 429
7.26527 431
7.28539 427
7.3055 424
7.32562 397
7.34573 429
7.36584 447
7.38596 434
7.40607 446
7.42618 460
7.4463 440
7.46641 457
7.48653 431
7.50664 447
7.52675 457
7.54687 403
7.56698 397
7.58709 423
7.60721 449
7.62732 410
7.64743 372
7.66755 433
7.68766 392
7.70778 435
7.72789 427
7.748 482
7.76812 432
7.78823 443
7.80834 426
7.82846 465
7.84857 418
7.86869 395
7.8888 423
7.90891 423
7.92903 420
7.94914 436
7.96925 381
7.98937 444
8.00948 423
8.0296 427
8.04971 408
8.06982 448
8.08994 464
8.11005 418
8.13016 450
8.15028 425
8.17039 410
8.1905 418
8.21062 456
8.23073 437
8.25085 448
8.27096 424
8.29107 448
8.31119 431
8.3313 440
8.35141 446
8.37153 423
8.39164 444
8.41176 461
8.43187 458
8.45198 438
8.4721 418
8.49221 417
8.51232 459
8.53244 464
8.55255 433
8.57266 462
8.59278 420
8.61289 424
8.63301 454
8.65312 427
8.67323 437
8.69335 413
8.71346 440
8.73357 423
8.75369 440
8.7738 445
8.79392 453
8.81403 445
8.83414 419
8.85426 408
8.87437 444
8.89448 431
8.9146 465
8.93471 454
8.95483 438
8.97494 438
8.99505 457
9.01517 458
9.03528 470
9.05539 449
9.07551 452
9.09562 437
9.11573 419
9.13585 429
9.15596 444
9.17608 418
9.19619 508
9.2163 458
9.23642 444
9.25653 387
9.27664 479
9.29676 457
9.31687 400
9.33699 403
9.3571 450
9.37721 446
9.39733 411
9.41744 442
9.43755 419
9.45767 372
9.47778 414
9.4979 455
9.51801 508
9.53812 462
9.55824 411
9.57835 369
9.59846 440
9.61858 412
9.63869 443
9.6588 432
9.67892 490
9.69903 427
9.71915 421
9.73926 431
9.75937 452
9.77949 473
9.7996 428
9.81971 447
9.83983 437
9.85994 438
9.88006 442
9.90017 388
9.92028 444
9.9404 395
9.96051 414
9.98062 443
10.00074 442
10.02085 410
10.04097 489
10.06108 387
10.08119 425
10.10131 427
10.12142 417
10.14153 416
10.16165 444
10.18176 437
10.20187 440
10.22199 453
10.2421 481
10.26222 432
10.28233 463
10.30244 445
10.32256 421
10.34267 434
10.36278 422
10.3829 412
10.40301 407
10.42313 479
10.44324 427
10.46335 408
10.48347 408
10.50358 419
10.52369 435
10.54381 403
10.56392 440
10.58403 416
10.60415 389
10.62426 430
10.64438 472
10.66449 438
10.6846 403
10.70472 441
10.72483 465
10.74494 459
10.76506 400
10.78517 439
10.80529 399
10.8254 447
10.84551 432
10.86563 465
10.88574 435
10.90585 464
10.92597 451
10.94608 435
10.9662 463
10.98631 446
11.00642 403
11.02654 469
11.04665 445
11.06676 435
11.08688 444
11.10699 426
11.1271 445
11.14722 436
11.16733 455
11.18745 386
11.20756 433
11.22767 459
11.24779 429
11.2679 428
11.28801 422
11.30813 435
11.32824 436
11.34836 442
11.36847 439
11.38858 432
11.4087 426
11.42881 435
11.44892 455
11.46904 436
11.48915 416
11.50927 479
11.52938 494
11.54949 472
11.56961 407
11.58972 470
11.60983 452
11.62995 441
11.65006 437
11.67017 455
11.69029 481
11.7104 476
11.73052 435
11.75063 431
11.77074 474
11.79086 470
11.81097 480
11.83108 457
11.8512 493
11.87131 472
11.89143 509
11.91154 492
11.93165 499
11.95177 538
11.97188 475
11.99199 529
12.01211 502
12.03222 564
12.05234 543
12.07245 524
12.09256 551
12.11268 561
12.13279 546
12.1529 546
12.17302 558
12.19313 637
12.21324 670
12.23336 720
12.25347 669
12.27359 754
12.2937 757
12.31381 733
12.33393 798
12.35404 786
12.37415 772
12.39427 732
12.41438 715
12.4345 647
12.45461 660
12.47472 614
12.49484 597
12.51495 604
12.53506 577
12.55518 556
12.57529 531
12.5954 492
12.61552 507
12.63563 549
12.65575 479
12.67586 446
12.69597 461
12.71609 482
12.7362 441
12.75631 480
12.77643 459
12.79654 461
12.81666 451
12.83677 423
12.85688 426
12.877 427
12.89711 420
12.91722 425
12.93734 459
12.95745 423
12.97757 435
12.99768 425
13.01779 434
13.03791 419
13.05802 417
13.07813 416
13.09825 423
13.11836 392
13.13847 448
13.15859 379
13.1787 423
13.19882 483
13.21893 414
13.23904 429
13.25916 406
13.27927 442
13.29938 441
13.3195 418
13.33961 403
13.35973 375
13.37984 420
13.39995 426
13.42007 377
13.44018 447
13.46029 449
13.48041 427
13.50052 411
13.52064 383
13.54075 428
13.56086 411
13.58098 443
13.60109 434
13.6212 402
13.64132 405
13.66143 417
13.68154 423
13.70166 386
13.72177 440
13.74189 412
13.762 448
13.78211 372
13.80223 440
13.82234 423
13.84245 406
13.86257 383
13.88268 456
13.9028 451
13.92291 402
13.94302 417
13.96314 369
13.98325 418
14.00336 416
14.02348 416
14.04359 428
14.06371 434
14.08382 397
14.10393 408
14.12405 377
14.14416 372
14.16427 411
14.18439 426
14.2045 459
14.22461 424
14.24473 398
14.26484 356
14.28496 435
14.30507 427
14.32518 368
14.3453 471
14.36541 369
14.38552 426
14.40564 433
14.42575 392
14.44587 379
14.46598 409
14.48609 415
14.50621 425
14.52632 387
14.54643 405
14.56655 406
14.58666 432
14.60677 427
14.62689 401
14.647 375
14.66712 398
14.68723 453
14.70734 399
14.72746 448
14.74757 438
14.76768 390
14.7878 402
14.80791 414
14.82803 428
14.84814 409
14.86825 435
14.88837 383
14.90848 417
14.92859 422
14.94871 399
14.96882 418
14.98894 377
15.00905 406
15.02916 389
15.04928 409
15.06939 421
15.0895 438
15.10962 376
15.12973 436
15.14984 413
15.16996 414
15.19007 403
15.21019 414
15.2303 401
15.25041 412
15.27053 401
15.29064 436
15.31075 407
15.33087 420
15.35098 439
15.3711 381
15.39121 433
15.41132 382
15.43144 420
15.45155 430
15.47166 385
15.49178 394
15.51189 417
15.53201 413
15.55212 401
15.57223 404
15.59235 426
15.61246 450
15.63257 416
15.65269 439
15.6728 392
15.69291 379
15.71303 440
15.73314 411
15.75326 419
15.77337 421
15.79348 404
15.8136 430
15.83371 444
15.85382 395
15.87394 443
15.89405 440
15.91417 407
15.93428 423
15.95439 398
15.97451 423
15.99462 386
16.01473 435
16.03485 401
16.05496 408
16.07508 393
16.09519 438
16.1153 400
16.13542 441
16.15553 415
16.17564 418
16.19576 440
16.21587 428
16.23598 393
16.2561 430
16.27621 401
16.29633 406
16.31644 447
16.33655 421
16.35667 420
16.37678 435
16.39689 372
16.41701 386
16.43712 382
16.45724 432
16.47735 414
16.49746 426
16.51758 391
16.53769 426
16.5578 393
16.57792 418
16.59803 404
16.61814 442
16.63826 404
16.65837 412
16.67849 412
16.6986 414
16.71871 418
16.73883 446
16.75894 365
16.77905 383
16.79917 393
16.81928 382
16.8394 413
16.85951 408
16.87962 399
16.89974 465
16.91985 393
16.93996 415
16.96008 449
16.98019 414
17.00031 378
17.02042 405
17.04053 433
17.06065 412
17.08076 445
17.10087 398
17.12099 426
17.1411 402
17.16121 422
17.18133 420
17.20144 392
17.22156 462
17.24167 381
17.26178 424
17.2819 458
17.30201 415
17.32212 387
17.34224 410
17.36235 435
17.38247 389
17.40258 388
17.42269 439
17.44281 457
17.46292 453
17.48303 419
17.50315 430
17.52326 439
17.54338 436
17.56349 418
17.5836 414
17.60372 452
17.62383 467
17.64394 456
17.66406 450
17.68417 466
17.70428 515
17.7244 441
17.74451 472
17.76463 474
17.78474 493
17.80485 473
17.82497 538
17.84508 520
17.86519 481
17.88531 511
17.90542 490
17.92554 503
17.94565 545
17.96576 476
17.98588 519
18.00599 502
18.0261 525
18.04622 574
18.06633 567
18.08645 561
18.10656 616
18.12667 726
18.14679 787
18.1669 995
18.18701 1239
18.20713 1675
18.22724 2200
18.24735 2888
18.26747 3466
18.28758 3747
18.3077 3771
18.32781 3508
18.34792 2829
18.36804 2055
18.38815 1337
18.40826 984
18.42838 769
18.44849 647
18.46861 586
18.48872 634
18.50883 547
18.52895 562
18.54906 536
18.56917 528
18.58929 507
18.6094 469
18.62951 464
18.64963 466
18.66974 479
18.68986 452
18.70997 494
18.73008 499
18.7502 477
18.77031 466
18.79042 480
18.81054 469
18.83065 471
18.85077 419
18.87088 454
18.89099 443
18.91111 430
18.93122 454
18.95133 472
18.97145 450
18.99156 422
19.01168 431
19.03179 502
19.0519 463
19.07202 450
19.09213 460
19.11224 410
19.13236 395
19.15247 452
19.17258 408
19.1927 503
19.21281 441
19.23293 435
19.25304 476
19.27315 457
19.29327 429
19.31338 441
19.33349 490
19.35361 456
19.37372 452
19.39384 462
19.41395 448
19.43406 439
19.45418 421
19.47429 480
19.4944 452
19.51452 473
19.53463 443
19.55475 502
19.57486 458
19.59497 496
19.61509 499
19.6352 457
19.65531 467
19.67543 537
19.69554 538
19.71565 477
19.73577 517
19.75588 546
19.776 528
19.79611 631
19.81622 602
19.83634 650
19.85645 659
19.87656 662
19.89668 620
19.91679 639
19.93691 658
19.95702 660
19.97713 618
19.99725 667
20.01736 656
20.03747 649
20.05759 613
20.0777 694
20.09782 637
20.11793 650
20.13804 740
20.15816 809
20.17827 860
20.19838 971
20.2185 1140
20.23861 1381
20.25872 1558
20.27884 1656
20.29895 1631
20.31907 1495
20.33918 1289
20.35929 1185
20.37941 1052
20.39952 907
20.41963 919
20.43975 939
20.45986 1001
20.47998 1015
20.50009 1109
20.5202 1138
20.54032 1188
20.56043 1135
20.58054 1042
20.60066 898
20.62077 905
20.64088 886
20.661 842
20.68111 853
20.70123 900
20.72134 1026
20.74145 1281
20.76157 1542
20.78168 2101
20.80179 2715
20.82191 3532
20.84202 3856
20.86214 3717
20.88225 3366
20.90236 2613
20.92248 1875
20.94259 1346
20.9627 1080
20.98282 875
21.00293 776
21.02305 889
21.04316 759
21.06327 814
21.08339 811
21.1035 822
21.12361 820
21.14373 787
21.16384 791
21.18395 806
21.20407 793
21.22418 863
21.2443 901
21.26441 902
21.28452 825
21.30464 916
21.32475 839
21.34486 961
21.36498 927
21.38509 921
21.40521 850
21.42532 918
21.44543 897
21.46555 843
21.48566 853
21.50577 884
21.52589 790
21.546 824
21.56612 839
21.58623 721
21.60634 811
21.62646 741
21.64657 685
21.66668 771
21.6868 696
21.70691 653
21.72702 624
21.74714 628
21.76725 624
21.78737 616
21.80748 614
21.82759 599
21.84771 623
21.86782 617
21.88793 605
21.90805 606
21.92816 583
21.94828 569
21.96839 625
21.9885 521
22.00862 598
22.02873 581
22.04884 572
22.06896 566
22.08907 553
22.10919 614
22.1293 534
22.14941 562
22.16953 527
22.18964 562
22.20975 562
22.22987 562
22.24998 520
22.27009 562
22.29021 536
22.31032 456
22.33044 516
22.35055 530
22.37066 545
22.39078 542
22.41089 448
22.431 545
22.45112 492
22.47123 555
22.49135 480
22.51146 500
22.53157 533
22.55169 536
22.5718 488
22.59191 519
22.61203 516
22.63214 502
22.65225 497
22.67237 522
22.69248 488
22.7126 488
22.73271 464
22.75282 457
22.77294 509
22.79305 495
22.81316 500
22.83328 501
22.85339 461
22.87351 448
22.89362 453
22.91373 489
22.93385 475
22.95396 508
22.97407 492
22.99419 447
23.0143 501
23.03442 477
23.05453 496
23.07464 488
23.09476 485
23.11487 446
23.13498 507
23.1551 488
23.17521 459
23.19532 462
23.21544 524
23.23555 505
23.25567 442
23.27578 486
23.29589 461
23.31601 502
23.33612 468
23.35623 497
23.37635 468
23.39646 461
23.41658 455
23.43669 488
23.4568 482
23.47692 456
23.49703 460
23.51714 442
23.53726 512
23.55737 481
23.57749 480
23.5976 448
23.61771 474
23.63783 477
23.65794 483
23.67805 465
23.69817 471
23.71828 467
23.73839 500
23.75851 453
23.77862 529
23.79874 519
23.81885 580
23.83896 523
23.85908 526
23.87919 589
23.8993 534
23.91942 515
23.93953 561
23.95965 543
23.97976 554
23.99987 506
24.01999 520
24.0401 545
24.06021 544
24.08033 503
24.10044 467
24.12056 534
24.14067 506
24.16078 473
24.1809 505
24.20101 512
24.22112 482
24.24124 470
24.26135 480
24.28146 512
24.30158 492
24.32169 431
24.34181 533
24.36192 508
24.38203 451
24.40215 506
24.42226 483
24.44237 536
24.46249 503
24.4826 506
24.50272 518
24.52283 527
24.54294 517
24.56306 525
24.58317 531
24.60328 573
24.6234 533
24.64351 603
24.66362 610
24.68374 587
24.70385 596
24.72397 645
24.74408 624
24.76419 667
24.78431 685
24.80442 697
24.82453 730
24.84465 761
24.86476 715
24.88488 741
24.90499 737
24.9251 679
24.94522 673
24.96533 660
24.98544 624
25.00556 620
25.02567 617
25.04579 654
25.0659 562
25.08601 604
25.10613 597
25.12624 571
25.14635 648
25.16647 614
25.18658 597
25.20669 625
25.22681 547
25.24692 579
25.26704 609
25.28715 582
25.30726 573
25.32738 509
25.34749 535
25.3676 552
25.38772 570
25.40783 507
25.42795 512
25.44806 483
25.46817 456
25.48829 510
25.5084 458
25.52851 520
25.54863 492
25.56874 495
25.58886 481
25.60897 495
25.62908 468
25.6492 498
25.66931 520
25.68942 566
25.70954 558
25.72965 594
25.74976 565
25.76988 552
25.78999 551
25.81011 491
25.83022 552
25.85033 546
25.87045 537
25.89056 558
25.91067 581
25.93079 554
25.9509 536
25.97102 597
25.99113 580
26.01124 613
26.03136 606
26.05147 621
26.07158 610
26.0917 583
26.11181 576
26.13193 646
26.15204 617
26.17215 605
26.19227 659
26.21238 659
26.23249 711
26.25261 759
26.27272 823
26.29283 842
26.31295 858
26.33306 893
26.35318 973
26.37329 936
26.3934 1020
26.41352 1179
26.43363 1431
26.45374 1594
26.47386 2044
26.49397 2668
26.51409 3742
26.5342 4993
26.55431 7272
26.57443 9911
26.59454 12618
26.61465 14583
26.63477 14765
26.65488 12714
26.67499 10256
26.69511 8109
26.71522 5834
26.73534 3899
26.75545 2321
26.77556 1578
26.79568 1304
26.81579 1231
26.8359 1141
26.85602 1106
26.87613 1099
26.89625 1053
26.91636 999
26.93647 968
26.95659 874
26.9767 832
26.99681 704
27.01693 674
27.03704 692
27.05716 660
27.07727 638
27.09738 562
27.1175 572
27.13761 562
27.15772 561
27.17784 547
27.19795 530
27.21806 510
27.23818 556
27.25829 530
27.27841 501
27.29852 462
27.31863 515
27.33875 484
27.35886 549
27.37897 517
27.39909 498
27.4192 511
27.43932 491
27.45943 536
27.47954 512
27.49966 475
27.51977 500
27.53988 472
27.56 491
27.58011 488
27.60023 494
27.62034 521
27.64045 470
27.66057 504
27.68068 473
27.70079 461
27.72091 478
27.74102 487
27.76113 473
27.78125 508
27.80136 483
27.82148 491
27.84159 546
27.8617 525
27.88182 523
27.90193 541
27.92204 557
27.94216 562
27.96227 623
27.98239 667
28.0025 649
28.02261 657
28.04273 581
28.06284 609
28.08295 545
28.10307 553
28.12318 522
28.1433 518
28.16341 450
28.18352 483
28.20364 449
28.22375 450
28.24386 441
28.26398 442
28.28409 468
28.3042 495
28.32432 506
28.34443 435
28.36455 471
28.38466 473
28.40477 473
28.42489 461
28.445 475
28.46511 457
28.48523 403
28.50534 485
28.52546 438
28.54557 459
28.56568 456
28.5858 492
28.60591 539
28.62602 510
28.64614 521
28.66625 501
28.68636 469
28.70648 521
28.72659 525
28.74671 525
28.76682 504
28.78693 505
28.80705 436
28.82716 463
28.84727 494
28.86739 456
28.8875 430
28.90762 396
28.92773 434
28.94784 457
28.96796 490
28.98807 475
29.00818 488
29.0283 439
29.04841 425
29.06853 467
29.08864 461
29.10875 456
29.12887 426
29.14898 411
29.16909 462
29.18921 445
29.20932 451
29.22943 438
29.24955 429
29.26966 425
29.28978 466
29.30989 436
29.33 418
29.35012 418
29.37023 417
29.39034 433
29.41046 471
29.43057 456
29.45069 420
29.4708 438
29.49091 439
29.51103 436
29.53114 501
29.55125 429
29.57137 470
29.59148 467
29.6116 431
29.63171 393
29.65182 434
29.67194 438
29.69205 449
29.71216 439
29.73228 445
29.75239 397
29.7725 432
29.79262 443
29.81273 440
29.83285 420
29.85296 431
29.87307 437
29.89319 425
29.9133 431
29.93341 435
29.95353 431
29.97364 449
29.99376 376
30.01387 419
30.03398 407
30.0541 449
30.07421 413
30.09432 433
30.11444 458
30.13455 458
30.15467 458
30.17478 411
30.19489 447
30.21501 422
30.23512 473
30.25523 459
30.27535 406
30.29546 403
30.31557 429
30.33569 432
30.3558 441
30.37592 445
30.39603 417
30.41614 417
30.43626 424
30.45637 436
30.47648 430
30.4966 453
30.51671 435
30.53683 452
30.55694 415
30.57705 413
30.59717 456
30.61728 433
30.63739 410
30.65751 455
30.67762 418
30.69773 438
30.71785 440
30.73796 423
30.75808 415
30.77819 466
30.7983 472
30.81842 425
30.83853 405
30.85864 397
30.87876 440
30.89887 469
30.91899 402
30.9391 437
30.95921 422
30.97933 411
30.99944 416
31.01955 420
31.03967 390
31.05978 425
31.0799 410
31.10001 444
31.12012 441
31.14024 435
31.16035 400
31.18046 450
31.20058 443
31.22069 454
31.2408 436
31.26092 429
31.28103 452
31.30115 473
31.32126 437
31.34137 421
31.36149 454
31.3816 399
31.40171 405
31.42183 401
31.44194 460
31.46206 417
31.48217 445
31.50228 402
31.5224 423
31.54251 471
31.56262 397
31.58274 422
31.60285 472
31.62297 429
31.64308 427
31.66319 408
31.68331 384
31.70342 427
31.72353 432
31.74365 437
31.76376 447
31.78387 418
31.80399 422
31.8241 425
31.84422 421
31.86433 413
31.88444 486
31.90456 425
31.92467 452
31.94478 423
31.9649 480
31.98501 460
32.00513 457
32.02524 420
32.04535 423
32.06547 401
32.08558 421
32.10569 448
32.12581 452
32.14592 416
32.16604 448
32.18615 404
32.20626 433
32.22638 426
32.24649 448
32.2666 427
32.28672 442
32.30683 438
32.32694 443
32.34706 448
32.36717 442
32.38729 432
32.4074 513
32.42751 484
32.44763 530
32.46774 507
32.48785 551
32.50797 505
32.52808 589
32.5482 543
32.56831 564
32.58842 525
32.60854 556
32.62865 543
32.64876 540
32.66888 532
32.68899 502
32.7091 509
32.72922 536
32.74933 480
32.76945 445
32.78956 456
32.80967 448
32.82979 496
32.8499 484
32.87001 494
32.89013 508
32.91024 505
32.93036 486
32.95047 463
32.97058 498
32.9907 478
33.01081 531
33.03092 490
33.05104 533
33.07115 527
33.09127 531
33.11138 558
33.13149 516
33.15161 543
33.17172 570
33.19183 565
33.21195 557
33.23206 550
33.25217 491
33.27229 529
33.2924 493
33.31252 516
33.33263 471
33.35274 510
33.37286 471
33.39297 504
33.41308 514
33.4332 502
33.45331 521
33.47343 536
33.49354 492
33.51365 486
33.53377 521
33.55388 523
33.57399 521
33.59411 515
33.61422 498
33.63434 530
33.65445 469
33.67456 533
33.69468 549
33.71479 487
33.7349 502
33.75502 544
33.77513 485
33.79524 502
33.81536 455
33.83547 501
33.85559 503
33.8757 495
33.89581 483
33.91593 477
33.93604 493
33.95615 485
33.97627 457
33.99638 471
34.0165 460
34.03661 495
34.05672 463
34.07684 457
34.09695 440
34.11706 482
34.13718 468
34.15729 449
34.17741 431
34.19752 492
34.21763 459
34.23775 431
34.25786 443
34.27797 443
34.29809 443
34.3182 442
34.33831 434
34.35843 435
34.37854 439
34.39866 435
34.41877 494
34.43888 462
34.459 433
34.47911 446
34.49922 456
34.51934 440
34.53945 443
34.55957 467
34.57968 443
34.59979 453
34.61991 406
34.64002 428
34.66013 466
34.68025 444
34.70036 450
34.72047 483
34.74059 502
34.7607 488
34.78082 509
34.80093 466
34.82104 519
34.84116 522
34.86127 568
34.88138 523
34.9015 551
34.92161 518
34.94173 583
34.96184 560
34.98195 550
35.00207 579
35.02218 552
35.04229 571
35.06241 537
35.08252 564
35.10264 572
35.12275 556
35.14286 577
35.16298 572
35.18309 555
35.2032 592
35.22332 638
35.24343 694
35.26354 657
35.28366 645
35.30377 613
35.32389 661
35.344 676
35.36411 615
35.38423 589
35.40434 604
35.42445 585
35.44457 585
35.46468 682
35.4848 566
35.50491 573
35.52502 617
35.54514 581
35.56525 623
35.58536 596
35.60548 583
35.62559 595
35.64571 552
35.66582 615
35.68593 592
35.70605 549
35.72616 595
35.74627 582
35.76639 598
35.7865 586
35.80661 585
35.82673 578
35.84684 596
35.86696 598
35.88707 574
35.90718 594
35.9273 559
35.94741 604
35.96752 603
35.98764 569
36.00775 583
36.02787 585
36.04798 582
36.06809 567
36.08821 580
36.10832 575
36.12843 548
36.14855 519
36.16866 563
36.18878 593
36.20889 574
36.229 610
36.24912 556
36.26923 635
36.28934 673
36.30946 702
36.32957 754
36.34968 770
36.3698 793
36.38991 916
36.41003 915
36.43014 1052
36.45025 1152
36.47037 1320
36.49048 1539
36.51059 1667
36.53071 1672
36.55082 1543
36.57094 1463
36.59105 1399
36.61116 1308
36.63128 1258
36.65139 1061
36.6715 910
36.69162 837
36.71173 770
36.73184 744
36.75196 710
36.77207 667
36.79219 660
36.8123 657
36.83241 680
36.85253 596
36.87264 622
36.89275 665
36.91287 673
36.93298 678
36.9531 719
36.97321 722
36.99332 678
37.01344 732
37.03355 736
37.05366 756
37.07378 786
37.09389 745
37.11401 752
37.13412 709
37.15423 697
37.17435 690
37.19446 733
37.21457 679
37.23469 671
37.2548 641
37.27491 655
37.29503 602
37.31514 624
37.33526 596
37.35537 588
37.37548 554
37.3956 596
37.41571 595
37.43582 609
37.45594 581
37.47605 664
37.49617 651
37.51628 665
37.53639 679
37.55651 764
37.57662 726
37.59673 838
37.61685 886
37.63696 893
37.65708 893
37.67719 858
37.6973 840
37.71742 778
37.73753 726
37.75764 762
37.77776 748
37.79787 692
37.81798 621
37.8381 593
37.85821 583
37.87833 594
37.89844 524
37.91855 513
37.93867 558
37.95878 532
37.97889 517
37.99901 547
38.01912 482
38.03924 532
38.05935 519
38.07946 504
38.09958 534
38.11969 531
38.1398 517
38.15992 517
38.18003 554
38.20015 518
38.22026 567
38.24037 585
38.26049 605
38.2806 618
38.30071 585
38.32083 591
38.34094 605
38.36105 587
38.38117 597
38.40128 600
38.4214 566
38.44151 629
38.46162 489
38.48174 557
38.50185 588
38.52196 619
38.54208 557
38.56219 564
38.58231 536
38.60242 524
38.62253 483
38.64265 526
38.66276 531
38.68287 492
38.70299 538
38.7231 472
38.74321 510
38.76333 504
38.78344 479
38.80356 494
38.82367 517
38.84378 543
38.8639 503
38.88401 492
38.90412 512
38.92424 497
38.94435 517
38.96447 450
38.98458 498
39.00469 506
39.02481 534
39.04492 534
39.06503 567
39.08515 561
39.10526 565
39.12538 538
39.14549 566
39.1656 522
39.18572 608
39.20583 604
39.22594 621
39.24606 633
39.26617 654
39.28628 676
39.3064 770
39.32651 763
39.34663 896
39.36674 916
39.38685 1057
39.40697 1250
39.42708 1352
39.44719 1369
39.46731 1278
39.48742 1072
39.50754 947
39.52765 958
39.54776 874
39.56788 875
39.58799 712
39.6081 628
39.62822 529
39.64833 511
39.66845 517
39.68856 498
39.70867 533
39.72879 478
39.7489 496
39.76901 469
39.78913 469
39.80924 489
39.82935 480
39.84947 488
39.86958 509
39.8897 484
39.90981 465
39.92992 537
39.95004 516
39.97015 554
39.99026 526
40.01038 562
40.03049 601
40.05061 610
40.07072 623
40.09083 660
40.11095 712
40.13106 617
40.15117 669
40.17129 705
40.1914 798
40.21152 856
40.23163 882
40.25174 978
40.27186 944
40.29197 883
40.31208 864
40.3322 848
40.35231 787
40.37242 747
40.39254 700
40.41265 681
40.43277 566
40.45288 575
40.47299 532
40.49311 566
40.51322 521
40.53333 505
40.55345 514
40.57356 538
40.59368 501
40.61379 499
40.6339 535
40.65402 505
40.67413 498
40.69424 519
40.71436 485
40.73447 529
40.75458 501
40.7747 520
40.79481 492
40.81493 487
40.83504 500
40.85515 487
40.87527 519
40.89538 487
40.91549 531
40.93561 484
40.95572 500
40.97584 522
40.99595 499
41.01606 466
41.03618 440
41.05629 508
41.0764 503
41.09652 490
41.11663 449
41.13675 537
41.15686 502
41.17697 470
41.19709 488
41.2172 488
41.23731 485
41.25743 512
41.27754 459
41.29765 531
41.31777 504
41.33788 461
41.358 486
41.37811 504
41.39822 510
41.41834 483
41.43845 539
41.45856 480
41.47868 540
41.49879 490
41.51891 506
41.53902 597
41.55913 567
41.57925 607
41.59936 631
41.61947 629
41.63959 591
41.6597 639
41.67982 667
41.69993 580
41.72004 627
41.74016 571
41.76027 534
41.78038 584
41.8005 554
41.82061 530
41.84072 523
41.86084 543
41.88095 535
41.90107 517
41.92118 467
41.94129 491
41.96141 504
41.98152 476
42.00163 492
42.02175 459
42.04186 434
42.06198 465
42.08209 454
42.1022 502
42.12232 446
42.14243 461
42.16254 478
42.18266 460
42.20277 429
42.22289 489
42.243 541
42.26311 511
42.28323 535
42.30334 575
42.32345 601
42.34357 709
42.36368 839
42.38379 903
42.40391 961
42.42402 993
42.44414 933
42.46425 780
42.48436 751
42.50448 728
42.52459 669
42.5447 727
42.56482 596
42.58493 561
42.60505 506
42.62516 446
42.64527 447
42.66539 451
42.6855 429
42.70561 421
42.72573 445
42.74584 429
42.76595 425
42.78607 419
42.80618 427
42.8263 417
42.84641 451
42.86652 445
42.88664 430
42.90675 425
42.92686 398
42.94698 405
42.96709 387
42.98721 439
43.00732 392
43.02743 465
43.04755 393
43.06766 411
43.08777 404
43.10789 388
43.128 404
43.14812 429
43.16823 415
43.18834 416
43.20846 417
43.22857 362
43.24868 425
43.2688 433
43.28891 398
43.30902 435
43.32914 420
43.34925 425
43.36937 412
43.38948 396
43.40959 373
43.42971 419
43.44982 402
43.46993 381
43.49005 440
43.51016 465
43.53028 432
43.55039 412
43.5705 443
43.59062 400
43.61073 411
43.63084 440
43.65096 407
43.67107 399
43.69119 379
43.7113 417
43.73141 400
43.75153 426
43.77164 424
43.79175 430
43.81187 420
43.83198 401
43.85209 421
43.87221 454
43.89232 445
43.91244 451
43.93255 445
43.95266 442
43.97278 509
43.99289 485
44.013 513
44.03312 529
44.05323 566
44.07335 560
44.09346 626
44.11357 656
44.13369 601
44.1538 621
44.17391 624
44.19403 613
44.21414 618
44.23426 547
44.25437 566
44.27448 525
44.2946 529
44.31471 510
44.33482 479
44.35494 479
44.37505 477
44.39516 482
44.41528 466
44.43539 453
44.45551 441
44.47562 431
44.49573 442
44.51585 397
44.53596 404
44.55607 460
44.57619 415
44.5963 405
44.61642 418
44.63653 408
44.65664 429
44.67676 412
44.69687 432
44.71698 443
44.7371 395
44.75721 460
44.77732 451
44.79744 432
44.81755 405
44.83767 461
44.85778 434
44.87789 410
44.89801 410
44.91812 397
44.93823 452
44.95835 437
44.97846 449
44.99858 434
45.01869 427
45.0388 430
45.05892 427
45.07903 442
45.09914 473
45.11926 477
45.13937 404
45.15949 465
45.1796 449
45.19971 459
45.21983 459
45.23994 453
45.26005 461
45.28017 478
45.30028 501
45.32039 520
45.34051 579
45.36062 564
45.38074 652
45.40085 653
45.42096 649
45.44108 597
45.46119 581
45.4813 624
45.50142 627
45.52153 601
45.54165 588
45.56176 588
45.58187 564
45.60199 575
45.6221 564
45.64221 572
45.66233 600
45.68244 672
45.70256 668
45.72267 780
45.74278 856
45.7629 830
45.78301 807
45.80312 775
45.82324 649
45.84335 609
45.86346 630
45.88358 690
45.90369 581
45.92381 542
45.94392 464
45.96403 443
45.98415 447
46.00426 424
46.02437 462
46.04449 493
46.0646 444
46.08472 458
46.10483 451
46.12494 457
46.14506 438
46.16517 438
46.18528 440
46.2054 447
46.22551 468
46.24563 458
46.26574 457
46.28585 414
46.30597 426
46.32608 428
46.34619 432
46.36631 453
46.38642 382
46.40653 398
46.42665 386
46.44676 436
46.46688 354
46.48699 424
46.5071 417
46.52722 397
46.54733 427
46.56744 386
46.58756 403
46.60767 447
46.62779 388
46.6479 386
46.66801 410
46.68813 396
46.70824 456
46.72835 378
46.74847 422
46.76858 477
46.78869 413
46.80881 422
46.82892 426
46.84904 420
46.86915 434
46.88926 448
46.90938 403
46.92949 420
46.9496 425
46.96972 392
46.98983 422
47.00995 405
47.03006 426
47.05017 425
47.07029 409
47.0904 437
47.11051 438
47.13063 426
47.15074 427
47.17086 464
47.19097 464
47.21108 496
47.2312 505
47.25131 489
47.27142 498
47.29154 480
47.31165 533
47.33176 552
47.35188 506
47.37199 499
47.39211 504
47.41222 548
47.43233 524
47.45245 468
47.47256 475
47.49267 518
47.51279 502
47.5329 470
47.55302 454
47.57313 463
47.59324 470
47.61336 456
47.63347 472
47.65358 458
47.6737 499
47.69381 469
47.71393 434
47.73404 405
47.75415 460
47.77427 449
47.79438 444
47.81449 417
47.83461 464
47.85472 412
47.87483 474
47.89495 449
47.91506 420
47.93518 412
47.95529 449
47.9754 440
47.99552 414
48.01563 408
48.03574 440
48.05586 431
48.07597 410
48.09609 443
48.1162 408
48.13631 429
48.15643 431
48.17654 405
48.19665 395
48.21677 389
48.23688 371
48.257 432
48.27711 420
48.29722 414
48.31734 418
48.33745 414
48.35756 416
48.37768 408
48.39779 405
48.4179 388
48.43802 416
48.45813 393
48.47825 404
48.49836 410
48.51847 414
48.53859 428
48.5587 400
48.57881 414
48.59893 403
48.61904 407
48.63916 435
48.65927 439
48.67938 424
48.6995 433
48.71961 430
48.73972 412
48.75984 482
48.77995 415
48.80006 429
48.82018 423
48.84029 435
48.86041 417
48.88052 448
48.90063 422
48.92075 415
48.94086 418
48.96097 428
48.98109 424
49.0012 413
49.02132 406
49.04143 413
49.06154 406
49.08166 440
49.10177 414
49.12188 418
49.142 387
49.16211 397
49.18223 384
49.20234 447
49.22245 393
49.24257 419
49.26268 410
49.28279 396
49.30291 400
49.32302 417
49.34313 416
49.36325 421
49.38336 444
49.40348 414
49.42359 474
49.4437 435
49.46382 417
49.48393 460
49.50404 420
49.52416 413
49.54427 416
49.56439 400
49.5845 455
49.60461 387
49.62473 431
49.64484 419
49.66495 434
49.68507 377
49.70518 413
49.7253 383
49.74541 432
49.76552 466
49.78564 476
49.80575 448
49.82586 473
49.84598 475
49.86609 481
49.8862 501
49.90632 553
49.92643 587
49.94655 624
49.96666 651
49.98677 780
50.00689 953
50.027 1084
50.04711 1326
50.06723 1525
50.08734 1741
50.10746 1879
50.12757 1814
50.14768 1467
50.1678 1313
50.18791 1156
50.20802 1161
50.22814 1161
50.24825 1147
50.26837 1020
50.28848 927
50.30859 699
50.32871 645
50.34882 579
50.36893 553
50.38905 556
50.40916 564
50.42927 573
50.44939 570
50.4695 565
50.48962 584
50.50973 571
50.52984 609
50.54996 559
50.57007 606
50.59018 579
50.6103 630
50.63041 551
50.65053 535
50.67064 540
50.69075 512
50.71087 512
50.73098 516
50.75109 507
50.77121 459
50.79132 464
50.81143 493
50.83155 464
50.85166 438
50.87178 454
50.89189 460
50.912 450
50.93212 478
50.95223 463
50.97234 410
50.99246 440
51.01257 463
51.03269 452
51.0528 450
51.07291 430
51.09303 417
51.11314 459
51.13325 425
51.15337 425
51.17348 454
51.1936 397
51.21371 477
51.23382 440
51.25394 424
51.27405 434
51.29416 397
51.31428 408
51.33439 419
51.3545 394
51.37462 423
51.39473 407
51.41485 398
51.43496 403
51.45507 401
51.47519 366
51.4953 376
51.51541 430
51.53553 359
51.55564 402
51.57576 398
51.59587 400
51.61598 418
51.6361 385
51.65621 392
51.67632 426
51.69644 426
51.71655 406
51.73667 415
51.75678 404
51.77689 431
51.79701 407
51.81712 387
51.83723 425
51.85735 385
51.87746 398
51.89757 410
51.91769 406
51.9378 432
51.95792 402
51.97803 496
51.99814 450
52.01826 450
52.03837 479
52.05848 551
52.0786 503
52.09871 509
52.11883 550
52.13894 557
52.15905 515
52.17917 563
52.19928 509
52.21939 555
52.23951 530
52.25962 533
52.27974 501
52.29985 522
52.31996 490
52.34008 496
52.36019 449
52.3803 465
52.40042 429
52.42053 409
52.44064 443
52.46076 422
52.48087 392
52.50099 423
52.5211 394
52.54121 393
52.56133 411
52.58144 416
52.60155 448
52.62167 416
52.64178 420
52.6619 393
52.68201 408
52.70212 391
52.72224 413
52.74235 411
52.76246 414
52.78258 402
52.80269 387
52.8228 394
52.84292 423
52.86303 394
52.88315 461
52.90326 422
52.92337 411
52.94349 436
52.9636 421
52.98371 465
53.00383 428
53.02394 462
53.04406 406
53.06417 442
53.08428 422
53.1044 457
53.12451 425
53.14462 419
53.16474 460
53.18485 437
53.20497 456
53.22508 494
53.24519 476
53.26531 467
53.28542 439
53.30553 477
53.32565 473
53.34576 492
53.36587 445
53.38599 449
53.4061 472
53.42622 464
53.44633 503
53.46644 454
53.48656 435
53.50667 485
53.52678 445
53.5469 516
53.56701 482
53.58713 523
53.60724 494
53.62735 509
53.64747 542
53.66758 524
53.68769 514
53.70781 554
53.72792 496
53.74804 516
53.76815 522
53.78826 491
53.80838 517
53.82849 523
53.8486 543
53.86872 521
53.88883 502
53.90894 475
53.92906 516
53.94917 496
53.96929 530
53.9894 521
54.00951 532
54.02963 570
54.04974 502
54.06985 538
54.08997 556
54.11008 544
54.1302 524
54.15031 555
54.17042 511
54.19054 539
54.21065 510
54.23076 538
54.25088 569
54.27099 552
54.29111 543
54.31122 618
54.33133 573
54.35145 622
54.37156 601
54.39167 606
54.41179 603
54.4319 554
54.45201 656
54.47213 586
54.49224 607
54.51236 578
54.53247 562
54.55258 590
54.5727 540
54.59281 539
54.61292 594
54.63304 557
54.65315 565
54.67327 587
54.69338 576
54.71349 645
54.73361 608
54.75372 636
54.77383 756
54.79395 791
54.81406 837
54.83417 851
54.85429 839
54.8744 731
54.89452 668
54.91463 651
54.93474 625
54.95486 622
54.97497 632
54.99508 694
55.0152 541
55.03531 533
55.05543 568
55.07554 551
55.09565 513
55.11577 438
55.13588 511
55.15599 491
55.17611 505
55.19622 531
55.21634 546
55.23645 585
55.25656 560
55.27668 588
55.29679 633
55.3169 613
55.33702 601
55.35713 515
55.37724 535
55.39736 528
55.41747 516
55.43759 545
55.4577 539
55.47781 509
55.49793 492
55.51804 444
55.53815 445
55.55827 426
55.57838 427
55.5985 431
55.61861 443
55.63872 443
55.65884 422
55.67895 450
55.69906 421
55.71918 473
55.73929 406
55.75941 458
55.77952 409
55.79963 410
55.81975 395
55.83986 412
55.85997 453
55.88009 402
55.9002 414
55.92031 425
55.94043 425
55.96054 425
55.98066 377
56.00077 420
56.02088 424
56.041 406
56.06111 405
56.08122 413
56.10134 442
56.12145 378
56.14157 424
56.16168 413
56.18179 410
56.20191 456
56.22202 400
56.24213 433
56.26225 402
56.28236 439
56.30248 400
56.32259 396
56.3427 395
56.36282 387
56.38293 407
56.40304 410
56.42316 386
56.44327 416
56.46338 407
56.4835 394
56.50361 397
56.52373 387
56.54384 437
56.56395 394
56.58407 417
56.60418 383
56.62429 398
56.64441 367
56.66452 356
56.68464 384
56.70475 390
56.72486 388
56.74498 375
56.76509 388
56.7852 397
56.80532 363
56.82543 387
56.84554 358
56.86566 374
56.88577 401
56.90589 366
56.926 399
56.94611 398
56.96623 391
56.98634 372
57.00645 400
57.02657 389
57.04668 390
57.0668 412
57.08691 406
57.10702 394
57.12714 368
57.14725 429
57.16736 408
57.18748 422
57.20759 412
57.22771 382
57.24782 381
57.26793 399
57.28805 410
57.30816 392
57.32827 386
57.34839 396
57.3685 371
57.38861 396
57.40873 385
57.42884 398
57.44896 398
57.46907 390
57.48918 378
57.5093 376
57.52941 381
57.54952 393
57.56964 381
57.58975 414
57.60987 414
57.62998 367
57.65009 412
57.67021 422
57.69032 391
57.71043 408
57.73055 389
57.75066 428
57.77078 393
57.79089 405
57.811 420
57.83112 427
57.85123 402
57.87134 399
57.89146 434
57.91157 423
57.93168 399
57.9518 410
57.97191 420
57.99203 383
58.01214 390
58.03225 398
58.05237 411
58.07248 450
58.09259 413
58.11271 401
58.13282 415
58.15294 410
58.17305 376
58.19316 397
58.21328 408
58.23339 427
58.2535 389
58.27362 428
58.29373 387
58.31385 400
58.33396 400
58.35407 398
58.37419 402
58.3943 391
58.41441 384
58.43453 400
58.45464 406
58.47475 400
58.49487 422
58.51498 390
58.5351 395
58.55521 411
58.57532 413
58.59544 418
58.61555 426
58.63566 438
58.65578 373
58.67589 441
58.69601 374
58.71612 387
58.73623 408
58.75635 405
58.77646 392
58.79657 402
58.81669 365
58.8368 381
58.85691 396
58.87703 384
58.89714 396
58.91726 366
58.93737 405
58.95748 354
58.9776 372
58.99771 395
59.01782 390
59.03794 415
59.05805 401
59.07817 427
59.09828 388
59.11839 429
59.13851 410
59.15862 411
59.17873 393
59.19885 398
59.21896 382
59.23908 396
59.25919 413
59.2793 414
59.29942 392
59.31953 400
59.33964 407
59.35976 425
59.37987 410
59.39998 418
59.4201 405
59.44021 447
59.46033 433
59.48044 415
59.50055 430
59.52067 458
59.54078 461
59.56089 425
59.58101 437
59.60112 435
59.62124 454
59.64135 442
59.66146 475
59.68158 490
59.70169 457
59.7218 528
59.74192 545
59.76203 610
59.78215 612
59.80226 666
59.82237 790
59.84249 845
59.8626 997
59.88271 1118
59.90283 1222
59.92294 1228
59.94305 1155
59.96317 962
59.98328 841
60.0034 808
60.02351 736
60.04362 782
60.06374 820
60.08385 828
60.10396 711
60.12408 684
60.14419 570
60.16431 561
60.18442 480
60.20453 472
60.22465 422
60.24476 446
60.26487 393
60.28499 417
60.3051 432
60.32522 393
60.34533 430
60.36544 393
60.38556 396
60.40567 419
60.42578 389
60.4459 381
60.46601 370
60.48612 396
60.50624 402
60.52635 400
60.54647 366
60.56658 385
60.58669 403
60.60681 403
60.62692 394
60.64703 382
60.66715 407
60.68726 390
60.70738 385
60.72749 376
60.7476 340
60.76772 375
60.78783 361
60.80794 369
60.82806 363
60.84817 353
60.86828 354
60.8884 378
60.90851 365
60.92863 360
60.94874 369
60.96885 398
60.98897 356
61.00908 389
61.02919 381
61.04931 361
61.06942 375
61.08954 362
61.10965 388
61.12976 363
61.14988 347
61.16999 378
61.1901 367
61.21022 344
61.23033 369
61.25045 373
61.27056 389
61.29067 368
61.31079 392
61.3309 397
61.35101 376
61.37113 375
61.39124 385
61.41135 381
61.43147 392
61.45158 396
61.4717 404
61.49181 390
61.51192 378
61.53204 371
61.55215 429
61.57226 372
61.59238 367
61.61249 384
61.63261 409
61.65272 398
61.67283 414
61.69295 381
61.71306 411
61.73317 379
61.75329 392
61.7734 432
61.79352 397
61.81363 416
61.83374 386
61.85386 395
61.87397 408
61.89408 405
61.9142 395
61.93431 418
61.95442 394
61.97454 432
61.99465 407
62.01477 452
62.03488 471
62.05499 442
62.07511 410
62.09522 435
62.11533 430
62.13545 453
62.15556 460
62.17568 430
62.19579 437
62.2159 468
62.23602 479
62.25613 460
62.27624 460
62.29636 486
62.31647 497
62.33659 468
62.3567 517
62.37681 473
62.39693 467
62.41704 464
62.43715 457
62.45727 482
62.47738 498
62.49749 439
62.51761 459
62.53772 426
62.55784 402
62.57795 426
62.59806 393
62.61818 411
62.63829 367
62.6584 416
62.67852 417
62.69863 416
62.71875 393
62.73886 405
62.75897 395
62.77909 379
62.7992 393
62.81931 396
62.83943 440
62.85954 389
62.87965 377
62.89977 367
62.91988 402
62.94 385
62.96011 367
62.98022 376
63.00034 367
63.02045 398
63.04056 402
63.06068 384
63.08079 379
63.10091 395
63.12102 396
63.14113 406
63.16125 400
63.18136 363
63.20147 388
63.22159 398
63.2417 396
63.26182 342
63.28193 388
63.30204 371
63.32216 401
63.34227 393
63.36238 389
63.3825 354
63.40261 411
63.42272 404
63.44284 394
63.46295 398
63.48307 421
63.50318 401
63.52329 423
63.54341 410
63.56352 404
63.58363 408
63.60375 436
63.62386 429
63.64398 441
63.66409 437
63.6842 484
63.70432 479
63.72443 503
63.74454 469
63.76466 506
63.78477 517
63.80489 508
63.825 525
63.84511 496
63.86523 506
63.88534 534
63.90545 511
63.92557 529
63.94568 577
63.96579 549
63.98591 571
64.00602 588
64.02614 522
64.04625 496
64.06636 526
64.08648 491
64.10659 428
64.1267 427
64.14682 414
64.16693 471
64.18705 454
64.20716 413
64.22727 428
64.24739 418
64.2675 382
64.28761 389
64.30773 396
64.32784 394
64.34796 379
64.36807 416
64.38818 395
64.4083 387
64.42841 406
64.44852 405
64.46864 379
64.48875 433
64.50886 417
64.52898 408
64.54909 405
64.56921 420
64.58932 405
64.60943 407
64.62955 432
64.64966 390
64.66977 374
64.68989 394
64.71 395
64.73012 436
64.75023 393
64.77034 383
64.79046 391
64.81057 390
64.83068 389
64.8508 401
64.87091 367
64.89102 382
64.91114 362
64.93125 376
64.95137 404
64.97148 401
64.99159 331
65.01171 392
65.03182 352
65.05193 377
65.07205 338
65.09216 383
65.11228 350
65.13239 350
65.1525 372
65.17262 361
65.19273 337
65.21284 351
65.23296 330
65.25307 364
65.27319 389
65.2933 339
65.31341 389
65.33353 334
65.35364 356
65.37375 372
65.39387 374
65.41398 362
65.43409 368
65.45421 342
65.47432 344
65.49444 357
65.51455 352
65.53466 386
65.55478 344
65.57489 350
65.595 371
65.61512 367
65.63523 372
65.65535 366
65.67546 377
65.69557 354
65.71569 374
65.7358 386
65.75591 373
65.77603 355
65.79614 387
65.81626 360
65.83637 351
65.85648 400
65.8766 386
65.89671 369
65.91682 370
65.93694 400
65.95705 399
65.97716 444
65.99728 361
66.01739 401
66.03751 387
66.05762 405
66.07773 415
66.09785 412
66.11796 405
66.13807 421
66.15819 375
66.1783 411
66.19842 417
66.21853 391
66.23864 409
66.25876 415
66.27887 416
66.29898 421
66.3191 407
66.33921 399
66.35933 413
66.37944 387
66.39955 385
66.41967 411
66.43978 402
66.45989 403
66.48001 396
66.50012 385
66.52023 381
66.54035 418
66.56046 399
66.58058 395
66.60069 385
66.6208 369
66.64092 409
66.66103 399
66.68114 403
66.70126 375
66.72137 398
66.74149 399
66.7616 399
66.78171 377
66.80183 439
66.82194 360
66.84205 363
66.86217 373
66.88228 397
66.90239 367
66.92251 386
66.94262 364
66.96274 397
66.98285 386
67.00296 361
67.02308 374
67.04319 351
67.0633 364
67.08342 362
67.10353 358
67.12365 380
67.14376 363
67.16387 360
67.18399 368
67.2041 351
67.22421 368
67.24433 372
67.26444 392
67.28456 335
67.30467 369
67.32478 358
67.3449 351
67.36501 382
67.38512 379
67.40524 362
67.42535 387
67.44546 391
67.46558 425
67.48569 396
67.50581 420
67.52592 452
67.54603 503
67.56615 480
67.58626 524
67.60637 548
67.62649 635
67.6466 664
67.66672 735
67.68683 813
67.70694 772
67.72706 737
67.74717 692
67.76728 611
67.7874 529
67.80751 581
67.82763 595
67.84774 554
67.86785 649
67.88797 650
67.90808 604
67.92819 641
67.94831 605
67.96842 648
67.98853 551
68.00865 669
68.02876 675
68.04888 783
68.06899 825
68.0891 926
68.10922 921
68.12933 862
68.14944 818
68.16956 736
68.18967 752
68.20979 754
68.2299 788
68.25001 867
68.27013 857
68.29024 852
68.31035 754
68.33047 642
68.35058 633
68.3707 596
68.39081 547
68.41092 546
68.43104 540
68.45115 539
68.47126 545
68.49138 473
68.51149 456
68.5316 442
68.55172 391
68.57183 386
68.59195 358
68.61206 353
68.63217 364
68.65229 393
68.6724 386
68.69251 414
68.71263 397
68.73274 399
68.75286 382
68.77297 400
68.79308 399
68.8132 389
68.83331 367
68.85342 372
68.87354 392
68.89365 368
68.91376 387
68.93388 370
68.95399 374
68.97411 420
68.99422 372
69.01433 363
69.03445 373
69.05456 367
69.07467 375
69.09479 369
69.1149 344
69.13502 330
69.15513 338
69.17524 359
69.19536 356
69.21547 348
69.23558 348
69.2557 348
69.27581 330
69.29593 373
69.31604 374
69.33615 358
69.35627 342
69.37638 373
69.39649 343
69.41661 360
69.43672 362
69.45683 315
69.47695 363
69.49706 348
69.51718 371
69.53729 342
69.5574 338
69.57752 319
69.59763 343
69.61774 337
69.63786 366
69.65797 319
69.67809 353
69.6982 327
69.71831 372
69.73843 361
69.75854 336
69.77865 323
69.79877 317
69.81888 343
69.839 352
69.85911 337
69.87922 372
69.89934 335
69.91945 348
69.93956 371
69.95968 351
69.97979 382
69.9999 326
70.02002 328
70.04013 364
70.06025 344
70.08036 319
70.10047 326
70.12059 341
70.1407 339
70.16081 347
70.18093 352
70.20104 345
70.22116 367
70.24127 336
70.26138 316
70.2815 338
70.30161 342
70.32172 313
70.34184 306
70.36195 315
70.38207 305
70.40218 351
70.42229 360
70.44241 333
70.46252 346
70.48263 377
70.50275 321
70.52286 349
70.54297 347
70.56309 315
70.5832 333
70.60332 338
70.62343 346
70.64354 351
70.66366 305
70.68377 315
70.70388 356
70.724 346
70.74411 344
70.76423 322
70.78434 320
70.80445 336
70.82457 337
70.84468 333
70.86479 356
70.88491 318
70.90502 347
70.92513 294
70.94525 339
70.96536 339
70.98548 338
71.00559 307
71.0257 326
71.04582 342
71.06593 334
71.08604 309
71.10616 335
71.12627 347
71.14639 334
71.1665 337
71.18661 357
71.20673 324
71.22684 359
71.24695 351
71.26707 339
71.28718 333
71.3073 325
71.32741 305
71.34752 315
71.36764 341
71.38775 361
71.40786 337
71.42798 322
71.44809 336
71.4682 335
71.48832 322
71.50843 321
71.52855 356
71.54866 342
71.56877 354
71.58889 344
71.609 329
71.62911 359
71.64923 336
71.66934 361
71.68946 336
71.70957 347
71.72968 326
71.7498 360
71.76991 335
71.79002 327
71.81014 330
71.83025 328
71.85037 343
71.87048 332
71.89059 322
71.91071 354
71.93082 345
71.95093 354
71.97105 319
71.99116 303
72.01127 339
72.03139 321
72.0515 347
72.07162 328
72.09173 357
72.11184 343
72.13196 310
72.15207 321
72.17218 340
72.1923 327
72.21241 292
72.23253 316
72.25264 315
72.27275 323
72.29287 336
72.31298 334
72.33309 293
72.35321 321
72.37332 364
72.39344 296
72.41355 296
72.43366 319
72.45378 293
72.47389 322
72.494 316
72.51412 310
72.53423 280
72.55434 319
72.57446 333
72.59457 342
72.61469 330
72.6348 341
72.65491 343
72.67503 313
72.69514 300
72.71525 331
72.73537 347
72.75548 291
72.7756 360
72.79571 323
72.81582 315
72.83594 332
72.85605 375
72.87616 306
72.89628 311
72.91639 318
72.9365 323
72.95662 292
72.97673 326
72.99685 320
73.01696 307
73.03707 348
73.05719 344
73.0773 308
73.09741 358
73.11753 313
73.13764 330
73.15776 320
73.17787 323
73.19798 323
73.2181 300
73.23821 357
73.25832 359
73.27844 359
73.29855 368
73.31867 414
73.33878 384
73.35889 431
73.37901 410
73.39912 443
73.41923 427
73.43935 459
73.45946 449
73.47957 361
73.49969 389
73.5198 337
73.53992 364
73.56003 342
73.58014 351
73.60026 399
73.62037 354
73.64048 382
73.6606 388
73.68071 373
73.70083 360
73.72094 353
73.74105 360
73.76117 339
73.78128 325
73.80139 334
73.82151 348
73.84162 300
73.86174 318
73.88185 303
73.90196 321
73.92208 334
73.94219 307
73.9623 303
73.98242 303
74.00253 305
74.02264 325
74.04276 301
74.06287 260
74.08299 327
74.1031 305
74.12321 343
74.14333 301
74.16344 317
74.18355 323
74.20367 273
74.22378 277
74.2439 322
74.26401 324
74.28412 320
74.30424 296
74.32435 306
74.34446 299
74.36458 303
74.38469 305
74.40481 289
74.42492 317
74.44503 288
74.46515 298
74.48526 318
74.50537 310
74.52549 311
74.5456 310
74.56571 305
74.58583 308
74.60594 289
74.62606 307
74.64617 337
74.66628 292
74.6864 315
74.70651 310
74.72662 300
74.74674 315
74.76685 302
74.78697 312
74.80708 316
74.82719 325
74.84731 299
74.86742 327
74.88753 332
74.90765 328
74.92776 291
74.94787 311
74.96799 285
74.9881 313
75.00822 291
