3.00117 21585
3.02128 21612
3.0414 20619
3.06151 20132
3.08162 19967
3.10174 18761
3.12185 18709
3.14197 17454
3.16208 17496
3.18219 16970
3.20231 16257
3.22242 15861
3.24253 15542
3.26265 15135
3.28276 14499
3.30288 14241
3.32299 13864
3.3431 12940
3.36322 12944
3.38333 12532
3.40344 11912
3.42356 11897
3.44367 11231
3.46379 10911
3.4839 10521
3.50401 10041
3.52413 10013
3.54424 9326
3.56435 9178
3.58447 8878
3.60458 8419
3.62469 8204
3.64481 7656
3.66492 7564
3.68504 7252
3.70515 7035
3.72526 6923
3.74538 6388
3.76549 6280
3.7856 5917
3.80572 5739
3.82583 5871
3.84595 5267
3.86606 5134
3.88617 5082
3.90629 4835
3.9264 4706
3.94651 4114
3.96663 4165
3.98674 3974
4.00686 3989
4.02697 3833
4.04708 3405
4.0672 3358
4.08731 3448
4.10742 3115
4.12754 3177
4.14765 2858
4.16776 2872
4.18788 2746
4.20799 2733
4.22811 2700
4.24822 2511
4.26833 2505
4.28845 2455
4.30856 2329
4.32867 2364
4.34879 2136
4.3689 2256
4.38902 2233
4.40913 2137
4.42924 2158
4.44936 1941
4.46947 1934
4.48958 1948
4.5097 1936
4.52981 1920
4.54992 1855
4.57004 1848
4.59015 1882
4.61027 1921
4.63038 1746
4.65049 1650
4.67061 1656
4.69072 1619
4.71083 1658
4.73095 1575
4.75106 1586
4.77118 1493
4.79129 1603
4.8114 1489
4.83152 1528
4.85163 1480
4.87174 1344
4.89186 1503
4.91197 1398
4.93209 1386
4.9522 1382
4.97231 1355
4.99243 1372
5.01254 1321
5.03265 1298
5.05277 1326
5.07288 1210
5.09299 1305
5.11311 1269
5.13322 1178
5.15334 1194
5.17345 1107
5.19356 1186
5.21368 1136
5.23379 1152
5.2539 1159
5.27402 1105
5.29413 1142
5.31425 1077
5.33436 1091
5.35447 1059
5.37459 989
5.3947 1052
5.41481 1039
5.43493 930
5.45504 949
5.47516 925
5.49527 959
5.51538 1046
5.5355 984
5.55561 929
5.57572 1030
5.59584 921
5.61595 879
5.63606 896
5.65618 873
5.67629 918
5.69641 854
5.71652 914
5.73663 962
5.75675 851
5.77686 830
5.79697 821
5.81709 858
5.8372 784
5.85732 830
5.87743 804
5.89754 810
5.91766 831
5.93777 846
5.95788 775
5.978 765
5.99811 750
6.01823 769
6.03834 729
6.05845 801
6.07857 736
6.09868 752
6.11879 752
6.13891 748
6.15902 801
6.17913 745
6.19925 742
6.21936 712
6.23948 745
6.25959 716
6.2797 711
6.29982 704
6.31993 656
6.34004 690
6.36016 703
6.38027 646
6.40039 694
6.4205 657
6.44061 649
6.46073 661
6.48084 676
6.50095 638
6.52107 651
6.54118 647
6.56129 644
6.58141 604
6.60152 640
6.62164 619
6.64175 597
6.66186 605
6.68198 580
6.70209 600
6.7222 621
6.74232 599
6.76243 551
6.78255 607
6.80266 586
6.82277 573
6.84289 536
6.863 577
6.88311 574
6.90323 566
6.92334 528
6.94346 544
6.96357 574
6.98368 565
7.0038 549
7.02391 551
7.04402 493
7.06414 525
7.08425 531
7.10436 540
7.12448 531
7.14459 551
7.16471 516
7.18482 518
7.20493 479
7.22505 546
7.24516 541
7.26527 520
7.28539 522
7.3055 493
7.32562 532
7.34573 520
7.36584 504
7.38596 481
7.40607 547
7.42618 528
7.4463 483
7.46641 497
7.48653 513
7.50664 517
7.52675 486
7.54687 502
7.56698 482
7.58709 498
7.60721 500
7.62732 468
7.64743 497
7.66755 470
7.68766 464
7.70778 468
7.72789 488
7.748 454
7.76812 469
7.78823 506
7.80834 474
7.82846 500
7.84857 487
7.86869 496
7.8888 450
7.90891 468
7.92903 482
7.94914 496
7.96925 505
7.98937 515
8.00948 459
8.0296 482
8.04971 494
8.06982 458
8.08994 518
8.11005 450
8.13016 485
8.15028 520
8.17039 500
8.1905 480
8.21062 490
8.23073 499
8.25085 505
8.27096 527
8.29107 506
8.31119 521
8.3313 476
8.35141 532
8.37153 533
8.39164 516
8.41176 484
8.43187 483
8.45198 556
8.4721 498
8.49221 531
8.51232 466
8.53244 495
8.55255 502
8.57266 475
8.59278 453
8.61289 436
8.63301 454
8.65312 478
8.67323 485
8.69335 472
8.71346 415
8.73357 477
8.75369 435
8.7738 460
8.79392 449
8.81403 426
8.83414 397
8.85426 400
8.87437 410
8.89448 404
8.9146 406
8.93471 389
8.95483 380
8.97494 370
8.99505 344
9.01517 403
9.03528 408
9.05539 389
9.07551 382
9.09562 372
9.11573 377
9.13585 396
9.15596 389
9.17608 385
9.19619 329
9.2163 403
9.23642 341
9.25653 376
9.27664 342
9.29676 379
9.31687 366
9.33699 363
9.3571 358
9.37721 336
9.39733 356
9.41744 345
9.43755 389
9.45767 344
9.47778 328
9.4979 364
9.51801 342
9.53812 308
9.55824 324
9.57835 389
9.59846 339
9.61858 302
9.63869 333
9.6588 349
9.67892 327
9.69903 315
9.71915 352
9.73926 340
9.75937 347
9.77949 368
9.7996 334
9.81971 367
9.83983 363
9.85994 315
9.88006 315
9.90017 305
9.92028 311
9.9404 306
9.96051 351
9.98062 292
10.00074 293
10.02085 288
10.04097 286
10.06108 314
10.08119 322
10.10131 329
10.12142 329
10.14153 296
10.16165 315
10.18176 344
10.20187 343
10.22199 303
10.2421 309
10.26222 341
10.28233 349
10.30244 304
10.32256 291
10.34267 288
10.36278 299
10.3829 284
10.40301 281
10.42313 296
10.44324 292
10.46335 313
10.48347 301
10.50358 280
10.52369 330
10.54381 310
10.56392 324
10.58403 308
10.60415 310
10.62426 327
10.64438 323
10.66449 299
10.6846 293
10.70472 299
10.72483 282
10.74494 298
10.76506 297
10.78517 280
10.80529 297
10.8254 303
10.84551 311
10.86563 282
10.88574 259
10.90585 311
10.92597 306
10.94608 314
10.9662 269
10.98631 291
11.00642 249
11.02654 304
11.04665 273
11.06676 260
11.08688 300
11.10699 277
11.1271 291
11.14722 296
11.16733 297
11.18745 287
11.20756 283
11.22767 276
11.24779 289
11.2679 285
11.28801 275
11.30813 329
11.32824 289
11.34836 292
11.36847 294
11.38858 287
11.4087 253
11.42881 313
11.44892 305
11.46904 300
11.48915 292
11.50927 263
11.52938 321
11.54949 276
11.56961 287
11.58972 316
11.60983 289
11.62995 311
11.65006 284
11.67017 299
11.69029 271
11.7104 274
11.73052 276
11.75063 267
11.77074 263
11.79086 250
11.81097 251
11.83108 257
11.8512 276
11.87131 269
11.89143 292
11.91154 308
11.93165 317
11.95177 311
11.97188 274
11.99199 321
12.01211 300
12.03222 293
12.05234 314
12.07245 311
12.09256 292
12.11268 282
12.13279 290
12.1529 298
12.17302 258
12.19313 287
12.21324 297
12.23336 309
12.25347 298
12.27359 263
12.2937 272
12.31381 273
12.33393 284
12.35404 300
12.37415 299
12.39427 293
12.41438 287
12.4345 277
12.45461 239
12.47472 292
12.49484 268
12.51495 245
12.53506 312
12.55518 295
12.57529 273
12.5954 282
12.61552 249
12.63563 312
12.65575 297
12.67586 245
12.69597 281
12.71609 250
12.7362 261
12.75631 267
12.77643 285
12.79654 299
12.81666 246
12.83677 253
12.85688 265
12.877 268
12.89711 267
12.91722 284
12.93734 259
12.95745 263
12.97757 292
12.99768 279
13.01779 265
13.03791 257
13.05802 268
13.07813 276
13.09825 317
13.11836 267
13.13847 271
13.15859 263
13.1787 275
13.19882 261
13.21893 276
13.23904 287
13.25916 282
13.27927 271
13.29938 295
13.3195 281
13.33961 286
13.35973 273
13.37984 270
13.39995 278
13.42007 307
13.44018 276
13.46029 285
13.48041 286
13.50052 279
13.52064 268
13.54075 329
13.56086 276
13.58098 310
13.60109 282
13.6212 267
13.64132 284
13.66143 314
13.68154 287
13.70166 318
13.72177 284
13.74189 278
13.762 230
13.78211 273
13.80223 272
13.82234 273
13.84245 293
13.86257 293
13.88268 250
13.9028 275
13.92291 265
13.94302 272
13.96314 300
13.98325 265
14.00336 282
14.02348 290
14.04359 293
14.06371 260
14.08382 271
14.10393 286
14.12405 256
14.14416 295
14.16427 272
14.18439 272
14.2045 292
14.22461 314
14.24473 272
14.26484 267
14.28496 288
14.30507 230
14.32518 277
14.3453 268
14.36541 269
14.38552 270
14.40564 279
14.42575 228
14.44587 289
14.46598 273
14.48609 264
14.50621 259
14.52632 268
14.54643 256
14.56655 260
14.58666 249
14.60677 275
14.62689 269
14.647 243
14.66712 239
14.68723 215
14.70734 261
14.72746 264
14.74757 271
14.76768 276
14.7878 279
14.80791 274
14.82803 282
14.84814 276
14.86825 260
14.88837 276
14.90848 259
14.92859 286
14.94871 280
14.96882 267
14.98894 275
15.00905 275
15.02916 265
15.04928 263
15.06939 278
15.0895 272
15.10962 317
15.12973 240
15.14984 246
15.16996 260
15.19007 281
15.21019 272
15.2303 256
15.25041 265
15.27053 211
15.29064 252
15.31075 255
15.33087 260
15.35098 272
15.3711 265
15.39121 222
15.41132 256
15.43144 286
15.45155 262
15.47166 258
15.49178 290
15.51189 213
15.53201 280
15.55212 280
15.57223 269
15.59235 281
15.61246 285
15.63257 285
15.65269 273
15.6728 246
15.69291 282
15.71303 260
15.73314 281
15.75326 267
15.77337 252
15.79348 291
15.8136 271
15.83371 274
15.85382 268
15.87394 259
15.89405 276
15.91417 281
15.93428 288
15.95439 289
15.97451 247
15.99462 292
16.01473 249
16.03485 294
16.05496 281
16.07508 263
16.09519 299
16.1153 251
16.13542 286
16.15553 298
16.17564 265
16.19576 278
16.21587 274
16.23598 269
16.2561 257
16.27621 270
16.29633 279
16.31644 261
16.33655 278
16.35667 290
16.37678 283
16.39689 289
16.41701 284
16.43712 268
16.45724 285
16.47735 236
16.49746 278
16.51758 278
16.53769 282
16.5578 276
16.57792 291
16.59803 277
16.61814 281
16.63826 308
16.65837 254
16.67849 259
16.6986 269
16.71871 278
16.73883 268
16.75894 285
16.77905 273
16.79917 285
16.81928 282
16.8394 285
16.85951 295
16.87962 279
16.89974 235
16.91985 289
16.93996 259
16.96008 271
16.98019 259
17.00031 298
17.02042 282
17.04053 300
17.06065 265
17.08076 280
17.10087 293
17.12099 263
17.1411 268
17.16121 303
17.18133 253
17.20144 255
17.22156 315
17.24167 311
17.26178 262
17.2819 282
17.30201 316
17.32212 280
17.34224 277
17.36235 286
17.38247 293
17.40258 276
17.42269 281
17.44281 292
17.46292 283
17.48303 312
17.50315 302
17.52326 270
17.54338 276
17.56349 293
17.5836 298
17.60372 285
17.62383 301
17.64394 292
17.66406 300
17.68417 294
17.70428 297
17.7244 281
17.74451 245
17.76463 301
17.78474 288
17.80485 316
17.82497 283
17.84508 291
17.86519 275
17.88531 298
17.90542 309
17.92554 295
17.94565 294
17.96576 292
17.98588 292
18.00599 294
18.0261 306
18.04622 265
18.06633 276
18.08645 273
18.10656 276
18.12667 305
18.14679 251
18.1669 281
18.18701 284
18.20713 239
18.22724 277
18.24735 263
18.26747 279
18.28758 309
18.3077 265
18.32781 276
18.34792 264
18.36804 329
18.38815 261
18.40826 291
18.42838 293
18.44849 266
18.46861 266
18.48872 290
18.50883 259
18.52895 266
18.54906 311
18.56917 258
18.58929 293
18.6094 260
18.62951 297
18.64963 264
18.66974 272
18.68986 267
18.70997 301
18.73008 264
18.7502 334
18.77031 273
18.79042 313
18.81054 288
18.83065 306
18.85077 276
18.87088 312
18.89099 297
18.91111 362
18.93122 270
18.95133 302
18.97145 305
18.99156 286
19.01168 311
19.03179 303
19.0519 298
19.07202 313
19.09213 330
19.11224 298
19.13236 316
19.15247 311
19.17258 365
19.1927 333
19.21281 334
19.23293 345
19.25304 349
19.27315 362
19.29327 420
19.31338 379
19.33349 405
19.35361 409
19.37372 405
19.39384 423
19.41395 463
19.43406 433
19.45418 464
19.47429 456
19.4944 483
19.51452 524
19.53463 593
19.55475 510
19.57486 580
19.59497 582
19.61509 591
19.6352 588
19.65531 597
19.67543 668
19.69554 697
19.71565 693
19.73577 658
19.75588 652
19.776 663
19.79611 683
19.81622 679
19.83634 673
19.85645 696
19.87656 624
19.89668 655
19.91679 593
19.93691 579
19.95702 629
19.97713 631
19.99725 557
20.01736 566
20.03747 598
20.05759 594
20.0777 594
20.09782 562
20.11793 574
20.13804 594
20.15816 602
20.17827 594
20.19838 612
20.2185 601
20.23861 610
20.25872 582
20.27884 580
20.29895 572
20.31907 569
20.33918 572
20.35929 528
20.37941 515
20.39952 577
20.41963 568
20.43975 538
20.45986 595
20.47998 552
20.50009 587
20.5202 627
20.54032 618
20.56043 605
20.58054 643
20.60066 722
20.62077 765
20.64088 897
20.661 1020
20.68111 1279
20.70123 1590
20.72134 1938
20.74145 2665
20.76157 3687
20.78168 4447
20.80179 5362
20.82191 6150
20.84202 6290
20.86214 6003
20.88225 4798
20.90236 3739
20.92248 2610
20.94259 1847
20.9627 1229
20.98282 887
21.00293 783
21.02305 696
21.04316 672
21.06327 652
21.08339 558
21.1035 581
21.12361 551
21.14373 552
21.16384 530
21.18395 515
21.20407 451
21.22418 473
21.2443 478
21.26441 456
21.28452 416
21.30464 466
21.32475 430
21.34486 436
21.36498 432
21.38509 398
21.40521 447
21.42532 412
21.44543 434
21.46555 446
21.48566 446
21.50577 403
21.52589 421
21.546 396
21.56612 392
21.58623 414
21.60634 417
21.62646 409
21.64657 399
21.66668 428
21.6868 429
21.70691 413
21.72702 424
21.74714 418
21.76725 402
21.78737 437
21.80748 375
21.82759 392
21.84771 441
21.86782 401
21.88793 383
21.90805 424
21.92816 432
21.94828 457
21.96839 411
21.9885 432
22.00862 359
22.02873 405
22.04884 377
22.06896 421
22.08907 384
22.10919 382
22.1293 389
22.14941 354
22.16953 385
22.18964 374
22.20975 380
22.22987 369
22.24998 388
22.27009 385
22.29021 400
22.31032 397
22.33044 385
22.35055 366
22.37066 391
22.39078 359
22.41089 374
22.431 370
22.45112 381
22.47123 394
22.49135 391
22.51146 405
22.53157 393
22.55169 404
22.5718 389
22.59191 389
22.61203 359
22.63214 434
22.65225 396
22.67237 377
22.69248 381
22.7126 396
22.73271 394
22.75282 372
22.77294 367
22.79305 401
22.81316 401
22.83328 373
22.85339 407
22.87351 365
22.89362 411
22.91373 418
22.93385 413
22.95396 386
22.97407 387
22.99419 355
23.0143 405
23.03442 408
23.05453 378
23.07464 387
23.09476 364
23.11487 397
23.13498 401
23.1551 367
23.17521 368
23.19532 404
23.21544 378
23.23555 370
23.25567 389
23.27578 366
23.29589 404
23.31601 362
23.33612 385
23.35623 407
23.37635 354
23.39646 366
23.41658 427
23.43669 410
23.4568 389
23.47692 402
23.49703 446
23.51714 434
23.53726 414
23.55737 404
23.57749 434
23.5976 428
23.61771 433
23.63783 400
23.65794 369
23.67805 388
23.69817 362
23.71828 436
23.73839 378
23.75851 401
23.77862 402
23.79874 380
23.81885 404
23.83896 409
23.85908 399
23.87919 410
23.8993 415
23.91942 429
23.93953 420
23.95965 435
23.97976 463
23.99987 434
24.01999 439
24.0401 433
24.06021 411
24.08033 382
24.10044 425
24.12056 358
24.14067 389
24.16078 408
24.1809 376
24.20101 406
24.22112 351
24.24124 393
24.26135 357
24.28146 407
24.30158 386
24.32169 427
24.34181 390
24.36192 403
24.38203 381
24.40215 355
24.42226 406
24.44237 409
24.46249 403
24.4826 370
24.50272 386
24.52283 370
24.54294 383
24.56306 359
24.58317 395
24.60328 408
24.6234 420
24.64351 385
24.66362 366
24.68374 356
24.70385 388
24.72397 373
24.74408 371
24.76419 442
24.78431 376
24.80442 347
24.82453 393
24.84465 381
24.86476 393
24.88488 357
24.90499 391
24.9251 364
24.94522 398
24.96533 373
24.98544 377
25.00556 384
25.02567 381
25.04579 391
25.0659 398
25.08601 395
25.10613 391
25.12624 379
25.14635 403
25.16647 382
25.18658 412
25.20669 422
25.22681 391
25.24692 399
25.26704 436
25.28715 393
25.30726 418
25.32738 416
25.34749 404
25.3676 370
25.38772 422
25.40783 406
25.42795 422
25.44806 435
25.46817 440
25.48829 448
25.5084 449
25.52851 447
25.54863 447
25.56874 517
25.58886 481
25.60897 540
25.62908 546
25.6492 571
25.66931 543
25.68942 585
25.70954 581
25.72965 630
25.74976 577
25.76988 574
25.78999 577
25.81011 593
25.83022 558
25.85033 615
25.87045 602
25.89056 605
25.91067 583
25.93079 585
25.9509 606
25.97102 605
25.99113 603
26.01124 631
26.03136 631
26.05147 633
26.07158 653
26.0917 756
26.11181 737
26.13193 813
26.15204 816
26.17215 901
26.19227 912
26.21238 943
26.23249 1025
26.25261 1092
26.27272 1182
26.29283 1313
26.31295 1410
26.33306 1520
26.35318 1750
26.37329 2096
26.3934 2457
26.41352 2997
26.43363 3782
26.45374 5037
26.47386 6656
26.49397 8708
26.51409 12058
26.5342 15953
26.55431 20328
26.57443 24095
26.59454 27565
26.61465 28369
26.63477 26009
26.65488 22370
26.67499 17357
26.69511 12686
26.71522 8925
26.73534 5650
26.75545 3606
26.77556 2295
26.79568 1802
26.81579 1596
26.8359 1426
26.85602 1312
26.87613 1148
26.89625 1177
26.91636 1096
26.93647 1025
26.95659 910
26.9767 865
26.99681 855
27.01693 829
27.03704 797
27.05716 753
27.07727 772
27.09738 678
27.1175 691
27.13761 653
27.15772 680
27.17784 641
27.19795 635
27.21806 616
27.23818 601
27.25829 606
27.27841 633
27.29852 642
27.31863 618
27.33875 665
27.35886 655
27.37897 638
27.39909 660
27.4192 675
27.43932 690
27.45943 655
27.47954 677
27.49966 596
27.51977 616
27.53988 610
27.56 572
27.58011 538
27.60023 553
27.62034 570
27.64045 485
27.66057 532
27.68068 502
27.70079 490
27.72091 523
27.74102 520
27.76113 500
27.78125 511
27.80136 485
27.82148 518
27.84159 507
27.8617 490
27.88182 539
27.90193 526
27.92204 510
27.94216 485
27.96227 514
27.98239 485
28.0025 532
28.02261 454
28.04273 451
28.06284 438
28.08295 454
28.10307 425
28.12318 419
28.1433 438
28.16341 440
28.18352 430
28.20364 446
28.22375 419
28.24386 423
28.26398 430
28.28409 427
28.3042 406
28.32432 422
28.34443 443
28.36455 383
28.38466 431
28.40477 404
28.42489 419
28.445 418
28.46511 416
28.48523 410
28.50534 397
28.52546 420
28.54557 400
28.56568 430
28.5858 402
28.60591 408
28.62602 428
28.64614 431
28.66625 412
28.68636 431
28.70648 381
28.72659 420
28.74671 402
28.76682 385
28.78693 384
28.80705 421
28.82716 394
28.84727 415
28.86739 404
28.8875 394
28.90762 399
28.92773 421
28.94784 375
28.96796 377
28.98807 425
29.00818 411
29.0283 402
29.04841 379
29.06853 360
29.08864 385
29.10875 369
29.12887 374
29.14898 370
29.16909 386
29.18921 389
29.20932 368
29.22943 428
29.24955 377
29.26966 358
29.28978 399
29.30989 349
29.33 429
29.35012 403
29.37023 383
29.39034 427
29.41046 384
29.43057 420
29.45069 390
29.4708 406
29.49091 371
29.51103 380
29.53114 409
29.55125 382
29.57137 376
29.59148 347
29.6116 415
29.63171 358
29.65182 386
29.67194 388
29.69205 381
29.71216 386
29.73228 381
29.75239 375
29.7725 413
29.79262 406
29.81273 388
29.83285 411
29.85296 391
29.87307 369
29.89319 415
29.9133 368
29.93341 361
29.95353 360
29.97364 392
29.99376 368
30.01387 332
30.03398 361
30.0541 355
30.07421 389
30.09432 364
30.11444 363
30.13455 381
30.15467 400
30.17478 367
30.19489 410
30.21501 358
30.23512 400
30.25523 379
30.27535 356
30.29546 369
30.31557 341
30.33569 371
30.3558 362
30.37592 385
30.39603 375
30.41614 395
30.43626 367
30.45637 371
30.47648 378
30.4966 329
30.51671 329
30.53683 333
30.55694 408
30.57705 362
30.59717 343
30.61728 359
30.63739 405
30.65751 387
30.67762 343
30.69773 377
30.71785 382
30.73796 380
30.75808 370
30.77819 402
30.7983 317
30.81842 369
30.83853 363
30.85864 316
30.87876 363
30.89887 336
30.91899 357
30.9391 369
30.95921 356
30.97933 326
30.99944 340
31.01955 297
31.03967 325
31.05978 345
31.0799 323
31.10001 346
31.12012 332
31.14024 312
31.16035 322
31.18046 332
31.20058 334
31.22069 317
31.2408 304
31.26092 344
31.28103 309
31.30115 308
31.32126 302
31.34137 333
31.36149 316
31.3816 312
31.40171 320
31.42183 319
31.44194 317
31.46206 317
31.48217 301
31.50228 293
31.5224 303
31.54251 319
31.56262 313
31.58274 307
31.60285 322
31.62297 300
31.64308 319
31.66319 307
31.68331 309
31.70342 282
31.72353 303
31.74365 298
31.76376 313
31.78387 321
31.80399 310
31.8241 297
31.84422 319
31.86433 306
31.88444 299
31.90456 296
31.92467 285
31.94478 329
31.9649 293
31.98501 286
32.00513 320
32.02524 289
32.04535 302
32.06547 286
32.08558 293
32.10569 291
32.12581 323
32.14592 312
32.16604 289
32.18615 298
32.20626 292
32.22638 310
32.24649 296
32.2666 308
32.28672 340
32.30683 314
32.32694 351
32.34706 301
32.36717 319
32.38729 301
32.4074 314
32.42751 324
32.44763 326
32.46774 274
32.48785 322
32.50797 330
32.52808 305
32.5482 281
32.56831 320
32.58842 298
32.60854 313
32.62865 299
32.64876 295
32.66888 317
32.68899 295
32.7091 283
32.72922 295
32.74933 307
32.76945 316
32.78956 273
32.80967 269
32.82979 268
32.8499 301
32.87001 301
32.89013 304
32.91024 321
32.93036 310
32.95047 286
32.97058 284
32.9907 273
33.01081 280
33.03092 291
33.05104 308
33.07115 309
33.09127 290
33.11138 320
33.13149 304
33.15161 293
33.17172 305
33.19183 298
33.21195 261
33.23206 283
33.25217 304
33.27229 269
33.2924 307
33.31252 293
33.33263 288
33.35274 279
33.37286 311
33.39297 304
33.41308 292
33.4332 284
33.45331 270
33.47343 271
33.49354 301
33.51365 309
33.53377 285
33.55388 269
33.57399 281
33.59411 290
33.61422 313
33.63434 313
33.65445 314
33.67456 275
33.69468 253
33.71479 281
33.7349 262
33.75502 304
33.77513 270
33.79524 290
33.81536 297
33.83547 290
33.85559 302
33.8757 295
33.89581 293
33.91593 320
33.93604 322
33.95615 327
33.97627 302
33.99638 315
34.0165 322
34.03661 310
34.05672 316
34.07684 344
34.09695 337
34.11706 356
34.13718 333
34.15729 356
34.17741 353
34.19752 342
34.21763 389
34.23775 377
34.25786 370
34.27797 355
34.29809 416
34.3182 364
34.33831 379
34.35843 393
34.37854 375
34.39866 423
34.41877 393
34.43888 394
34.459 426
34.47911 416
34.49922 492
34.51934 409
34.53945 435
34.55957 470
34.57968 468
34.59979 465
34.61991 485
34.64002 449
34.66013 469
34.68025 450
34.70036 460
34.72047 469
34.74059 467
34.7607 458
34.78082 497
34.80093 471
34.82104 488
34.84116 496
34.86127 475
34.88138 468
34.9015 447
34.92161 469
34.94173 484
34.96184 484
34.98195 471
35.00207 442
35.02218 406
35.04229 466
35.06241 427
35.08252 454
35.10264 427
35.12275 443
35.14286 439
35.16298 414
35.18309 395
35.2032 426
35.22332 450
35.24343 394
35.26354 430
35.28366 416
35.30377 404
35.32389 433
35.344 405
35.36411 418
35.38423 444
35.40434 444
35.42445 422
35.44457 432
35.46468 433
35.4848 468
35.50491 399
35.52502 444
35.54514 385
35.56525 413
35.58536 414
35.60548 357
35.62559 401
35.64571 411
35.66582 405
35.68593 420
35.70605 374
35.72616 364
35.74627 366
35.76639 361
35.7865 413
35.80661 411
35.82673 408
35.84684 398
35.86696 366
35.88707 390
35.90718 341
35.9273 379
35.94741 369
35.96752 411
35.98764 396
36.00775 376
36.02787 414
36.04798 366
36.06809 431
36.08821 387
36.10832 405
36.12843 423
36.14855 423
36.16866 407
36.18878 437
36.20889 464
36.229 456
36.24912 493
36.26923 521
36.28934 519
36.30946 576
36.32957 671
36.34968 759
36.3698 910
36.38991 1067
36.41003 1265
36.43014 1455
36.45025 1610
36.47037 1902
36.49048 1970
36.51059 2031
36.53071 1939
36.55082 1686
36.57094 1470
36.59105 1261
36.61116 1102
36.63128 988
36.65139 796
36.6715 629
36.69162 492
36.71173 454
36.73184 429
36.75196 415
36.77207 422
36.79219 398
36.8123 395
36.83241 379
36.85253 380
36.87264 376
36.89275 372
36.91287 395
36.93298 379
36.9531 369
36.97321 368
36.99332 356
37.01344 380
37.03355 385
37.05366 376
37.07378 363
37.09389 338
37.11401 369
37.13412 397
37.15423 376
37.17435 367
37.19446 338
37.21457 361
37.23469 351
37.2548 334
37.27491 344
37.29503 354
37.31514 344
37.33526 341
37.35537 343
37.37548 338
37.3956 391
37.41571 339
37.43582 354
37.45594 362
37.47605 358
37.49617 349
37.51628 321
37.53639 373
37.55651 333
37.57662 324
37.59673 350
37.61685 346
37.63696 342
37.65708 318
37.67719 315
37.6973 295
37.71742 313
37.73753 327
37.75764 376
37.77776 348
37.79787 337
37.81798 333
37.8381 317
37.85821 316
37.87833 332
37.89844 307
37.91855 348
37.93867 344
37.95878 319
37.97889 315
37.99901 312
38.01912 331
38.03924 354
38.05935 320
38.07946 331
38.09958 331
38.11969 305
38.1398 303
38.15992 336
38.18003 341
38.20015 338
38.22026 301
38.24037 376
38.26049 325
38.2806 310
38.30071 327
38.32083 307
38.34094 304
38.36105 291
38.38117 297
38.40128 332
38.4214 324
38.44151 325
38.46162 298
38.48174 335
38.50185 340
38.52196 304
38.54208 320
38.56219 295
38.58231 325
38.60242 323
38.62253 334
38.64265 328
38.66276 352
38.68287 328
38.70299 308
38.7231 310
38.74321 324
38.76333 294
38.78344 305
38.80356 341
38.82367 322
38.84378 303
38.8639 289
38.88401 330
38.90412 339
38.92424 316
38.94435 290
38.96447 341
38.98458 335
39.00469 329
39.02481 354
39.04492 363
39.06503 385
39.08515 391
39.10526 365
39.12538 393
39.14549 357
39.1656 461
39.18572 482
39.20583 482
39.22594 526
39.24606 584
39.26617 655
39.28628 744
39.3064 946
39.32651 1092
39.34663 1263
39.36674 1452
39.38685 1698
39.40697 1805
39.42708 1921
39.44719 1893
39.46731 1665
39.48742 1440
39.50754 1190
39.52765 1077
39.54776 988
39.56788 809
39.58799 668
39.6081 494
39.62822 462
39.64833 341
39.66845 416
39.68856 412
39.70867 366
39.72879 375
39.7489 358
39.76901 352
39.78913 347
39.80924 391
39.82935 328
39.84947 338
39.86958 364
39.8897 355
39.90981 368
39.92992 390
39.95004 368
39.97015 401
39.99026 388
40.01038 396
40.03049 406
40.05061 455
40.07072 447
40.09083 538
40.11095 535
40.13106 623
40.15117 695
40.17129 740
40.1914 874
40.21152 934
40.23163 998
40.25174 988
40.27186 1049
40.29197 962
40.31208 794
40.3322 726
40.35231 686
40.37242 633
40.39254 568
40.41265 482
40.43277 422
40.45288 384
40.47299 365
40.49311 351
40.51322 360
40.53333 375
40.55345 312
40.57356 374
40.59368 292
40.61379 308
40.6339 325
40.65402 299
40.67413 340
40.69424 281
40.71436 306
40.73447 317
40.75458 281
40.7747 296
40.79481 304
40.81493 315
40.83504 294
40.85515 338
40.87527 308
40.89538 310
40.91549 325
40.93561 308
40.95572 333
40.97584 311
40.99595 323
41.01606 282
41.03618 315
41.05629 295
41.0764 319
41.09652 336
41.11663 315
41.13675 319
41.15686 363
41.17697 317
41.19709 290
41.2172 296
41.23731 307
41.25743 286
41.27754 296
41.29765 316
41.31777 317
41.33788 305
41.358 298
41.37811 299
41.39822 317
41.41834 301
41.43845 320
41.45856 275
41.47868 307
41.49879 346
41.51891 288
41.53902 310
41.55913 334
41.57925 322
41.59936 313
41.61947 301
41.63959 315
41.6597 337
41.67982 338
41.69993 334
41.72004 349
41.74016 334
41.76027 316
41.78038 329
41.8005 327
41.82061 286
41.84072 338
41.86084 289
41.88095 315
41.90107 330
41.92118 350
41.94129 344
41.96141 319
41.98152 299
42.00163 336
42.02175 332
42.04186 335
42.06198 352
42.08209 353
42.1022 352
42.12232 386
42.14243 397
42.16254 405
42.18266 489
42.20277 483
42.22289 515
42.243 571
42.26311 670
42.28323 726
42.30334 894
42.32345 968
42.34357 1159
42.36368 1235
42.38379 1357
42.40391 1494
42.42402 1396
42.44414 1229
42.46425 1140
42.48436 955
42.50448 915
42.52459 767
42.5447 753
42.56482 630
42.58493 476
42.60505 427
42.62516 390
42.64527 370
42.66539 384
42.6855 363
42.70561 325
42.72573 303
42.74584 337
42.76595 329
42.78607 328
42.80618 312
42.8263 290
42.84641 296
42.86652 290
42.88664 308
42.90675 304
42.92686 298
42.94698 309
42.96709 301
42.98721 288
43.00732 286
43.02743 291
43.04755 312
43.06766 285
43.08777 285
43.10789 314
43.128 304
43.14812 302
43.16823 283
43.18834 295
43.20846 307
43.22857 277
43.24868 252
43.2688 299
43.28891 263
43.30902 247
43.32914 253
43.34925 259
43.36937 278
43.38948 298
43.40959 288
43.42971 282
43.44982 273
43.46993 264
43.49005 299
43.51016 260
43.53028 282
43.55039 258
43.5705 303
43.59062 290
43.61073 297
43.63084 254
43.65096 278
43.67107 316
43.69119 287
43.7113 275
43.73141 302
43.75153 285
43.77164 281
43.79175 262
43.81187 258
43.83198 259
43.85209 281
43.87221 273
43.89232 316
43.91244 264
43.93255 274
43.95266 268
43.97278 296
43.99289 296
44.013 278
44.03312 302
44.05323 269
44.07335 290
44.09346 253
44.11357 273
44.13369 267
44.1538 268
44.17391 270
44.19403 288
44.21414 270
44.23426 257
44.25437 285
44.27448 264
44.2946 271
44.31471 294
44.33482 274
44.35494 265
44.37505 274
44.39516 275
44.41528 252
44.43539 284
44.45551 265
44.47562 299
44.49573 293
44.51585 266
44.53596 255
44.55607 281
44.57619 291
44.5963 277
44.61642 262
44.63653 256
44.65664 265
44.67676 311
44.69687 266
44.71698 265
44.7371 258
44.75721 292
44.77732 289
44.79744 324
44.81755 286
44.83767 271
44.85778 284
44.87789 282
44.89801 283
44.91812 280
44.93823 269
44.95835 282
44.97846 294
44.99858 266
45.01869 280
45.0388 268
45.05892 280
45.07903 270
45.09914 283
45.11926 264
45.13937 268
45.15949 279
45.1796 261
45.19971 296
45.21983 269
45.23994 254
45.26005 269
45.28017 296
45.30028 278
45.32039 291
45.34051 262
45.36062 287
45.38074 323
45.40085 271
45.42096 317
45.44108 316
45.46119 334
45.4813 323
45.50142 350
45.52153 370
45.54165 395
45.56176 448
45.58187 462
45.60199 502
45.6221 579
45.64221 625
45.66233 694
45.68244 821
45.70256 936
45.72267 947
45.74278 1085
45.7629 1055
45.78301 957
45.80312 861
45.82324 741
45.84335 717
45.86346 662
45.88358 572
45.90369 575
45.92381 468
45.94392 399
45.96403 357
45.98415 326
46.00426 301
46.02437 315
46.04449 281
46.0646 285
46.08472 291
46.10483 311
46.12494 284
46.14506 272
46.16517 302
46.18528 252
46.2054 281
46.22551 257
46.24563 272
46.26574 280
46.28585 253
46.30597 270
46.32608 271
46.34619 277
46.36631 238
46.38642 252
46.40653 261
46.42665 287
46.44676 274
46.46688 273
46.48699 292
46.5071 247
46.52722 256
46.54733 248
46.56744 250
46.58756 276
46.60767 266
46.62779 272
46.6479 272
46.66801 272
46.68813 246
46.70824 259
46.72835 256
46.74847 241
46.76858 248
46.78869 241
46.80881 259
46.82892 234
46.84904 255
46.86915 240
46.88926 230
46.90938 275
46.92949 245
46.9496 261
46.96972 259
46.98983 256
47.00995 246
47.03006 250
47.05017 242
47.07029 252
47.0904 273
47.11051 238
47.13063 286
47.15074 243
47.17086 249
47.19097 285
47.21108 266
47.2312 257
47.25131 278
47.27142 236
47.29154 248
47.31165 256
47.33176 234
47.35188 256
47.37199 269
47.39211 243
47.41222 266
47.43233 269
47.45245 249
47.47256 251
47.49267 244
47.51279 220
47.5329 285
47.55302 235
47.57313 264
47.59324 249
47.61336 245
47.63347 229
47.65358 275
47.6737 271
47.69381 252
47.71393 222
47.73404 277
47.75415 257
47.77427 255
47.79438 243
47.81449 256
47.83461 222
47.85472 250
47.87483 250
47.89495 279
47.91506 249
47.93518 238
47.95529 236
47.9754 254
47.99552 244
48.01563 281
48.03574 253
48.05586 250
48.07597 274
48.09609 249
48.1162 233
48.13631 264
48.15643 240
48.17654 225
48.19665 245
48.21677 248
48.23688 254
48.257 256
48.27711 240
48.29722 255
48.31734 258
48.33745 238
48.35756 258
48.37768 230
48.39779 269
48.4179 248
48.43802 240
48.45813 269
48.47825 277
48.49836 255
48.51847 244
48.53859 237
48.5587 250
48.57881 257
48.59893 228
48.61904 253
48.63916 241
48.65927 257
48.67938 237
48.6995 261
48.71961 299
48.73972 270
48.75984 251
48.77995 258
48.80006 239
48.82018 241
48.84029 244
48.86041 270
48.88052 294
48.90063 282
48.92075 254
48.94086 264
48.96097 260
48.98109 247
49.0012 264
49.02132 263
49.04143 276
49.06154 259
49.08166 250
49.10177 257
49.12188 284
49.142 255
49.16211 265
49.18223 274
49.20234 258
49.22245 252
49.24257 241
49.26268 257
49.28279 292
49.30291 288
49.32302 242
49.34313 270
49.36325 285
49.38336 253
49.40348 303
49.42359 278
49.4437 300
49.46382 274
49.48393 278
49.50404 295
49.52416 318
49.54427 315
49.56439 304
49.5845 308
49.60461 301
49.62473 310
49.64484 297
49.66495 354
49.68507 341
49.70518 384
49.7253 396
49.74541 422
49.76552 422
49.78564 436
49.80575 486
49.82586 541
49.84598 625
49.86609 633
49.8862 756
49.90632 826
49.92643 1006
49.94655 1150
49.96666 1431
49.98677 1601
50.00689 1940
50.027 2234
50.04711 2567
50.06723 2813
50.08734 2962
50.10746 2820
50.12757 2470
50.14768 2228
50.1678 1887
50.18791 1585
50.20802 1638
50.22814 1500
50.24825 1313
50.26837 1116
50.28848 864
50.30859 628
50.32871 530
50.34882 415
50.36893 377
50.38905 351
50.40916 375
50.42927 356
50.44939 347
50.4695 387
50.48962 346
50.50973 343
50.52984 334
50.54996 363
50.57007 377
50.59018 341
50.6103 358
50.63041 325
50.65053 316
50.67064 321
50.69075 318
50.71087 275
50.73098 288
50.75109 311
50.77121 294
50.79132 272
50.81143 256
50.83155 271
50.85166 272
50.87178 278
50.89189 251
50.912 247
50.93212 275
50.95223 268
50.97234 241
50.99246 278
51.01257 287
51.03269 234
51.0528 263
51.07291 252
51.09303 234
51.11314 262
51.13325 234
51.15337 282
51.17348 237
51.1936 257
51.21371 252
51.23382 239
51.25394 238
51.27405 242
51.29416 215
51.31428 251
51.33439 241
51.3545 237
51.37462 251
51.39473 251
51.41485 234
51.43496 243
51.45507 221
51.47519 235
51.4953 240
51.51541 240
51.53553 228
51.55564 267
51.57576 261
51.59587 260
51.61598 243
51.6361 231
51.65621 269
51.67632 229
51.69644 264
51.71655 252
51.73667 269
51.75678 261
51.77689 249
51.79701 235
51.81712 241
51.83723 250
51.85735 237
51.87746 217
51.89757 272
51.91769 251
51.9378 257
51.95792 253
51.97803 253
51.99814 244
52.01826 263
52.03837 236
52.05848 214
52.0786 228
52.09871 260
52.11883 217
52.13894 265
52.15905 252
52.17917 279
52.19928 242
52.21939 255
52.23951 250
52.25962 240
52.27974 231
52.29985 237
52.31996 253
52.34008 261
52.36019 226
52.3803 229
52.40042 250
52.42053 224
52.44064 262
52.46076 228
52.48087 262
52.50099 249
52.5211 239
52.54121 273
52.56133 238
52.58144 253
52.60155 252
52.62167 227
52.64178 252
52.6619 262
52.68201 229
52.70212 266
52.72224 242
52.74235 237
52.76246 237
52.78258 229
52.80269 244
52.8228 243
52.84292 242
52.86303 248
52.88315 239
52.90326 234
52.92337 241
52.94349 260
52.9636 252
52.98371 229
53.00383 265
53.02394 264
53.04406 244
53.06417 240
53.08428 276
53.1044 275
53.12451 273
53.14462 260
53.16474 261
53.18485 272
53.20497 283
53.22508 276
53.24519 252
53.26531 245
53.28542 263
53.30553 276
53.32565 304
53.34576 301
53.36587 273
53.38599 288
53.4061 303
53.42622 290
53.44633 291
53.46644 256
53.48656 316
53.50667 270
53.52678 275
53.5469 272
53.56701 276
53.58713 290
53.60724 292
53.62735 290
53.64747 290
53.66758 267
53.68769 277
53.70781 273
53.72792 309
53.74804 274
53.76815 269
53.78826 270
53.80838 322
53.82849 294
53.8486 288
53.86872 299
53.88883 278
53.90894 295
53.92906 278
53.94917 295
53.96929 280
53.9894 307
54.00951 290
54.02963 331
54.04974 311
54.06985 308
54.08997 280
54.11008 271
54.1302 299
54.15031 295
54.17042 325
54.19054 281
54.21065 284
54.23076 283
54.25088 278
54.27099 306
54.29111 327
54.31122 315
54.33133 305
54.35145 321
54.37156 330
54.39167 337
54.41179 330
54.4319 296
54.45201 313
54.47213 347
54.49224 328
54.51236 328
54.53247 347
54.55258 384
54.5727 380
54.59281 411
54.61292 417
54.63304 469
54.65315 482
54.67327 540
54.69338 592
54.71349 653
54.73361 769
54.75372 830
54.77383 874
54.79395 1057
54.81406 1002
54.83417 997
54.85429 899
54.8744 823
54.89452 745
54.91463 759
54.93474 686
54.95486 639
54.97497 615
54.99508 631
55.0152 575
55.03531 487
55.05543 437
55.07554 431
55.09565 438
55.11577 402
55.13588 439
55.15599 456
55.17611 439
55.19622 489
55.21634 557
55.23645 548
55.25656 609
55.27668 589
55.29679 575
55.3169 531
55.33702 514
55.35713 417
55.37724 428
55.39736 386
55.41747 432
55.43759 419
55.4577 448
55.47781 388
55.49793 347
55.51804 327
55.53815 273
55.55827 287
55.57838 283
55.5985 281
55.61861 279
55.63872 288
55.65884 307
55.67895 268
55.69906 278
55.71918 251
55.73929 251
55.75941 293
55.77952 265
55.79963 268
55.81975 267
55.83986 283
55.85997 275
55.88009 277
55.9002 270
55.92031 260
55.94043 267
55.96054 253
55.98066 269
56.00077 262
56.02088 282
56.041 276
56.06111 271
56.08122 280
56.10134 275
56.12145 259
56.14157 273
56.16168 242
56.18179 284
56.20191 225
56.22202 244
56.24213 245
56.26225 258
56.28236 244
56.30248 244
56.32259 275
56.3427 262
56.36282 286
56.38293 278
56.40304 258
56.42316 256
56.44327 259
56.46338 271
56.4835 265
56.50361 253
56.52373 246
56.54384 260
56.56395 285
56.58407 251
56.60418 272
56.62429 253
56.64441 285
56.66452 277
56.68464 254
56.70475 253
56.72486 234
56.74498 235
56.76509 265
56.7852 248
56.80532 282
56.82543 272
56.84554 276
56.86566 256
56.88577 290
56.90589 275
56.926 260
56.94611 278
56.96623 270
56.98634 279
57.00645 252
57.02657 264
57.04668 265
57.0668 267
57.08691 306
57.10702 282
57.12714 313
57.14725 282
57.16736 304
57.18748 285
57.20759 268
57.22771 315
57.24782 277
57.26793 290
57.28805 263
57.30816 267
57.32827 270
57.34839 285
57.3685 284
57.38861 282
57.40873 239
57.42884 268
57.44896 260
57.46907 229
57.48918 245
57.5093 258
57.52941 256
57.54952 240
57.56964 254
57.58975 240
57.60987 276
57.62998 239
57.65009 249
57.67021 269
57.69032 252
57.71043 270
57.73055 238
57.75066 275
57.77078 252
57.79089 254
57.811 249
57.83112 249
57.85123 259
57.87134 285
57.89146 283
57.91157 273
57.93168 301
57.9518 262
57.97191 208
57.99203 265
58.01214 248
58.03225 243
58.05237 256
58.07248 242
58.09259 259
58.11271 246
58.13282 248
58.15294 287
58.17305 257
58.19316 263
58.21328 255
58.23339 239
58.2535 269
58.27362 240
58.29373 253
58.31385 238
58.33396 277
58.35407 226
58.37419 263
58.3943 268
58.41441 214
58.43453 253
58.45464 250
58.47475 282
58.49487 253
58.51498 245
58.5351 248
58.55521 264
58.57532 258
58.59544 280
58.61555 261
58.63566 260
58.65578 260
58.67589 251
58.69601 250
58.71612 242
58.73623 246
58.75635 267
58.77646 234
58.79657 247
58.81669 249
58.8368 266
58.85691 254
58.87703 248
58.89714 252
58.91726 263
58.93737 274
58.95748 243
58.9776 263
58.99771 239
59.01782 268
59.03794 244
59.05805 232
59.07817 242
59.09828 269
59.11839 250
59.13851 276
59.15862 289
59.17873 260
59.19885 257
59.21896 244
59.23908 258
59.25919 281
59.2793 278
59.29942 249
59.31953 298
59.33964 251
59.35976 281
59.37987 300
59.39998 293
59.4201 282
59.44021 286
59.46033 330
59.48044 297
59.50055 309
59.52067 344
59.54078 370
59.56089 385
59.58101 361
59.60112 380
59.62124 451
59.64135 471
59.66146 497
59.68158 542
59.70169 636
59.7218 724
59.74192 847
59.76203 886
59.78215 1041
59.80226 1213
59.82237 1308
59.84249 1591
59.8626 1741
59.88271 1859
59.90283 1873
59.92294 1761
59.94305 1609
59.96317 1410
59.98328 1167
60.0034 1107
60.02351 1058
60.04362 1099
60.06374 1017
60.08385 979
60.10396 860
60.12408 741
60.14419 574
60.16431 457
60.18442 403
60.20453 349
60.22465 370
60.24476 345
60.26487 310
60.28499 332
60.3051 324
60.32522 323
60.34533 309
60.36544 302
60.38556 280
60.40567 280
60.42578 300
60.4459 282
60.46601 274
60.48612 321
60.50624 285
60.52635 287
60.54647 286
60.56658 271
60.58669 293
60.60681 303
60.62692 291
60.64703 280
60.66715 259
60.68726 270
60.70738 276
60.72749 271
60.7476 260
60.76772 244
60.78783 289
60.80794 255
60.82806 269
60.84817 279
60.86828 270
60.8884 284
60.90851 284
60.92863 283
60.94874 270
60.96885 288
60.98897 283
61.00908 276
61.02919 335
61.04931 342
61.06942 278
61.08954 304
61.10965 312
61.12976 316
61.14988 334
61.16999 323
61.1901 315
61.21022 342
61.23033 325
61.25045 308
61.27056 322
61.29067 338
61.31079 325
61.3309 321
61.35101 348
61.37113 358
61.39124 354
61.41135 343
61.43147 352
61.45158 340
61.4717 322
61.49181 349
61.51192 310
61.53204 374
61.55215 359
61.57226 349
61.59238 370
61.61249 306
61.63261 343
61.65272 351
61.67283 299
61.69295 323
61.71306 333
61.73317 368
61.75329 349
61.7734 318
61.79352 314
61.81363 291
61.83374 359
61.85386 325
61.87397 336
61.89408 326
61.9142 338
61.93431 298
61.95442 307
61.97454 291
61.99465 284
62.01477 293
62.03488 295
62.05499 287
62.07511 275
62.09522 297
62.11533 271
62.13545 287
62.15556 315
62.17568 278
62.19579 256
62.2159 304
62.23602 315
62.25613 283
62.27624 280
62.29636 276
62.31647 274
62.33659 296
62.3567 279
62.37681 279
62.39693 270
62.41704 280
62.43715 273
62.45727 254
62.47738 244
62.49749 282
62.51761 254
62.53772 248
62.55784 281
62.57795 276
62.59806 254
62.61818 262
62.63829 250
62.6584 253
62.67852 261
62.69863 250
62.71875 237
62.73886 242
62.75897 237
62.77909 254
62.7992 256
62.81931 248
62.83943 266
62.85954 237
62.87965 258
62.89977 259
62.91988 245
62.94 258
62.96011 252
62.98022 270
63.00034 281
63.02045 242
63.04056 232
63.06068 222
63.08079 241
63.10091 252
63.12102 207
63.14113 207
63.16125 242
63.18136 227
63.20147 219
63.22159 273
63.2417 245
63.26182 252
63.28193 227
63.30204 224
63.32216 236
63.34227 233
63.36238 213
63.3825 205
63.40261 265
63.42272 228
63.44284 225
63.46295 223
63.48307 233
63.50318 236
63.52329 225
63.54341 227
63.56352 246
63.58363 259
63.60375 267
63.62386 268
63.64398 267
63.66409 275
63.6842 274
63.70432 291
63.72443 308
63.74454 305
63.76466 307
63.78477 299
63.80489 316
63.825 372
63.84511 379
63.86523 367
63.88534 426
63.90545 468
63.92557 500
63.94568 534
63.96579 505
63.98591 546
64.00602 511
64.02614 470
64.04625 395
64.06636 395
64.08648 352
64.10659 364
64.1267 384
64.14682 409
64.16693 392
64.18705 375
64.20716 333
64.22727 289
64.24739 281
64.2675 279
64.28761 246
64.30773 279
64.32784 232
64.34796 230
64.36807 229
64.38818 244
64.4083 269
64.42841 212
64.44852 236
64.46864 231
64.48875 224
64.50886 233
64.52898 265
64.54909 246
64.56921 251
64.58932 261
64.60943 233
64.62955 226
64.64966 229
64.66977 223
64.68989 240
64.71 215
64.73012 234
64.75023 239
64.77034 246
64.79046 250
64.81057 235
64.83068 242
64.8508 245
64.87091 224
64.89102 245
64.91114 227
64.93125 241
64.95137 257
64.97148 255
64.99159 265
65.01171 228
65.03182 245
65.05193 242
65.07205 264
65.09216 226
65.11228 257
65.13239 234
65.1525 249
65.17262 238
65.19273 257
65.21284 223
65.23296 233
65.25307 220
65.27319 250
65.2933 227
65.31341 267
65.33353 267
65.35364 259
65.37375 221
65.39387 233
65.41398 266
65.43409 262
65.45421 253
65.47432 255
65.49444 261
65.51455 245
65.53466 268
65.55478 241
65.57489 247
65.595 283
65.61512 263
65.63523 282
65.65535 276
65.67546 320
65.69557 291
65.71569 319
65.7358 297
65.75591 283
65.77603 336
65.79614 277
65.81626 250
65.83637 271
65.85648 250
65.8766 262
65.89671 270
65.91682 299
65.93694 274
65.95705 283
65.97716 260
65.99728 259
66.01739 266
66.03751 223
66.05762 218
66.07773 238
66.09785 258
66.11796 258
66.13807 264
66.15819 241
66.1783 225
66.19842 253
66.21853 211
66.23864 236
66.25876 235
66.27887 258
66.29898 227
66.3191 224
66.33921 253
66.35933 245
66.37944 247
66.39955 234
66.41967 259
66.43978 258
66.45989 226
66.48001 207
66.50012 233
66.52023 255
66.54035 224
66.56046 242
66.58058 234
66.60069 253
66.6208 241
66.64092 237
66.66103 234
66.68114 248
66.70126 235
66.72137 260
66.74149 246
66.7616 234
66.78171 248
66.80183 247
66.82194 243
66.84205 245
66.86217 253
66.88228 247
66.90239 230
66.92251 230
66.94262 254
66.96274 241
66.98285 241
67.00296 250
67.02308 266
67.04319 251
67.0633 254
67.08342 267
67.10353 271
67.12365 252
67.14376 261
67.16387 261
67.18399 295
67.2041 281
67.22421 293
67.24433 299
67.26444 283
67.28456 319
67.30467 302
67.32478 300
67.3449 342
67.36501 320
67.38512 354
67.40524 405
67.42535 385
67.44546 421
67.46558 495
67.48569 485
67.50581 521
67.52592 583
67.54603 702
67.56615 764
67.58626 766
67.60637 940
67.62649 1124
67.6466 1147
67.66672 1242
67.68683 1180
67.70694 1149
67.72706 1121
67.74717 1003
67.76728 908
67.7874 807
67.80751 863
67.82763 881
67.84774 872
67.86785 988
67.88797 1007
67.90808 1090
67.92819 1060
67.94831 993
67.96842 1104
67.98853 1172
68.00865 1241
68.02876 1391
68.04888 1564
68.06899 1611
68.0891 1682
68.10922 1618
68.12933 1523
68.14944 1475
68.16956 1384
68.18967 1363
68.20979 1417
68.2299 1489
68.25001 1469
68.27013 1473
68.29024 1406
68.31035 1195
68.33047 1032
68.35058 820
68.3707 719
68.39081 644
68.41092 656
68.43104 604
68.45115 627
68.47126 568
68.49138 526
68.51149 473
68.5316 423
68.55172 357
68.57183 339
68.59195 293
68.61206 301
68.63217 280
68.65229 255
68.6724 289
68.69251 295
68.71263 295
68.73274 280
68.75286 254
68.77297 260
68.79308 255
68.8132 258
68.83331 260
68.85342 296
68.87354 255
68.89365 287
68.91376 239
68.93388 237
68.95399 257
68.97411 258
68.99422 244
69.01433 249
69.03445 259
69.05456 242
69.07467 240
69.09479 248
69.1149 237
69.13502 225
69.15513 239
69.17524 239
69.19536 272
69.21547 267
69.23558 243
69.2557 231
69.27581 232
69.29593 214
69.31604 230
69.33615 225
69.35627 273
69.37638 231
69.39649 233
69.41661 226
69.43672 232
69.45683 254
69.47695 235
69.49706 212
69.51718 250
69.53729 226
69.5574 209
69.57752 242
69.59763 225
69.61774 248
69.63786 229
69.65797 236
69.67809 246
69.6982 246
69.71831 254
69.73843 241
69.75854 231
69.77865 221
69.79877 236
69.81888 239
69.839 218
69.85911 251
69.87922 235
69.89934 244
69.91945 236
69.93956 209
69.95968 245
69.97979 239
69.9999 245
70.02002 232
70.04013 295
70.06025 248
70.08036 231
70.10047 256
70.12059 232
70.1407 258
70.16081 233
70.18093 240
70.20104 244
70.22116 239
70.24127 227
70.26138 240
70.2815 207
70.30161 238
70.32172 232
70.34184 224
70.36195 228
70.38207 220
70.40218 216
70.42229 229
70.44241 211
70.46252 223
70.48263 235
70.50275 222
70.52286 233
70.54297 235
70.56309 222
70.5832 210
70.60332 207
70.62343 255
70.64354 227
70.66366 254
70.68377 225
70.70388 227
70.724 242
70.74411 236
70.76423 261
70.78434 224
70.80445 242
70.82457 221
70.84468 250
70.86479 239
70.88491 237
70.90502 244
70.92513 201
70.94525 210
70.96536 216
70.98548 242
71.00559 215
71.0257 224
71.04582 219
71.06593 227
71.08604 222
71.10616 235
71.12627 235
71.14639 217
71.1665 274
71.18661 232
71.20673 250
71.22684 223
71.24695 212
71.26707 262
71.28718 234
71.3073 245
71.32741 249
71.34752 246
71.36764 234
71.38775 226
71.40786 221
71.42798 248
71.44809 238
71.4682 224
71.48832 231
71.50843 222
71.52855 226
71.54866 218
71.56877 226
71.58889 233
71.609 224
71.62911 236
71.64923 249
71.66934 227
71.68946 243
71.70957 240
71.72968 241
71.7498 221
71.76991 222
71.79002 240
71.81014 249
71.83025 247
71.85037 248
71.87048 233
71.89059 258
71.91071 265
71.93082 246
71.95093 223
71.97105 215
71.99116 262
72.01127 254
72.03139 235
72.0515 249
72.07162 219
72.09173 242
72.11184 244
72.13196 238
72.15207 260
72.17218 262
72.1923 255
72.21241 244
72.23253 218
72.25264 261
72.27275 249
72.29287 253
72.31298 266
72.33309 247
72.35321 242
72.37332 268
72.39344 245
72.41355 238
72.43366 263
72.45378 245
72.47389 271
72.494 253
72.51412 273
72.53423 236
72.55434 260
72.57446 244
72.59457 248
72.61469 256
72.6348 251
72.65491 234
72.67503 294
72.69514 290
72.71525 224
72.73537 249
72.75548 283
72.7756 262
72.79571 257
72.81582 257
72.83594 245
72.85605 266
72.87616 266
72.89628 256
72.91639 274
72.9365 274
72.95662 272
72.97673 263
72.99685 282
73.01696 280
73.03707 262
73.05719 295
73.0773 300
73.09741 309
73.11753 326
73.13764 278
73.15776 311
73.17787 315
73.19798 330
73.2181 332
73.23821 389
73.25832 395
73.27844 436
73.29855 416
73.31867 489
73.33878 499
73.35889 534
73.37901 570
73.39912 603
73.41923 582
73.43935 509
73.45946 503
73.47957 492
73.49969 423
73.5198 410
73.53992 374
73.56003 428
73.58014 436
73.60026 411
73.62037 374
73.64048 403
73.6606 373
73.68071 293
73.70083 303
73.72094 294
73.74105 271
73.76117 273
73.78128 259
73.80139 249
73.82151 275
73.84162 253
73.86174 244
73.88185 239
73.90196 259
73.92208 258
73.94219 220
73.9623 242
73.98242 272
74.00253 261
74.02264 246
74.04276 228
74.06287 242
74.08299 248
74.1031 243
74.12321 233
74.14333 235
74.16344 252
74.18355 233
74.20367 226
74.22378 233
74.2439 264
74.26401 245
74.28412 214
74.30424 228
74.32435 246
74.34446 241
74.36458 245
74.38469 234
74.40481 266
74.42492 252
74.44503 246
74.46515 243
74.48526 261
74.50537 247
74.52549 247
74.5456 239
74.56571 260
74.58583 220
74.60594 244
74.62606 257
74.64617 252
74.66628 239
74.6864 213
74.70651 225
74.72662 219
74.74674 221
74.76685 227
74.78697 258
74.80708 245
74.82719 254
74.84731 260
74.86742 246
74.88753 247
74.90765 225
74.92776 255
74.94787 221
74.96799 240
74.9881 266
75.00822 246
