3.00117 16626
3.02128 15589
3.0414 15435
3.06151 15152
3.08162 14391
3.10174 14147
3.12185 13586
3.14197 13311
3.16208 12723
3.18219 12163
3.20231 12132
3.22242 11613
3.24253 11248
3.26265 10969
3.28276 10299
3.30288 10208
3.32299 9695
3.3431 9567
3.36322 8888
3.38333 8597
3.40344 8867
3.42356 8240
3.44367 7950
3.46379 7633
3.4839 7088
3.50401 7185
3.52413 6799
3.54424 6461
3.56435 6170
3.58447 5807
3.60458 5789
3.62469 5518
3.64481 5219
3.66492 5055
3.68504 4710
3.70515 4654
3.72526 4359
3.74538 4318
3.76549 4149
3.7856 3883
3.80572 3625
3.82583 3559
3.84595 3402
3.86606 3230
3.88617 2864
3.90629 3074
3.9264 2773
3.94651 2636
3.96663 2526
3.98674 2371
4.00686 2402
4.02697 2233
4.04708 2095
4.0672 1987
4.08731 1893
4.10742 1982
4.12754 1900
4.14765 1626
4.16776 1678
4.18788 1711
4.20799 1580
4.22811 1566
4.24822 1460
4.26833 1457
4.28845 1358
4.30856 1410
4.32867 1379
4.34879 1174
4.3689 1206
4.38902 1211
4.40913 1189
4.42924 1196
4.44936 1058
4.46947 1119
4.48958 1063
4.5097 1034
4.52981 1022
4.54992 975
4.57004 994
4.59015 893
4.61027 925
4.63038 912
4.65049 848
4.67061 869
4.69072 855
4.71083 794
4.73095 784
4.75106 697
4.77118 783
4.79129 646
4.8114 748
4.83152 679
4.85163 662
4.87174 636
4.89186 605
4.91197 622
4.93209 590
4.9522 561
4.97231 594
4.99243 575
5.01254 523
5.03265 487
5.05277 432
5.07288 465
5.09299 466
5.11311 431
5.13322 504
5.15334 411
5.17345 450
5.19356 414
5.21368 414
5.23379 387
5.2539 410
5.27402 356
5.29413 384
5.31425 340
5.33436 370
5.35447 346
5.37459 343
5.3947 347
5.41481 322
5.43493 336
5.45504 312
5.47516 298
5.49527 292
5.51538 274
5.5355 269
5.55561 266
5.57572 273
5.59584 250
5.61595 280
5.63606 210
5.65618 228
5.67629 211
5.69641 227
5.71652 214
5.73663 238
5.75675 220
5.77686 201
5.79697 196
5.81709 219
5.8372 207
5.85732 210
5.87743 202
5.89754 210
5.91766 214
5.93777 185
5.95788 180
5.978 216
5.99811 214
6.01823 203
6.03834 217
6.05845 195
6.07857 183
6.09868 194
6.11879 179
6.13891 201
6.15902 196
6.17913 188
6.19925 165
6.21936 211
6.23948 159
6.25959 191
6.2797 172
6.29982 180
6.31993 191
6.34004 175
6.36016 188
6.38027 172
6.40039 196
6.4205 144
6.44061 152
6.46073 166
6.48084 205
6.50095 170
6.52107 162
6.54118 165
6.56129 154
6.58141 169
6.60152 201
6.62164 163
6.64175 178
6.66186 160
6.68198 154
6.70209 178
6.7222 165
6.74232 145
6.76243 173
6.78255 191
6.80266 180
6.82277 191
6.84289 182
6.863 199
6.88311 196
6.90323 161
6.92334 167
6.94346 129
6.96357 166
6.98368 173
7.0038 179
7.02391 172
7.04402 151
7.06414 154
7.08425 166
7.10436 163
7.12448 163
7.14459 159
7.16471 161
7.18482 154
7.20493 158
7.22505 178
7.24516 156
7.26527 173
7.28539 173
7.3055 179
7.32562 161
7.34573 161
7.36584 176
7.38596 147
7.40607 176
7.42618 195
7.4463 172
7.46641 172
7.48653 179
7.50664 160
7.52675 171
7.54687 172
7.56698 163
7.58709 170
7.60721 171
7.62732 166
7.64743 189
7.66755 155
7.68766 191
7.70778 157
7.72789 215
7.748 183
7.76812 203
7.78823 185
7.80834 180
7.82846 194
7.84857 178
7.86869 163
7.8888 174
7.90891 193
7.92903 173
7.94914 220
7.96925 162
7.98937 191
8.00948 174
8.0296 171
8.04971 207
8.06982 194
8.08994 190
8.11005 223
8.13016 196
8.15028 211
8.17039 187
8.1905 201
8.21062 174
8.23073 223
8.25085 211
8.27096 181
8.29107 179
8.31119 206
8.3313 196
8.35141 195
8.37153 183
8.39164 201
8.41176 169
8.43187 197
8.45198 191
8.4721 211
8.49221 187
8.51232 207
8.53244 199
8.55255 208
8.57266 209
8.59278 193
8.61289 199
8.63301 219
8.65312 211
8.67323 224
8.69335 197
8.71346 195
8.73357 220
8.75369 198
8.7738 222
8.79392 220
8.81403 219
8.83414 203
8.85426 208
8.87437 199
8.89448 191
8.9146 189
8.93471 197
8.95483 203
8.97494 189
8.99505 199
9.01517 220
9.03528 198
9.05539 225
9.07551 189
9.09562 203
9.11573 189
9.13585 175
9.15596 196
9.17608 194
9.19619 201
9.2163 193
9.23642 191
9.25653 171
9.27664 194
9.29676 190
9.31687 197
9.33699 206
9.3571 209
9.37721 219
9.39733 202
9.41744 183
9.43755 187
9.45767 213
9.47778 215
9.4979 221
9.51801 207
9.53812 199
9.55824 225
9.57835 205
9.59846 187
9.61858 218
9.63869 236
9.6588 198
9.67892 205
9.69903 216
9.71915 208
9.73926 211
9.75937 227
9.77949 250
9.7996 235
9.81971 206
9.83983 217
9.85994 216
9.88006 206
9.90017 215
9.92028 203
9.9404 186
9.96051 192
9.98062 211
10.00074 230
10.02085 202
10.04097 231
10.06108 222
10.08119 210
10.10131 224
10.12142 204
10.14153 204
10.16165 210
10.18176 205
10.20187 185
10.22199 199
10.2421 195
10.26222 212
10.28233 219
10.30244 221
10.32256 203
10.34267 197
10.36278 181
10.3829 215
10.40301 199
10.42313 208
10.44324 242
10.46335 199
10.48347 196
10.50358 184
10.52369 179
10.54381 196
10.56392 192
10.58403 206
10.60415 226
10.62426 211
10.64438 201
10.66449 220
10.6846 240
10.70472 220
10.72483 226
10.74494 200
10.76506 238
10.78517 204
10.80529 207
10.8254 203
10.84551 206
10.86563 212
10.88574 203
10.90585 208
10.92597 236
10.94608 186
10.9662 211
10.98631 213
11.00642 211
11.02654 205
11.04665 188
11.06676 220
11.08688 207
11.10699 213
11.1271 231
11.14722 198
11.16733 214
11.18745 201
11.20756 231
11.22767 220
11.24779 210
11.2679 209
11.28801 208
11.30813 213
11.32824 212
11.34836 207
11.36847 259
11.38858 211
11.4087 213
11.42881 209
11.44892 216
11.46904 213
11.48915 220
11.50927 222
11.52938 239
11.54949 208
11.56961 220
11.58972 219
11.60983 180
11.62995 214
11.65006 201
11.67017 238
11.69029 228
11.7104 222
11.73052 201
11.75063 203
11.77074 186
11.79086 191
11.81097 260
11.83108 229
11.8512 219
11.87131 237
11.89143 248
11.91154 259
11.93165 206
11.95177 203
11.97188 230
11.99199 243
12.01211 229
12.03222 231
12.05234 243
12.07245 238
12.09256 221
12.11268 215
12.13279 214
12.1529 233
12.17302 250
12.19313 228
12.21324 215
12.23336 212
12.25347 223
12.27359 203
12.2937 232
12.31381 208
12.33393 213
12.35404 240
12.37415 198
12.39427 207
12.41438 210
12.4345 208
12.45461 226
12.47472 220
12.49484 204
12.51495 202
12.53506 217
12.55518 170
12.57529 211
12.5954 207
12.61552 193
12.63563 214
12.65575 226
12.67586 213
12.69597 190
12.71609 193
12.7362 191
12.75631 187
12.77643 201
12.79654 198
12.81666 188
12.83677 220
12.85688 175
12.877 189
12.89711 187
12.91722 203
12.93734 205
12.95745 193
12.97757 183
12.99768 220
13.01779 202
13.03791 213
13.05802 199
13.07813 202
13.09825 177
13.11836 184
13.13847 219
13.15859 178
13.1787 180
13.19882 188
13.21893 175
13.23904 192
13.25916 198
13.27927 187
13.29938 172
13.3195 179
13.33961 218
13.35973 200
13.37984 181
13.39995 198
13.42007 218
13.44018 174
13.46029 208
13.48041 210
13.50052 192
13.52064 186
13.54075 192
13.56086 200
13.58098 204
13.60109 217
13.6212 225
13.64132 205
13.66143 223
13.68154 183
13.70166 175
13.72177 187
13.74189 173
13.762 199
13.78211 189
13.80223 175
13.82234 161
13.84245 188
13.86257 193
13.88268 194
13.9028 211
13.92291 167
13.94302 190
13.96314 196
13.98325 196
14.00336 158
14.02348 195
14.04359 169
14.06371 166
14.08382 203
14.10393 180
14.12405 154
14.14416 167
14.16427 152
14.18439 165
14.2045 151
14.22461 173
14.24473 153
14.26484 173
14.28496 183
14.30507 177
14.32518 154
14.3453 179
14.36541 158
14.38552 186
14.40564 191
14.42575 153
14.44587 158
14.46598 168
14.48609 168
14.50621 160
14.52632 162
14.54643 173
14.56655 179
14.58666 168
14.60677 154
14.62689 164
14.647 165
14.66712 154
14.68723 166
14.70734 174
14.72746 182
14.74757 157
14.76768 170
14.7878 178
14.80791 162
14.82803 153
14.84814 168
14.86825 183
14.88837 182
14.90848 177
14.92859 211
14.94871 183
14.96882 178
14.98894 182
15.00905 169
15.02916 158
15.04928 174
15.06939 173
15.0895 141
15.10962 194
15.12973 147
15.14984 177
15.16996 180
15.19007 159
15.21019 180
15.2303 164
15.25041 176
15.27053 148
15.29064 160
15.31075 169
15.33087 151
15.35098 147
15.3711 176
15.39121 163
15.41132 133
15.43144 170
15.45155 160
15.47166 148
15.49178 142
15.51189 171
15.53201 174
15.55212 167
15.57223 163
15.59235 166
15.61246 142
15.63257 153
15.65269 147
15.6728 152
15.69291 172
15.71303 140
15.73314 157
15.75326 139
15.77337 157
15.79348 150
15.8136 158
15.83371 162
15.85382 146
15.87394 150
15.89405 161
15.91417 143
15.93428 171
15.95439 128
15.97451 144
15.99462 130
16.01473 145
16.03485 161
16.05496 167
16.07508 147
16.09519 148
16.1153 155
16.13542 172
16.15553 159
16.17564 183
16.19576 160
16.21587 158
16.23598 169
16.2561 142
16.27621 128
16.29633 155
16.31644 144
16.33655 184
16.35667 128
16.37678 162
16.39689 153
16.41701 163
16.43712 117
16.45724 133
16.47735 141
16.49746 173
16.51758 179
16.53769 152
16.5578 150
16.57792 142
16.59803 150
16.61814 142
16.63826 144
16.65837 149
16.67849 172
16.6986 170
16.71871 150
16.73883 146
16.75894 123
16.77905 160
16.79917 151
16.81928 173
16.8394 127
16.85951 158
16.87962 149
16.89974 152
16.91985 170
16.93996 145
16.96008 162
16.98019 127
17.00031 151
17.02042 137
17.04053 151
17.06065 128
17.08076 154
17.10087 176
17.12099 152
17.1411 148
17.16121 147
17.18133 164
17.20144 134
17.22156 153
17.24167 125
17.26178 146
17.2819 159
17.30201 143
17.32212 159
17.34224 169
17.36235 139
17.38247 159
17.40258 161
17.42269 179
17.44281 152
17.46292 169
17.48303 146
17.50315 185
17.52326 131
17.54338 170
17.56349 148
17.5836 156
17.60372 160
17.62383 142
17.64394 164
17.66406 139
17.68417 155
17.70428 151
17.7244 145
17.74451 172
17.76463 142
17.78474 131
17.80485 163
17.82497 139
17.84508 144
17.86519 147
17.88531 163
17.90542 151
17.92554 148
17.94565 120
17.96576 144
17.98588 148
18.00599 152
18.0261 157
18.04622 149
18.06633 160
18.08645 178
18.10656 159
18.12667 140
18.14679 143
18.1669 165
18.18701 129
18.20713 136
18.22724 157
18.24735 165
18.26747 134
18.28758 157
18.3077 131
18.32781 150
18.34792 123
18.36804 151
18.38815 152
18.40826 154
18.42838 140
18.44849 151
18.46861 142
18.48872 147
18.50883 144
18.52895 135
18.54906 145
18.56917 133
18.58929 129
18.6094 145
18.62951 159
18.64963 147
18.66974 139
18.68986 164
18.70997 162
18.73008 160
18.7502 153
18.77031 174
18.79042 177
18.81054 154
18.83065 148
18.85077 136
18.87088 151
18.89099 158
18.91111 139
18.93122 156
18.95133 130
18.97145 145
18.99156 133
19.01168 142
19.03179 143
19.0519 190
19.07202 143
19.09213 152
19.11224 150
19.13236 140
19.15247 160
19.17258 151
19.1927 165
19.21281 145
19.23293 168
19.25304 162
19.27315 155
19.29327 152
19.31338 170
19.33349 162
19.35361 146
19.37372 159
19.39384 150
19.41395 140
19.43406 163
19.45418 158
19.47429 162
19.4944 161
19.51452 170
19.53463 173
19.55475 176
19.57486 167
19.59497 169
19.61509 165
19.6352 187
19.65531 157
19.67543 174
19.69554 203
19.71565 207
19.73577 198
19.75588 208
19.776 189
19.79611 220
19.81622 205
19.83634 201
19.85645 230
19.87656 247
19.89668 196
19.91679 215
19.93691 206
19.95702 233
19.97713 208
19.99725 212
20.01736 212
20.03747 218
20.05759 232
20.0777 204
20.09782 233
20.11793 250
20.13804 252
20.15816 270
20.17827 239
20.19838 248
20.2185 233
20.23861 276
20.25872 273
20.27884 262
20.29895 232
20.31907 272
20.33918 261
20.35929 308
20.37941 298
20.39952 287
20.41963 293
20.43975 351
20.45986 320
20.47998 349
20.50009 320
20.5202 365
20.54032 335
20.56043 403
20.58054 414
20.60066 478
20.62077 563
20.64088 706
20.661 782
20.68111 1059
20.70123 1361
20.72134 2055
20.74145 2960
20.76157 4166
20.78168 5292
20.80179 6841
20.82191 7561
20.84202 7497
20.86214 6712
20.88225 5403
20.90236 3891
20.92248 2532
20.94259 1647
20.9627 1076
20.98282 781
21.00293 653
21.02305 656
21.04316 597
21.06327 504
21.08339 467
21.1035 418
21.12361 356
21.14373 322
21.16384 318
21.18395 282
21.20407 274
21.22418 235
21.2443 276
21.26441 263
21.28452 243
21.30464 224
21.32475 233
21.34486 247
21.36498 237
21.38509 246
21.40521 214
21.42532 251
21.44543 214
21.46555 211
21.48566 221
21.50577 202
21.52589 226
21.546 221
21.56612 213
21.58623 212
21.60634 209
21.62646 202
21.64657 225
21.66668 215
21.6868 229
21.70691 213
21.72702 197
21.74714 203
21.76725 197
21.78737 204
21.80748 220
21.82759 200
21.84771 212
21.86782 207
21.88793 206
21.90805 182
21.92816 218
21.94828 218
21.96839 228
21.9885 222
22.00862 208
22.02873 206
22.04884 195
22.06896 195
22.08907 212
22.10919 167
22.1293 199
22.14941 197
22.16953 199
22.18964 195
22.20975 217
22.22987 221
22.24998 227
22.27009 215
22.29021 249
22.31032 247
22.33044 203
22.35055 187
22.37066 186
22.39078 187
22.41089 196
22.431 166
22.45112 200
22.47123 191
22.49135 219
22.51146 195
22.53157 200
22.55169 196
22.5718 223
22.59191 184
22.61203 210
22.63214 197
22.65225 206
22.67237 200
22.69248 173
22.7126 184
22.73271 196
22.75282 172
22.77294 185
22.79305 190
22.81316 212
22.83328 203
22.85339 208
22.87351 206
22.89362 206
22.91373 196
22.93385 196
22.95396 186
22.97407 192
22.99419 203
23.0143 232
23.03442 222
23.05453 195
23.07464 240
23.09476 245
23.11487 248
23.13498 239
23.1551 253
23.17521 261
23.19532 260
23.21544 287
23.23555 255
23.25567 259
23.27578 223
23.29589 186
23.31601 203
23.33612 204
23.35623 211
23.37635 198
23.39646 200
23.41658 208
23.43669 228
23.4568 220
23.47692 200
23.49703 206
23.51714 209
23.53726 209
23.55737 229
23.57749 219
23.5976 225
23.61771 204
23.63783 212
23.65794 210
23.67805 181
23.69817 202
23.71828 204
23.73839 222
23.75851 206
23.77862 193
23.79874 196
23.81885 245
23.83896 219
23.85908 242
23.87919 235
23.8993 280
23.91942 284
23.93953 354
23.95965 301
23.97976 322
23.99987 295
24.01999 324
24.0401 261
24.06021 204
24.08033 221
24.10044 188
24.12056 219
24.14067 202
24.16078 195
24.1809 192
24.20101 227
24.22112 234
24.24124 213
24.26135 182
24.28146 224
24.30158 215
24.32169 242
24.34181 210
24.36192 191
24.38203 203
24.40215 213
24.42226 186
24.44237 193
24.46249 170
24.4826 181
24.50272 192
24.52283 192
24.54294 206
24.56306 199
24.58317 180
24.60328 206
24.6234 213
24.64351 212
24.66362 246
24.68374 208
24.70385 216
24.72397 216
24.74408 233
24.76419 211
24.78431 251
24.80442 232
24.82453 217
24.84465 229
24.86476 220
24.88488 181
24.90499 218
24.9251 197
24.94522 192
24.96533 212
24.98544 204
25.00556 195
25.02567 237
25.04579 202
25.0659 227
25.08601 202
25.10613 189
25.12624 222
25.14635 202
25.16647 200
25.18658 217
25.20669 192
25.22681 217
25.24692 185
25.26704 231
25.28715 201
25.30726 223
25.32738 220
25.34749 255
25.3676 219
25.38772 240
25.40783 263
25.42795 261
25.44806 307
25.46817 328
25.48829 295
25.5084 320
25.52851 346
25.54863 334
25.56874 360
25.58886 343
25.60897 352
25.62908 384
25.6492 393
25.66931 416
25.68942 392
25.70954 429
25.72965 390
25.74976 346
25.76988 399
25.78999 386
25.81011 377
25.83022 365
25.85033 442
25.87045 402
25.89056 404
25.91067 401
25.93079 464
25.9509 427
25.97102 410
25.99113 471
26.01124 443
26.03136 508
26.05147 507
26.07158 508
26.0917 537
26.11181 575
26.13193 637
26.15204 652
26.17215 703
26.19227 764
26.21238 789
26.23249 872
26.25261 967
26.27272 1029
26.29283 1131
26.31295 1205
26.33306 1346
26.35318 1568
26.37329 1947
26.3934 2431
26.41352 2920
26.43363 3963
26.45374 5080
26.47386 7165
26.49397 9922
26.51409 13954
26.5342 19083
26.55431 25029
26.57443 31021
26.59454 34365
26.61465 34707
26.63477 31742
26.65488 26259
26.67499 19671
26.69511 14156
26.71522 9558
26.73534 5787
26.75545 3394
26.77556 2151
26.79568 1626
26.81579 1397
26.8359 1287
26.85602 1226
26.87613 1113
26.89625 996
26.91636 931
26.93647 856
26.95659 745
26.9767 785
26.99681 780
27.01693 788
27.03704 674
27.05716 702
27.07727 646
27.09738 610
27.1175 526
27.13761 546
27.15772 483
27.17784 450
27.19795 435
27.21806 431
27.23818 446
27.25829 488
27.27841 484
27.29852 515
27.31863 545
27.33875 605
27.35886 589
27.37897 663
27.39909 707
27.4192 722
27.43932 738
27.45943 630
27.47954 695
27.49966 574
27.51977 519
27.53988 468
27.56 413
27.58011 351
27.60023 368
27.62034 315
27.64045 323
27.66057 287
27.68068 319
27.70079 301
27.72091 358
27.74102 330
27.76113 340
27.78125 332
27.80136 329
27.82148 308
27.84159 294
27.8617 305
27.88182 321
27.90193 276
27.92204 292
27.94216 300
27.96227 313
27.98239 285
28.0025 285
28.02261 290
28.04273 226
28.06284 269
28.08295 262
28.10307 236
28.12318 250
28.1433 234
28.16341 251
28.18352 228
28.20364 262
28.22375 240
28.24386 227
28.26398 240
28.28409 236
28.3042 237
28.32432 207
28.34443 198
28.36455 232
28.38466 217
28.40477 195
28.42489 219
28.445 213
28.46511 238
28.48523 214
28.50534 232
28.52546 221
28.54557 206
28.56568 215
28.5858 228
28.60591 251
28.62602 210
28.64614 199
28.66625 189
28.68636 203
28.70648 201
28.72659 226
28.74671 191
28.76682 229
28.78693 225
28.80705 230
28.82716 233
28.84727 243
28.86739 214
28.8875 198
28.90762 210
28.92773 211
28.94784 209
28.96796 218
28.98807 224
29.00818 184
29.0283 200
29.04841 215
29.06853 211
29.08864 205
29.10875 220
29.12887 188
29.14898 208
29.16909 228
29.18921 171
29.20932 204
29.22943 201
29.24955 234
29.26966 234
29.28978 208
29.30989 211
29.33 243
29.35012 258
29.37023 240
29.39034 234
29.41046 244
29.43057 260
29.45069 227
29.4708 220
29.49091 286
29.51103 219
29.53114 221
29.55125 222
29.57137 197
29.59148 234
29.6116 253
29.63171 210
29.65182 217
29.67194 206
29.69205 209
29.71216 213
29.73228 206
29.75239 235
29.7725 205
29.79262 219
29.81273 208
29.83285 232
29.85296 208
29.87307 196
29.89319 237
29.9133 211
29.93341 212
29.95353 218
29.97364 208
29.99376 242
30.01387 221
30.03398 226
30.0541 219
30.07421 231
30.09432 221
30.11444 258
30.13455 267
30.15467 273
30.17478 239
30.19489 229
30.21501 237
30.23512 264
30.25523 231
30.27535 224
30.29546 227
30.31557 218
30.33569 213
30.3558 193
30.37592 175
30.39603 193
30.41614 195
30.43626 187
30.45637 210
30.47648 204
30.4966 184
30.51671 182
30.53683 176
30.55694 204
30.57705 215
30.59717 211
30.61728 210
30.63739 192
30.65751 234
30.67762 272
30.69773 259
30.71785 261
30.73796 247
30.75808 234
30.77819 248
30.7983 267
30.81842 226
30.83853 238
30.85864 231
30.87876 227
30.89887 211
30.91899 184
30.9391 172
30.95921 194
30.97933 172
30.99944 166
31.01955 160
31.03967 203
31.05978 173
31.0799 192
31.10001 157
31.12012 169
31.14024 168
31.16035 185
31.18046 144
31.20058 189
31.22069 158
31.2408 179
31.26092 161
31.28103 175
31.30115 164
31.32126 171
31.34137 183
31.36149 160
31.3816 171
31.40171 165
31.42183 150
31.44194 152
31.46206 153
31.48217 189
31.50228 158
31.5224 126
31.54251 164
31.56262 165
31.58274 167
31.60285 155
31.62297 172
31.64308 159
31.66319 154
31.68331 145
31.70342 145
31.72353 151
31.74365 143
31.76376 149
31.78387 149
31.80399 145
31.8241 152
31.84422 157
31.86433 150
31.88444 151
31.90456 179
31.92467 145
31.94478 142
31.9649 146
31.98501 171
32.00513 149
32.02524 165
32.04535 188
32.06547 167
32.08558 165
32.10569 199
32.12581 186
32.14592 168
32.16604 165
32.18615 188
32.20626 180
32.22638 149
32.24649 178
32.2666 182
32.28672 182
32.30683 183
32.32694 169
32.34706 162
32.36717 198
32.38729 179
32.4074 196
32.42751 182
32.44763 181
32.46774 168
32.48785 171
32.50797 166
32.52808 167
32.5482 163
32.56831 170
32.58842 170
32.60854 137
32.62865 155
32.64876 152
32.66888 135
32.68899 137
32.7091 165
32.72922 161
32.74933 171
32.76945 145
32.78956 137
32.80967 148
32.82979 145
32.8499 128
32.87001 165
32.89013 157
32.91024 147
32.93036 165
32.95047 143
32.97058 162
32.9907 168
33.01081 140
33.03092 140
33.05104 163
33.07115 155
33.09127 160
33.11138 149
33.13149 160
33.15161 170
33.17172 147
33.19183 122
33.21195 150
33.23206 135
33.25217 137
33.27229 127
33.2924 145
33.31252 146
33.33263 171
33.35274 139
33.37286 147
33.39297 152
33.41308 156
33.4332 145
33.45331 140
33.47343 126
33.49354 123
33.51365 149
33.53377 142
33.55388 174
33.57399 139
33.59411 141
33.61422 144
33.63434 148
33.65445 165
33.67456 126
33.69468 149
33.71479 157
33.7349 131
33.75502 124
33.77513 136
33.79524 162
33.81536 132
33.83547 149
33.85559 161
33.8757 134
33.89581 141
33.91593 111
33.93604 136
33.95615 150
33.97627 154
33.99638 155
34.0165 144
34.03661 158
34.05672 156
34.07684 168
34.09695 153
34.11706 176
34.13718 162
34.15729 193
34.17741 182
34.19752 171
34.21763 153
34.23775 198
34.25786 177
34.27797 159
34.29809 173
34.3182 169
34.33831 211
34.35843 162
34.37854 144
34.39866 162
34.41877 157
34.43888 140
34.459 169
34.47911 156
34.49922 153
34.51934 183
34.53945 163
34.55957 201
34.57968 179
34.59979 175
34.61991 158
34.64002 193
34.66013 187
34.68025 193
34.70036 181
34.72047 169
34.74059 186
34.7607 210
34.78082 163
34.80093 151
34.82104 158
34.84116 186
34.86127 191
34.88138 176
34.9015 213
34.92161 186
34.94173 187
34.96184 186
34.98195 195
35.00207 190
35.02218 177
35.04229 190
35.06241 197
35.08252 180
35.10264 174
35.12275 184
35.14286 170
35.16298 191
35.18309 191
35.2032 184
35.22332 197
35.24343 203
35.26354 185
35.28366 199
35.30377 210
35.32389 165
35.344 203
35.36411 204
35.38423 204
35.40434 206
35.42445 195
35.44457 209
35.46468 176
35.4848 206
35.50491 220
35.52502 233
35.54514 228
35.56525 237
35.58536 222
35.60548 209
35.62559 184
35.64571 191
35.66582 180
35.68593 181
35.70605 174
35.72616 192
35.74627 192
35.76639 173
35.7865 200
35.80661 201
35.82673 200
35.84684 164
35.86696 196
35.88707 184
35.90718 216
35.9273 187
35.94741 185
35.96752 189
35.98764 197
36.00775 184
36.02787 192
36.04798 190
36.06809 178
36.08821 196
36.10832 198
36.12843 212
36.14855 202
36.16866 223
36.18878 208
36.20889 239
36.229 270
36.24912 296
36.26923 312
36.28934 323
36.30946 402
36.32957 484
36.34968 596
36.3698 767
36.38991 976
36.41003 1186
36.43014 1480
36.45025 1876
36.47037 2249
36.49048 2404
36.51059 2401
36.53071 2202
36.55082 1862
36.57094 1546
36.59105 1306
36.61116 1126
36.63128 909
36.65139 614
36.6715 442
36.69162 328
36.71173 283
36.73184 288
36.75196 233
36.77207 259
36.79219 233
36.8123 210
36.83241 212
36.85253 227
36.87264 210
36.89275 199
36.91287 226
36.93298 209
36.9531 181
36.97321 208
36.99332 189
37.01344 192
37.03355 209
37.05366 176
37.07378 185
37.09389 200
37.11401 170
37.13412 203
37.15423 178
37.17435 163
37.19446 184
37.21457 161
37.23469 184
37.2548 142
37.27491 166
37.29503 168
37.31514 161
37.33526 149
37.35537 171
37.37548 146
37.3956 170
37.41571 153
37.43582 162
37.45594 142
37.47605 158
37.49617 160
37.51628 160
37.53639 171
37.55651 166
37.57662 165
37.59673 159
37.61685 148
37.63696 180
37.65708 145
37.67719 152
37.6973 138
37.71742 144
37.73753 148
37.75764 140
37.77776 145
37.79787 161
37.81798 162
37.8381 155
37.85821 175
37.87833 145
37.89844 162
37.91855 150
37.93867 163
37.95878 150
37.97889 178
37.99901 147
38.01912 153
38.03924 162
38.05935 182
38.07946 174
38.09958 179
38.11969 150
38.1398 177
38.15992 169
38.18003 157
38.20015 164
38.22026 148
38.24037 173
38.26049 169
38.2806 155
38.30071 177
38.32083 176
38.34094 157
38.36105 168
38.38117 188
38.40128 161
38.4214 191
38.44151 174
38.46162 174
38.48174 191
38.50185 186
38.52196 180
38.54208 193
38.56219 212
38.58231 197
38.60242 177
38.62253 153
38.64265 166
38.66276 183
38.68287 159
38.70299 190
38.7231 184
38.74321 167
38.76333 156
38.78344 188
38.80356 168
38.82367 173
38.84378 206
38.8639 164
38.88401 161
38.90412 174
38.92424 198
38.94435 199
38.96447 190
38.98458 201
39.00469 192
39.02481 179
39.04492 223
39.06503 207
39.08515 222
39.10526 215
39.12538 255
39.14549 307
39.1656 295
39.18572 291
39.20583 315
39.22594 418
39.24606 487
39.26617 486
39.28628 635
39.3064 825
39.32651 1078
39.34663 1369
39.36674 1574
39.38685 1995
39.40697 2130
39.42708 2306
39.44719 2120
39.46731 1856
39.48742 1492
39.50754 1324
39.52765 1068
39.54776 944
39.56788 713
39.58799 563
39.6081 385
39.62822 304
39.64833 269
39.66845 242
39.68856 247
39.70867 220
39.72879 205
39.7489 195
39.76901 201
39.78913 199
39.80924 190
39.82935 194
39.84947 168
39.86958 191
39.8897 210
39.90981 209
39.92992 208
39.95004 190
39.97015 233
39.99026 207
40.01038 240
40.03049 264
40.05061 271
40.07072 309
40.09083 393
40.11095 396
40.13106 502
40.15117 615
40.17129 788
40.1914 916
40.21152 1093
40.23163 1149
40.25174 1137
40.27186 1045
40.29197 944
40.31208 823
40.3322 686
40.35231 607
40.37242 528
40.39254 461
40.41265 347
40.43277 258
40.45288 241
40.47299 209
40.49311 185
40.51322 177
40.53333 179
40.55345 149
40.57356 187
40.59368 173
40.61379 167
40.6339 174
40.65402 162
40.67413 150
40.69424 171
40.71436 173
40.73447 165
40.75458 121
40.7747 171
40.79481 162
40.81493 144
40.83504 163
40.85515 130
40.87527 160
40.89538 155
40.91549 180
40.93561 155
40.95572 185
40.97584 153
40.99595 153
41.01606 157
41.03618 200
41.05629 153
41.0764 161
41.09652 172
41.11663 153
41.13675 168
41.15686 153
41.17697 174
41.19709 153
41.2172 135
41.23731 152
41.25743 145
41.27754 143
41.29765 158
41.31777 156
41.33788 125
41.358 139
41.37811 146
41.39822 154
41.41834 160
41.43845 144
41.45856 143
41.47868 180
41.49879 158
41.51891 170
41.53902 162
41.55913 178
41.57925 189
41.59936 184
41.61947 164
41.63959 210
41.6597 189
41.67982 213
41.69993 227
41.72004 233
41.74016 241
41.76027 261
41.78038 215
41.8005 211
41.82061 229
41.84072 220
41.86084 218
41.88095 201
41.90107 170
41.92118 175
41.94129 171
41.96141 134
41.98152 208
42.00163 183
42.02175 182
42.04186 174
42.06198 210
42.08209 212
42.1022 217
42.12232 221
42.14243 257
42.16254 245
42.18266 305
42.20277 338
42.22289 384
42.243 393
42.26311 482
42.28323 604
42.30334 747
42.32345 1001
42.34357 1139
42.36368 1336
42.38379 1555
42.40391 1600
42.42402 1497
42.44414 1301
42.46425 1160
42.48436 988
42.50448 910
42.52459 811
42.5447 687
42.56482 527
42.58493 436
42.60505 280
42.62516 263
42.64527 247
42.66539 243
42.6855 199
42.70561 202
42.72573 210
42.74584 203
42.76595 173
42.78607 192
42.80618 174
42.8263 179
42.84641 185
42.86652 178
42.88664 162
42.90675 149
42.92686 169
42.94698 155
42.96709 134
42.98721 148
43.00732 140
43.02743 171
43.04755 169
43.06766 160
43.08777 151
43.10789 138
43.128 157
43.14812 164
43.16823 158
43.18834 145
43.20846 149
43.22857 159
43.24868 145
43.2688 139
43.28891 150
43.30902 156
43.32914 138
43.34925 140
43.36937 119
43.38948 138
43.40959 144
43.42971 115
43.44982 153
43.46993 149
43.49005 147
43.51016 154
43.53028 137
43.55039 115
43.5705 149
43.59062 120
43.61073 162
43.63084 129
43.65096 118
43.67107 138
43.69119 146
43.7113 155
43.73141 126
43.75153 155
43.77164 145
43.79175 122
43.81187 126
43.83198 142
43.85209 134
43.87221 152
43.89232 149
43.91244 156
43.93255 123
43.95266 138
43.97278 140
43.99289 153
44.013 138
44.03312 149
44.05323 137
44.07335 158
44.09346 139
44.11357 142
44.13369 130
44.1538 151
44.17391 134
44.19403 143
44.21414 150
44.23426 148
44.25437 149
44.27448 158
44.2946 143
44.31471 143
44.33482 140
44.35494 134
44.37505 157
44.39516 140
44.41528 134
44.43539 137
44.45551 142
44.47562 154
44.49573 146
44.51585 142
44.53596 141
44.55607 143
44.57619 141
44.5963 141
44.61642 149
44.63653 140
44.65664 140
44.67676 150
44.69687 142
44.71698 135
44.7371 129
44.75721 142
44.77732 150
44.79744 150
44.81755 124
44.83767 143
44.85778 148
44.87789 162
44.89801 148
44.91812 137
44.93823 159
44.95835 135
44.97846 147
44.99858 165
45.01869 142
45.0388 152
45.05892 156
45.07903 144
45.09914 172
45.11926 147
45.13937 156
45.15949 138
45.1796 144
45.19971 139
45.21983 144
45.23994 156
45.26005 161
45.28017 167
45.30028 175
45.32039 178
45.34051 185
45.36062 159
45.38074 183
45.40085 181
45.42096 175
45.44108 228
45.46119 219
45.4813 240
45.50142 231
45.52153 254
45.54165 284
45.56176 317
45.58187 371
45.60199 389
45.6221 453
45.64221 583
45.66233 693
45.68244 849
45.70256 936
45.72267 991
45.74278 1102
45.7629 1032
45.78301 885
45.80312 816
45.82324 713
45.84335 641
45.86346 628
45.88358 518
45.90369 439
45.92381 344
45.94392 286
45.96403 233
45.98415 190
46.00426 191
46.02437 170
46.04449 170
46.0646 169
46.08472 159
46.10483 177
46.12494 162
46.14506 156
46.16517 179
46.18528 160
46.2054 126
46.22551 144
46.24563 140
46.26574 146
46.28585 145
46.30597 152
46.32608 142
46.34619 127
46.36631 141
46.38642 126
46.40653 160
46.42665 143
46.44676 135
46.46688 146
46.48699 133
46.5071 120
46.52722 141
46.54733 119
46.56744 128
46.58756 136
46.60767 114
46.62779 153
46.6479 130
46.66801 140
46.68813 130
46.70824 138
46.72835 125
46.74847 119
46.76858 123
46.78869 116
46.80881 120
46.82892 130
46.84904 128
46.86915 137
46.88926 127
46.90938 143
46.92949 134
46.9496 134
46.96972 136
46.98983 141
47.00995 128
47.03006 137
47.05017 164
47.07029 142
47.0904 128
47.11051 137
47.13063 176
47.15074 146
47.17086 150
47.19097 138
47.21108 144
47.2312 152
47.25131 133
47.27142 145
47.29154 137
47.31165 144
47.33176 150
47.35188 138
47.37199 143
47.39211 131
47.41222 145
47.43233 160
47.45245 136
47.47256 150
47.49267 154
47.51279 126
47.5329 149
47.55302 144
47.57313 121
47.59324 132
47.61336 139
47.63347 134
47.65358 124
47.6737 138
47.69381 137
47.71393 122
47.73404 143
47.75415 116
47.77427 142
47.79438 149
47.81449 131
47.83461 130
47.85472 146
47.87483 118
47.89495 110
47.91506 140
47.93518 128
47.95529 121
47.9754 141
47.99552 136
48.01563 126
48.03574 145
48.05586 147
48.07597 137
48.09609 134
48.1162 143
48.13631 133
48.15643 126
48.17654 115
48.19665 144
48.21677 137
48.23688 142
48.257 145
48.27711 142
48.29722 152
48.31734 157
48.33745 166
48.35756 125
48.37768 116
48.39779 136
48.4179 135
48.43802 143
48.45813 127
48.47825 152
48.49836 137
48.51847 155
48.53859 129
48.5587 150
48.57881 134
48.59893 128
48.61904 157
48.63916 147
48.65927 157
48.67938 143
48.6995 149
48.71961 138
48.73972 143
48.75984 134
48.77995 132
48.80006 162
48.82018 134
48.84029 141
48.86041 148
48.88052 153
48.90063 181
48.92075 148
48.94086 153
48.96097 142
48.98109 151
49.0012 170
49.02132 178
49.04143 153
49.06154 159
49.08166 153
49.10177 142
49.12188 147
49.142 156
49.16211 156
49.18223 165
49.20234 127
49.22245 150
49.24257 155
49.26268 155
49.28279 141
49.30291 173
49.32302 144
49.34313 154
49.36325 148
49.38336 151
49.40348 146
49.42359 168
49.4437 172
49.46382 161
49.48393 163
49.50404 182
49.52416 174
49.54427 161
49.56439 192
49.5845 185
49.60461 194
49.62473 215
49.64484 217
49.66495 223
49.68507 257
49.70518 266
49.7253 249
49.74541 270
49.76552 315
49.78564 353
49.80575 397
49.82586 408
49.84598 464
49.86609 564
49.8862 609
49.90632 762
49.92643 903
49.94655 1081
49.96666 1427
49.98677 1716
50.00689 2056
50.027 2586
50.04711 3016
50.06723 3378
50.08734 3501
50.10746 3429
50.12757 2948
50.14768 2457
50.1678 2057
50.18791 1942
50.20802 1926
50.22814 1733
50.24825 1501
50.26837 1111
50.28848 866
50.30859 529
50.32871 424
50.34882 356
50.36893 331
50.38905 301
50.40916 289
50.42927 303
50.44939 322
50.4695 315
50.48962 319
50.50973 301
50.52984 331
50.54996 299
50.57007 285
50.59018 285
50.6103 267
50.63041 269
50.65053 248
50.67064 229
50.69075 215
50.71087 239
50.73098 222
50.75109 217
50.77121 195
50.79132 164
50.81143 185
50.83155 164
50.85166 145
50.87178 175
50.89189 156
50.912 151
50.93212 163
50.95223 169
50.97234 172
50.99246 145
51.01257 136
51.03269 148
51.0528 132
51.07291 135
51.09303 146
51.11314 149
51.13325 133
51.15337 143
51.17348 132
51.1936 144
51.21371 133
51.23382 137
51.25394 127
51.27405 141
51.29416 135
51.31428 131
51.33439 124
51.3545 127
51.37462 110
51.39473 129
51.41485 133
51.43496 124
51.45507 130
51.47519 156
51.4953 128
51.51541 133
51.53553 144
51.55564 136
51.57576 145
51.59587 140
51.61598 146
51.6361 139
51.65621 112
51.67632 115
51.69644 129
51.71655 122
51.73667 99
51.75678 123
51.77689 125
51.79701 133
51.81712 144
51.83723 113
51.85735 138
51.87746 110
51.89757 103
51.91769 116
51.9378 123
51.95792 126
51.97803 130
51.99814 124
52.01826 135
52.03837 104
52.05848 118
52.0786 126
52.09871 145
52.11883 144
52.13894 132
52.15905 119
52.17917 134
52.19928 145
52.21939 104
52.23951 124
52.25962 123
52.27974 124
52.29985 135
52.31996 106
52.34008 125
52.36019 135
52.3803 118
52.40042 129
52.42053 118
52.44064 127
52.46076 119
52.48087 124
52.50099 123
52.5211 112
52.54121 137
52.56133 134
52.58144 125
52.60155 128
52.62167 154
52.64178 153
52.6619 122
52.68201 136
52.70212 115
52.72224 148
52.74235 110
52.76246 138
52.78258 121
52.80269 131
52.8228 129
52.84292 129
52.86303 119
52.88315 142
52.90326 129
52.92337 124
52.94349 130
52.9636 124
52.98371 148
53.00383 128
53.02394 140
53.04406 133
53.06417 117
53.08428 128
53.1044 144
53.12451 118
53.14462 116
53.16474 127
53.18485 120
53.20497 111
53.22508 125
53.24519 123
53.26531 114
53.28542 119
53.30553 142
53.32565 119
53.34576 107
53.36587 141
53.38599 137
53.4061 132
53.42622 133
53.44633 133
53.46644 152
53.48656 125
53.50667 130
53.52678 139
53.5469 139
53.56701 144
53.58713 119
53.60724 110
53.62735 143
53.64747 140
53.66758 148
53.68769 155
53.70781 128
53.72792 122
53.74804 140
53.76815 131
53.78826 119
53.80838 147
53.82849 130
53.8486 122
53.86872 140
53.88883 138
53.90894 119
53.92906 139
53.94917 137
53.96929 140
53.9894 134
54.00951 150
54.02963 150
54.04974 159
54.06985 147
54.08997 128
54.11008 130
54.1302 171
54.15031 165
54.17042 158
54.19054 127
54.21065 140
54.23076 161
54.25088 161
54.27099 161
54.29111 135
54.31122 170
54.33133 165
54.35145 160
54.37156 140
54.39167 153
54.41179 160
54.4319 161
54.45201 164
54.47213 188
54.49224 185
54.51236 208
54.53247 204
54.55258 212
54.5727 227
54.59281 260
54.61292 276
54.63304 308
54.65315 322
54.67327 396
54.69338 488
54.71349 547
54.73361 679
54.75372 783
54.77383 923
54.79395 1042
54.81406 1108
54.83417 1042
54.85429 896
54.8744 768
54.89452 674
54.91463 596
54.93474 606
54.95486 628
54.97497 640
54.99508 526
55.0152 436
55.03531 408
55.05543 295
55.07554 279
55.09565 265
55.11577 290
55.13588 300
55.15599 314
55.17611 349
55.19622 389
55.21634 422
55.23645 484
55.25656 516
55.27668 527
55.29679 511
55.3169 443
55.33702 407
55.35713 371
55.37724 329
55.39736 330
55.41747 327
55.43759 313
55.4577 275
55.47781 258
55.49793 214
55.51804 185
55.53815 171
55.55827 157
55.57838 151
55.5985 163
55.61861 152
55.63872 158
55.65884 145
55.67895 145
55.69906 148
55.71918 146
55.73929 146
55.75941 133
55.77952 139
55.79963 129
55.81975 151
55.83986 119
55.85997 125
55.88009 119
55.9002 142
55.92031 126
55.94043 113
55.96054 124
55.98066 134
56.00077 136
56.02088 138
56.041 120
56.06111 129
56.08122 120
56.10134 123
56.12145 128
56.14157 137
56.16168 124
56.18179 132
56.20191 128
56.22202 121
56.24213 109
56.26225 136
56.28236 141
56.30248 127
56.32259 101
56.3427 145
56.36282 104
56.38293 107
56.40304 103
56.42316 121
56.44327 125
56.46338 111
56.4835 126
56.50361 133
56.52373 123
56.54384 134
56.56395 130
56.58407 124
56.60418 117
56.62429 136
56.64441 126
56.66452 127
56.68464 105
56.70475 126
56.72486 146
56.74498 133
56.76509 134
56.7852 141
56.80532 138
56.82543 141
56.84554 118
56.86566 124
56.88577 107
56.90589 139
56.926 119
56.94611 112
56.96623 118
56.98634 130
57.00645 135
57.02657 130
57.04668 133
57.0668 132
57.08691 158
57.10702 147
57.12714 168
57.14725 179
57.16736 178
57.18748 201
57.20759 192
57.22771 174
57.24782 148
57.26793 135
57.28805 162
57.30816 134
57.32827 137
57.34839 147
57.3685 129
57.38861 155
57.40873 128
57.42884 140
57.44896 119
57.46907 133
57.48918 111
57.5093 142
57.52941 131
57.54952 127
57.56964 120
57.58975 120
57.60987 131
57.62998 126
57.65009 116
57.67021 101
57.69032 135
57.71043 114
57.73055 122
57.75066 128
57.77078 144
57.79089 134
57.811 118
57.83112 119
57.85123 119
57.87134 108
57.89146 132
57.91157 134
57.93168 106
57.9518 121
57.97191 112
57.99203 146
58.01214 117
58.03225 130
58.05237 131
58.07248 128
58.09259 117
58.11271 132
58.13282 130
58.15294 128
58.17305 116
58.19316 124
58.21328 120
58.23339 133
58.2535 145
58.27362 125
58.29373 126
58.31385 114
58.33396 121
58.35407 154
58.37419 130
58.3943 121
58.41441 141
58.43453 141
58.45464 140
58.47475 135
58.49487 142
58.51498 149
58.5351 148
58.55521 142
58.57532 110
58.59544 159
58.61555 159
58.63566 125
58.65578 146
58.67589 130
58.69601 140
58.71612 113
58.73623 136
58.75635 145
58.77646 127
58.79657 138
58.81669 130
58.8368 122
58.85691 122
58.87703 143
58.89714 112
58.91726 110
58.93737 143
58.95748 125
58.9776 148
58.99771 142
59.01782 131
59.03794 138
59.05805 127
59.07817 115
59.09828 146
59.11839 114
59.13851 147
59.15862 128
59.17873 107
59.19885 127
59.21896 130
59.23908 139
59.25919 149
59.2793 133
59.29942 168
59.31953 160
59.33964 183
59.35976 174
59.37987 165
59.39998 165
59.4201 179
59.44021 175
59.46033 186
59.48044 209
59.50055 200
59.52067 188
59.54078 203
59.56089 258
59.58101 246
59.60112 318
59.62124 312
59.64135 376
59.66146 400
59.68158 399
59.70169 479
59.7218 590
59.74192 726
59.76203 845
59.78215 1030
59.80226 1266
59.82237 1463
59.84249 1696
59.8626 2000
59.88271 2151
59.90283 2253
59.92294 2058
59.94305 1805
59.96317 1548
59.98328 1187
60.0034 1122
60.02351 1211
60.04362 1223
60.06374 1129
60.08385 960
60.10396 910
60.12408 680
60.14419 480
60.16431 329
60.18442 314
60.20453 236
60.22465 215
60.24476 226
60.26487 185
60.28499 169
60.3051 186
60.32522 166
60.34533 154
60.36544 154
60.38556 142
60.40567 166
60.42578 153
60.4459 170
60.46601 137
60.48612 137
60.50624 144
60.52635 128
60.54647 164
60.56658 157
60.58669 136
60.60681 146
60.62692 128
60.64703 124
60.66715 124
60.68726 128
60.70738 150
60.72749 146
60.7476 134
60.76772 124
60.78783 125
60.80794 120
60.82806 152
60.84817 125
60.86828 152
60.8884 133
60.90851 131
60.92863 118
60.94874 117
60.96885 156
60.98897 139
61.00908 139
61.02919 155
61.04931 127
61.06942 146
61.08954 151
61.10965 129
61.12976 141
61.14988 149
61.16999 139
61.1901 118
61.21022 132
61.23033 161
61.25045 122
61.27056 138
61.29067 125
61.31079 143
61.3309 135
61.35101 141
61.37113 129
61.39124 125
61.41135 122
61.43147 120
61.45158 127
61.4717 123
61.49181 127
61.51192 117
61.53204 119
61.55215 137
61.57226 125
61.59238 130
61.61249 115
61.63261 136
61.65272 135
61.67283 135
61.69295 125
61.71306 124
61.73317 136
61.75329 121
61.7734 142
61.79352 131
61.81363 120
61.83374 144
61.85386 128
61.87397 140
61.89408 148
61.9142 161
61.93431 122
61.95442 143
61.97454 158
61.99465 144
62.01477 151
62.03488 125
62.05499 141
62.07511 141
62.09522 138
62.11533 143
62.13545 114
62.15556 131
62.17568 150
62.19579 136
62.2159 120
62.23602 146
62.25613 144
62.27624 127
62.29636 140
62.31647 147
62.33659 140
62.3567 146
62.37681 129
62.39693 147
62.41704 145
62.43715 127
62.45727 130
62.47738 134
62.49749 124
62.51761 135
62.53772 133
62.55784 138
62.57795 113
62.59806 136
62.61818 139
62.63829 129
62.6584 146
62.67852 123
62.69863 124
62.71875 121
62.73886 126
62.75897 113
62.77909 127
62.7992 128
62.81931 124
62.83943 147
62.85954 145
62.87965 173
62.89977 155
62.91988 118
62.94 141
62.96011 149
62.98022 145
63.00034 133
63.02045 139
63.04056 132
63.06068 117
63.08079 111
63.10091 143
63.12102 138
63.14113 130
63.16125 142
63.18136 120
63.20147 159
63.22159 123
63.2417 135
63.26182 131
63.28193 111
63.30204 132
63.32216 144
63.34227 105
63.36238 118
63.3825 129
63.40261 111
63.42272 124
63.44284 142
63.46295 117
63.48307 119
63.50318 130
63.52329 127
63.54341 149
63.56352 135
63.58363 165
63.60375 138
63.62386 157
63.64398 148
63.66409 167
63.6842 152
63.70432 192
63.72443 167
63.74454 178
63.76466 185
63.78477 201
63.80489 218
63.825 261
63.84511 269
63.86523 309
63.88534 306
63.90545 405
63.92557 431
63.94568 481
63.96579 493
63.98591 464
64.00602 444
64.02614 401
64.04625 335
64.06636 321
64.08648 301
64.10659 333
64.1267 301
64.14682 312
64.16693 324
64.18705 294
64.20716 246
64.22727 215
64.24739 170
64.2675 157
64.28761 146
64.30773 143
64.32784 137
64.34796 150
64.36807 140
64.38818 120
64.4083 146
64.42841 140
64.44852 128
64.46864 122
64.48875 135
64.50886 132
64.52898 110
64.54909 130
64.56921 126
64.58932 107
64.60943 134
64.62955 93
64.64966 126
64.66977 105
64.68989 95
64.71 109
64.73012 131
64.75023 131
64.77034 117
64.79046 126
64.81057 124
64.83068 147
64.8508 101
64.87091 123
64.89102 127
64.91114 123
64.93125 100
64.95137 124
64.97148 117
64.99159 129
65.01171 136
65.03182 103
65.05193 124
65.07205 124
65.09216 116
65.11228 125
65.13239 124
65.1525 137
65.17262 131
65.19273 133
65.21284 126
65.23296 115
65.25307 142
65.27319 131
65.2933 130
65.31341 145
65.33353 137
65.35364 150
65.37375 128
65.39387 117
65.41398 138
65.43409 130
65.45421 139
65.47432 135
65.49444 135
65.51455 154
65.53466 145
65.55478 147
65.57489 154
65.595 167
65.61512 147
65.63523 156
65.65535 167
65.67546 199
65.69557 213
65.71569 236
65.7358 207
65.75591 173
65.77603 177
65.79614 171
65.81626 141
65.83637 146
65.85648 160
65.8766 154
65.89671 192
65.91682 169
65.93694 156
65.95705 162
65.97716 158
65.99728 122
66.01739 129
66.03751 114
66.05762 138
66.07773 107
66.09785 141
66.11796 129
66.13807 129
66.15819 136
66.1783 146
66.19842 125
66.21853 132
66.23864 114
66.25876 138
66.27887 121
66.29898 142
66.3191 151
66.33921 114
66.35933 153
66.37944 129
66.39955 114
66.41967 121
66.43978 113
66.45989 130
66.48001 136
66.50012 143
66.52023 147
66.54035 156
66.56046 131
66.58058 153
66.60069 113
66.6208 138
66.64092 114
66.66103 134
66.68114 118
66.70126 158
66.72137 151
66.74149 148
66.7616 119
66.78171 140
66.80183 131
66.82194 133
66.84205 125
66.86217 134
66.88228 140
66.90239 150
66.92251 116
66.94262 128
66.96274 133
66.98285 123
67.00296 134
67.02308 140
67.04319 131
67.0633 157
67.08342 143
67.10353 169
67.12365 153
67.14376 141
67.16387 151
67.18399 169
67.2041 179
67.22421 189
67.24433 189
67.26444 178
67.28456 168
67.30467 193
67.32478 193
67.3449 209
67.36501 226
67.38512 229
67.40524 257
67.42535 300
67.44546 335
67.46558 351
67.48569 391
67.50581 487
67.52592 524
67.54603 567
67.56615 686
67.58626 793
67.60637 888
67.62649 1095
67.6466 1250
67.66672 1281
67.68683 1318
67.70694 1213
67.72706 1082
67.74717 957
67.76728 845
67.7874 767
67.80751 770
67.82763 885
67.84774 868
67.86785 1002
67.88797 985
67.90808 977
67.92819 951
67.94831 998
67.96842 981
67.98853 1086
68.00865 1280
68.02876 1395
68.04888 1600
68.06899 1635
68.0891 1719
68.10922 1714
68.12933 1609
68.14944 1451
68.16956 1430
68.18967 1410
68.20979 1501
68.2299 1549
68.25001 1633
68.27013 1547
68.29024 1384
68.31035 1275
68.33047 978
68.35058 799
68.3707 657
68.39081 628
68.41092 644
68.43104 587
68.45115 585
68.47126 510
68.49138 474
68.51149 371
68.5316 318
68.55172 254
68.57183 224
68.59195 200
68.61206 204
68.63217 171
68.65229 167
68.6724 153
68.69251 158
68.71263 168
68.73274 186
68.75286 141
68.77297 171
68.79308 160
68.8132 156
68.83331 150
68.85342 154
68.87354 133
68.89365 155
68.91376 132
68.93388 127
68.95399 131
68.97411 137
68.99422 138
69.01433 133
69.03445 136
69.05456 143
69.07467 126
69.09479 120
69.1149 137
69.13502 138
69.15513 128
69.17524 127
69.19536 110
69.21547 124
69.23558 111
69.2557 139
69.27581 129
69.29593 130
69.31604 128
69.33615 107
69.35627 134
69.37638 137
69.39649 126
69.41661 111
69.43672 125
69.45683 123
69.47695 131
69.49706 125
69.51718 119
69.53729 107
69.5574 107
69.57752 122
69.59763 124
69.61774 103
69.63786 109
69.65797 117
69.67809 132
69.6982 119
69.71831 119
69.73843 101
69.75854 99
69.77865 105
69.79877 120
69.81888 127
69.839 128
69.85911 106
69.87922 105
69.89934 126
69.91945 135
69.93956 123
69.95968 117
69.97979 115
69.9999 115
70.02002 127
70.04013 107
70.06025 112
70.08036 115
70.10047 104
70.12059 132
70.1407 105
70.16081 114
70.18093 101
70.20104 110
70.22116 114
70.24127 111
70.26138 116
70.2815 120
70.30161 115
70.32172 102
70.34184 120
70.36195 116
70.38207 113
70.40218 131
70.42229 118
70.44241 111
70.46252 129
70.48263 117
70.50275 137
70.52286 102
70.54297 121
70.56309 113
70.5832 129
70.60332 123
70.62343 116
70.64354 122
70.66366 123
70.68377 111
70.70388 114
70.724 117
70.74411 119
70.76423 112
70.78434 125
70.80445 121
70.82457 121
70.84468 103
70.86479 121
70.88491 124
70.90502 108
70.92513 106
70.94525 118
70.96536 122
70.98548 108
71.00559 109
71.0257 114
71.04582 119
71.06593 117
71.08604 125
71.10616 112
71.12627 117
71.14639 100
71.1665 117
71.18661 113
71.20673 122
71.22684 103
71.24695 109
71.26707 110
71.28718 113
71.3073 115
71.32741 92
71.34752 121
71.36764 103
71.38775 97
71.40786 116
71.42798 112
71.44809 130
71.4682 115
71.48832 124
71.50843 115
71.52855 120
71.54866 115
71.56877 114
71.58889 131
71.609 115
71.62911 127
71.64923 97
71.66934 107
71.68946 102
71.70957 130
71.72968 100
71.7498 115
71.76991 105
71.79002 109
71.81014 116
71.83025 135
71.85037 113
71.87048 130
71.89059 106
71.91071 113
71.93082 126
71.95093 123
71.97105 107
71.99116 118
72.01127 98
72.03139 111
72.0515 136
72.07162 139
72.09173 114
72.11184 132
72.13196 113
72.15207 122
72.17218 106
72.1923 130
72.21241 113
72.23253 128
72.25264 130
72.27275 112
72.29287 136
72.31298 128
72.33309 103
72.35321 108
72.37332 113
72.39344 97
72.41355 120
72.43366 115
72.45378 123
72.47389 128
72.494 117
72.51412 106
72.53423 107
72.55434 115
72.57446 120
72.59457 90
72.61469 112
72.6348 117
72.65491 118
72.67503 124
72.69514 119
72.71525 109
72.73537 94
72.75548 123
72.7756 108
72.79571 112
72.81582 130
72.83594 125
72.85605 113
72.87616 116
72.89628 119
72.91639 130
72.9365 152
72.95662 120
72.97673 124
72.99685 123
73.01696 166
73.03707 147
73.05719 140
73.0773 133
73.09741 151
73.11753 156
73.13764 158
73.15776 172
73.17787 170
73.19798 194
73.2181 209
73.23821 197
73.25832 278
73.27844 280
73.29855 305
73.31867 370
73.33878 406
73.35889 469
73.37901 460
73.39912 550
73.41923 479
73.43935 449
73.45946 434
73.47957 344
73.49969 292
73.5198 266
73.53992 285
73.56003 276
73.58014 271
73.60026 309
73.62037 299
73.64048 298
73.6606 280
73.68071 223
73.70083 210
73.72094 194
73.74105 151
73.76117 124
73.78128 160
73.80139 118
73.82151 124
73.84162 142
73.86174 119
73.88185 141
73.90196 129
73.92208 133
73.94219 117
73.9623 127
73.98242 131
74.00253 112
74.02264 115
74.04276 131
74.06287 108
74.08299 119
74.1031 106
74.12321 118
74.14333 125
74.16344 110
74.18355 104
74.20367 122
74.22378 121
74.2439 116
74.26401 98
74.28412 105
74.30424 115
74.32435 107
74.34446 100
74.36458 110
74.38469 115
74.40481 122
74.42492 127
74.44503 104
74.46515 115
74.48526 132
74.50537 117
74.52549 127
74.5456 77
74.56571 111
74.58583 120
74.60594 124
74.62606 111
74.64617 120
74.66628 101
74.6864 132
74.70651 110
74.72662 125
74.74674 122
74.76685 125
74.78697 115
74.80708 128
74.82719 138
74.84731 120
74.86742 122
74.88753 122
74.90765 131
74.92776 110
74.94787 112
74.96799 130
74.9881 133
75.00822 109
