3.00117 20133
3.02128 19723
3.0414 19004
3.06151 18651
3.08162 17937
3.10174 17534
3.12185 17269
3.14197 16399
3.16208 15802
3.18219 15848
3.20231 14843
3.22242 14659
3.24253 14049
3.26265 13708
3.28276 13381
3.30288 12776
3.32299 12473
3.3431 12088
3.36322 11761
3.38333 11364
3.40344 10916
3.42356 10864
3.44367 10027
3.46379 9700
3.4839 9369
3.50401 9200
3.52413 8833
3.54424 8607
3.56435 8129
3.58447 7850
3.60458 7398
3.62469 7514
3.64481 7153
3.66492 6883
3.68504 6468
3.70515 6076
3.72526 5999
3.74538 5768
3.76549 5367
3.7856 5388
3.80572 4932
3.82583 4916
3.84595 4654
3.86606 4401
3.88617 4198
3.90629 3889
3.9264 4067
3.94651 3728
3.96663 3601
3.98674 3371
4.00686 3187
4.02697 3167
4.04708 3002
4.0672 2828
4.08731 2654
4.10742 2509
4.12754 2364
4.14765 2494
4.16776 2146
4.18788 2160
4.20799 2021
4.22811 2030
4.24822 1965
4.26833 1841
4.28845 1840
4.30856 1666
4.32867 1738
4.34879 1731
4.3689 1538
4.38902 1526
4.40913 1460
4.42924 1418
4.44936 1384
4.46947 1319
4.48958 1290
4.5097 1237
4.52981 1259
4.54992 1259
4.57004 1136
4.59015 1233
4.61027 1165
4.63038 1159
4.65049 1131
4.67061 982
4.69072 1042
4.71083 942
4.73095 938
4.75106 1006
4.77118 874
4.79129 873
4.8114 862
4.83152 864
4.85163 853
4.87174 751
4.89186 781
4.91197 738
4.93209 780
4.9522 746
4.97231 667
4.99243 739
5.01254 725
5.03265 694
5.05277 655
5.07288 630
5.09299 619
5.11311 618
5.13322 633
5.15334 591
5.17345 541
5.19356 538
5.21368 566
5.23379 509
5.2539 512
5.27402 446
5.29413 497
5.31425 488
5.33436 456
5.35447 470
5.37459 449
5.3947 422
5.41481 436
5.43493 434
5.45504 451
5.47516 413
5.49527 387
5.51538 412
5.5355 363
5.55561 366
5.57572 329
5.59584 374
5.61595 359
5.63606 334
5.65618 365
5.67629 307
5.69641 307
5.71652 313
5.73663 342
5.75675 281
5.77686 284
5.79697 299
5.81709 302
5.8372 284
5.85732 236
5.87743 252
5.89754 241
5.91766 272
5.93777 302
5.95788 274
5.978 258
5.99811 245
6.01823 251
6.03834 230
6.05845 255
6.07857 219
6.09868 230
6.11879 229
6.13891 251
6.15902 242
6.17913 210
6.19925 217
6.21936 237
6.23948 233
6.25959 248
6.2797 231
6.29982 230
6.31993 223
6.34004 234
6.36016 220
6.38027 224
6.40039 207
6.4205 234
6.44061 218
6.46073 231
6.48084 219
6.50095 228
6.52107 230
6.54118 242
6.56129 223
6.58141 244
6.60152 187
6.62164 235
6.64175 198
6.66186 219
6.68198 167
6.70209 204
6.7222 195
6.74232 194
6.76243 224
6.78255 203
6.80266 197
6.82277 175
6.84289 206
6.863 211
6.88311 203
6.90323 222
6.92334 215
6.94346 180
6.96357 196
6.98368 193
7.0038 194
7.02391 196
7.04402 182
7.06414 204
7.08425 211
7.10436 182
7.12448 198
7.14459 175
7.16471 187
7.18482 203
7.20493 207
7.22505 189
7.24516 213
7.26527 197
7.28539 224
7.3055 209
7.32562 201
7.34573 178
7.36584 206
7.38596 178
7.40607 207
7.42618 208
7.4463 192
7.46641 223
7.48653 193
7.50664 212
7.52675 214
7.54687 224
7.56698 192
7.58709 199
7.60721 186
7.62732 204
7.64743 187
7.66755 198
7.68766 222
7.70778 204
7.72789 191
7.748 212
7.76812 249
7.78823 201
7.80834 183
7.82846 205
7.84857 222
7.86869 226
7.8888 195
7.90891 220
7.92903 225
7.94914 239
7.96925 230
7.98937 218
8.00948 221
8.0296 187
8.04971 218
8.06982 219
8.08994 239
8.11005 201
8.13016 222
8.15028 228
8.17039 198
8.1905 230
8.21062 216
8.23073 195
8.25085 224
8.27096 247
8.29107 206
8.31119 200
8.3313 190
8.35141 206
8.37153 201
8.39164 218
8.41176 206
8.43187 228
8.45198 234
8.4721 233
8.49221 226
8.51232 249
8.53244 221
8.55255 218
8.57266 226
8.59278 222
8.61289 174
8.63301 206
8.65312 240
8.67323 248
8.69335 219
8.71346 238
8.73357 214
8.75369 242
8.7738 215
8.79392 248
8.81403 210
8.83414 230
8.85426 237
8.87437 274
8.89448 215
8.9146 251
8.93471 197
8.95483 225
8.97494 243
8.99505 207
9.01517 223
9.03528 235
9.05539 231
9.07551 237
9.09562 227
9.11573 215
9.13585 187
9.15596 223
9.17608 232
9.19619 209
9.2163 241
9.23642 217
9.25653 218
9.27664 241
9.29676 244
9.31687 231
9.33699 243
9.3571 246
9.37721 230
9.39733 253
9.41744 242
9.43755 211
9.45767 228
9.47778 222
9.4979 228
9.51801 235
9.53812 244
9.55824 214
9.57835 225
9.59846 220
9.61858 201
9.63869 267
9.6588 263
9.67892 237
9.69903 267
9.71915 255
9.73926 218
9.75937 233
9.77949 194
9.7996 238
9.81971 237
9.83983 235
9.85994 234
9.88006 216
9.90017 216
9.92028 225
9.9404 244
9.96051 240
9.98062 221
10.00074 236
10.02085 226
10.04097 239
10.06108 233
10.08119 223
10.10131 248
10.12142 246
10.14153 198
10.16165 206
10.18176 231
10.20187 229
10.22199 206
10.2421 213
10.26222 208
10.28233 240
10.30244 224
10.32256 267
10.34267 244
10.36278 252
10.3829 205
10.40301 232
10.42313 225
10.44324 251
10.46335 231
10.48347 217
10.50358 249
10.52369 244
10.54381 203
10.56392 221
10.58403 210
10.60415 214
10.62426 203
10.64438 219
10.66449 229
10.6846 198
10.70472 259
10.72483 232
10.74494 245
10.76506 241
10.78517 228
10.80529 237
10.8254 253
10.84551 280
10.86563 249
10.88574 224
10.90585 242
10.92597 247
10.94608 219
10.9662 215
10.98631 195
11.00642 221
11.02654 237
11.04665 191
11.06676 227
11.08688 251
11.10699 228
11.1271 233
11.14722 209
11.16733 221
11.18745 241
11.20756 228
11.22767 257
11.24779 217
11.2679 236
11.28801 225
11.30813 217
11.32824 243
11.34836 239
11.36847 249
11.38858 216
11.4087 207
11.42881 207
11.44892 229
11.46904 223
11.48915 221
11.50927 228
11.52938 214
11.54949 233
11.56961 247
11.58972 218
11.60983 250
11.62995 258
11.65006 250
11.67017 254
11.69029 246
11.7104 236
11.73052 243
11.75063 259
11.77074 266
11.79086 265
11.81097 261
11.83108 247
11.8512 272
11.87131 290
11.89143 306
11.91154 271
11.93165 255
11.95177 298
11.97188 292
11.99199 316
12.01211 274
12.03222 350
12.05234 304
12.07245 330
12.09256 335
12.11268 374
12.13279 335
12.1529 383
12.17302 405
12.19313 400
12.21324 429
12.23336 438
12.25347 438
12.27359 445
12.2937 470
12.31381 533
12.33393 482
12.35404 443
12.37415 456
12.39427 396
12.41438 412
12.4345 355
12.45461 384
12.47472 333
12.49484 366
12.51495 322
12.53506 288
12.55518 303
12.57529 313
12.5954 308
12.61552 273
12.63563 267
12.65575 213
12.67586 251
12.69597 249
12.71609 262
12.7362 252
12.75631 278
12.77643 242
12.79654 263
12.81666 245
12.83677 246
12.85688 246
12.877 222
12.89711 230
12.91722 218
12.93734 234
12.95745 222
12.97757 180
12.99768 202
13.01779 230
13.03791 235
13.05802 213
13.07813 232
13.09825 203
13.11836 230
13.13847 214
13.15859 232
13.1787 191
13.19882 218
13.21893 215
13.23904 208
13.25916 234
13.27927 195
13.29938 225
13.3195 195
13.33961 208
13.35973 219
13.37984 216
13.39995 231
13.42007 204
13.44018 211
13.46029 224
13.48041 201
13.50052 218
13.52064 205
13.54075 209
13.56086 238
13.58098 196
13.60109 177
13.6212 193
13.64132 202
13.66143 208
13.68154 190
13.70166 186
13.72177 185
13.74189 196
13.762 199
13.78211 199
13.80223 201
13.82234 182
13.84245 201
13.86257 220
13.88268 206
13.9028 209
13.92291 189
13.94302 206
13.96314 187
13.98325 195
14.00336 214
14.02348 183
14.04359 191
14.06371 191
14.08382 207
14.10393 183
14.12405 184
14.14416 212
14.16427 177
14.18439 176
14.2045 189
14.22461 208
14.24473 213
14.26484 176
14.28496 217
14.30507 192
14.32518 182
14.3453 183
14.36541 201
14.38552 173
14.40564 220
14.42575 198
14.44587 189
14.46598 192
14.48609 200
14.50621 203
14.52632 177
14.54643 219
14.56655 190
14.58666 195
14.60677 210
14.62689 181
14.647 190
14.66712 178
14.68723 180
14.70734 208
14.72746 194
14.74757 193
14.76768 194
14.7878 192
14.80791 199
14.82803 210
14.84814 189
14.86825 189
14.88837 191
14.90848 189
14.92859 177
14.94871 175
14.96882 192
14.98894 202
15.00905 208
15.02916 176
15.04928 185
15.06939 166
15.0895 196
15.10962 183
15.12973 165
15.14984 189
15.16996 182
15.19007 182
15.21019 158
15.2303 183
15.25041 170
15.27053 169
15.29064 183
15.31075 196
15.33087 166
15.35098 188
15.3711 177
15.39121 186
15.41132 180
15.43144 175
15.45155 171
15.47166 195
15.49178 180
15.51189 191
15.53201 194
15.55212 165
15.57223 195
15.59235 190
15.61246 177
15.63257 195
15.65269 170
15.6728 186
15.69291 193
15.71303 183
15.73314 170
15.75326 194
15.77337 189
15.79348 196
15.8136 191
15.83371 198
15.85382 209
15.87394 163
15.89405 176
15.91417 195
15.93428 166
15.95439 201
15.97451 195
15.99462 166
16.01473 162
16.03485 183
16.05496 203
16.07508 194
16.09519 184
16.1153 206
16.13542 178
16.15553 187
16.17564 161
16.19576 166
16.21587 187
16.23598 187
16.2561 195
16.27621 167
16.29633 169
16.31644 169
16.33655 178
16.35667 177
16.37678 153
16.39689 183
16.41701 189
16.43712 173
16.45724 164
16.47735 169
16.49746 175
16.51758 170
16.53769 163
16.5578 151
16.57792 149
16.59803 174
16.61814 162
16.63826 174
16.65837 178
16.67849 157
16.6986 171
16.71871 165
16.73883 149
16.75894 174
16.77905 157
16.79917 197
16.81928 182
16.8394 170
16.85951 150
16.87962 173
16.89974 178
16.91985 187
16.93996 169
16.96008 162
16.98019 190
17.00031 180
17.02042 175
17.04053 180
17.06065 198
17.08076 155
17.10087 176
17.12099 165
17.1411 172
17.16121 170
17.18133 165
17.20144 174
17.22156 154
17.24167 161
17.26178 180
17.2819 161
17.30201 197
17.32212 161
17.34224 176
17.36235 182
17.38247 192
17.40258 165
17.42269 179
17.44281 188
17.46292 180
17.48303 151
17.50315 162
17.52326 171
17.54338 174
17.56349 184
17.5836 178
17.60372 168
17.62383 154
17.64394 187
17.66406 200
17.68417 189
17.70428 176
17.7244 146
17.74451 175
17.76463 175
17.78474 161
17.80485 165
17.82497 180
17.84508 164
17.86519 174
17.88531 182
17.90542 172
17.92554 166
17.94565 171
17.96576 174
17.98588 170
18.00599 182
18.0261 169
18.04622 187
18.06633 155
18.08645 170
18.10656 163
18.12667 174
18.14679 165
18.1669 185
18.18701 175
18.20713 169
18.22724 205
18.24735 181
18.26747 174
18.28758 173
18.3077 178
18.32781 163
18.34792 173
18.36804 192
18.38815 160
18.40826 185
18.42838 151
18.44849 175
18.46861 150
18.48872 172
18.50883 170
18.52895 180
18.54906 160
18.56917 166
18.58929 173
18.6094 157
18.62951 159
18.64963 170
18.66974 185
18.68986 167
18.70997 178
18.73008 199
18.7502 188
18.77031 171
18.79042 210
18.81054 167
18.83065 180
18.85077 172
18.87088 205
18.89099 168
18.91111 184
18.93122 194
18.95133 167
18.97145 187
18.99156 170
19.01168 173
19.03179 208
19.0519 179
19.07202 173
19.09213 170
19.11224 179
19.13236 184
19.15247 177
19.17258 166
19.1927 202
19.21281 168
19.23293 175
19.25304 164
19.27315 192
19.29327 164
19.31338 203
19.33349 178
19.35361 184
19.37372 187
19.39384 154
19.41395 212
19.43406 204
19.45418 177
19.47429 200
19.4944 216
19.51452 202
19.53463 192
19.55475 239
19.57486 227
19.59497 220
19.61509 198
19.6352 268
19.65531 229
19.67543 241
19.69554 244
19.71565 248
19.73577 257
19.75588 278
19.776 327
19.79611 346
19.81622 332
19.83634 341
19.85645 368
19.87656 369
19.89668 367
19.91679 388
19.93691 360
19.95702 383
19.97713 364
19.99725 362
20.01736 328
20.03747 362
20.05759 371
20.0777 358
20.09782 354
20.11793 405
20.13804 335
20.15816 346
20.17827 398
20.19838 375
20.2185 391
20.23861 389
20.25872 405
20.27884 410
20.29895 364
20.31907 400
20.33918 382
20.35929 416
20.37941 429
20.39952 416
20.41963 431
20.43975 407
20.45986 436
20.47998 452
20.50009 495
20.5202 481
20.54032 488
20.56043 578
20.58054 583
20.60066 634
20.62077 751
20.64088 921
20.661 1121
20.68111 1412
20.70123 1834
20.72134 2493
20.74145 3367
20.76157 4391
20.78168 5407
20.80179 6473
20.82191 6914
20.84202 7030
20.86214 6544
20.88225 5186
20.90236 3753
20.92248 2668
20.94259 1736
20.9627 1159
20.98282 819
21.00293 654
21.02305 590
21.04316 552
21.06327 483
21.08339 525
21.1035 461
21.12361 434
21.14373 428
21.16384 409
21.18395 429
21.20407 396
21.22418 374
21.2443 404
21.26441 395
21.28452 371
21.30464 355
21.32475 357
21.34486 335
21.36498 308
21.38509 318
21.40521 363
21.42532 342
21.44543 309
21.46555 308
21.48566 277
21.50577 302
21.52589 305
21.546 299
21.56612 302
21.58623 295
21.60634 285
21.62646 298
21.64657 304
21.66668 309
21.6868 283
21.70691 279
21.72702 282
21.74714 293
21.76725 265
21.78737 272
21.80748 267
21.82759 281
21.84771 277
21.86782 259
21.88793 280
21.90805 246
21.92816 260
21.94828 288
21.96839 277
21.9885 243
22.00862 286
22.02873 255
22.04884 237
22.06896 257
22.08907 267
22.10919 270
22.1293 233
22.14941 251
22.16953 249
22.18964 238
22.20975 253
22.22987 240
22.24998 247
22.27009 240
22.29021 273
22.31032 241
22.33044 254
22.35055 265
22.37066 250
22.39078 231
22.41089 213
22.431 262
22.45112 239
22.47123 229
22.49135 243
22.51146 252
22.53157 241
22.55169 221
22.5718 236
22.59191 245
22.61203 246
22.63214 233
22.65225 239
22.67237 245
22.69248 227
22.7126 248
22.73271 247
22.75282 255
22.77294 245
22.79305 232
22.81316 242
22.83328 218
22.85339 247
22.87351 253
22.89362 232
22.91373 229
22.93385 252
22.95396 237
22.97407 217
22.99419 206
23.0143 229
23.03442 239
23.05453 221
23.07464 238
23.09476 235
23.11487 216
23.13498 240
23.1551 216
23.17521 237
23.19532 236
23.21544 225
23.23555 215
23.25567 230
23.27578 217
23.29589 207
23.31601 198
23.33612 241
23.35623 242
23.37635 240
23.39646 225
23.41658 220
23.43669 194
23.4568 220
23.47692 225
23.49703 229
23.51714 219
23.53726 222
23.55737 204
23.57749 235
23.5976 233
23.61771 233
23.63783 232
23.65794 217
23.67805 216
23.69817 246
23.71828 235
23.73839 228
23.75851 211
23.77862 243
23.79874 283
23.81885 251
23.83896 262
23.85908 285
23.87919 281
23.8993 271
23.91942 272
23.93953 303
23.95965 272
23.97976 322
23.99987 287
24.01999 281
24.0401 254
24.06021 246
24.08033 265
24.10044 254
24.12056 233
24.14067 230
24.16078 251
24.1809 241
24.20101 245
24.22112 247
24.24124 215
24.26135 275
24.28146 251
24.30158 237
24.32169 261
24.34181 261
24.36192 251
24.38203 271
24.40215 248
24.42226 289
24.44237 275
24.46249 271
24.4826 290
24.50272 296
24.52283 268
24.54294 280
24.56306 298
24.58317 288
24.60328 304
24.6234 317
24.64351 343
24.66362 320
24.68374 339
24.70385 352
24.72397 386
24.74408 369
24.76419 385
24.78431 396
24.80442 341
24.82453 373
24.84465 409
24.86476 367
24.88488 388
24.90499 371
24.9251 341
24.94522 333
24.96533 309
24.98544 306
25.00556 315
25.02567 277
25.04579 297
25.0659 273
25.08601 291
25.10613 305
25.12624 281
25.14635 269
25.16647 305
25.18658 274
25.20669 270
25.22681 287
25.24692 259
25.26704 278
25.28715 255
25.30726 270
25.32738 251
25.34749 276
25.3676 264
25.38772 285
25.40783 286
25.42795 311
25.44806 287
25.46817 279
25.48829 279
25.5084 269
25.52851 283
25.54863 292
25.56874 306
25.58886 288
25.60897 349
25.62908 349
25.6492 339
25.66931 370
25.68942 388
25.70954 428
25.72965 460
25.74976 465
25.76988 426
25.78999 460
25.81011 443
25.83022 468
25.85033 426
25.87045 479
25.89056 447
25.91067 470
25.93079 490
25.9509 520
25.97102 596
25.99113 567
26.01124 550
26.03136 562
26.05147 624
26.07158 661
26.0917 630
26.11181 702
26.13193 778
26.15204 818
26.17215 863
26.19227 900
26.21238 961
26.23249 1044
26.25261 1154
26.27272 1268
26.29283 1300
26.31295 1560
26.33306 1703
26.35318 2049
26.37329 2471
26.3934 3150
26.41352 3971
26.43363 5069
26.45374 6778
26.47386 9146
26.49397 12197
26.51409 15836
26.5342 20314
26.55431 25271
26.57443 29104
26.59454 31677
26.61465 31476
26.63477 28716
26.65488 24084
26.67499 18586
26.69511 13482
26.71522 9333
26.73534 5998
26.75545 3734
26.77556 2618
26.79568 2032
26.81579 1611
26.8359 1497
26.85602 1401
26.87613 1198
26.89625 1107
26.91636 979
26.93647 888
26.95659 828
26.9767 769
26.99681 718
27.01693 631
27.03704 594
27.05716 580
27.07727 559
27.09738 487
27.1175 493
27.13761 489
27.15772 523
27.17784 429
27.19795 429
27.21806 434
27.23818 465
27.25829 407
27.27841 417
27.29852 434
27.31863 408
27.33875 389
27.35886 397
27.37897 414
27.39909 374
27.4192 375
27.43932 401
27.45943 371
27.47954 383
27.49966 383
27.51977 340
27.53988 342
27.56 341
27.58011 350
27.60023 316
27.62034 310
27.64045 327
27.66057 318
27.68068 303
27.70079 305
27.72091 327
27.74102 314
27.76113 324
27.78125 289
27.80136 290
27.82148 299
27.84159 271
27.8617 294
27.88182 290
27.90193 297
27.92204 338
27.94216 294
27.96227 307
27.98239 279
28.0025 286
28.02261 257
28.04273 289
28.06284 271
28.08295 285
28.10307 281
28.12318 306
28.1433 276
28.16341 295
28.18352 286
28.20364 259
28.22375 256
28.24386 263
28.26398 239
28.28409 269
28.3042 276
28.32432 263
28.34443 247
28.36455 250
28.38466 237
28.40477 253
28.42489 241
28.445 250
28.46511 266
28.48523 249
28.50534 246
28.52546 243
28.54557 252
28.56568 243
28.5858 289
28.60591 243
28.62602 276
28.64614 214
28.66625 278
28.68636 231
28.70648 252
28.72659 227
28.74671 246
28.76682 239
28.78693 252
28.80705 228
28.82716 248
28.84727 243
28.86739 230
28.8875 237
28.90762 236
28.92773 237
28.94784 227
28.96796 196
28.98807 255
29.00818 222
29.0283 224
29.04841 228
29.06853 221
29.08864 243
29.10875 258
29.12887 219
29.14898 220
29.16909 201
29.18921 223
29.20932 255
29.22943 230
29.24955 241
29.26966 232
29.28978 229
29.30989 200
29.33 239
29.35012 237
29.37023 222
29.39034 242
29.41046 250
29.43057 253
29.45069 236
29.4708 234
29.49091 239
29.51103 243
29.53114 209
29.55125 211
29.57137 199
29.59148 223
29.6116 228
29.63171 233
29.65182 226
29.67194 237
29.69205 191
29.71216 236
29.73228 209
29.75239 207
29.7725 227
29.79262 212
29.81273 229
29.83285 226
29.85296 199
29.87307 228
29.89319 232
29.9133 234
29.93341 221
29.95353 231
29.97364 186
29.99376 253
30.01387 246
30.03398 218
30.0541 209
30.07421 224
30.09432 190
30.11444 213
30.13455 210
30.15467 200
30.17478 207
30.19489 217
30.21501 237
30.23512 235
30.25523 209
30.27535 199
30.29546 205
30.31557 206
30.33569 209
30.3558 206
30.37592 206
30.39603 198
30.41614 214
30.43626 207
30.45637 228
30.47648 209
30.4966 181
30.51671 224
30.53683 210
30.55694 214
30.57705 209
30.59717 206
30.61728 195
30.63739 227
30.65751 230
30.67762 211
30.69773 211
30.71785 185
30.73796 214
30.75808 183
30.77819 195
30.7983 179
30.81842 204
30.83853 191
30.85864 189
30.87876 187
30.89887 210
30.91899 206
30.9391 209
30.95921 210
30.97933 174
30.99944 196
31.01955 178
31.03967 199
31.05978 207
31.0799 188
31.10001 220
31.12012 191
31.14024 200
31.16035 209
31.18046 194
31.20058 174
31.22069 180
31.2408 217
31.26092 184
31.28103 201
31.30115 194
31.32126 212
31.34137 202
31.36149 219
31.3816 189
31.40171 175
31.42183 184
31.44194 203
31.46206 180
31.48217 191
31.50228 188
31.5224 179
31.54251 179
31.56262 217
31.58274 171
31.60285 189
31.62297 183
31.64308 182
31.66319 194
31.68331 175
31.70342 177
31.72353 182
31.74365 159
31.76376 183
31.78387 177
31.80399 176
31.8241 160
31.84422 181
31.86433 192
31.88444 190
31.90456 185
31.92467 205
31.94478 164
31.9649 182
31.98501 162
32.00513 201
32.02524 175
32.04535 171
32.06547 172
32.08558 196
32.10569 192
32.12581 194
32.14592 190
32.16604 194
32.18615 191
32.20626 184
32.22638 163
32.24649 169
32.2666 203
32.28672 204
32.30683 217
32.32694 183
32.34706 179
32.36717 179
32.38729 185
32.4074 206
32.42751 191
32.44763 217
32.46774 181
32.48785 182
32.50797 194
32.52808 209
32.5482 209
32.56831 195
32.58842 235
32.60854 193
32.62865 205
32.64876 215
32.66888 175
32.68899 202
32.7091 206
32.72922 170
32.74933 176
32.76945 198
32.78956 205
32.80967 190
32.82979 188
32.8499 189
32.87001 175
32.89013 175
32.91024 195
32.93036 179
32.95047 199
32.97058 149
32.9907 192
33.01081 197
33.03092 181
33.05104 169
33.07115 186
33.09127 173
33.11138 172
33.13149 177
33.15161 175
33.17172 175
33.19183 170
33.21195 187
33.23206 183
33.25217 166
33.27229 197
33.2924 191
33.31252 183
33.33263 185
33.35274 211
33.37286 171
33.39297 200
33.41308 149
33.4332 155
33.45331 151
33.47343 191
33.49354 167
33.51365 159
33.53377 158
33.55388 199
33.57399 161
33.59411 161
33.61422 174
33.63434 139
33.65445 176
33.67456 168
33.69468 172
33.71479 163
33.7349 161
33.75502 191
33.77513 145
33.79524 152
33.81536 163
33.83547 176
33.85559 154
33.8757 157
33.89581 158
33.91593 157
33.93604 155
33.95615 156
33.97627 161
33.99638 159
34.0165 164
34.03661 186
34.05672 172
34.07684 169
34.09695 172
34.11706 155
34.13718 153
34.15729 163
34.17741 175
34.19752 183
34.21763 143
34.23775 155
34.25786 158
34.27797 132
34.29809 153
34.3182 142
34.33831 155
34.35843 171
34.37854 175
34.39866 144
34.41877 157
34.43888 155
34.459 168
34.47911 159
34.49922 165
34.51934 167
34.53945 166
34.55957 177
34.57968 177
34.59979 194
34.61991 180
34.64002 176
34.66013 189
34.68025 198
34.70036 227
34.72047 203
34.74059 205
34.7607 237
34.78082 221
34.80093 223
34.82104 222
34.84116 218
34.86127 233
34.88138 225
34.9015 260
34.92161 219
34.94173 260
34.96184 216
34.98195 257
35.00207 225
35.02218 258
35.04229 228
35.06241 222
35.08252 229
35.10264 222
35.12275 232
35.14286 201
35.16298 234
35.18309 236
35.2032 221
35.22332 221
35.24343 241
35.26354 229
35.28366 224
35.30377 234
35.32389 224
35.344 221
35.36411 225
35.38423 237
35.40434 235
35.42445 205
35.44457 247
35.46468 233
35.4848 249
35.50491 245
35.52502 225
35.54514 246
35.56525 241
35.58536 233
35.60548 192
35.62559 242
35.64571 238
35.66582 242
35.68593 228
35.70605 245
35.72616 251
35.74627 253
35.76639 264
35.7865 289
35.80661 238
35.82673 237
35.84684 230
35.86696 252
35.88707 265
35.90718 280
35.9273 275
35.94741 250
35.96752 270
35.98764 261
36.00775 313
36.02787 262
36.04798 258
36.06809 251
36.08821 258
36.10832 275
36.12843 284
36.14855 300
36.16866 307
36.18878 316
36.20889 331
36.229 364
36.24912 375
36.26923 412
36.28934 508
36.30946 519
36.32957 649
36.34968 792
36.3698 961
36.38991 1130
36.41003 1379
36.43014 1678
36.45025 1942
36.47037 2188
36.49048 2234
36.51059 2142
36.53071 2023
36.55082 1781
36.57094 1523
36.59105 1275
36.61116 1063
36.63128 841
36.65139 651
36.6715 504
36.69162 418
36.71173 361
36.73184 272
36.75196 296
36.77207 285
36.79219 273
36.8123 299
36.83241 249
36.85253 291
36.87264 235
36.89275 256
36.91287 231
36.93298 248
36.9531 255
36.97321 265
36.99332 231
37.01344 205
37.03355 232
37.05366 210
37.07378 210
37.09389 195
37.11401 217
37.13412 213
37.15423 188
37.17435 183
37.19446 218
37.21457 200
37.23469 206
37.2548 201
37.27491 214
37.29503 204
37.31514 198
37.33526 216
37.35537 216
37.37548 238
37.3956 209
37.41571 218
37.43582 218
37.45594 217
37.47605 221
37.49617 226
37.51628 200
37.53639 191
37.55651 216
37.57662 232
37.59673 190
37.61685 226
37.63696 193
37.65708 191
37.67719 240
37.6973 182
37.71742 234
37.73753 205
37.75764 229
37.77776 236
37.79787 224
37.81798 214
37.8381 235
37.85821 191
37.87833 204
37.89844 215
37.91855 213
37.93867 185
37.95878 226
37.97889 228
37.99901 219
38.01912 218
38.03924 223
38.05935 216
38.07946 221
38.09958 222
38.11969 239
38.1398 209
38.15992 204
38.18003 217
38.20015 258
38.22026 237
38.24037 205
38.26049 252
38.2806 211
38.30071 238
38.32083 224
38.34094 238
38.36105 233
38.38117 238
38.40128 231
38.4214 218
38.44151 242
38.46162 224
38.48174 242
38.50185 234
38.52196 229
38.54208 241
38.56219 224
38.58231 212
38.60242 265
38.62253 225
38.64265 241
38.66276 216
38.68287 239
38.70299 233
38.7231 244
38.74321 214
38.76333 243
38.78344 252
38.80356 227
38.82367 224
38.84378 243
38.8639 227
38.88401 224
38.90412 243
38.92424 232
38.94435 224
38.96447 260
38.98458 255
39.00469 235
39.02481 270
39.04492 296
39.06503 275
39.08515 293
39.10526 310
39.12538 276
39.14549 325
39.1656 354
39.18572 362
39.20583 439
39.22594 492
39.24606 638
39.26617 723
39.28628 861
39.3064 1026
39.32651 1232
39.34663 1517
39.36674 1814
39.38685 1913
39.40697 2002
39.42708 1990
39.44719 1859
39.46731 1771
39.48742 1494
39.50754 1233
39.52765 1044
39.54776 951
39.56788 695
39.58799 571
39.6081 440
39.62822 328
39.64833 312
39.66845 299
39.68856 263
39.70867 270
39.72879 262
39.7489 268
39.76901 244
39.78913 225
39.80924 260
39.82935 253
39.84947 227
39.86958 228
39.8897 219
39.90981 221
39.92992 255
39.95004 241
39.97015 260
39.99026 304
40.01038 304
40.03049 359
40.05061 346
40.07072 385
40.09083 469
40.11095 570
40.13106 621
40.15117 764
40.17129 816
40.1914 948
40.21152 1047
40.23163 1058
40.25174 1075
40.27186 984
40.29197 886
40.31208 745
40.3322 731
40.35231 593
40.37242 557
40.39254 434
40.41265 358
40.43277 285
40.45288 248
40.47299 228
40.49311 208
40.51322 245
40.53333 203
40.55345 209
40.57356 216
40.59368 208
40.61379 202
40.6339 204
40.65402 217
40.67413 183
40.69424 183
40.71436 194
40.73447 181
40.75458 192
40.7747 205
40.79481 212
40.81493 162
40.83504 176
40.85515 184
40.87527 184
40.89538 170
40.91549 179
40.93561 190
40.95572 197
40.97584 215
40.99595 196
41.01606 198
41.03618 194
41.05629 192
41.0764 191
41.09652 193
41.11663 228
41.13675 210
41.15686 191
41.17697 214
41.19709 188
41.2172 157
41.23731 193
41.25743 167
41.27754 173
41.29765 200
41.31777 193
41.33788 192
41.358 189
41.37811 201
41.39822 185
41.41834 188
41.43845 212
41.45856 195
41.47868 203
41.49879 216
41.51891 205
41.53902 183
41.55913 172
41.57925 203
41.59936 206
41.61947 173
41.63959 167
41.6597 185
41.67982 183
41.69993 166
41.72004 179
41.74016 203
41.76027 190
41.78038 188
41.8005 204
41.82061 190
41.84072 185
41.86084 198
41.88095 201
41.90107 165
41.92118 174
41.94129 200
41.96141 181
41.98152 195
42.00163 216
42.02175 192
42.04186 244
42.06198 221
42.08209 228
42.1022 255
42.12232 246
42.14243 306
42.16254 309
42.18266 363
42.20277 373
42.22289 481
42.243 515
42.26311 653
42.28323 791
42.30334 895
42.32345 1083
42.34357 1217
42.36368 1360
42.38379 1435
42.40391 1466
42.42402 1422
42.44414 1194
42.46425 1071
42.48436 911
42.50448 865
42.52459 781
42.5447 662
42.56482 490
42.58493 408
42.60505 309
42.62516 278
42.64527 274
42.66539 246
42.6855 219
42.70561 205
42.72573 197
42.74584 185
42.76595 205
42.78607 189
42.80618 190
42.8263 198
42.84641 202
42.86652 184
42.88664 160
42.90675 143
42.92686 162
42.94698 175
42.96709 164
42.98721 167
43.00732 164
43.02743 161
43.04755 156
43.06766 165
43.08777 188
43.10789 163
43.128 175
43.14812 166
43.16823 179
43.18834 169
43.20846 153
43.22857 160
43.24868 129
43.2688 151
43.28891 162
43.30902 162
43.32914 161
43.34925 145
43.36937 172
43.38948 167
43.40959 141
43.42971 153
43.44982 159
43.46993 180
43.49005 185
43.51016 158
43.53028 184
43.55039 162
43.5705 159
43.59062 136
43.61073 173
43.63084 168
43.65096 169
43.67107 165
43.69119 167
43.7113 166
43.73141 154
43.75153 162
43.77164 171
43.79175 155
43.81187 155
43.83198 153
43.85209 148
43.87221 171
43.89232 181
43.91244 162
43.93255 170
43.95266 179
43.97278 157
43.99289 167
44.013 158
44.03312 151
44.05323 154
44.07335 158
44.09346 175
44.11357 142
44.13369 152
44.1538 148
44.17391 137
44.19403 165
44.21414 154
44.23426 168
44.25437 162
44.27448 142
44.2946 159
44.31471 157
44.33482 165
44.35494 161
44.37505 154
44.39516 163
44.41528 167
44.43539 141
44.45551 159
44.47562 168
44.49573 141
44.51585 157
44.53596 166
44.55607 187
44.57619 165
44.5963 158
44.61642 155
44.63653 158
44.65664 170
44.67676 151
44.69687 177
44.71698 164
44.7371 168
44.75721 157
44.77732 154
44.79744 175
44.81755 166
44.83767 177
44.85778 195
44.87789 165
44.89801 195
44.91812 174
44.93823 173
44.95835 167
44.97846 168
44.99858 149
45.01869 178
45.0388 164
45.05892 159
45.07903 166
45.09914 189
45.11926 181
45.13937 157
45.15949 170
45.1796 145
45.19971 167
45.21983 181
45.23994 191
45.26005 165
45.28017 177
45.30028 191
45.32039 185
45.34051 190
45.36062 211
45.38074 216
45.40085 206
45.42096 230
45.44108 213
45.46119 245
45.4813 252
45.50142 279
45.52153 309
45.54165 333
45.56176 368
45.58187 411
45.60199 459
45.6221 570
45.64221 619
45.66233 725
45.68244 849
45.70256 959
45.72267 975
45.74278 994
45.7629 951
45.78301 903
45.80312 764
45.82324 668
45.84335 630
45.86346 587
45.88358 497
45.90369 456
45.92381 353
45.94392 282
45.96403 242
45.98415 211
46.00426 201
46.02437 182
46.04449 187
46.0646 175
46.08472 172
46.10483 171
46.12494 165
46.14506 185
46.16517 167
46.18528 182
46.2054 169
46.22551 143
46.24563 163
46.26574 165
46.28585 184
46.30597 161
46.32608 160
46.34619 145
46.36631 167
46.38642 151
46.40653 172
46.42665 164
46.44676 158
46.46688 152
46.48699 177
46.5071 169
46.52722 144
46.54733 149
46.56744 149
46.58756 150
46.60767 138
46.62779 154
46.6479 171
46.66801 156
46.68813 169
46.70824 146
46.72835 152
46.74847 146
46.76858 149
46.78869 156
46.80881 153
46.82892 158
46.84904 157
46.86915 155
46.88926 148
46.90938 165
46.92949 171
46.9496 144
46.96972 158
46.98983 155
47.00995 179
47.03006 162
47.05017 151
47.07029 148
47.0904 169
47.11051 161
47.13063 149
47.15074 155
47.17086 138
47.19097 152
47.21108 154
47.2312 158
47.25131 135
47.27142 148
47.29154 145
47.31165 172
47.33176 163
47.35188 172
47.37199 158
47.39211 151
47.41222 149
47.43233 166
47.45245 149
47.47256 167
47.49267 158
47.51279 148
47.5329 161
47.55302 149
47.57313 138
47.59324 151
47.61336 153
47.63347 176
47.65358 175
47.6737 154
47.69381 166
47.71393 137
47.73404 147
47.75415 167
47.77427 154
47.79438 159
47.81449 134
47.83461 189
47.85472 165
47.87483 154
47.89495 167
47.91506 144
47.93518 179
47.95529 159
47.9754 153
47.99552 161
48.01563 157
48.03574 137
48.05586 147
48.07597 154
48.09609 145
48.1162 129
48.13631 151
48.15643 165
48.17654 143
48.19665 149
48.21677 165
48.23688 150
48.257 148
48.27711 143
48.29722 145
48.31734 148
48.33745 151
48.35756 161
48.37768 156
48.39779 162
48.4179 146
48.43802 178
48.45813 141
48.47825 166
48.49836 176
48.51847 181
48.53859 183
48.5587 153
48.57881 171
48.59893 150
48.61904 173
48.63916 153
48.65927 169
48.67938 160
48.6995 171
48.71961 193
48.73972 163
48.75984 173
48.77995 159
48.80006 184
48.82018 159
48.84029 148
48.86041 158
48.88052 177
48.90063 144
48.92075 175
48.94086 180
48.96097 147
48.98109 174
49.0012 167
49.02132 165
49.04143 172
49.06154 172
49.08166 156
49.10177 179
49.12188 179
49.142 174
49.16211 181
49.18223 161
49.20234 137
49.22245 163
49.24257 185
49.26268 180
49.28279 177
49.30291 180
49.32302 151
49.34313 156
49.36325 193
49.38336 173
49.40348 177
49.42359 189
49.4437 194
49.46382 195
49.48393 201
49.50404 216
49.52416 168
49.54427 234
49.56439 204
49.5845 243
49.60461 223
49.62473 234
49.64484 260
49.66495 245
49.68507 280
49.70518 316
49.7253 321
49.74541 363
49.76552 381
49.78564 416
49.80575 434
49.82586 522
49.84598 604
49.86609 710
49.8862 781
49.90632 935
49.92643 1148
49.94655 1466
49.96666 1833
49.98677 2092
50.00689 2472
50.027 2772
50.04711 3075
50.06723 3274
50.08734 3351
50.10746 3039
50.12757 2708
50.14768 2361
50.1678 2002
50.18791 1790
50.20802 1725
50.22814 1537
50.24825 1249
50.26837 1048
50.28848 756
50.30859 536
50.32871 456
50.34882 382
50.36893 329
50.38905 309
50.40916 317
50.42927 291
50.44939 266
50.4695 264
50.48962 280
50.50973 297
50.52984 275
50.54996 270
50.57007 263
50.59018 249
50.6103 237
50.63041 211
50.65053 219
50.67064 216
50.69075 219
50.71087 212
50.73098 216
50.75109 199
50.77121 194
50.79132 185
50.81143 189
50.83155 186
50.85166 168
50.87178 174
50.89189 192
50.912 149
50.93212 168
50.95223 168
50.97234 161
50.99246 163
51.01257 157
51.03269 163
51.0528 155
51.07291 170
51.09303 171
51.11314 154
51.13325 147
51.15337 154
51.17348 162
51.1936 160
51.21371 150
51.23382 153
51.25394 147
51.27405 136
51.29416 158
51.31428 137
51.33439 148
51.3545 164
51.37462 134
51.39473 148
51.41485 128
51.43496 160
51.45507 127
51.47519 166
51.4953 160
51.51541 134
51.53553 137
51.55564 149
51.57576 137
51.59587 138
51.61598 157
51.6361 132
51.65621 138
51.67632 145
51.69644 171
51.71655 125
51.73667 128
51.75678 144
51.77689 125
51.79701 141
51.81712 142
51.83723 126
51.85735 138
51.87746 135
51.89757 135
51.91769 148
51.9378 140
51.95792 125
51.97803 152
51.99814 143
52.01826 140
52.03837 163
52.05848 135
52.0786 134
52.09871 143
52.11883 133
52.13894 149
52.15905 141
52.17917 131
52.19928 147
52.21939 127
52.23951 132
52.25962 147
52.27974 132
52.29985 146
52.31996 134
52.34008 105
52.36019 121
52.3803 135
52.40042 134
52.42053 138
52.44064 164
52.46076 136
52.48087 151
52.50099 127
52.5211 140
52.54121 160
52.56133 137
52.58144 144
52.60155 160
52.62167 129
52.64178 135
52.6619 152
52.68201 156
52.70212 153
52.72224 144
52.74235 157
52.76246 161
52.78258 141
52.80269 164
52.8228 151
52.84292 127
52.86303 149
52.88315 154
52.90326 183
52.92337 172
52.94349 167
52.9636 147
52.98371 162
53.00383 145
53.02394 160
53.04406 149
53.06417 140
53.08428 141
53.1044 159
53.12451 165
53.14462 148
53.16474 162
53.18485 167
53.20497 160
53.22508 164
53.24519 161
53.26531 145
53.28542 162
53.30553 166
53.32565 159
53.34576 174
53.36587 185
53.38599 172
53.4061 151
53.42622 113
53.44633 149
53.46644 152
53.48656 159
53.50667 160
53.52678 155
53.5469 176
53.56701 161
53.58713 148
53.60724 162
53.62735 185
53.64747 152
53.66758 169
53.68769 174
53.70781 179
53.72792 173
53.74804 173
53.76815 154
53.78826 159
53.80838 149
53.82849 141
53.8486 166
53.86872 171
53.88883 173
53.90894 163
53.92906 156
53.94917 185
53.96929 161
53.9894 190
54.00951 176
54.02963 143
54.04974 204
54.06985 187
54.08997 184
54.11008 173
54.1302 176
54.15031 162
54.17042 176
54.19054 185
54.21065 191
54.23076 219
54.25088 199
54.27099 193
54.29111 182
54.31122 210
54.33133 204
54.35145 220
54.37156 203
54.39167 225
54.41179 213
54.4319 218
54.45201 234
54.47213 223
54.49224 231
54.51236 248
54.53247 290
54.55258 283
54.5727 290
54.59281 327
54.61292 369
54.63304 353
54.65315 407
54.67327 555
54.69338 583
54.71349 704
54.73361 799
54.75372 875
54.77383 885
54.79395 1001
54.81406 956
54.83417 979
54.85429 861
54.8744 793
54.89452 709
54.91463 653
54.93474 594
54.95486 613
54.97497 592
54.99508 513
55.0152 436
55.03531 387
55.05543 347
55.07554 322
55.09565 344
55.11577 343
55.13588 379
55.15599 414
55.17611 431
55.19622 459
55.21634 478
55.23645 552
55.25656 566
55.27668 549
55.29679 518
55.3169 451
55.33702 422
55.35713 370
55.37724 381
55.39736 355
55.41747 361
55.43759 323
55.4577 284
55.47781 257
55.49793 243
55.51804 232
55.53815 200
55.55827 213
55.57838 199
55.5985 189
55.61861 172
55.63872 194
55.65884 188
55.67895 184
55.69906 181
55.71918 183
55.73929 171
55.75941 167
55.77952 161
55.79963 192
55.81975 162
55.83986 166
55.85997 148
55.88009 151
55.9002 157
55.92031 151
55.94043 170
55.96054 166
55.98066 153
56.00077 156
56.02088 167
56.041 163
56.06111 165
56.08122 170
56.10134 153
56.12145 162
56.14157 149
56.16168 155
56.18179 140
56.20191 170
56.22202 140
56.24213 163
56.26225 132
56.28236 148
56.30248 135
56.32259 167
56.3427 171
56.36282 150
56.38293 139
56.40304 139
56.42316 162
56.44327 147
56.46338 155
56.4835 160
56.50361 159
56.52373 152
56.54384 151
56.56395 171
56.58407 148
56.60418 153
56.62429 163
56.64441 132
56.66452 150
56.68464 153
56.70475 149
56.72486 171
56.74498 158
56.76509 181
56.7852 142
56.80532 142
56.82543 143
56.84554 172
56.86566 145
56.88577 150
56.90589 160
56.926 144
56.94611 169
56.96623 168
56.98634 122
57.00645 161
57.02657 167
57.04668 182
57.0668 180
57.08691 171
57.10702 181
57.12714 185
57.14725 193
57.16736 227
57.18748 194
57.20759 186
57.22771 200
57.24782 171
57.26793 167
57.28805 159
57.30816 171
57.32827 169
57.34839 150
57.3685 169
57.38861 159
57.40873 138
57.42884 146
57.44896 158
57.46907 151
57.48918 130
57.5093 139
57.52941 150
57.54952 141
57.56964 154
57.58975 144
57.60987 149
57.62998 136
57.65009 158
57.67021 135
57.69032 147
57.71043 157
57.73055 164
57.75066 168
57.77078 152
57.79089 148
57.811 143
57.83112 143
57.85123 148
57.87134 158
57.89146 138
57.91157 153
57.93168 127
57.9518 141
57.97191 151
57.99203 143
58.01214 124
58.03225 160
58.05237 140
58.07248 132
58.09259 136
58.11271 151
58.13282 134
58.15294 142
58.17305 150
58.19316 143
58.21328 152
58.23339 164
58.2535 137
58.27362 164
58.29373 151
58.31385 152
58.33396 151
58.35407 117
58.37419 142
58.3943 146
58.41441 170
58.43453 149
58.45464 153
58.47475 153
58.49487 154
58.51498 159
58.5351 148
58.55521 142
58.57532 132
58.59544 139
58.61555 158
58.63566 155
58.65578 180
58.67589 132
58.69601 134
58.71612 143
58.73623 143
58.75635 151
58.77646 146
58.79657 128
58.81669 168
58.8368 142
58.85691 143
58.87703 155
58.89714 136
58.91726 139
58.93737 133
58.95748 145
58.9776 165
58.99771 153
59.01782 157
59.03794 166
59.05805 157
59.07817 153
59.09828 142
59.11839 159
59.13851 175
59.15862 153
59.17873 192
59.19885 160
59.21896 163
59.23908 176
59.25919 167
59.2793 187
59.29942 187
59.31953 188
59.33964 173
59.35976 182
59.37987 205
59.39998 185
59.4201 200
59.44021 232
59.46033 229
59.48044 239
59.50055 262
59.52067 267
59.54078 290
59.56089 328
59.58101 336
59.60112 344
59.62124 386
59.64135 410
59.66146 484
59.68158 522
59.70169 626
59.7218 702
59.74192 845
59.76203 1022
59.78215 1215
59.80226 1318
59.82237 1625
59.84249 1788
59.8626 1876
59.88271 1822
59.90283 1906
59.92294 1765
59.94305 1603
59.96317 1390
59.98328 1279
60.0034 1174
60.02351 1076
60.04362 1052
60.06374 963
60.08385 849
60.10396 718
60.12408 603
60.14419 464
60.16431 366
60.18442 305
60.20453 269
60.22465 248
60.24476 246
60.26487 193
60.28499 218
60.3051 217
60.32522 205
60.34533 176
60.36544 174
60.38556 181
60.40567 184
60.42578 181
60.4459 183
60.46601 161
60.48612 182
60.50624 140
60.52635 151
60.54647 133
60.56658 154
60.58669 156
60.60681 168
60.62692 161
60.64703 140
60.66715 168
60.68726 167
60.70738 158
60.72749 145
60.7476 138
60.76772 158
60.78783 161
60.80794 147
60.82806 155
60.84817 125
60.86828 160
60.8884 109
60.90851 149
60.92863 141
60.94874 144
60.96885 139
60.98897 147
61.00908 163
61.02919 136
61.04931 129
61.06942 151
61.08954 151
61.10965 140
61.12976 124
61.14988 142
61.16999 143
61.1901 153
61.21022 133
61.23033 129
61.25045 147
61.27056 158
61.29067 137
61.31079 150
61.3309 133
61.35101 150
61.37113 163
61.39124 171
61.41135 158
61.43147 159
61.45158 136
61.4717 158
61.49181 151
61.51192 138
61.53204 155
61.55215 139
61.57226 139
61.59238 161
61.61249 141
61.63261 160
61.65272 149
61.67283 137
61.69295 160
61.71306 129
61.73317 159
61.75329 158
61.7734 157
61.79352 157
61.81363 153
61.83374 156
61.85386 164
61.87397 162
61.89408 169
61.9142 164
61.93431 161
61.95442 163
61.97454 168
61.99465 176
62.01477 183
62.03488 190
62.05499 155
62.07511 182
62.09522 192
62.11533 195
62.13545 186
62.15556 207
62.17568 203
62.19579 203
62.2159 232
62.23602 223
62.25613 232
62.27624 199
62.29636 197
62.31647 189
62.33659 235
62.3567 190
62.37681 197
62.39693 164
62.41704 169
62.43715 164
62.45727 159
62.47738 157
62.49749 169
62.51761 150
62.53772 151
62.55784 137
62.57795 160
62.59806 154
62.61818 157
62.63829 159
62.6584 146
62.67852 156
62.69863 143
62.71875 135
62.73886 163
62.75897 142
62.77909 130
62.7992 149
62.81931 163
62.83943 139
62.85954 129
62.87965 151
62.89977 133
62.91988 141
62.94 139
62.96011 152
62.98022 123
63.00034 122
63.02045 148
63.04056 135
63.06068 147
63.08079 149
63.10091 137
63.12102 123
63.14113 160
63.16125 150
63.18136 155
63.20147 126
63.22159 141
63.2417 142
63.26182 126
63.28193 132
63.30204 129
63.32216 113
63.34227 151
63.36238 166
63.3825 167
63.40261 172
63.42272 138
63.44284 135
63.46295 151
63.48307 158
63.50318 150
63.52329 159
63.54341 138
63.56352 137
63.58363 181
63.60375 158
63.62386 170
63.64398 155
63.66409 173
63.6842 165
63.70432 199
63.72443 220
63.74454 217
63.76466 221
63.78477 235
63.80489 248
63.825 280
63.84511 299
63.86523 338
63.88534 402
63.90545 408
63.92557 422
63.94568 436
63.96579 432
63.98591 435
64.00602 445
64.02614 360
64.04625 340
64.06636 332
64.08648 309
64.10659 268
64.1267 313
64.14682 303
64.16693 274
64.18705 240
64.20716 196
64.22727 189
64.24739 182
64.2675 163
64.28761 167
64.30773 150
64.32784 152
64.34796 154
64.36807 169
64.38818 159
64.4083 150
64.42841 137
64.44852 146
64.46864 152
64.48875 131
64.50886 153
64.52898 149
64.54909 134
64.56921 140
64.58932 126
64.60943 142
64.62955 120
64.64966 151
64.66977 144
64.68989 131
64.71 143
64.73012 142
64.75023 133
64.77034 128
64.79046 123
64.81057 143
64.83068 139
64.8508 120
64.87091 142
64.89102 130
64.91114 114
64.93125 131
64.95137 140
64.97148 141
64.99159 165
65.01171 148
65.03182 122
65.05193 134
65.07205 132
65.09216 137
65.11228 138
65.13239 141
65.1525 132
65.17262 126
65.19273 136
65.21284 136
65.23296 143
65.25307 138
65.27319 132
65.2933 138
65.31341 141
65.33353 130
65.35364 149
65.37375 158
65.39387 152
65.41398 156
65.43409 158
65.45421 144
65.47432 143
65.49444 165
65.51455 167
65.53466 156
65.55478 183
65.57489 174
65.595 169
65.61512 185
65.63523 203
65.65535 221
65.67546 202
65.69557 210
65.71569 183
65.7358 212
65.75591 207
65.77603 188
65.79614 198
65.81626 186
65.83637 163
65.85648 189
65.8766 166
65.89671 182
65.91682 192
65.93694 188
65.95705 174
65.97716 155
65.99728 155
66.01739 141
66.03751 133
66.05762 153
66.07773 136
66.09785 150
66.11796 124
66.13807 142
66.15819 141
66.1783 123
66.19842 143
66.21853 134
66.23864 158
66.25876 120
66.27887 155
66.29898 135
66.3191 138
66.33921 164
66.35933 134
66.37944 138
66.39955 124
66.41967 152
66.43978 150
66.45989 147
66.48001 156
66.50012 141
66.52023 142
66.54035 158
66.56046 174
66.58058 130
66.60069 170
66.6208 156
66.64092 153
66.66103 148
66.68114 139
66.70126 162
66.72137 155
66.74149 173
66.7616 144
66.78171 161
66.80183 164
66.82194 162
66.84205 139
66.86217 164
66.88228 156
66.90239 165
66.92251 155
66.94262 171
66.96274 147
66.98285 152
67.00296 178
67.02308 160
67.04319 157
67.0633 150
67.08342 148
67.10353 175
67.12365 182
67.14376 209
67.16387 173
67.18399 219
67.2041 218
67.22421 203
67.24433 205
67.26444 196
67.28456 208
67.30467 256
67.32478 271
67.3449 257
67.36501 295
67.38512 346
67.40524 315
67.42535 328
67.44546 381
67.46558 427
67.48569 487
67.50581 487
67.52592 667
67.54603 733
67.56615 790
67.58626 875
67.60637 1008
67.62649 1094
67.6466 1164
67.66672 1205
67.68683 1162
67.70694 1097
67.72706 977
67.74717 929
67.76728 831
67.7874 837
67.80751 839
67.82763 928
67.84774 937
67.86785 975
67.88797 975
67.90808 940
67.92819 1007
67.94831 1027
67.96842 1132
67.98853 1319
68.00865 1430
68.02876 1511
68.04888 1561
68.06899 1588
68.0891 1598
68.10922 1645
68.12933 1436
68.14944 1505
68.16956 1491
68.18967 1442
68.20979 1503
68.2299 1471
68.25001 1477
68.27013 1366
68.29024 1220
68.31035 1130
68.33047 892
68.35058 779
68.3707 708
68.39081 604
68.41092 613
68.43104 550
68.45115 502
68.47126 483
68.49138 405
68.51149 373
68.5316 290
68.55172 269
68.57183 273
68.59195 232
68.61206 220
68.63217 215
68.65229 187
68.6724 175
68.69251 194
68.71263 179
68.73274 192
68.75286 164
68.77297 160
68.79308 173
68.8132 173
68.83331 150
68.85342 153
68.87354 151
68.89365 159
68.91376 139
68.93388 162
68.95399 162
68.97411 161
68.99422 168
69.01433 164
69.03445 157
69.05456 162
69.07467 147
69.09479 144
69.1149 128
69.13502 160
69.15513 152
69.17524 113
69.19536 134
69.21547 140
69.23558 141
69.2557 142
69.27581 129
69.29593 115
69.31604 148
69.33615 160
69.35627 140
69.37638 151
69.39649 152
69.41661 141
69.43672 139
69.45683 143
69.47695 146
69.49706 115
69.51718 137
69.53729 126
69.5574 127
69.57752 130
69.59763 140
69.61774 146
69.63786 121
69.65797 144
69.67809 132
69.6982 155
69.71831 116
69.73843 134
69.75854 128
69.77865 124
69.79877 138
69.81888 121
69.839 114
69.85911 133
69.87922 122
69.89934 125
69.91945 139
69.93956 122
69.95968 105
69.97979 134
69.9999 133
70.02002 123
70.04013 126
70.06025 129
70.08036 124
70.10047 148
70.12059 134
70.1407 132
70.16081 135
70.18093 138
70.20104 125
70.22116 129
70.24127 119
70.26138 119
70.2815 134
70.30161 132
70.32172 115
70.34184 106
70.36195 137
70.38207 111
70.40218 109
70.42229 138
70.44241 119
70.46252 129
70.48263 138
70.50275 124
70.52286 144
70.54297 117
70.56309 144
70.5832 119
70.60332 137
70.62343 124
70.64354 125
70.66366 124
70.68377 123
70.70388 119
70.724 130
70.74411 124
70.76423 145
70.78434 116
70.80445 118
70.82457 134
70.84468 125
70.86479 123
70.88491 118
70.90502 117
70.92513 135
70.94525 142
70.96536 125
70.98548 107
71.00559 127
71.0257 117
71.04582 141
71.06593 128
71.08604 124
71.10616 133
71.12627 110
71.14639 123
71.1665 104
71.18661 139
71.20673 109
71.22684 140
71.24695 104
71.26707 112
71.28718 130
71.3073 117
71.32741 131
71.34752 119
71.36764 126
71.38775 124
71.40786 139
71.42798 124
71.44809 141
71.4682 134
71.48832 133
71.50843 129
71.52855 113
71.54866 130
71.56877 109
71.58889 134
71.609 120
71.62911 111
71.64923 131
71.66934 135
71.68946 112
71.70957 113
71.72968 116
71.7498 137
71.76991 130
71.79002 129
71.81014 126
71.83025 142
71.85037 119
71.87048 140
71.89059 108
71.91071 125
71.93082 133
71.95093 118
71.97105 121
71.99116 121
72.01127 104
72.03139 102
72.0515 109
72.07162 138
72.09173 122
72.11184 125
72.13196 114
72.15207 126
72.17218 126
72.1923 139
72.21241 127
72.23253 127
72.25264 141
72.27275 117
72.29287 109
72.31298 103
72.33309 130
72.35321 141
72.37332 108
72.39344 112
72.41355 117
72.43366 118
72.45378 123
72.47389 135
72.494 125
72.51412 130
72.53423 135
72.55434 129
72.57446 109
72.59457 141
72.61469 117
72.6348 113
72.65491 131
72.67503 120
72.69514 113
72.71525 115
72.73537 129
72.75548 118
72.7756 132
72.79571 134
72.81582 121
72.83594 136
72.85605 114
72.87616 120
72.89628 128
72.91639 149
72.9365 136
72.95662 138
72.97673 151
72.99685 134
73.01696 149
73.03707 170
73.05719 149
73.0773 169
73.09741 166
73.11753 174
73.13764 185
73.15776 200
73.17787 203
73.19798 212
73.2181 279
73.23821 280
73.25832 282
73.27844 310
73.29855 382
73.31867 396
73.33878 438
73.35889 459
73.37901 438
73.39912 462
73.41923 447
73.43935 431
73.45946 388
73.47957 349
73.49969 315
73.5198 314
73.53992 326
73.56003 293
73.58014 295
73.60026 300
73.62037 328
73.64048 267
73.6606 225
73.68071 221
73.70083 190
73.72094 176
73.74105 171
73.76117 155
73.78128 152
73.80139 157
73.82151 122
73.84162 135
73.86174 149
73.88185 138
73.90196 122
73.92208 133
73.94219 137
73.9623 131
73.98242 134
74.00253 133
74.02264 153
74.04276 132
74.06287 147
74.08299 137
74.1031 131
74.12321 128
74.14333 134
74.16344 143
74.18355 106
74.20367 122
74.22378 118
74.2439 119
74.26401 130
74.28412 139
74.30424 129
74.32435 132
74.34446 114
74.36458 107
74.38469 100
74.40481 117
74.42492 122
74.44503 137
74.46515 144
74.48526 117
74.50537 137
74.52549 123
74.5456 145
74.56571 111
74.58583 113
74.60594 123
74.62606 126
74.64617 122
74.66628 123
74.6864 132
74.70651 113
74.72662 128
74.74674 137
74.76685 129
74.78697 113
74.80708 133
74.82719 123
74.84731 132
74.86742 140
74.88753 141
74.90765 134
74.92776 133
74.94787 125
74.96799 146
74.9881 130
75.00822 123
