3.00117 20147
3.02128 19916
3.0414 19230
3.06151 18300
3.08162 18283
3.10174 17340
3.12185 17030
3.14197 16556
3.16208 16134
3.18219 15660
3.20231 14878
3.22242 14978
3.24253 14529
3.26265 13780
3.28276 13566
3.30288 12996
3.32299 12520
3.3431 12389
3.36322 11696
3.38333 11379
3.40344 11020
3.42356 10968
3.44367 10088
3.46379 9867
3.4839 9717
3.50401 9137
3.52413 8987
3.54424 8700
3.56435 8381
3.58447 8241
3.60458 7785
3.62469 7498
3.64481 7250
3.66492 6806
3.68504 6722
3.70515 6346
3.72526 6297
3.74538 6060
3.76549 5533
3.7856 5485
3.80572 5246
3.82583 5034
3.84595 4914
3.86606 4563
3.88617 4517
3.90629 4247
3.9264 4075
3.94651 4016
3.96663 3679
3.98674 3673
4.00686 3437
4.02697 3431
4.04708 3166
4.0672 2917
4.08731 2968
4.10742 2664
4.12754 2775
4.14765 2636
4.16776 2396
4.18788 2332
4.20799 2174
4.22811 2252
4.24822 2335
4.26833 2024
4.28845 2034
4.30856 1965
4.32867 1886
4.34879 2022
4.3689 1729
4.38902 1818
4.40913 1723
4.42924 1628
4.44936 1760
4.46947 1510
4.48958 1560
4.5097 1529
4.52981 1437
4.54992 1560
4.57004 1412
4.59015 1402
4.61027 1363
4.63038 1343
4.65049 1306
4.67061 1315
4.69072 1229
4.71083 1272
4.73095 1281
4.75106 1229
4.77118 1103
4.79129 1158
4.8114 1163
4.83152 1109
4.85163 1125
4.87174 1045
4.89186 1098
4.91197 1026
4.93209 1029
4.9522 1091
4.97231 947
4.99243 995
5.01254 987
5.03265 955
5.05277 900
5.07288 882
5.09299 864
5.11311 868
5.13322 861
5.15334 878
5.17345 748
5.19356 835
5.21368 854
5.23379 747
5.2539 777
5.27402 715
5.29413 735
5.31425 718
5.33436 753
5.35447 729
5.37459 660
5.3947 665
5.41481 735
5.43493 673
5.45504 670
5.47516 599
5.49527 589
5.51538 635
5.5355 636
5.55561 579
5.57572 608
5.59584 594
5.61595 574
5.63606 605
5.65618 564
5.67629 590
5.69641 575
5.71652 527
5.73663 572
5.75675 526
5.77686 529
5.79697 543
5.81709 533
5.8372 549
5.85732 514
5.87743 489
5.89754 471
5.91766 520
5.93777 533
5.95788 489
5.978 476
5.99811 470
6.01823 487
6.03834 536
6.05845 497
6.07857 482
6.09868 440
6.11879 493
6.13891 516
6.15902 495
6.17913 497
6.19925 512
6.21936 479
6.23948 438
6.25959 500
6.2797 463
6.29982 431
6.31993 481
6.34004 428
6.36016 393
6.38027 473
6.40039 464
6.4205 419
6.44061 454
6.46073 420
6.48084 402
6.50095 482
6.52107 468
6.54118 422
6.56129 430
6.58141 449
6.60152 453
6.62164 431
6.64175 423
6.66186 473
6.68198 418
6.70209 452
6.7222 426
6.74232 415
6.76243 431
6.78255 430
6.80266 439
6.82277 496
6.84289 421
6.863 449
6.88311 470
6.90323 457
6.92334 432
6.94346 398
6.96357 455
6.98368 424
7.0038 453
7.02391 463
7.04402 444
7.06414 429
7.08425 434
7.10436 426
7.12448 465
7.14459 404
7.16471 408
7.18482 442
7.20493 419
7.22505 419
7.24516 437
7.26527 455
7.28539 437
7.3055 442
7.32562 440
7.34573 403
7.36584 443
7.38596 461
7.40607 434
7.42618 461
7.4463 441
7.46641 403
7.48653 443
7.50664 422
7.52675 394
7.54687 419
7.56698 436
7.58709 425
7.60721 412
7.62732 428
7.64743 443
7.66755 395
7.68766 441
7.70778 457
7.72789 438
7.748 435
7.76812 433
7.78823 418
7.80834 402
7.82846 416
7.84857 431
7.86869 428
7.8888 399
7.90891 380
7.92903 428
7.94914 433
7.96925 438
7.98937 463
8.00948 402
8.0296 378
8.04971 420
8.06982 395
8.08994 416
8.11005 431
8.13016 410
8.15028 441
8.17039 437
8.1905 465
8.21062 432
8.23073 417
8.25085 420
8.27096 378
8.29107 439
8.31119 427
8.3313 443
8.35141 386
8.37153 453
8.39164 419
8.41176 392
8.43187 431
8.45198 469
8.4721 425
8.49221 417
8.51232 418
8.53244 392
8.55255 398
8.57266 436
8.59278 448
8.61289 389
8.63301 422
8.65312 398
8.67323 373
8.69335 407
8.71346 434
8.73357 450
8.75369 421
8.7738 458
8.79392 414
8.81403 419
8.83414 447
8.85426 448
8.87437 421
8.89448 428
8.9146 425
8.93471 413
8.95483 389
8.97494 406
8.99505 440
9.01517 410
9.03528 401
9.05539 464
9.07551 402
9.09562 401
9.11573 449
9.13585 442
9.15596 380
9.17608 428
9.19619 399
9.2163 465
9.23642 422
9.25653 456
9.27664 393
9.29676 416
9.31687 453
9.33699 409
9.3571 430
9.37721 452
9.39733 404
9.41744 436
9.43755 447
9.45767 412
9.47778 407
9.4979 397
9.51801 423
9.53812 425
9.55824 468
9.57835 454
9.59846 417
9.61858 425
9.63869 439
9.6588 428
9.67892 404
9.69903 433
9.71915 448
9.73926 427
9.75937 408
9.77949 413
9.7996 401
9.81971 419
9.83983 431
9.85994 353
9.88006 396
9.90017 461
9.92028 396
9.9404 422
9.96051 424
9.98062 414
10.00074 395
10.02085 445
10.04097 424
10.06108 363
10.08119 467
10.10131 436
10.12142 429
10.14153 376
10.16165 412
10.18176 445
10.20187 407
10.22199 424
10.2421 438
10.26222 411
10.28233 469
10.30244 456
10.32256 491
10.34267 432
10.36278 420
10.3829 449
10.40301 392
10.42313 424
10.44324 442
10.46335 387
10.48347 451
10.50358 441
10.52369 419
10.54381 460
10.56392 393
10.58403 384
10.60415 422
10.62426 401
10.64438 433
10.66449 463
10.6846 484
10.70472 423
10.72483 448
10.74494 452
10.76506 434
10.78517 439
10.80529 406
10.8254 397
10.84551 435
10.86563 451
10.88574 458
10.90585 410
10.92597 467
10.94608 453
10.9662 439
10.98631 444
11.00642 447
11.02654 479
11.04665 432
11.06676 434
11.08688 431
11.10699 410
11.1271 445
11.14722 448
11.16733 428
11.18745 438
11.20756 436
11.22767 422
11.24779 411
11.2679 441
11.28801 437
11.30813 452
11.32824 461
11.34836 452
11.36847 433
11.38858 447
11.4087 462
11.42881 497
11.44892 468
11.46904 508
11.48915 465
11.50927 464
11.52938 490
11.54949 484
11.56961 534
11.58972 471
11.60983 508
11.62995 508
11.65006 510
11.67017 513
11.69029 525
11.7104 522
11.73052 519
11.75063 497
11.77074 491
11.79086 517
11.81097 506
11.83108 551
11.8512 542
11.87131 492
11.89143 515
11.91154 597
11.93165 634
11.95177 600
11.97188 635
11.99199 618
12.01211 572
12.03222 642
12.05234 682
12.07245 651
12.09256 712
12.11268 778
12.13279 763
12.1529 758
12.17302 819
12.19313 867
12.21324 902
12.23336 897
12.25347 954
12.27359 937
12.2937 922
12.31381 1015
12.33393 962
12.35404 940
12.37415 911
12.39427 870
12.41438 844
12.4345 776
12.45461 758
12.47472 770
12.49484 694
12.51495 663
12.53506 611
12.55518 604
12.57529 614
12.5954 563
12.61552 576
12.63563 503
12.65575 488
12.67586 511
12.69597 525
12.71609 487
12.7362 494
12.75631 525
12.77643 476
12.79654 472
12.81666 490
12.83677 426
12.85688 444
12.877 458
12.89711 435
12.91722 449
12.93734 412
12.95745 412
12.97757 444
12.99768 391
13.01779 402
13.03791 430
13.05802 432
13.07813 441
13.09825 410
13.11836 407
13.13847 393
13.15859 414
13.1787 411
13.19882 401
13.21893 395
13.23904 391
13.25916 411
13.27927 401
13.29938 419
13.3195 438
13.33961 378
13.35973 392
13.37984 408
13.39995 375
13.42007 424
13.44018 389
13.46029 428
13.48041 358
13.50052 400
13.52064 420
13.54075 419
13.56086 361
13.58098 436
13.60109 436
13.6212 397
13.64132 402
13.66143 427
13.68154 443
13.70166 420
13.72177 458
13.74189 412
13.762 380
13.78211 367
13.80223 357
13.82234 361
13.84245 394
13.86257 403
13.88268 378
13.9028 404
13.92291 374
13.94302 395
13.96314 402
13.98325 438
14.00336 404
14.02348 378
14.04359 407
14.06371 363
14.08382 384
14.10393 361
14.12405 396
14.14416 358
14.16427 414
14.18439 357
14.2045 391
14.22461 350
14.24473 385
14.26484 407
14.28496 367
14.30507 395
14.32518 366
14.3453 389
14.36541 352
14.38552 370
14.40564 375
14.42575 374
14.44587 401
14.46598 367
14.48609 407
14.50621 359
14.52632 394
14.54643 352
14.56655 353
14.58666 371
14.60677 406
14.62689 312
14.647 372
14.66712 377
14.68723 358
14.70734 390
14.72746 330
14.74757 375
14.76768 394
14.7878 406
14.80791 414
14.82803 382
14.84814 382
14.86825 353
14.88837 413
14.90848 425
14.92859 321
14.94871 371
14.96882 369
14.98894 372
15.00905 372
15.02916 373
15.04928 394
15.06939 411
15.0895 400
15.10962 406
15.12973 401
15.14984 370
15.16996 363
15.19007 370
15.21019 370
15.2303 378
15.25041 390
15.27053 348
15.29064 337
15.31075 386
15.33087 385
15.35098 417
15.3711 400
15.39121 389
15.41132 395
15.43144 400
15.45155 359
15.47166 403
15.49178 332
15.51189 358
15.53201 384
15.55212 344
15.57223 375
15.59235 366
15.61246 374
15.63257 384
15.65269 391
15.6728 373
15.69291 378
15.71303 374
15.73314 369
15.75326 367
15.77337 371
15.79348 356
15.8136 381
15.83371 403
15.85382 365
15.87394 340
15.89405 418
15.91417 353
15.93428 370
15.95439 345
15.97451 403
15.99462 387
16.01473 362
16.03485 344
16.05496 367
16.07508 386
16.09519 352
16.1153 378
16.13542 365
16.15553 373
16.17564 372
16.19576 359
16.21587 383
16.23598 343
16.2561 378
16.27621 353
16.29633 346
16.31644 366
16.33655 346
16.35667 370
16.37678 378
16.39689 356
16.41701 337
16.43712 387
16.45724 365
16.47735 342
16.49746 374
16.51758 369
16.53769 368
16.5578 372
16.57792 415
16.59803 341
16.61814 321
16.63826 368
16.65837 367
16.67849 390
16.6986 370
16.71871 379
16.73883 421
16.75894 388
16.77905 351
16.79917 324
16.81928 403
16.8394 391
16.85951 402
16.87962 396
16.89974 391
16.91985 387
16.93996 353
16.96008 353
16.98019 400
17.00031 361
17.02042 407
17.04053 378
17.06065 380
17.08076 392
17.10087 385
17.12099 394
17.1411 397
17.16121 349
17.18133 342
17.20144 391
17.22156 383
17.24167 391
17.26178 380
17.2819 372
17.30201 414
17.32212 379
17.34224 366
17.36235 336
17.38247 372
17.40258 385
17.42269 424
17.44281 413
17.46292 377
17.48303 369
17.50315 366
17.52326 391
17.54338 400
17.56349 399
17.5836 422
17.60372 401
17.62383 415
17.64394 425
17.66406 387
17.68417 389
17.70428 424
17.7244 401
17.74451 446
17.76463 444
17.78474 417
17.80485 429
17.82497 476
17.84508 422
17.86519 427
17.88531 432
17.90542 414
17.92554 394
17.94565 416
17.96576 426
17.98588 413
18.00599 477
18.0261 444
18.04622 515
18.06633 451
18.08645 529
18.10656 498
18.12667 594
18.14679 673
18.1669 707
18.18701 870
18.20713 1084
18.22724 1279
18.24735 1464
18.26747 1498
18.28758 1506
18.3077 1263
18.32781 1116
18.34792 907
18.36804 723
18.38815 592
18.40826 554
18.42838 460
18.44849 475
18.46861 446
18.48872 437
18.50883 437
18.52895 466
18.54906 403
18.56917 411
18.58929 430
18.6094 377
18.62951 401
18.64963 395
18.66974 386
18.68986 401
18.70997 400
18.73008 395
18.7502 450
18.77031 392
18.79042 415
18.81054 367
18.83065 388
18.85077 428
18.87088 402
18.89099 402
18.91111 399
18.93122 405
18.95133 385
18.97145 406
18.99156 418
19.01168 381
19.03179 396
19.0519 378
19.07202 415
19.09213 413
19.11224 376
19.13236 393
19.15247 444
19.17258 422
19.1927 357
19.21281 426
19.23293 400
19.25304 444
19.27315 400
19.29327 457
19.31338 411
19.33349 424
19.35361 414
19.37372 443
19.39384 405
19.41395 419
19.43406 420
19.45418 431
19.47429 412
19.4944 462
19.51452 445
19.53463 466
19.55475 418
19.57486 474
19.59497 463
19.61509 467
19.6352 532
19.65531 508
19.67543 528
19.69554 553
19.71565 606
19.73577 631
19.75588 665
19.776 702
19.79611 738
19.81622 813
19.83634 806
19.85645 858
19.87656 860
19.89668 850
19.91679 870
19.93691 832
19.95702 795
19.97713 779
19.99725 804
20.01736 771
20.03747 784
20.05759 744
20.0777 803
20.09782 768
20.11793 795
20.13804 817
20.15816 849
20.17827 964
20.19838 978
20.2185 1095
20.23861 1096
20.25872 1195
20.27884 1167
20.29895 1096
20.31907 1023
20.33918 974
20.35929 1019
20.37941 926
20.39952 912
20.41963 953
20.43975 974
20.45986 1002
20.47998 997
20.50009 992
20.5202 955
20.54032 949
20.56043 959
20.58054 939
20.60066 928
20.62077 934
20.64088 964
20.661 1053
20.68111 1159
20.70123 1297
20.72134 1569
20.74145 1941
20.76157 2331
20.78168 2785
20.80179 3201
20.82191 3476
20.84202 3404
20.86214 3069
20.88225 2585
20.90236 2024
20.92248 1627
20.94259 1154
20.9627 1067
20.98282 965
21.00293 924
21.02305 881
21.04316 917
21.06327 935
21.08339 849
21.1035 900
21.12361 875
21.14373 903
21.16384 888
21.18395 894
21.20407 871
21.22418 901
21.2443 921
21.26441 961
21.28452 883
21.30464 936
21.32475 931
21.34486 920
21.36498 953
21.38509 913
21.40521 907
21.42532 923
21.44543 855
21.46555 863
21.48566 809
21.50577 877
21.52589 794
21.546 846
21.56612 794
21.58623 843
21.60634 790
21.62646 752
21.64657 776
21.66668 732
21.6868 718
21.70691 693
21.72702 678
21.74714 664
21.76725 677
21.78737 617
21.80748 603
21.82759 673
21.84771 658
21.86782 692
21.88793 667
21.90805 650
21.92816 625
21.94828 614
21.96839 628
21.9885 660
22.00862 632
22.02873 614
22.04884 611
22.06896 639
22.08907 601
22.10919 577
22.1293 583
22.14941 571
22.16953 602
22.18964 549
22.20975 580
22.22987 573
22.24998 551
22.27009 564
22.29021 617
22.31032 537
22.33044 579
22.35055 583
22.37066 590
22.39078 538
22.41089 551
22.431 579
22.45112 554
22.47123 553
22.49135 557
22.51146 586
22.53157 586
22.55169 524
22.5718 560
22.59191 509
22.61203 552
22.63214 535
22.65225 546
22.67237 511
22.69248 491
22.7126 538
22.73271 553
22.75282 501
22.77294 535
22.79305 522
22.81316 516
22.83328 546
22.85339 589
22.87351 519
22.89362 515
22.91373 520
22.93385 494
22.95396 537
22.97407 523
22.99419 527
23.0143 497
23.03442 512
23.05453 491
23.07464 506
23.09476 468
23.11487 475
23.13498 543
23.1551 522
23.17521 524
23.19532 495
23.21544 514
23.23555 452
23.25567 491
23.27578 516
23.29589 489
23.31601 499
23.33612 541
23.35623 495
23.37635 527
23.39646 466
23.41658 508
23.43669 503
23.4568 497
23.47692 537
23.49703 483
23.51714 521
23.53726 502
23.55737 502
23.57749 492
23.5976 533
23.61771 519
23.63783 533
23.65794 522
23.67805 547
23.69817 523
23.71828 575
23.73839 510
23.75851 540
23.77862 546
23.79874 552
23.81885 510
23.83896 574
23.85908 547
23.87919 562
23.8993 542
23.91942 557
23.93953 536
23.95965 491
23.97976 532
23.99987 590
24.01999 555
24.0401 543
24.06021 518
24.08033 511
24.10044 545
24.12056 529
24.14067 563
24.16078 516
24.1809 512
24.20101 500
24.22112 534
24.24124 561
24.26135 524
24.28146 554
24.30158 530
24.32169 574
24.34181 551
24.36192 575
24.38203 517
24.40215 588
24.42226 631
24.44237 595
24.46249 579
24.4826 625
24.50272 607
24.52283 608
24.54294 695
24.56306 714
24.58317 724
24.60328 682
24.6234 678
24.64351 670
24.66362 781
24.68374 737
24.70385 792
24.72397 845
24.74408 775
24.76419 810
24.78431 815
24.80442 883
24.82453 914
24.84465 851
24.86476 833
24.88488 857
24.90499 822
24.9251 847
24.94522 783
24.96533 768
24.98544 781
25.00556 716
25.02567 734
25.04579 727
25.0659 669
25.08601 708
25.10613 697
25.12624 668
25.14635 680
25.16647 628
25.18658 613
25.20669 635
25.22681 634
25.24692 547
25.26704 637
25.28715 633
25.30726 589
25.32738 538
25.34749 570
25.3676 590
25.38772 535
25.40783 542
25.42795 607
25.44806 541
25.46817 528
25.48829 507
25.5084 547
25.52851 523
25.54863 556
25.56874 536
25.58886 586
25.60897 574
25.62908 606
25.6492 586
25.66931 578
25.68942 561
25.70954 557
25.72965 622
25.74976 503
25.76988 574
25.78999 550
25.81011 615
25.83022 574
25.85033 596
25.87045 547
25.89056 595
25.91067 571
25.93079 567
25.9509 574
25.97102 571
25.99113 600
26.01124 612
26.03136 648
26.05147 603
26.07158 598
26.0917 646
26.11181 672
26.13193 676
26.15204 722
26.17215 743
26.19227 742
26.21238 777
26.23249 843
26.25261 838
26.27272 938
26.29283 950
26.31295 990
26.33306 1024
26.35318 1239
26.37329 1344
26.3934 1644
26.41352 1792
26.43363 2215
26.45374 2847
26.47386 3761
26.49397 4943
26.51409 6442
26.5342 8270
26.55431 10423
26.57443 12097
26.59454 13491
26.61465 13274
26.63477 11888
26.65488 9566
26.67499 7560
26.69511 5535
26.71522 3773
26.73534 2573
26.75545 1705
26.77556 1393
26.79568 1199
26.81579 1143
26.8359 1043
26.85602 1023
26.87613 993
26.89625 892
26.91636 850
26.93647 799
26.95659 746
26.9767 735
26.99681 663
27.01693 662
27.03704 687
27.05716 627
27.07727 668
27.09738 557
27.1175 554
27.13761 555
27.15772 569
27.17784 567
27.19795 523
27.21806 514
27.23818 602
27.25829 516
27.27841 519
27.29852 537
27.31863 526
27.33875 499
27.35886 494
27.37897 482
27.39909 550
27.4192 541
27.43932 526
27.45943 545
27.47954 487
27.49966 472
27.51977 510
27.53988 545
27.56 496
27.58011 513
27.60023 496
27.62034 473
27.64045 494
27.66057 485
27.68068 502
27.70079 527
27.72091 499
27.74102 522
27.76113 524
27.78125 531
27.80136 492
27.82148 489
27.84159 464
27.8617 526
27.88182 482
27.90193 525
27.92204 518
27.94216 506
27.96227 489
27.98239 504
28.0025 517
28.02261 530
28.04273 480
28.06284 461
28.08295 462
28.10307 492
28.12318 461
28.1433 484
28.16341 491
28.18352 465
28.20364 457
28.22375 463
28.24386 419
28.26398 483
28.28409 434
28.3042 460
28.32432 464
28.34443 443
28.36455 423
28.38466 488
28.40477 437
28.42489 490
28.445 440
28.46511 479
28.48523 417
28.50534 461
28.52546 406
28.54557 425
28.56568 503
28.5858 448
28.60591 472
28.62602 466
28.64614 450
28.66625 474
28.68636 487
28.70648 496
28.72659 436
28.74671 446
28.76682 448
28.78693 402
28.80705 466
28.82716 408
28.84727 400
28.86739 433
28.8875 439
28.90762 398
28.92773 418
28.94784 425
28.96796 405
28.98807 400
29.00818 433
29.0283 403
29.04841 431
29.06853 455
29.08864 439
29.10875 405
29.12887 419
29.14898 469
29.16909 419
29.18921 425
29.20932 478
29.22943 423
29.24955 447
29.26966 411
29.28978 409
29.30989 413
29.33 426
29.35012 392
29.37023 420
29.39034 414
29.41046 411
29.43057 400
29.45069 417
29.4708 412
29.49091 420
29.51103 399
29.53114 431
29.55125 413
29.57137 410
29.59148 429
29.6116 438
29.63171 415
29.65182 438
29.67194 408
29.69205 383
29.71216 432
29.73228 441
29.75239 412
29.7725 391
29.79262 442
29.81273 431
29.83285 416
29.85296 387
29.87307 376
29.89319 405
29.9133 428
29.93341 424
29.95353 421
29.97364 396
29.99376 385
30.01387 389
30.03398 395
30.0541 390
30.07421 437
30.09432 391
30.11444 385
30.13455 416
30.15467 390
30.17478 437
30.19489 438
30.21501 386
30.23512 398
30.25523 385
30.27535 405
30.29546 441
30.31557 477
30.33569 429
30.3558 374
30.37592 382
30.39603 384
30.41614 425
30.43626 422
30.45637 402
30.47648 402
30.4966 367
30.51671 386
30.53683 404
30.55694 407
30.57705 387
30.59717 369
30.61728 392
30.63739 365
30.65751 438
30.67762 412
30.69773 401
30.71785 415
30.73796 408
30.75808 421
30.77819 395
30.7983 419
30.81842 433
30.83853 439
30.85864 422
30.87876 413
30.89887 441
30.91899 412
30.9391 379
30.95921 403
30.97933 383
30.99944 355
31.01955 428
31.03967 420
31.05978 404
31.0799 393
31.10001 410
31.12012 402
31.14024 384
31.16035 367
31.18046 385
31.20058 426
31.22069 397
31.2408 414
31.26092 385
31.28103 391
31.30115 407
31.32126 381
31.34137 371
31.36149 402
31.3816 364
31.40171 397
31.42183 367
31.44194 395
31.46206 411
31.48217 382
31.50228 366
31.5224 397
31.54251 416
31.56262 382
31.58274 401
31.60285 393
31.62297 442
31.64308 403
31.66319 396
31.68331 409
31.70342 383
31.72353 385
31.74365 422
31.76376 444
31.78387 399
31.80399 406
31.8241 424
31.84422 357
31.86433 375
31.88444 440
31.90456 354
31.92467 404
31.94478 389
31.9649 391
31.98501 368
32.00513 418
32.02524 364
32.04535 382
32.06547 367
32.08558 430
32.10569 420
32.12581 406
32.14592 380
32.16604 411
32.18615 383
32.20626 404
32.22638 396
32.24649 414
32.2666 425
32.28672 396
32.30683 408
32.32694 404
32.34706 405
32.36717 424
32.38729 438
32.4074 424
32.42751 475
32.44763 479
32.46774 491
32.48785 482
32.50797 487
32.52808 495
32.5482 521
32.56831 460
32.58842 484
32.60854 505
32.62865 463
32.64876 462
32.66888 468
32.68899 440
32.7091 431
32.72922 438
32.74933 432
32.76945 414
32.78956 423
32.80967 440
32.82979 430
32.8499 470
32.87001 439
32.89013 395
32.91024 420
32.93036 423
32.95047 423
32.97058 418
32.9907 437
33.01081 470
33.03092 466
33.05104 478
33.07115 450
33.09127 437
33.11138 441
33.13149 458
33.15161 418
33.17172 467
33.19183 436
33.21195 417
33.23206 438
33.25217 479
33.27229 417
33.2924 461
33.31252 446
33.33263 476
33.35274 469
33.37286 442
33.39297 467
33.41308 475
33.4332 470
33.45331 438
33.47343 470
33.49354 442
33.51365 457
33.53377 472
33.55388 476
33.57399 459
33.59411 438
33.61422 459
33.63434 471
33.65445 445
33.67456 459
33.69468 456
33.71479 445
33.7349 465
33.75502 468
33.77513 450
33.79524 442
33.81536 459
33.83547 415
33.85559 413
33.8757 458
33.89581 440
33.91593 411
33.93604 440
33.95615 460
33.97627 435
33.99638 438
34.0165 435
34.03661 463
34.05672 400
34.07684 422
34.09695 452
34.11706 442
34.13718 440
34.15729 467
34.17741 424
34.19752 449
34.21763 393
34.23775 418
34.25786 401
34.27797 451
34.29809 415
34.3182 434
34.33831 433
34.35843 463
34.37854 417
34.39866 436
34.41877 481
34.43888 455
34.459 431
34.47911 470
34.49922 460
34.51934 470
34.53945 452
34.55957 427
34.57968 428
34.59979 450
34.61991 474
34.64002 519
34.66013 488
34.68025 467
34.70036 541
34.72047 572
34.74059 526
34.7607 527
34.78082 574
34.80093 611
34.82104 573
34.84116 619
34.86127 582
34.88138 563
34.9015 670
34.92161 617
34.94173 618
34.96184 685
34.98195 645
35.00207 663
35.02218 680
35.04229 633
35.06241 594
35.08252 584
35.10264 592
35.12275 599
35.14286 602
35.16298 641
35.18309 604
35.2032 626
35.22332 632
35.24343 598
35.26354 633
35.28366 663
35.30377 637
35.32389 638
35.344 620
35.36411 643
35.38423 579
35.40434 607
35.42445 571
35.44457 606
35.46468 620
35.4848 530
35.50491 629
35.52502 608
35.54514 573
35.56525 576
35.58536 612
35.60548 568
35.62559 569
35.64571 573
35.66582 613
35.68593 626
35.70605 597
35.72616 636
35.74627 614
35.76639 648
35.7865 639
35.80661 648
35.82673 618
35.84684 670
35.86696 639
35.88707 657
35.90718 682
35.9273 622
35.94741 639
35.96752 588
35.98764 567
36.00775 614
36.02787 584
36.04798 621
36.06809 568
36.08821 578
36.10832 572
36.12843 575
36.14855 598
36.16866 553
36.18878 580
36.20889 572
36.229 621
36.24912 545
36.26923 624
36.28934 670
36.30946 703
36.32957 716
36.34968 785
36.3698 854
36.38991 913
36.41003 1021
36.43014 1069
36.45025 1201
36.47037 1313
36.49048 1411
36.51059 1461
36.53071 1316
36.55082 1190
36.57094 1132
36.59105 1037
36.61116 950
36.63128 899
36.65139 764
36.6715 681
36.69162 675
36.71173 633
36.73184 607
36.75196 540
36.77207 596
36.79219 593
36.8123 650
36.83241 587
36.85253 578
36.87264 608
36.89275 621
36.91287 596
36.93298 610
36.9531 634
36.97321 663
36.99332 632
37.01344 637
37.03355 640
37.05366 691
37.07378 684
37.09389 659
37.11401 616
37.13412 644
37.15423 637
37.17435 623
37.19446 597
37.21457 597
37.23469 574
37.2548 587
37.27491 555
37.29503 583
37.31514 563
37.33526 562
37.35537 579
37.37548 568
37.3956 582
37.41571 533
37.43582 605
37.45594 552
37.47605 585
37.49617 604
37.51628 630
37.53639 583
37.55651 668
37.57662 704
37.59673 640
37.61685 673
37.63696 671
37.65708 658
37.67719 692
37.6973 619
37.71742 571
37.73753 612
37.75764 574
37.77776 613
37.79787 578
37.81798 576
37.8381 523
37.85821 557
37.87833 546
37.89844 520
37.91855 560
37.93867 528
37.95878 570
37.97889 526
37.99901 575
38.01912 554
38.03924 597
38.05935 556
38.07946 575
38.09958 567
38.11969 583
38.1398 607
38.15992 586
38.18003 676
38.20015 609
38.22026 627
38.24037 645
38.26049 674
38.2806 687
38.30071 680
38.32083 663
38.34094 687
38.36105 697
38.38117 678
38.40128 674
38.4214 622
38.44151 709
38.46162 660
38.48174 585
38.50185 627
38.52196 608
38.54208 625
38.56219 606
38.58231 581
38.60242 599
38.62253 595
38.64265 534
38.66276 518
38.68287 541
38.70299 551
38.7231 566
38.74321 503
38.76333 504
38.78344 532
38.80356 513
38.82367 550
38.84378 524
38.8639 543
38.88401 528
38.90412 528
38.92424 541
38.94435 542
38.96447 566
38.98458 564
39.00469 514
39.02481 551
39.04492 552
39.06503 590
39.08515 581
39.10526 627
39.12538 596
39.14549 649
39.1656 629
39.18572 710
39.20583 636
39.22594 699
39.24606 703
39.26617 768
39.28628 743
39.3064 809
39.32651 914
39.34663 1002
39.36674 1036
39.38685 1169
39.40697 1229
39.42708 1199
39.44719 1159
39.46731 1056
39.48742 921
39.50754 860
39.52765 810
39.54776 726
39.56788 643
39.58799 576
39.6081 531
39.62822 486
39.64833 480
39.66845 465
39.68856 496
39.70867 453
39.72879 473
39.7489 462
39.76901 442
39.78913 466
39.80924 456
39.82935 445
39.84947 470
39.86958 461
39.8897 501
39.90981 517
39.92992 493
39.95004 517
39.97015 554
39.99026 528
40.01038 566
40.03049 561
40.05061 538
40.07072 511
40.09083 594
40.11095 574
40.13106 675
40.15117 666
40.17129 681
40.1914 750
40.21152 851
40.23163 857
40.25174 861
40.27186 807
40.29197 783
40.31208 740
40.3322 667
40.35231 701
40.37242 608
40.39254 612
40.41265 548
40.43277 523
40.45288 535
40.47299 482
40.49311 504
40.51322 499
40.53333 470
40.55345 475
40.57356 515
40.59368 482
40.61379 484
40.6339 412
40.65402 498
40.67413 439
40.69424 489
40.71436 462
40.73447 453
40.75458 417
40.7747 466
40.79481 456
40.81493 448
40.83504 471
40.85515 452
40.87527 473
40.89538 482
40.91549 485
40.93561 492
40.95572 469
40.97584 463
40.99595 460
41.01606 436
41.03618 446
41.05629 435
41.0764 495
41.09652 447
41.11663 431
41.13675 449
41.15686 474
41.17697 484
41.19709 454
41.2172 471
41.23731 463
41.25743 485
41.27754 436
41.29765 485
41.31777 467
41.33788 449
41.358 439
41.37811 446
41.39822 445
41.41834 423
41.43845 454
41.45856 438
41.47868 486
41.49879 487
41.51891 480
41.53902 511
41.55913 482
41.57925 490
41.59936 487
41.61947 500
41.63959 490
41.6597 522
41.67982 467
41.69993 494
41.72004 514
41.74016 471
41.76027 458
41.78038 473
41.8005 500
41.82061 454
41.84072 454
41.86084 458
41.88095 450
41.90107 450
41.92118 460
41.94129 452
41.96141 441
41.98152 427
42.00163 439
42.02175 408
42.04186 392
42.06198 428
42.08209 398
42.1022 432
42.12232 442
42.14243 469
42.16254 464
42.18266 480
42.20277 501
42.22289 533
42.243 526
42.26311 579
42.28323 625
42.30334 602
42.32345 710
42.34357 842
42.36368 866
42.38379 892
42.40391 936
42.42402 877
42.44414 829
42.46425 720
42.48436 688
42.50448 648
42.52459 604
42.5447 597
42.56482 536
42.58493 430
42.60505 477
42.62516 412
42.64527 429
42.66539 376
42.6855 388
42.70561 410
42.72573 435
42.74584 382
42.76595 431
42.78607 418
42.80618 370
42.8263 406
42.84641 398
42.86652 406
42.88664 386
42.90675 354
42.92686 401
42.94698 351
42.96709 379
42.98721 354
43.00732 377
43.02743 369
43.04755 387
43.06766 381
43.08777 379
43.10789 350
43.128 378
43.14812 380
43.16823 383
43.18834 420
43.20846 346
43.22857 358
43.24868 377
43.2688 410
43.28891 399
43.30902 383
43.32914 363
43.34925 387
43.36937 356
43.38948 371
43.40959 352
43.42971 373
43.44982 378
43.46993 409
43.49005 397
43.51016 364
43.53028 380
43.55039 364
43.5705 406
43.59062 384
43.61073 370
43.63084 385
43.65096 386
43.67107 417
43.69119 407
43.7113 392
43.73141 369
43.75153 386
43.77164 383
43.79175 364
43.81187 401
43.83198 410
43.85209 390
43.87221 419
43.89232 420
43.91244 389
43.93255 402
43.95266 385
43.97278 394
43.99289 411
44.013 431
44.03312 458
44.05323 474
44.07335 402
44.09346 444
44.11357 503
44.13369 446
44.1538 474
44.17391 441
44.19403 435
44.21414 436
44.23426 462
44.25437 459
44.27448 442
44.2946 411
44.31471 408
44.33482 409
44.35494 425
44.37505 414
44.39516 388
44.41528 416
44.43539 350
44.45551 367
44.47562 420
44.49573 423
44.51585 388
44.53596 382
44.55607 394
44.57619 372
44.5963 378
44.61642 418
44.63653 403
44.65664 386
44.67676 365
44.69687 390
44.71698 387
44.7371 389
44.75721 406
44.77732 403
44.79744 400
44.81755 369
44.83767 409
44.85778 392
44.87789 400
44.89801 407
44.91812 378
44.93823 406
44.95835 414
44.97846 410
44.99858 429
45.01869 388
45.0388 402
45.05892 439
45.07903 421
45.09914 418
45.11926 377
45.13937 389
45.15949 472
45.1796 416
45.19971 441
45.21983 440
45.23994 487
45.26005 493
45.28017 508
45.30028 477
45.32039 492
45.34051 491
45.36062 524
45.38074 511
45.40085 502
45.42096 531
45.44108 528
45.46119 514
45.4813 498
45.50142 532
45.52153 539
45.54165 533
45.56176 545
45.58187 537
45.60199 565
45.6221 601
45.64221 651
45.66233 648
45.68244 681
45.70256 703
45.72267 728
45.74278 742
45.7629 751
45.78301 682
45.80312 670
45.82324 627
45.84335 560
45.86346 598
45.88358 503
45.90369 491
45.92381 488
45.94392 447
45.96403 432
45.98415 450
46.00426 406
46.02437 400
46.04449 437
46.0646 446
46.08472 419
46.10483 397
46.12494 403
46.14506 382
46.16517 420
46.18528 430
46.2054 430
46.22551 412
46.24563 376
46.26574 412
46.28585 415
46.30597 419
46.32608 378
46.34619 415
46.36631 427
46.38642 422
46.40653 399
46.42665 358
46.44676 370
46.46688 381
46.48699 334
46.5071 383
46.52722 420
46.54733 419
46.56744 410
46.58756 375
46.60767 418
46.62779 387
46.6479 376
46.66801 364
46.68813 365
46.70824 400
46.72835 422
46.74847 403
46.76858 365
46.78869 391
46.80881 373
46.82892 405
46.84904 413
46.86915 379
46.88926 438
46.90938 366
46.92949 403
46.9496 398
46.96972 395
46.98983 369
47.00995 403
47.03006 400
47.05017 407
47.07029 379
47.0904 431
47.11051 396
47.13063 425
47.15074 397
47.17086 451
47.19097 447
47.21108 404
47.2312 421
47.25131 408
47.27142 429
47.29154 430
47.31165 454
47.33176 429
47.35188 439
47.37199 426
47.39211 435
47.41222 387
47.43233 442
47.45245 430
47.47256 415
47.49267 452
47.51279 442
47.5329 417
47.55302 452
47.57313 407
47.59324 427
47.61336 388
47.63347 438
47.65358 433
47.6737 394
47.69381 388
47.71393 423
47.73404 433
47.75415 408
47.77427 427
47.79438 437
47.81449 424
47.83461 414
47.85472 394
47.87483 407
47.89495 374
47.91506 388
47.93518 406
47.95529 408
47.9754 427
47.99552 410
48.01563 388
48.03574 374
48.05586 398
48.07597 416
48.09609 389
48.1162 356
48.13631 379
48.15643 383
48.17654 394
48.19665 404
48.21677 395
48.23688 380
48.257 382
48.27711 392
48.29722 412
48.31734 401
48.33745 426
48.35756 341
48.37768 387
48.39779 388
48.4179 425
48.43802 383
48.45813 405
48.47825 361
48.49836 390
48.51847 380
48.53859 381
48.5587 392
48.57881 357
48.59893 384
48.61904 389
48.63916 358
48.65927 401
48.67938 416
48.6995 398
48.71961 384
48.73972 413
48.75984 400
48.77995 369
48.80006 390
48.82018 338
48.84029 412
48.86041 397
48.88052 402
48.90063 366
48.92075 385
48.94086 401
48.96097 389
48.98109 357
49.0012 362
49.02132 375
49.04143 416
49.06154 397
49.08166 384
49.10177 370
49.12188 403
49.142 416
49.16211 403
49.18223 391
49.20234 398
49.22245 372
49.24257 362
49.26268 385
49.28279 348
49.30291 394
49.32302 350
49.34313 402
49.36325 377
49.38336 423
49.40348 412
49.42359 336
49.4437 424
49.46382 391
49.48393 409
49.50404 384
49.52416 394
49.54427 395
49.56439 422
49.5845 417
49.60461 372
49.62473 411
49.64484 375
49.66495 420
49.68507 407
49.70518 423
49.7253 427
49.74541 465
49.76552 483
49.78564 457
49.80575 483
49.82586 533
49.84598 541
49.86609 572
49.8862 565
49.90632 625
49.92643 681
49.94655 812
49.96666 846
49.98677 992
50.00689 1163
50.027 1275
50.04711 1402
50.06723 1497
50.08734 1563
50.10746 1463
50.12757 1357
50.14768 1167
50.1678 976
50.18791 956
50.20802 952
50.22814 887
50.24825 809
50.26837 692
50.28848 623
50.30859 550
50.32871 489
50.34882 481
50.36893 448
50.38905 497
50.40916 481
50.42927 472
50.44939 464
50.4695 484
50.48962 468
50.50973 498
50.52984 499
50.54996 485
50.57007 478
50.59018 473
50.6103 481
50.63041 420
50.65053 458
50.67064 436
50.69075 425
50.71087 387
50.73098 399
50.75109 422
50.77121 372
50.79132 397
50.81143 433
50.83155 398
50.85166 427
50.87178 401
50.89189 396
50.912 413
50.93212 399
50.95223 407
50.97234 411
50.99246 406
51.01257 396
51.03269 427
51.0528 421
51.07291 398
51.09303 427
51.11314 395
51.13325 428
51.15337 379
51.17348 407
51.1936 435
51.21371 364
51.23382 387
51.25394 404
51.27405 411
51.29416 374
51.31428 384
51.33439 369
51.3545 352
51.37462 386
51.39473 346
51.41485 362
51.43496 361
51.45507 356
51.47519 367
51.4953 344
51.51541 351
51.53553 369
51.55564 357
51.57576 364
51.59587 367
51.61598 402
51.6361 388
51.65621 349
51.67632 364
51.69644 354
51.71655 395
51.73667 364
51.75678 343
51.77689 369
51.79701 371
51.81712 329
51.83723 364
51.85735 386
51.87746 347
51.89757 368
51.91769 358
51.9378 401
51.95792 379
51.97803 432
51.99814 380
52.01826 427
52.03837 412
52.05848 389
52.0786 463
52.09871 408
52.11883 410
52.13894 448
52.15905 413
52.17917 414
52.19928 440
52.21939 387
52.23951 418
52.25962 388
52.27974 420
52.29985 363
52.31996 377
52.34008 422
52.36019 396
52.3803 392
52.40042 345
52.42053 358
52.44064 389
52.46076 372
52.48087 347
52.50099 375
52.5211 358
52.54121 359
52.56133 381
52.58144 387
52.60155 367
52.62167 383
52.64178 398
52.6619 367
52.68201 383
52.70212 394
52.72224 388
52.74235 383
52.76246 409
52.78258 429
52.80269 409
52.8228 351
52.84292 389
52.86303 395
52.88315 396
52.90326 386
52.92337 383
52.94349 391
52.9636 394
52.98371 418
53.00383 405
53.02394 364
53.04406 375
53.06417 393
53.08428 424
53.1044 451
53.12451 428
53.14462 419
53.16474 406
53.18485 433
53.20497 422
53.22508 394
53.24519 407
53.26531 422
53.28542 414
53.30553 430
53.32565 455
53.34576 436
53.36587 426
53.38599 397
53.4061 450
53.42622 405
53.44633 450
53.46644 408
53.48656 419
53.50667 451
53.52678 471
53.5469 473
53.56701 441
53.58713 461
53.60724 445
53.62735 443
53.64747 465
53.66758 490
53.68769 441
53.70781 478
53.72792 468
53.74804 455
53.76815 492
53.78826 506
53.80838 500
53.82849 484
53.8486 470
53.86872 438
53.88883 482
53.90894 519
53.92906 453
53.94917 496
53.96929 436
53.9894 497
54.00951 492
54.02963 469
54.04974 491
54.06985 467
54.08997 489
54.11008 466
54.1302 453
54.15031 506
54.17042 503
54.19054 528
54.21065 493
54.23076 488
54.25088 488
54.27099 519
54.29111 529
54.31122 531
54.33133 499
54.35145 533
54.37156 578
54.39167 478
54.41179 540
54.4319 523
54.45201 490
54.47213 537
54.49224 578
54.51236 529
54.53247 507
54.55258 544
54.5727 536
54.59281 560
54.61292 541
54.63304 532
54.65315 596
54.67327 623
54.69338 640
54.71349 643
54.73361 680
54.75372 717
54.77383 751
54.79395 790
54.81406 781
54.83417 783
54.85429 772
54.8744 644
54.89452 682
54.91463 665
54.93474 653
54.95486 696
54.97497 613
54.99508 623
55.0152 551
55.03531 568
55.05543 526
55.07554 526
55.09565 504
55.11577 515
55.13588 558
55.15599 570
55.17611 535
55.19622 551
55.21634 603
55.23645 600
55.25656 584
55.27668 608
55.29679 578
55.3169 548
55.33702 550
55.35713 578
55.37724 525
55.39736 586
55.41747 526
55.43759 503
55.4577 495
55.47781 489
55.49793 456
55.51804 442
55.53815 423
55.55827 455
55.57838 397
55.5985 417
55.61861 433
55.63872 400
55.65884 425
55.67895 447
55.69906 451
55.71918 426
55.73929 390
55.75941 431
55.77952 364
55.79963 434
55.81975 439
55.83986 392
55.85997 438
55.88009 418
55.9002 409
55.92031 446
55.94043 432
55.96054 403
55.98066 430
56.00077 406
56.02088 407
56.041 380
56.06111 388
56.08122 394
56.10134 377
56.12145 415
56.14157 433
56.16168 423
56.18179 436
56.20191 426
56.22202 404
56.24213 419
56.26225 423
56.28236 385
56.30248 419
56.32259 389
56.3427 429
56.36282 398
56.38293 430
56.40304 407
56.42316 409
56.44327 364
56.46338 401
56.4835 380
56.50361 397
56.52373 370
56.54384 373
56.56395 377
56.58407 364
56.60418 363
56.62429 357
56.64441 367
56.66452 425
56.68464 380
56.70475 373
56.72486 381
56.74498 440
56.76509 410
56.7852 414
56.80532 385
56.82543 396
56.84554 394
56.86566 382
56.88577 344
56.90589 389
56.926 416
56.94611 374
56.96623 368
56.98634 381
57.00645 374
57.02657 369
57.04668 373
57.0668 377
57.08691 356
57.10702 383
57.12714 410
57.14725 394
57.16736 363
57.18748 374
57.20759 392
57.22771 356
57.24782 369
57.26793 396
57.28805 375
57.30816 376
57.32827 377
57.34839 384
57.3685 345
57.38861 354
57.40873 384
57.42884 401
57.44896 368
57.46907 363
57.48918 388
57.5093 366
57.52941 337
57.54952 399
57.56964 372
57.58975 403
57.60987 382
57.62998 355
57.65009 375
57.67021 373
57.69032 394
57.71043 358
57.73055 385
57.75066 382
57.77078 357
57.79089 379
57.811 385
57.83112 406
57.85123 376
57.87134 373
57.89146 383
57.91157 370
57.93168 394
57.9518 389
57.97191 393
57.99203 398
58.01214 405
58.03225 363
58.05237 344
58.07248 386
58.09259 385
58.11271 362
58.13282 399
58.15294 392
58.17305 355
58.19316 385
58.21328 346
58.23339 348
58.2535 367
58.27362 369
58.29373 386
58.31385 340
58.33396 355
58.35407 394
58.37419 360
58.3943 357
58.41441 374
58.43453 327
58.45464 341
58.47475 366
58.49487 399
58.51498 380
58.5351 383
58.55521 369
58.57532 365
58.59544 383
58.61555 376
58.63566 381
58.65578 365
58.67589 387
58.69601 392
58.71612 325
58.73623 385
58.75635 360
58.77646 365
58.79657 381
58.81669 365
58.8368 360
58.85691 352
58.87703 372
58.89714 366
58.91726 359
58.93737 359
58.95748 342
58.9776 344
58.99771 358
59.01782 348
59.03794 403
59.05805 369
59.07817 366
59.09828 357
59.11839 375
59.13851 391
59.15862 343
59.17873 380
59.19885 380
59.21896 420
59.23908 390
59.25919 415
59.2793 406
59.29942 413
59.31953 388
59.33964 405
59.35976 410
59.37987 398
59.39998 390
59.4201 385
59.44021 418
59.46033 418
59.48044 426
59.50055 434
59.52067 414
59.54078 380
59.56089 431
59.58101 475
59.60112 473
59.62124 473
59.64135 490
59.66146 501
59.68158 555
59.70169 562
59.7218 600
59.74192 671
59.76203 710
59.78215 775
59.80226 909
59.82237 936
59.84249 970
59.8626 1140
59.88271 1121
59.90283 1120
59.92294 1056
59.94305 900
59.96317 871
59.98328 806
60.0034 762
60.02351 755
60.04362 791
60.06374 690
60.08385 714
60.10396 657
60.12408 575
60.14419 500
60.16431 461
60.18442 472
60.20453 452
60.22465 402
60.24476 405
60.26487 416
60.28499 404
60.3051 398
60.32522 437
60.34533 386
60.36544 393
60.38556 370
60.40567 370
60.42578 397
60.4459 373
60.46601 416
60.48612 383
60.50624 381
60.52635 384
60.54647 375
60.56658 329
60.58669 383
60.60681 390
60.62692 397
60.64703 352
60.66715 394
60.68726 393
60.70738 403
60.72749 350
60.7476 326
60.76772 334
60.78783 338
60.80794 382
60.82806 374
60.84817 388
60.86828 350
60.8884 367
60.90851 363
60.92863 371
60.94874 386
60.96885 370
60.98897 318
61.00908 377
61.02919 316
61.04931 340
61.06942 369
61.08954 358
61.10965 358
61.12976 348
61.14988 339
61.16999 340
61.1901 359
61.21022 343
61.23033 354
61.25045 327
61.27056 344
61.29067 382
61.31079 352
61.3309 392
61.35101 349
61.37113 381
61.39124 390
61.41135 368
61.43147 342
61.45158 384
61.4717 359
61.49181 388
61.51192 369
61.53204 374
61.55215 370
61.57226 341
61.59238 390
61.61249 375
61.63261 397
61.65272 385
61.67283 439
61.69295 372
61.71306 409
61.73317 417
61.75329 397
61.7734 352
61.79352 425
61.81363 402
61.83374 415
61.85386 453
61.87397 445
61.89408 417
61.9142 422
61.93431 483
61.95442 495
61.97454 458
61.99465 501
62.01477 420
62.03488 531
62.05499 491
62.07511 526
62.09522 506
62.11533 460
62.13545 491
62.15556 549
62.17568 499
62.19579 517
62.2159 532
62.23602 567
62.25613 559
62.27624 499
62.29636 571
62.31647 521
62.33659 546
62.3567 475
62.37681 516
62.39693 481
62.41704 463
62.43715 454
62.45727 451
62.47738 455
62.49749 462
62.51761 412
62.53772 393
62.55784 418
62.57795 443
62.59806 418
62.61818 428
62.63829 400
62.6584 376
62.67852 378
62.69863 348
62.71875 396
62.73886 361
62.75897 373
62.77909 398
62.7992 371
62.81931 377
62.83943 383
62.85954 357
62.87965 350
62.89977 379
62.91988 345
62.94 366
62.96011 351
62.98022 394
63.00034 369
63.02045 341
63.04056 372
63.06068 308
63.08079 374
63.10091 387
63.12102 372
63.14113 393
63.16125 414
63.18136 372
63.20147 392
63.22159 355
63.2417 394
63.26182 366
63.28193 363
63.30204 355
63.32216 362
63.34227 387
63.36238 354
63.3825 347
63.40261 366
63.42272 424
63.44284 382
63.46295 369
63.48307 387
63.50318 385
63.52329 373
63.54341 405
63.56352 360
63.58363 388
63.60375 391
63.62386 430
63.64398 422
63.66409 397
63.6842 405
63.70432 463
63.72443 421
63.74454 442
63.76466 434
63.78477 454
63.80489 477
63.825 449
63.84511 493
63.86523 479
63.88534 466
63.90545 513
63.92557 509
63.94568 539
63.96579 485
63.98591 481
64.00602 521
64.02614 454
64.04625 455
64.06636 458
64.08648 453
64.10659 428
64.1267 446
64.14682 427
64.16693 416
64.18705 435
64.20716 430
64.22727 392
64.24739 371
64.2675 378
64.28761 353
64.30773 340
64.32784 375
64.34796 361
64.36807 369
64.38818 398
64.4083 335
64.42841 356
64.44852 368
64.46864 379
64.48875 380
64.50886 368
64.52898 386
64.54909 365
64.56921 402
64.58932 373
64.60943 382
64.62955 378
64.64966 385
64.66977 378
64.68989 361
64.71 369
64.73012 334
64.75023 368
64.77034 353
64.79046 354
64.81057 371
64.83068 372
64.8508 346
64.87091 345
64.89102 346
64.91114 317
64.93125 355
64.95137 346
64.97148 341
64.99159 354
65.01171 379
65.03182 350
65.05193 339
65.07205 359
65.09216 358
65.11228 352
65.13239 364
65.1525 356
65.17262 354
65.19273 351
65.21284 331
65.23296 344
65.25307 332
65.27319 344
65.2933 343
65.31341 326
65.33353 354
65.35364 347
65.37375 319
65.39387 353
65.41398 352
65.43409 359
65.45421 374
65.47432 324
65.49444 349
65.51455 346
65.53466 368
65.55478 335
65.57489 364
65.595 354
65.61512 358
65.63523 344
65.65535 367
65.67546 364
65.69557 358
65.71569 390
65.7358 360
65.75591 385
65.77603 378
65.79614 343
65.81626 364
65.83637 366
65.85648 378
65.8766 338
65.89671 314
65.91682 394
65.93694 366
65.95705 364
65.97716 343
65.99728 381
66.01739 342
66.03751 381
66.05762 407
66.07773 364
66.09785 370
66.11796 356
66.13807 369
66.15819 344
66.1783 377
66.19842 385
66.21853 344
66.23864 398
66.25876 384
66.27887 390
66.29898 346
66.3191 342
66.33921 373
66.35933 350
66.37944 376
66.39955 356
66.41967 342
66.43978 350
66.45989 362
66.48001 370
66.50012 320
66.52023 347
66.54035 341
66.56046 377
66.58058 383
66.60069 355
66.6208 389
66.64092 347
66.66103 411
66.68114 350
66.70126 347
66.72137 358
66.74149 344
66.7616 348
66.78171 357
66.80183 389
66.82194 328
66.84205 368
66.86217 315
66.88228 342
66.90239 386
66.92251 376
66.94262 375
66.96274 357
66.98285 353
67.00296 349
67.02308 343
67.04319 337
67.0633 330
67.08342 356
67.10353 348
67.12365 346
67.14376 370
67.16387 357
67.18399 343
67.2041 369
67.22421 334
67.24433 374
67.26444 379
67.28456 381
67.30467 358
67.32478 370
67.3449 355
67.36501 390
67.38512 387
67.40524 400
67.42535 400
67.44546 451
67.46558 418
67.48569 477
67.50581 497
67.52592 494
67.54603 537
67.56615 577
67.58626 616
67.60637 680
67.62649 676
67.6466 725
67.66672 749
67.68683 780
67.70694 666
67.72706 686
67.74717 662
67.76728 653
67.7874 620
67.80751 617
67.82763 585
67.84774 636
67.86785 664
67.88797 640
67.90808 660
67.92819 636
67.94831 663
67.96842 664
67.98853 748
68.00865 776
68.02876 840
68.04888 806
68.06899 882
68.0891 870
68.10922 875
68.12933 858
68.14944 815
68.16956 784
68.18967 813
68.20979 846
68.2299 850
68.25001 933
68.27013 891
68.29024 857
68.31035 688
68.33047 661
68.35058 589
68.3707 535
68.39081 551
68.41092 540
68.43104 542
68.45115 473
68.47126 495
68.49138 458
68.51149 410
68.5316 407
68.55172 380
68.57183 376
68.59195 358
68.61206 349
68.63217 381
68.65229 337
68.6724 343
68.69251 352
68.71263 359
68.73274 325
68.75286 383
68.77297 368
68.79308 359
68.8132 369
68.83331 356
68.85342 357
68.87354 358
68.89365 376
68.91376 364
68.93388 351
68.95399 328
68.97411 338
68.99422 340
69.01433 363
69.03445 308
69.05456 347
69.07467 331
69.09479 334
69.1149 327
69.13502 364
69.15513 366
69.17524 327
69.19536 353
69.21547 310
69.23558 319
69.2557 358
69.27581 302
69.29593 327
69.31604 317
69.33615 365
69.35627 340
69.37638 338
69.39649 325
69.41661 323
69.43672 306
69.45683 342
69.47695 306
69.49706 327
69.51718 323
69.53729 306
69.5574 318
69.57752 330
69.59763 339
69.61774 334
69.63786 320
69.65797 347
69.67809 332
69.6982 337
69.71831 348
69.73843 363
69.75854 325
69.77865 294
69.79877 373
69.81888 369
69.839 337
69.85911 345
69.87922 335
69.89934 377
69.91945 336
69.93956 346
69.95968 323
69.97979 344
69.9999 333
70.02002 322
70.04013 321
70.06025 335
70.08036 350
70.10047 340
70.12059 336
70.1407 355
70.16081 339
70.18093 352
70.20104 339
70.22116 341
70.24127 319
70.26138 307
70.2815 335
70.30161 323
70.32172 340
70.34184 324
70.36195 340
70.38207 354
70.40218 302
70.42229 311
70.44241 318
70.46252 290
70.48263 296
70.50275 324
70.52286 350
70.54297 309
70.56309 333
70.5832 324
70.60332 336
70.62343 311
70.64354 343
70.66366 299
70.68377 309
70.70388 299
70.724 308
70.74411 321
70.76423 329
70.78434 327
70.80445 330
70.82457 306
70.84468 307
70.86479 313
70.88491 316
70.90502 325
70.92513 327
70.94525 309
70.96536 312
70.98548 307
71.00559 313
71.0257 307
71.04582 326
71.06593 314
71.08604 304
71.10616 337
71.12627 331
71.14639 300
71.1665 308
71.18661 315
71.20673 322
71.22684 292
71.24695 327
71.26707 302
71.28718 321
71.3073 314
71.32741 346
71.34752 326
71.36764 311
71.38775 309
71.40786 321
71.42798 300
71.44809 316
71.4682 319
71.48832 339
71.50843 307
71.52855 313
71.54866 316
71.56877 294
71.58889 318
71.609 316
71.62911 302
71.64923 332
71.66934 301
71.68946 323
71.70957 329
71.72968 332
71.7498 296
71.76991 308
71.79002 335
71.81014 331
71.83025 353
71.85037 355
71.87048 317
71.89059 339
71.91071 311
71.93082 316
71.95093 305
71.97105 321
71.99116 302
72.01127 318
72.03139 323
72.0515 347
72.07162 327
72.09173 333
72.11184 326
72.13196 314
72.15207 332
72.17218 342
72.1923 356
72.21241 337
72.23253 343
72.25264 295
72.27275 335
72.29287 334
72.31298 317
72.33309 320
72.35321 335
72.37332 287
72.39344 366
72.41355 341
72.43366 332
72.45378 321
72.47389 322
72.494 318
72.51412 316
72.53423 318
72.55434 330
72.57446 321
72.59457 342
72.61469 335
72.6348 300
72.65491 299
72.67503 292
72.69514 326
72.71525 296
72.73537 334
72.75548 316
72.7756 279
72.79571 316
72.81582 325
72.83594 303
72.85605 324
72.87616 316
72.89628 337
72.91639 308
72.9365 323
72.95662 322
72.97673 346
72.99685 316
73.01696 327
73.03707 324
73.05719 348
73.0773 339
73.09741 336
73.11753 331
73.13764 315
73.15776 323
73.17787 356
73.19798 365
73.2181 357
73.23821 367
73.25832 368
73.27844 388
73.29855 420
73.31867 445
73.33878 428
73.35889 448
73.37901 438
73.39912 464
73.41923 470
73.43935 425
73.45946 430
73.47957 425
73.49969 364
73.5198 399
73.53992 392
73.56003 346
73.58014 382
73.60026 352
73.62037 394
73.64048 395
73.6606 369
73.68071 337
73.70083 326
73.72094 351
73.74105 327
73.76117 349
73.78128 330
73.80139 327
73.82151 311
73.84162 293
73.86174 319
73.88185 293
73.90196 297
73.92208 345
73.94219 300
73.9623 311
73.98242 308
74.00253 314
74.02264 278
74.04276 326
74.06287 311
74.08299 302
74.1031 295
74.12321 285
74.14333 316
74.16344 309
74.18355 299
74.20367 306
74.22378 338
74.2439 286
74.26401 309
74.28412 305
74.30424 332
74.32435 347
74.34446 315
74.36458 320
74.38469 296
74.40481 308
74.42492 295
74.44503 306
74.46515 298
74.48526 284
74.50537 332
74.52549 314
74.5456 308
74.56571 327
74.58583 316
74.60594 301
74.62606 319
74.64617 316
74.66628 317
74.6864 306
74.70651 300
74.72662 294
74.74674 311
74.76685 317
74.78697 295
74.80708 281
74.82719 300
74.84731 309
74.86742 306
74.88753 335
74.90765 288
74.92776 307
74.94787 319
74.96799 309
74.9881 299
75.00822 290
