3.00117 21575.9451029167
3.02128 20552.4581107192
3.0414 20505
3.06151 20049.6097308312
3.08162 19263.4828771572
3.10174 18805.2776512614
3.12185 17837.7229924271
3.14197 18089.176965472
3.16208 17299.8413847326
3.18219 16834.1315357908
3.20231 16414.6270095532
3.22242 15649.7126098991
3.24253 15638.3716049975
3.26265 14737.1000328591
3.28276 14455.1381318081
3.30288 14194.583944871
3.32299 13497.2266064033
3.3431 13346
3.36322 12974.4356158373
3.38333 12460.6266375571
3.40344 12311.1645962146
3.42356 11670.8688403585
3.44367 11504.3742981567
3.46379 10977.3173784725
3.4839 10495
3.50401 10378.8703971558
3.52413 10005.6997673352
3.54424 9863.04714270656
3.56435 9147.1350827756
3.58447 9084.04479050885
3.60458 8768.55459593563
3.62469 8241.1335717685
3.64481 8130.86033109003
3.66492 7662.65832371992
3.68504 7445.20354667415
3.70515 6917.27180516156
3.72526 6919.01444411165
3.74538 6728.24469101996
3.76549 6513.11280108143
3.7856 6243
3.80572 5931.69382206106
3.82583 5662.691274101
3.84595 5475.42125230288
3.86606 5203.47582495463
3.88617 5041.1679090615
3.90629 4901.10804892658
3.9264 4660
3.94651 4507.84295852657
3.96663 4121.71671709463
3.98674 4161.07158389195
4.00686 4020.51320337123
4.02697 3804.11043529047
4.04708 3803.09772591787
4.0672 3541
4.08731 3310.95441004632
4.10742 3259.84588332298
4.12754 3062.93437596673
4.14765 3170.95068522376
4.16776 3018.35991206569
4.18788 2877.1775411191
4.20799 2656.0951518595
4.22811 2593.04549780531
4.24822 2665.85606705367
4.26833 2371.73606820344
4.28845 2418.27269377454
4.30856 2436.13863465173
4.32867 2313.21826023468
4.34879 2211.0101156258
4.3689 2213
4.38902 2080.92156256809
4.40913 2092.03816252357
4.42924 2072.9051365925
4.44936 1981.33123462391
4.46947 1814.09284652666
4.48958 1865.93103748422
4.5097 1873
4.52981 1835.99645888317
4.54992 1821.91390103469
4.57004 1691.84279493355
4.59015 1696.93077673707
4.61027 1693.04311045865
4.63038 1665.00808640387
4.65049 1651.0321835342
4.67061 1552.96571109975
4.69072 1554.0493810835
4.71083 1592.98572204509
4.73095 1550.94859506751
4.75106 1539.13753131547
4.77118 1428.07093270783
4.79129 1431.98356729764
4.8114 1455
4.83152 1447.9348878672
4.85163 1389.06508683238
4.87174 1457.84370772383
4.89186 1268.18090392773
4.91197 1360.77235393465
4.93209 1418.03449540298
4.9522 1308
4.97231 1344.99274153756
4.99243 1251.88649282803
5.01254 1249.06241190302
5.03265 1251.12954885823
5.05277 1178.0534881697
5.07288 1165.06251149473
5.09299 1071.01671485837
5.11311 1127.04130017703
5.13322 1168.99536851504
5.15334 1118.82351598211
5.17345 1052.02090108382
5.19356 1105.96798659681
5.21368 1083.97711436386
5.23379 1125.02550032212
5.2539 991
5.27402 989.029983507067
5.29413 984.937291057576
5.31425 949.04452536104
5.33436 997.981394998047
5.35447 973.971080450809
5.37459 1006.03146829631
5.3947 875
5.41481 906.00789800417
5.43493 878.012795556144
5.45504 938.092161108716
5.47516 918.146266949898
5.49527 844.051002522385
5.51538 847.00314709438
5.5355 816
5.55561 806.014247290053
5.57572 844.006547106818
5.59584 822.991847670477
5.61595 843.975813993339
5.63606 819.092998560083
5.65618 782.008610560351
5.67629 801.984984605069
5.69641 814.993473651114
5.71652 783.968399590914
5.73663 769.003321694304
5.75675 774.989846893455
5.77686 768.972110052302
5.79697 799.965705538031
5.81709 787.025765819548
5.8372 716
5.85732 694.043429311717
5.87743 763.051195263199
5.89754 755.003569871039
5.91766 758.111921378008
5.93777 669.051655029225
5.95788 715.93223135675
5.978 737
5.99811 703.014178731137
6.01823 747.929596084179
6.03834 636.923312803578
6.05845 689.932337714733
6.07857 649.050826370967
6.09868 667.957328184758
6.11879 687.011720529989
6.13891 645.992791029495
6.15902 676.048439555502
6.17913 705.999563008476
6.19925 680.918547335755
6.21936 662.001016851284
6.23948 671.992000945433
6.25959 652.030649746192
6.2797 590
6.29982 636.043322238028
6.31993 659.059977993525
6.34004 708.023530561342
6.36016 683.030619566904
6.38027 689.01069691315
6.40039 650.027249805088
6.4205 618
6.44061 655.008176735164
6.46073 637.971414132007
6.48084 632.988627329262
6.50095 627.970148194769
6.52107 659.942385896123
6.54118 675.025265400561
6.56129 634.007378259145
6.58141 664.025688540889
6.60152 675.934470018634
6.62164 581.931596416161
6.64175 635.202302038975
6.66186 670.054043062437
6.68198 622.012096544556
6.70209 647.995221071635
6.7222 628
6.74232 649.026146404049
6.76243 654.976117309509
6.78255 635.9966761775
6.80266 649.987357449215
6.82277 647.982315878947
6.84289 662.008889688217
6.863 613
6.88311 600.00651884359
6.90323 616.002805606939
6.92334 616.054357808704
6.94346 661.947437025287
6.96357 661.993164720854
6.98368 667.029612045253
7.0038 613
7.02391 605.988087038464
7.04402 568.996074436829
7.06414 601.049574938396
7.08425 602.984771205712
7.10436 620.979361988165
7.12448 626.975629096698
7.14459 642.02258550918
7.16471 567.990220574892
7.18482 624.069955073625
7.20493 666.048256264053
7.22505 669.846068017537
7.24516 581.078076718082
7.26527 594.01246368151
7.28539 558.99656803411
7.3055 601
7.32562 570.019364285206
7.34573 641.06095494715
7.36584 617.921807535378
7.38596 602.001041295298
7.40607 597.031784248677
7.42618 580.977326827906
7.4463 633
7.46641 622.975877354827
7.48653 581.000149972815
7.50664 610.018701171966
7.52675 594.989327927656
7.54687 611.035292891988
7.56698 557.023292469259
7.58709 575.993989286072
7.60721 562.996578146291
7.62732 584.039344641211
7.64743 610.989080569514
7.66755 572.89165869921
7.68766 552.984523486775
7.70778 583.954536730723
7.72789 613.005271608344
7.748 572
7.76812 561.011341225473
7.78823 595.0936037797
7.80834 633.913807174166
7.82846 549.053496663434
7.84857 591.961920292445
7.86869 569.007407997767
7.8888 579
7.90891 560.003777542874
7.92903 598.047199040476
7.94914 594.941601113818
7.96925 584.88418663034
7.98937 634.059649321294
8.00948 530.050766935379
8.0296 572
8.04971 599.013583296155
8.06982 617.971268056772
8.08994 567.990226661547
8.11005 614.092401021507
8.13016 610.035337542715
8.15028 596.020151190581
8.17039 575.003090894343
8.1905 584
8.21062 595.029849901685
8.23073 621.977563146991
8.25085 564.850182159923
8.27096 547.932076439477
8.29107 604.934418940497
8.31119 613.007317610447
8.3313 589
8.35141 570.008854308558
8.37153 600.996753823493
8.39164 575.011207268164
8.41176 619.927896120705
8.43187 626.992427461016
8.45198 625.041287639835
8.4721 569
8.49221 602.011904502385
8.51232 588.977140336136
8.53244 586.039911014821
8.55255 612.963869546338
8.57266 615.976921423198
8.59278 628.015926802378
8.61289 597.002207770895
8.63301 610.991361803258
8.65312 559.962939643173
8.67323 572.074009722313
8.69335 614.002312801436
8.71346 598.945496615624
8.73357 649.008272631056
8.75369 594.009790152066
8.7738 621
8.79392 588.000848850621
8.81403 624.00840166493
8.83414 580.910944020891
8.85426 576.935599365088
8.87437 617.960573199175
8.89448 612.032677972819
8.9146 582
8.93471 603.008698127001
8.95483 601.989438781814
8.97494 595.979750252406
8.99505 582.029978379809
9.01517 581.975371264502
9.03528 592.023917019241
9.05539 565.984178807739
9.07551 629.003776615407
9.09562 560.922936439765
9.11573 539.048416097143
9.13585 586.056995431738
9.15596 578.014455352129
9.17608 587.988036289939
9.19619 591.000916369005
9.2163 580
9.23642 548.990500571116
9.25653 556.996944578323
9.27664 551.047127883821
9.29676 585.017638410782
9.31687 537.045424506238
9.33699 559.972466556574
9.3571 604
9.37721 587.994498237159
9.39733 591.99751334526
9.41744 562.885621656895
9.43755 511.027304396001
9.45767 551.89744427047
9.47778 599.997029239784
9.4979 569
9.51801 570.012252609126
9.53812 582.972973489381
9.55824 560.107565183812
9.57835 655.068756518901
9.59846 596.112415465311
9.61858 584.014393430325
9.63869 563.990883261617
9.6588 595
9.67892 524.968702034443
9.69903 570.115266405191
9.71915 620.018520716604
9.73926 581.146643442364
9.75937 521.013906257594
9.77949 552.986813348335
9.7996 543
9.81971 531.015162437074
9.83983 584.047552070912
9.85994 575.953731252822
9.88006 579.902709382319
9.90017 623.046742745204
9.92028 539.045787904791
9.9404 557
9.96051 540.991820291512
9.98062 542.003711890467
10.00074 556.092729350861
10.02085 595.077652507205
10.04097 517.057808589041
10.06108 543.967384783572
10.08119 547.001175483644
10.10131 549.997352045347
10.12142 537.996639657603
10.14153 542.996837906738
10.16165 536.014468298688
10.18176 560.935110748214
10.20187 587.970917174035
10.22199 595.004216872497
10.2421 576
10.26222 569.016558482111
10.28233 586.982096337104
10.30244 557.996317187565
10.32256 580.00331855828
10.34267 554.00530867146
10.36278 575.996333915438
10.3829 556
10.40301 568.997760208703
10.42313 538.958183765107
10.44324 542.071217941488
10.46335 590.899598671713
10.48347 595.05771708086
10.50358 542.032206097493
10.52369 545.98955609707
10.54381 570.016096640281
10.56392 590.98463488083
10.58403 545.936159319865
10.60415 544.113960203201
10.62426 578.088302858688
10.64438 497.009394753879
10.66449 558.987669893789
10.6846 535
10.70472 601.003430498438
10.72483 534.942258860669
10.74494 561.063216935285
10.76506 556.050291120404
10.78517 541.981735776306
10.80529 576.980551562144
10.8254 597
10.84551 580.99376431224
10.86563 581.008667299045
10.88574 577.96071750629
10.90585 556.004235619839
10.92597 573.978124967164
10.94608 572.00882966029
10.9662 569
10.98631 586.013635993871
11.00642 603.989524074004
11.02654 574.963381454262
11.04665 581.954960259681
11.06676 606.916590530081
11.08688 634.02971922344
11.10699 572.013508783501
11.1271 597
11.14722 588.968749757518
11.16733 563.99890896692
11.18745 595.130840732812
11.20756 637.976274050568
11.22767 628.002686896066
11.24779 634.008368271108
11.2679 600
11.28801 626.026035578135
11.30813 641.897566394614
11.32824 548.981664621684
11.34836 614.95185988071
11.36847 572.028134480485
11.38858 613.952354266263
11.4087 652
11.42881 705.979467268918
11.44892 621.004592517974
11.46904 709.064119051412
11.48915 650.115085175448
11.50927 663.973388710693
11.52938 649.027896816768
11.54949 644.981423844123
11.56961 682.990300055819
11.58972 632.001518495653
11.60983 709.137028454871
11.62995 757.014926032948
11.65006 733.086967676387
11.67017 688.056615139149
11.69029 678.983418367224
11.7104 714
11.73052 671.012788510014
11.75063 750.111255561407
11.77074 752.86973564236
11.79086 701.913636144973
11.81097 806.919072260203
11.83108 779.028592504809
11.8512 794
11.87131 794.995065967078
11.89143 777.955218112255
11.91154 761.055666230697
11.93165 816.913788664671
11.95177 807.043197040954
11.97188 808.943117811481
11.99199 893.96965822551
12.01211 890.972605642646
12.03222 836.988362689457
12.05234 865.047884806272
12.07245 871.042918189178
12.09256 904.947087121636
12.11268 906.018811578303
12.13279 886.003910422925
12.1529 884
12.17302 869.019580853154
12.19313 915.045017952954
12.21324 910.970988633801
12.23336 904.009524847403
12.25347 911.945081024831
12.27359 949.003787928305
12.2937 893
12.31381 868.008756649825
12.33393 900.020663052104
12.35404 876.907909507884
12.37415 819.176486978521
12.39427 759.034493245224
12.41438 769.984004990049
12.4345 788
12.45461 839.003809207466
12.47472 795.947672629852
12.49484 759.931846932239
12.51495 725.057142888455
12.53506 703.088363944805
12.55518 657.003183330507
12.57529 693.985089117082
12.5954 681
12.61552 648.010730536189
12.63563 689.038413928032
12.65575 683.985202830268
12.67586 682.045315541374
12.69597 638.06085346881
12.71609 622.995635316947
12.7362 629
12.75631 593.994958885011
12.77643 623.065743042349
12.79654 633.907974965399
12.81666 570.035024159472
12.83677 610.928104525808
12.85688 614.042774339845
12.877 566
12.89711 579.992463232636
12.91722 540.996506140072
12.93734 574.022629532115
12.95745 551.029639167227
12.97757 574.941491595256
12.99768 585.042705578247
13.01779 533.995161736027
13.03791 600.024275131014
13.05802 589.963047731256
13.07813 547.915959516161
13.09825 495.95119034798
13.11836 521.887285510443
13.13847 574.955455220292
13.15859 563.026256586573
13.1787 517
13.19882 562.020004920831
13.21893 540.975982308023
13.23904 545.992842076241
13.25916 528.016632307029
13.27927 539.971449751016
13.29938 536.043910910103
13.3195 479
13.33961 508.030682999514
13.35973 544.965011067161
13.37984 486.937721947853
13.39995 505.921592160547
13.42007 517.007092585728
13.44018 517.976539863745
13.46029 552.990883534257
13.48041 540.986156888412
13.50052 523.003011037923
13.52064 521.917802867384
13.54075 484.111986233495
13.56086 587.883317661889
13.58098 555.066938519837
13.60109 524.989238108019
13.6212 559
13.64132 524.005043625488
13.66143 571.034964485578
13.68154 539.898170996484
13.70166 514.973271106692
13.72177 541.994353253153
13.74189 519.008122416291
13.762 524
13.78211 511.98267167819
13.80223 469.954899640902
13.82234 466.035629090745
13.84245 487.969077805
13.86257 494.971416554695
13.88268 516.005075711927
13.9028 504
13.92291 543.987755020288
13.94302 452.917240771376
13.96314 436.066925223161
13.98325 476.949380236849
14.00336 480.961038620524
14.02348 509.002836196378
14.04359 483.999516849041
14.06371 515.008387690638
14.08382 491.955657654404
14.10393 455.976721103911
14.12405 457.005235033961
14.14416 464.932446915257
14.16427 501.00902861851
14.18439 473.991233955084
14.2045 534
14.22461 515.985284136192
14.24473 499.972936598275
14.26484 463.892499954176
14.28496 421.99879192107
14.30507 457.949222365631
14.32518 478.965811391455
14.3453 510
14.36541 457.982522797068
14.38552 466.024083878576
14.40564 486.044421104422
14.42575 487.125095598386
14.44587 427.992486659782
14.46598 496.94067696443
14.48609 484.037493548199
14.50621 419.004020949755
14.52632 476.019110247883
14.54643 443.984789228495
14.56655 474.039379236486
14.58666 473.927372752504
14.60677 533.973260675253
14.62689 494.023736941614
14.647 481
14.66712 493.991665777487
14.68723 477.011070433185
14.70734 498.9877953632
14.72746 468.019270769456
14.74757 495.946239442872
14.76768 504.026227822744
14.7878 470
14.80791 479.993992644505
14.82803 454.012967034756
14.84814 488.003201925557
14.86825 456.022360722232
14.88837 493.921973674193
14.90848 501.06478704766
14.92859 432.987316602314
14.94871 533.029243396398
14.96882 511.97617574712
14.98894 513.960341541397
15.00905 464.906231582658
15.02916 463.958553115224
15.04928 479.003442681907
15.06939 464.003428356937
15.0895 476
15.10962 486.987904072432
15.12973 486.084538352
15.14984 555.985762211403
15.16996 474.126106250364
15.19007 488.910201403823
15.21019 528.007732376237
15.2303 474
15.25041 474.012412606061
15.27053 495.008982046633
15.29064 484.967830669884
15.31075 478.973515613452
15.33087 490.016973636348
15.35098 463.012923933465
15.3711 473
15.39121 475.000033515734
15.41132 483.017446751205
15.43144 503.027491801374
15.45155 507.9947946569
15.47166 504.038318497081
15.49178 472.032732312733
15.51189 463.984667676768
15.53201 497.993761368562
15.55212 442.956405469282
15.57223 437.007426577356
15.59235 443.059615396397
15.61246 483.920914804767
15.63257 498.027364780399
15.65269 461.017483967375
15.6728 450
15.69291 470.001211040848
15.71303 462.016920843994
15.73314 483.988774905314
15.75326 460.983509931111
15.77337 500.964827085109
15.79348 472.068949832946
15.8136 424
15.83371 492.01889868058
15.85382 473.975190396301
15.87394 462.949809905532
15.89405 438.948086193319
15.91417 496.934812356469
15.93428 493.033222072931
15.95439 458.01342736319
15.97451 457.01658780466
15.99462 501.022533481768
16.01473 494.984945797217
16.03485 493.991876774448
16.05496 484.019410961478
16.07508 474.017522235817
16.09519 467.983976787844
16.1153 517
16.13542 485.951340800224
16.15553 472.064343178656
16.17564 522.975483395574
16.19576 454.09410004355
16.21587 470.931443233971
16.23598 497.007522474392
16.2561 467
16.27621 466.012239073737
16.29633 496.024019132087
16.31644 493.989783769857
16.33655 496.981638191484
16.35667 494.036370272535
16.37678 461.017667717144
16.39689 466.992891272555
16.41701 482.011733998596
16.43712 498.987416954071
16.45724 467.969943970021
16.47735 482.055654477724
16.49746 488.028641623634
16.51758 472.991937935124
16.53769 494.000063569342
16.5578 472
16.57792 480.000232803391
16.59803 476.032148249318
16.61814 495.923733004383
16.63826 417.088645129633
16.65837 450.87746792682
16.67849 521.984641936254
16.6986 499
16.71871 458.011480581178
16.73883 508.998774451053
16.75894 452.929693074946
16.77905 471.922831065835
16.79917 471.051711882463
16.81928 431.015126642214
16.8394 444
16.85951 454.013435788441
16.87962 497.03655111079
16.89974 499.928111958693
16.91985 473.903751527151
16.93996 539.997262269005
16.96008 484.013318115263
16.98019 518.006975516484
17.00031 454.991383641994
17.02042 506.047335053725
17.04053 493.916059717106
17.06065 445.993398401058
17.08076 482.932813467527
17.10087 489.005393122051
17.12099 488.002120728406
17.1411 482
17.16121 480.992325729675
17.18133 453.967175596448
17.20144 453.038903515261
17.22156 480.951239788789
17.24167 496.978948319684
17.26178 503.014810966892
17.2819 474
17.30201 469.003318612823
17.32212 480.014695157051
17.34224 495.024395688196
17.36235 489.091099072605
17.38247 451.991950891745
17.40258 497.958510234453
17.42269 493.024424244845
17.44281 443.996441236746
17.46292 483.047625597285
17.48303 494.953060949439
17.50315 458.006995373415
17.52326 492.971797567644
17.54338 470.023507773141
17.56349 473.988394293539
17.5836 488
17.60372 468.021614971092
17.62383 508.988095203667
17.64394 470.031542744625
17.66406 539.92633668065
17.68417 513.052820633213
17.70428 501.012414261547
17.7244 486
17.74451 506.005072872778
17.76463 502.004274434461
17.78474 506.962982959215
17.80485 493.882230572178
17.82497 563.004477847687
17.84508 494.034599682081
17.86519 515.999575792308
17.88531 482.999240504921
17.90542 505.975498815359
17.92554 453.019699994489
17.94565 513.016770412556
17.96576 464.007753988295
17.98588 532.931518645487
18.00599 538.024564507744
18.0261 486
18.04622 514.025875078079
18.06633 513.988036661876
18.08645 508.977726359027
18.10656 496.01996825518
18.12667 493.993700818461
18.14679 501.994475110723
18.1669 520
18.18701 535.986799161042
18.20713 486.966801935224
18.22724 504.039511114721
18.24735 492.104262488351
18.26747 455.99411866361
18.28758 483.998154053764
18.3077 466
18.32781 517.010869378193
18.34792 495.98373142687
18.36804 500.991313380767
18.38815 473.086729103634
18.40826 458.964122809776
18.42838 506.935940128356
18.44849 542.013233868915
18.46861 478.979225515501
18.48872 481.01075060504
18.50883 478.997753797314
18.52895 486.025539199892
18.54906 493.989381819034
18.56917 493.01597718926
18.58929 476.008177275035
18.6094 465
18.62951 472.017230599664
18.64963 505.988011953014
18.66974 476.018343241052
18.68986 513.015881840757
18.70997 467.006682508014
18.73008 507.989546363475
18.7502 473
18.77031 494.012337141923
18.79042 500.00105145489
18.81054 510.037836024147
18.83065 516.072187045351
18.85077 477.002761317514
18.87088 509.981968261171
18.89099 493.011203164635
18.91111 500.020889585182
18.93122 536.986606297084
18.95133 490.977064883197
18.97145 529.12767061739
18.99156 542.073616859604
19.01168 492.014441748588
19.03179 519.985643602344
19.0519 518
19.07202 495.990889925979
19.09213 501.012872419914
19.11224 502.991301124988
19.13236 503.96465453102
19.15247 526.992124177897
19.17258 514.008664566771
19.1927 522
19.21281 538.011269705968
19.23293 559.00875182531
19.25304 546.961662100531
19.27315 517.135066024106
19.29327 486.915119457031
19.31338 601.919260385796
19.33349 604.015011607177
19.35361 579.986885859528
19.37372 562.009580748472
19.39384 589.029738045332
19.41395 584.998455834797
19.43406 598.965388824408
19.45418 611.988130682233
19.47429 620.001040959266
19.4944 617
19.51452 650.045992145963
19.53463 689.029273619431
19.55475 690.995439063774
19.57486 701.947217049646
19.59497 713.057207772327
19.61509 676.97404594875
19.6352 807
19.65531 847.00597353134
19.67543 867.030681502619
19.69554 883.027330549375
19.71565 911.8533424117
19.73577 991.885332361428
19.75588 1040.97928959348
19.776 1051
19.79611 1100.04375665347
19.81622 1185.03295139091
19.83634 1175.00865543545
19.85645 1191.08052085859
19.87656 1133.00141116316
19.89668 1201.93290545978
19.91679 1212.01591434373
19.93691 1164.9749506253
19.95702 1120.96061398743
19.97713 1115.08781788689
19.99725 1214.20803263041
20.01736 1227.11466016442
20.03747 1144.09465370023
20.05759 1117.00942633321
20.0777 1094
20.09782 1097.00233179653
20.11793 1095.00662980627
20.13804 1091.93007669637
20.15816 1052.9794273677
20.17827 1093.99982615846
20.19838 1054.00740265433
20.2185 1073
20.23861 1008.00191729808
20.25872 1076.02724907075
20.27884 1031.91693961149
20.29895 1045.87710986956
20.31907 1076.03562740512
20.33918 1022.02538939056
20.35929 1015.0284674549
20.37941 941.00579012817
20.39952 1014.00787022571
20.41963 950.979565031222
20.43975 1023.18526113093
20.45986 1020.15357577711
20.47998 952.976023808527
20.50009 1013.02021841215
20.5202 904
20.54032 991.007424815253
20.56043 920.038487833591
20.58054 1031.02027604204
20.60066 924.107145917285
20.62077 972.952628507216
20.64088 943.015748402848
20.661 968
20.68111 964.006517308155
20.70123 1014.10342629036
20.72134 1073.07300839149
20.74145 1095.9267422966
20.76157 1136.94477512584
20.78168 1159.98547257759
20.80179 1176.98774471487
20.82191 1185.98249179945
20.84202 1149.03196103055
20.86214 1186.82031470713
20.88225 1021.86777442256
20.90236 1098.92212780032
20.92248 1037.05798083962
20.94259 1035.99753653322
20.9627 1017
20.98282 986.93454830846
21.00293 923.003901542013
21.02305 961.951898955312
21.04316 879.11308353872
21.06327 903.890859125857
21.08339 957.999475874488
21.1035 933
21.12361 960.984413978204
21.14373 889.979786838477
21.16384 935.016096251481
21.18395 885.083224793484
21.20407 906.937625224396
21.22418 939.968999850094
21.2443 952
21.26441 893.978359072911
21.28452 891.022410527952
21.30464 914.026743231577
21.32475 916.00339739413
21.34486 928.926635256631
21.36498 951.04105930161
21.38509 884.00323491463
21.40521 940.016935171452
21.42532 914.963277647168
21.44543 893.963638389491
21.46555 877.05080180099
21.48566 924.929624801563
21.50577 922.040674258815
21.52589 908.987175493629
21.546 935
21.56612 864.99026404126
21.58623 911.006730116459
21.60634 862.970766808013
21.62646 887.035258988986
21.64657 806.127281827814
21.66668 770.989344915109
21.6868 800
21.70691 800.991266378782
21.72702 791.018946542963
21.74714 822.008864296553
21.76725 811.935490008863
21.78737 861.982752453339
21.80748 814.065464513561
21.82759 776.003159388644
21.84771 782.999046443778
21.86782 772.001962292386
21.88793 781.986691972786
21.90805 763.016435186005
21.92816 787.999034288111
21.94828 755.032439761147
21.96839 756.981640593324
21.9885 796
22.00862 765.958748666907
22.02873 737.976145459407
22.04884 749.108626241438
22.06896 805.99758020999
22.08907 752.07601568364
22.10919 734.006777373517
22.1293 723
22.14941 755.001537502425
22.16953 723.958476880893
22.18964 707.934939837028
22.20975 676.955867970752
22.22987 725.976460442268
22.24998 696.02342223911
22.27009 708.986416758013
22.29021 735.015568824716
22.31032 770.030387364566
22.33044 764.873319972296
22.35055 686.937125152297
22.37066 717.952499091089
22.39078 710.00119531989
22.41089 721.005013898715
22.431 705
22.45112 758.014625401325
22.47123 722.952693585206
22.49135 726.040536666194
22.51146 736.983299717434
22.53157 734.038799842625
22.55169 696.013541509136
22.5718 701
22.59191 741.009333311311
22.61203 736.995596770057
22.63214 739.980303480449
22.65225 703.146579256414
22.67237 661.982033563924
22.69248 708.97177883015
22.7126 704
22.73271 722.003987743557
22.75282 715.000223623152
22.77294 714.940429906599
22.79305 670.037692378359
22.81316 705.873201184455
22.83328 748.005830763807
22.85339 711.012446842655
22.87351 706.991479217426
22.89362 672.979549693437
22.91373 695.094847198418
22.93385 744.956082375803
22.95396 690.015745741684
22.97407 736.961826752697
22.99419 702.028893598256
23.0143 670
23.03442 703.037480587887
23.05453 724.008044421561
23.07464 698.857801018539
23.09476 637.954588773456
23.11487 719.934778954787
23.13498 695.02604747733
23.1551 704
23.17521 694.987213320316
23.19532 677.008831867711
23.21544 708.058355532785
23.23555 702.126805814163
23.25567 636.061501677359
23.27578 652.931834967944
23.29589 719.990570031481
23.31601 684.976037019496
23.33612 661.999831199622
23.35623 681.055170312258
23.37635 724.095510474822
23.39646 735.057027981532
23.41658 703.983992291261
23.43669 763.97459963071
23.4568 776
23.47692 758.951288454891
23.49703 713.016511285135
23.51714 763.034045339888
23.53726 731.050323675278
23.55737 761.879015302005
23.57749 822.013066064124
23.5976 762
23.61771 851.008122027101
23.63783 760.861498728986
23.65794 745.074453434722
23.67805 782.977704080916
23.69817 781.944195301263
23.71828 834.005734955631
23.73839 762.036804427609
23.75851 736.003824220092
23.77862 753.016146323895
23.79874 761.004707662396
23.81885 766.033110356292
23.83896 779.997414017424
23.85908 763.027464202229
23.87919 735.012851955367
23.8993 738
23.91942 819.053783641723
23.93953 808.91119336069
23.95965 752.96483080924
23.97976 766.025155334474
23.99987 720.050964942528
24.01999 739.964667644535
24.0401 796
24.06021 736.002719962687
24.08033 814.081186803356
24.10044 808.99093145033
24.12056 815.06582974176
24.14067 766.983625872348
24.16078 818.999281569042
24.1809 754
24.20101 770.031032799992
24.22112 818.997952409917
24.24124 783.975463226962
24.26135 801.998965291497
24.28146 782.984611427021
24.30158 815.989746083778
24.32169 802.994454331971
24.34181 838.005472524717
24.36192 830.025633493592
24.38203 873.99117284844
24.40215 827.979013845136
24.42226 861.992531962945
24.44237 821.041187522961
24.46249 826.999289435856
24.4826 822
24.50272 868.021971073841
24.52283 857.991944804751
24.54294 866.993247370432
24.56306 858.956405838194
24.58317 913.91542842859
24.60328 921.062109043854
24.6234 861
24.64351 952.008828779708
24.66362 878.948587094786
24.68374 893.024329998958
24.70385 867.0820396465
24.72397 873.906392566939
24.74408 947.975389350591
24.76419 919.013109880583
24.78431 949.041635369635
24.80442 1007.95870604406
24.82453 899.902785980308
24.84465 926.141023658566
24.86476 963.94054638165
24.88488 960.074361751917
24.90499 875.99731937434
24.9251 947
24.94522 882.960185258777
24.96533 895.990304145914
24.98544 860.999542727681
25.00556 908.908538486584
25.02567 909.059584720928
25.04579 847.035804507948
25.0659 814
25.08601 889.013211408449
25.10613 845.920537499342
25.12624 830.019225026586
25.14635 846.956529770356
25.16647 853.016003040574
25.18658 837.004445972239
25.20669 834.014158714823
25.22681 810.018626444404
25.24692 866.977897560155
25.26704 775.898626726933
25.28715 810.138992265406
25.30726 827.039112964959
25.32738 802.001555504165
25.34749 815.005075815196
25.3676 765
25.38772 717.993555275286
25.40783 745.051753337691
25.42795 755.954334060208
25.44806 736.97073842959
25.46817 769.997527192253
25.48829 743.001502604824
25.5084 768
25.52851 748.000220687354
25.54863 761.963923846706
25.56874 715.999927885166
25.58886 771.892921354421
25.60897 775.057570042116
25.62908 729.028108377385
25.6492 722
25.66931 714.006689817578
25.68942 750.03764768977
25.70954 760.95238016451
25.72965 720.078966236906
25.74976 707.021323874047
25.76988 700.982499098035
25.78999 741.977498520346
25.81011 772.007203596892
25.83022 749.921147916736
25.85033 657.940841036852
25.87045 680.070379407466
25.89056 682.997393500617
25.91067 694.983201738679
25.93079 690.012581200114
25.9509 653
25.97102 653.058230997555
25.99113 720.004575223931
26.01124 662.917744461144
26.03136 661.028866153463
26.05147 631.990105871223
26.07158 683.943641144206
26.0917 687
26.11181 627.02248833962
26.13193 738.060394563251
26.15204 667.830786668595
26.17215 649.911059601226
26.19227 698.947310688971
26.21238 699.029646067034
26.23249 671.998505159924
26.25261 700.010281825409
26.27272 694.983307828559
26.29283 689.020099623325
26.31295 717.072256902269
26.33306 721.066937028877
26.35318 693.963745905109
26.37329 766.987273384372
26.3934 741
26.41352 807.084499334281
26.43363 884.129652509079
26.45374 988.220380525761
26.47386 1090.82148698594
26.49397 1184.82105795404
26.51409 1352.89230912933
26.5342 1581
26.55431 1733.0572545845
26.57443 1820.08129107793
26.59454 1820.86199717981
26.61465 1720.18928293569
26.63477 1624.32242910551
26.65488 1309.29037368556
26.67499 1138.03729082782
26.69511 1059.92252806029
26.71522 864.879279537665
26.73534 845.999106503316
26.75545 829.037280339478
26.77556 853.07626078969
26.79568 759.071206639058
26.81579 759.977398486904
26.8359 784
26.85602 710.949042635647
26.87613 710.027523130657
26.89625 720.011085533172
26.91636 712.059928571541
26.93647 676.023674234624
26.95659 694.978933994947
26.9767 723
26.99681 685.990590991068
27.01693 691.992987363566
27.03704 672.997131351743
27.05716 691.979433472144
27.07727 690.979151350087
27.09738 719.98243123029
27.1175 710
27.13761 682.990753923255
27.15772 675.99988024757
27.17784 677.002151002798
27.19795 689.906690145762
27.21806 729.984814512205
27.23818 705.022514623587
27.25829 706.993102428939
27.27841 717.001557425979
27.29852 714.997611234473
27.31863 729.06350042416
27.33875 800.21760387761
27.35886 861.988300088538
27.37897 833.019027641113
27.39909 854.988110056405
27.4192 872
27.43932 907.998590305707
27.45943 878.988586156543
27.47954 890.962561249501
27.49966 851.001671482247
27.51977 880.015710890641
27.53988 816.061352371398
27.56 794
27.58011 773.969747744324
27.60023 717.01972052437
27.62034 791.118526695208
27.64045 789.088239035893
27.66057 765.989349809351
27.68068 782.014203094085
27.70079 742.010878176799
27.72091 757.013270511412
27.74102 776.017031291431
27.76113 770.920535356737
27.78125 705.964404124029
27.80136 739.965007619985
27.82148 704.06170273544
27.84159 654.013631872392
27.8617 655
27.88182 663.959327229361
27.90193 606.992245378249
27.92204 639.980181776814
27.94216 575.100220299818
27.96227 576.965838769573
27.98239 599.98323671915
28.0025 633
28.02261 613.983613136106
28.04273 588.984292676223
28.06284 582.964383728177
28.08295 572.915398546252
28.10307 628.970605335197
28.12318 597.040254798886
28.1433 574
28.16341 557.005927903134
28.18352 596.041082071305
28.20364 612.98172281736
28.22375 587.928422045543
28.24386 577.961518222981
28.26398 606.991515245609
28.28409 582.020559087529
28.3042 563
28.32432 603.004947628515
28.34443 575.991143056764
28.36455 593.979931783639
28.38466 564.989667301317
28.40477 598.00086839681
28.42489 566.99827067819
28.445 605
28.46511 562.977117591606
28.48523 535.954322621131
28.50534 529.132374963759
28.52546 620.962528418958
28.54557 549.123215610859
28.56568 528.964910785383
28.5858 562
28.60591 513.999475926712
28.62602 579.074836299794
28.64614 603.940243244974
28.66625 553.081357962535
28.68636 547.019351198383
28.70648 524.015220605534
28.72659 534.982659733125
28.74671 557.988940643529
28.76682 507.973104093309
28.78693 520.024716489725
28.80705 532.081590202168
28.82716 569.995991880171
28.84727 532.06138492814
28.86739 534.971434455516
28.8875 592
28.90762 531.968688251003
28.92773 550.013314840748
28.94784 528.973290996613
28.96796 547.923379359372
28.98807 568.035367525261
29.00818 534.982515589378
29.0283 585
29.04841 540.99208031173
29.06853 570.021940163655
29.08864 543.931903301708
29.10875 534.957203952617
29.12887 550.024565815419
29.14898 515.011082431144
29.16909 532.995094511789
29.18921 520.994892869723
29.20932 541.055039020054
29.22943 592.003047628488
29.24955 547.893335762563
29.26966 540.96685376773
29.28978 555.002511955132
29.30989 539.006203681224
29.33 551
29.35012 586.994841408514
29.37023 545.947922356995
29.39034 546.043739547346
29.41046 569.96270345427
29.43057 573.02419933874
29.45069 536.02772079409
29.4708 492
29.49091 527.021936795691
29.51103 547.993118377505
29.53114 530.97255649412
29.55125 531.97075926709
29.57137 545.982432319552
29.59148 559.974958069802
29.6116 583
29.63171 556.985999454006
29.65182 547.006097078892
29.67194 554.99532769041
29.69205 547.007881390401
29.71216 567.943359657655
29.73228 580.018115782586
29.75239 566.979356950908
29.7725 617
29.79262 527.989422093329
29.81273 599.038840706783
29.83285 568.065042994345
29.85296 637.033079367274
29.87307 545.043171197126
29.89319 601.986758693453
29.9133 565
29.93341 594.009753208599
29.95353 573.949278131101
29.97364 554.998827586114
29.99376 558.022999884446
30.01387 543.979361253921
30.03398 580.9751142292
30.0541 575
30.07421 571.013996183052
30.09432 604.99826496607
30.11444 573.975504589276
30.13455 598.918451205398
30.15467 610.01630046658
30.17478 586.027777937016
30.19489 562.010646601353
30.21501 547.999759952675
30.23512 568.041184231214
30.25523 605.008856985867
30.27535 582.949325797035
30.29546 575.028284866203
30.31557 550.032137995546
30.33569 554.97996767617
30.3558 589
30.37592 543.014350614455
30.39603 605.019863760908
30.41614 543.870156433959
30.43626 531.942726964747
30.45637 563.984444445818
30.47648 556.99531123515
30.4966 577
30.51671 565.991895157159
30.53683 560.006810888974
30.55694 564.990182522539
30.57705 556.98465973089
30.59717 575.980260194496
30.61728 575.004983136812
30.63739 570.005559973185
30.65751 555.996386463702
30.67762 569.03710946212
30.69773 599.985210895695
30.71785 562.960423185424
30.73796 579.972926086765
30.75808 576.996518880038
30.77819 582.010751511013
30.7983 544
30.81842 556.007471198187
30.83853 551.010223610925
30.85864 571.020310614128
30.87876 562.029053967652
30.89887 567.941538531568
30.91899 604.008117525989
30.9391 547
30.95921 560.01564355128
30.97933 568.965535843521
30.99944 542.013547532422
31.01955 572.980783528362
31.03967 540.065232524202
31.05978 530.959111044066
31.0799 577
31.10001 520.98443736272
31.12012 537.015146719022
31.14024 533.012584074345
31.16035 552.981710131293
31.18046 537.047313023353
31.20058 526.990292662142
31.22069 554.98078021684
31.2408 565
31.26092 490.97088332839
31.28103 532.102673131738
31.30115 581.059821085465
31.32126 585.012364041315
31.34137 563.079491602092
31.36149 514.995285540761
31.3816 568
31.40171 542.976939641224
31.42183 528.052725989602
31.44194 567.960632185895
31.46206 513.001848996651
31.48217 564.977858210237
31.50228 530.007005017028
31.5224 550
31.54251 467.974434199153
31.56262 500.087267345159
31.58274 565.98905180179
31.60285 511.08071223347
31.62297 522.990328465384
31.64308 513.984518136804
31.66319 543.004401593521
31.68331 518.015924022454
31.70342 575.980040010412
31.72353 497.981874067495
31.74365 571.135029234753
31.76376 558.050148147986
31.78387 550.024881350862
31.80399 522.007967786996
31.8241 534
31.84422 553.981175825514
31.86433 515.983298577247
31.88444 545.073628164019
31.90456 556.033574899937
31.92467 544.954851714268
31.94478 589.005386493242
31.9649 528
31.98501 517.013227169243
32.00513 552.037203735672
32.02524 568.052956271492
32.04535 585.080481380104
32.06547 538.9763478043
32.08558 586.028311102854
32.10569 486.030144969368
32.12581 532.054084445742
32.14592 599.967717646042
32.16604 515.945803197757
32.18615 582.219922262083
32.20626 616.053111182165
32.22638 564.035960054968
32.24649 563.992459814592
32.2666 578
32.28672 583.975035397968
32.30683 549.998202612208
32.32694 585.066110554255
32.34706 592.011524358441
32.36717 587.006332625114
32.38729 572.018520755002
32.4074 550
32.42751 620.006124049967
32.44763 563.925944787661
32.46774 559.006995755934
32.48785 560.93423105206
32.50797 596.993281355573
32.52808 570.01710244138
32.5482 584
32.56831 606.012198868896
32.58842 618.981822256066
32.60854 585.977056082077
32.62865 610.900124359485
32.64876 635.004429757734
32.66888 628.977117280003
32.68899 667.995471775703
32.7091 636
32.72922 613.982275568099
32.74933 609.042710995907
32.76945 651.036054632416
32.78956 618.118106726325
32.80967 594.917822528754
32.82979 674.995278672225
32.8499 626
32.87001 684.008454146168
32.89013 642.97429121518
32.91024 679.074358324744
32.93036 683.024457409272
32.95047 681.969277096479
32.97058 708.992234382416
32.9907 699
33.01081 718.010904978589
33.03092 738.029840436598
33.05104 761.980258647853
33.07115 727.057392767797
33.09127 718.044109447272
33.11138 681.993628631616
33.13149 715.002631494471
33.15161 686.013400876901
33.17172 756.02062317906
33.19183 696.884669179868
33.21195 671.083695164029
33.23206 712.024466186298
33.25217 657.039880716163
33.27229 695.964771873972
33.2924 714
33.31252 596.975163621853
33.33263 679.121185054785
33.35274 681.909880908658
33.37286 644.009596243473
33.39297 655.023833389025
33.41308 623.991142730913
33.4332 666
33.45331 635.987400574815
33.47343 626.957062390811
33.49354 592.016468287927
33.51365 634.951684928641
33.53377 610.047853763928
33.55388 596.008105461571
33.57399 599.98278522637
33.59411 634.99333308876
33.61422 573.941128014802
33.63434 556.026395174251
33.65445 579.052982887718
33.67456 583.034809469538
33.69468 571.972555489889
33.71479 606.011942736872
33.7349 551
33.75502 614.02536289795
33.77513 571.932829730618
33.79524 568.033358341414
33.81536 577.014007992422
33.83547 556.036831575792
33.85559 550.986202141054
33.8757 588
33.89581 572.99985320527
33.91593 583.969456623933
33.93604 551.031752443278
33.95615 605.944527513876
33.97627 578.036304834539
33.99638 578.009001116116
34.0165 550
34.03661 536.989905192187
34.05672 534.056340479652
34.07684 612.03764700163
34.09695 562.119508875521
34.11706 558.971382107661
34.13718 562.009517363663
34.15729 550.001520307314
34.17741 563.012321003932
34.19752 577.988015640314
34.21763 562.030378712906
34.23775 606.03691182726
34.25786 581.045205459774
34.27797 584.980486298291
34.29809 590.999808987242
34.3182 592
34.33831 588.984054620514
34.35843 552.002710301806
34.37854 601.121807807327
34.39866 636.984217254547
34.41877 623.040916223536
34.43888 592.033019376943
34.459 577
34.47911 622.017171167713
34.49922 639.025601083077
34.51934 657.941309448089
34.53945 613.956914640233
34.55957 689.916188041062
34.57968 677.052417128318
34.59979 636.003620369263
34.61991 671.031688458288
34.64002 717.99843203348
34.66013 696.026037749009
34.68025 735.96513126268
34.70036 693.935522425373
34.72047 795.90386658502
34.74059 782.01271219342
34.7607 790
34.78082 811.032771036435
34.80093 836.984103191488
34.82104 806.994912605497
34.84116 842.923324737266
34.86127 850.034041775169
34.88138 824.0040894042
34.9015 844
34.92161 845.992858905395
34.94173 839.031878022714
34.96184 872.014092411833
34.98195 849.048628714448
35.00207 839.041470859336
35.02218 823.944536725711
35.04229 896.01219808219
35.06241 795.979460778102
35.08252 839.018914917183
35.10264 818.061894470435
35.12275 887.002896393847
35.14286 816.08265946457
35.16298 839.975837912732
35.18309 830.006771050384
35.2032 830
35.22332 821.988985266436
35.24343 813.994220863021
35.26354 827.082927210787
35.28366 870.984458617415
35.30377 831.091447229584
35.32389 802.983412287303
35.344 870
35.36411 866.989923307147
35.38423 862.018437411773
35.40434 883.037689061144
35.42445 892.988214275908
35.44457 903.962819703997
35.46468 903.074016027451
35.4848 820
35.50491 926.029395753565
35.52502 908.006313159858
35.54514 956.011335708485
35.56525 905.094096363813
35.58536 915.948761970109
35.60548 921.017105129732
35.62559 898.005406451709
35.64571 896.994331871917
35.66582 893.04123955295
35.68593 951.011570182669
35.70605 905.915716762592
35.72616 901.04344049495
35.74627 868.984325884225
35.76639 924.974425199381
35.7865 928
35.80661 866.965796738248
35.82673 830.030278561203
35.84684 889.107464633581
35.86696 896.076278854998
35.88707 855.999811970907
35.90718 888.983593549711
35.9273 855
35.94741 794.988741582275
35.96752 822.060304549763
35.98764 855.926525920411
36.00775 794.984411444031
36.02787 846.02683384595
36.04798 748.07440728368
36.06809 762.966239922431
36.08821 819.008038233955
36.10832 784.933688616173
36.12843 732.988704119935
36.14855 766.10019353981
36.16866 771.078666214782
36.18878 717.029056311402
36.20889 720.996914360652
36.229 709
36.24912 702.015221672492
36.26923 723.000716029442
36.28934 704.983306752303
36.30946 720.946500589727
36.32957 745.964626955467
36.34968 768.977784483907
36.3698 792
36.38991 788.968974913002
36.41003 708.963366157677
36.43014 771.213465627545
36.45025 837.05216975425
36.47037 774.022242472915
36.49048 821.965002478894
36.51059 795.031162774295
36.53071 751.001253485347
36.55082 776.998640744469
36.57094 758.047514055297
36.59105 795.908455076103
36.61116 699.105725195297
36.63128 737.924452174018
36.65139 775.011321079017
36.6715 722
36.69162 728.012609944496
36.71173 724.986474987735
36.73184 721.005146634101
36.75196 726.99070810477
36.77207 732.978122424206
36.79219 742.009134493483
36.8123 721
36.83241 772.008412137583
36.85253 733.922923935328
36.87264 721.073419545024
36.89275 764.015152032459
36.91287 717.036804845175
36.93298 742.958711503587
36.9531 744
36.97321 669.990580735484
36.99332 716.052034988711
37.01344 720.925434978847
37.03355 686.973358605487
37.05366 737.90898183671
37.07378 746.016372012223
37.09389 724.010834916016
37.11401 704.990330415517
37.13412 694.009496357002
37.15423 722.048319111981
37.17435 721.862542765311
37.19446 655.023855593997
37.21457 690.983885507249
37.23469 685.969117967806
37.2548 775
37.27491 685.983536261439
37.29503 737.038496784228
37.31514 701.954997391338
37.33526 720.967111325193
37.35537 706.04696221463
37.37548 698.956858272126
37.3956 760
37.41571 723.976442812845
37.43582 698.986799319237
37.45594 696.032824525521
37.47605 713.026712525228
37.49617 681.027658592554
37.51628 692.975403410199
37.53639 703.007155223065
37.55651 670.983526802558
37.57662 667.038736672098
37.59673 722.045560903888
37.61685 714.956909504609
37.63696 709.994390545393
37.65708 720.975984099821
37.67719 721.033028415973
37.6973 647
37.71742 742.050582668079
37.73753 711.95749531639
37.75764 722.006589956036
37.77776 715.945985342606
37.79787 748.050619759755
37.81798 666.04074041273
37.8381 707
37.85821 754.003620506316
37.87833 737.984269592509
37.89844 730.932226194245
37.91855 688.007304884564
37.93867 727.944834867734
37.95878 723.039608483833
37.97889 677.015208669543
37.99901 675.008977051678
38.01912 699.024271906412
38.03924 696.900958048116
38.05935 657.120752889413
38.07946 744.007105933164
38.09958 660.025556013388
38.11969 716.987547504365
38.1398 685
38.15992 732.017206768103
38.18003 702.975902647335
38.20015 723.051057298791
38.22026 729.970514730084
38.24037 742.034280973825
38.26049 700.006288049904
38.2806 737
38.30071 774.000346016615
38.32083 740.926340425213
38.34094 715.039459138944
38.36105 757.948330673998
38.38117 727.100078095608
38.40128 683.974512378502
38.4214 745
38.44151 698.973437669846
38.46162 694.04232225547
38.48174 746.048430012627
38.50185 724.123568742121
38.52196 685.016902348356
38.54208 689.021559128168
38.56219 654.997378379581
38.58231 704.022610204278
38.60242 712.986856156582
38.62253 695.975136717093
38.64265 676.929906467906
38.66276 659.957374571054
38.68287 707.946872567926
38.70299 696.027663900088
38.7231 652
38.74321 700.997334773134
38.76333 638.945275082087
38.78344 673.136490305689
38.80356 703.091040226835
38.82367 627.035687206918
38.84378 664.973240243294
38.8639 651
38.88401 659.000643864002
38.90412 649.000318098163
38.92424 654.971034469788
38.94435 622.056744647554
38.96447 633.935870519115
38.98458 671.002230701558
39.00469 641.006359256471
39.02481 652.999648693568
39.04492 628.979608059387
39.06503 637.051962041834
39.08515 666.988196597719
39.10526 645.978037618586
39.12538 680.997410422423
39.14549 640.019540131113
39.1656 635
39.18572 649.000246629606
39.20583 638.991705766676
39.22594 648.037971671845
39.24606 635.163813483255
39.26617 557.939756391728
39.28628 673.963247140845
39.3064 615
39.32651 677.019065960407
39.34663 662.006146257281
39.36674 693.993018211626
39.38685 655.027088168489
39.40697 689.947664886059
39.42708 691.021206568404
39.44719 666.010800364553
39.46731 650.994098256872
39.48742 632.970283913475
39.50754 605.992712258391
39.52765 613.969436042259
39.54776 586.01405051708
39.56788 599.004279765116
39.58799 576.002814874494
39.6081 588
39.62822 550.955346013043
39.64833 521.981663177135
39.66845 538.137471157429
39.68856 589.015974628839
39.70867 541.021806839535
39.72879 566.999948744432
39.7489 537
39.76901 587.025387410002
39.78913 584.906672225033
39.80924 517.983890752854
39.82935 568.88412711069
39.84947 565.05579913866
39.86958 539.983923840554
39.8897 581
39.90981 565.989933202035
39.92992 563.006451145766
39.95004 566.99462356178
39.97015 571.922617786055
39.99026 608.9918475124
40.01038 593.98121382117
40.03049 635.999386931791
40.05061 584.974795487367
40.07072 575.018493038569
40.09083 596.013988882342
40.11095 592.994583669294
40.13106 599.977581396028
40.15117 605.01033622015
40.17129 595.997747454322
40.1914 620
40.21152 623.94451366793
40.23163 561.018134448693
40.25174 629.045216739864
40.27186 589.037512184099
40.29197 620.957080238298
40.31208 623.991123088766
40.3322 638
40.35231 607.998556447067
40.37242 628.998192147395
40.39254 593.936329925941
40.41265 584.012388381789
40.43277 581.975893464945
40.45288 612.972907614095
40.47299 604.029349146732
40.49311 547.005450302013
40.51322 607.02422853827
40.53333 559.895930372348
40.55345 539.126435165491
40.57356 620.902687739404
40.59368 607.042911327701
40.61379 575.007081734444
40.6339 580
40.65402 605.028042268729
40.67413 612.951000186089
40.69424 574.019857189547
40.71436 620.966906527815
40.73447 591.038478868448
40.75458 587.015518804522
40.7747 567
40.79481 615.017193432649
40.81493 616.993155038423
40.83504 629.051530782205
40.85515 654.963332456079
40.87527 650.032966402303
40.89538 617.040044484672
40.91549 588.999959942267
40.93561 617.019819239726
40.95572 639.993533010311
40.97584 612.948330200484
40.99595 598.968832243104
41.01606 592.967967108486
41.03618 614.006807451702
41.05629 588.001788994218
41.0764 620
41.09652 623.95509383327
41.11663 574.004895604598
41.13675 607.960917467156
41.15686 554.994863955001
41.17697 603.013952157836
41.19709 542.00179580248
41.2172 600
41.23731 546.979998067989
41.25743 563.052657229474
41.27754 569.936168868397
41.29765 533.984669402544
41.31777 576.957430040368
41.33788 576.9911665159
41.358 591
41.37811 549.99930290935
41.39822 586.012770970773
41.41834 558.953974803376
41.43845 558.010398481502
41.45856 541.027738006175
41.47868 553.952426465718
41.49879 604.992774805947
41.51891 577.983194471002
41.53902 570.015630522328
41.55913 588.001477728486
41.57925 566.92823908538
41.59936 555.96326118064
41.61947 580.008719884376
41.63959 546.012341586905
41.6597 543
41.67982 533.009484333346
41.69993 568.064113907231
41.72004 589.979187264766
41.74016 573.966508589523
41.76027 608.004155878606
41.78038 562.041137260716
41.8005 545
41.82061 519.999494892064
41.84072 548.033895280162
41.86084 558.963471363163
41.88095 525.072936962748
41.90107 515.989651406635
41.92118 530.980641760704
41.94129 549.9914293408
41.96141 549.984387831029
41.98152 516.006257162927
42.00163 545.991631525512
42.02175 504.957369410922
42.04186 532.930204838221
42.06198 536.03008478384
42.08209 506.996004482607
42.1022 549
42.12232 547.967068911585
42.14243 521.016990339826
42.16254 553.005570878807
42.18266 520.050390532261
42.20277 525.973612116078
42.22289 549.977845548878
42.243 585
42.26311 532.990018369049
42.28323 574.098938086714
42.30334 598.905850214639
42.32345 521.088298021747
42.34357 563.873626029629
42.36368 612.030231622437
42.38379 553.996391600648
42.40391 609.997557995641
42.42402 534.955316145959
42.44414 560.069394499886
42.46425 552.898237071973
42.48436 518.988262110473
42.50448 550.98845006834
42.52459 532.006581033544
42.5447 535
42.56482 510.977194168206
42.58493 510.035090146452
42.60505 525.934997056853
42.62516 491.946419810773
42.64527 560.964829954508
42.66539 518.021232007894
42.6855 519
42.70561 542.014837382539
42.72573 560.978269938821
42.74584 528.97851373643
42.76595 535.049943856253
42.78607 495.015879327903
42.80618 515.994628466285
42.8263 501
42.84641 533.008419927064
42.86652 515.970173414635
42.88664 497.996065646589
42.90675 497.047120313011
42.92686 486.91087854305
42.94698 552.992800722836
42.96709 494.026075901788
42.98721 499.020100425236
43.00732 518.965875469958
43.02743 476.041281433646
43.04755 552.057423756927
43.06766 503.077591072591
43.08777 520.940348341848
43.10789 530.019875081385
43.128 490
43.14812 554.003880458012
43.16823 487.926790176271
43.18834 503.079075896306
43.20846 524.998129737631
43.22857 519.989290211167
43.24868 536.993775187798
43.2688 526
43.28891 516.995150062213
43.30902 509.0021080831
43.32914 511.972688531587
43.34925 487.03239166027
43.36937 501.946389466781
43.38948 531.995800380934
43.40959 507.018727580841
43.42971 489.008662832101
43.44982 520.006996982305
43.46993 499.981049138079
43.49005 507.012149166478
43.51016 501.007634326234
43.53028 510.977676879726
43.55039 535.990532206913
43.5705 538
43.59062 519.00016744175
43.61073 521.953607776179
43.63084 480.013922121802
43.65096 524.97640873584
43.67107 503.974211324876
43.69119 545.010617700373
43.7113 482
43.73141 544.004703627406
43.75153 490.98036843135
43.77164 543.081091023322
43.79175 518.170310017398
43.81187 472.965305437787
43.83198 525.003979588061
43.85209 472.004936979212
43.87221 513.003734063184
43.89232 483.012658815451
43.91244 534.00950605532
43.93255 491.986451903465
43.95266 542.9129845146
43.97278 546.007686492635
43.99289 547.000375977552
44.013 530
44.03312 503.017739647062
44.05323 542.003145451171
44.07335 501.926396441232
44.09346 506.977340355394
44.11357 512.974406047024
44.13369 535.99655785712
44.1538 514
44.17391 481.999143980941
44.19403 510.054856051076
44.21414 518.931426102785
44.23426 483.953880112093
44.25437 540.988043994732
44.27448 497.015690993671
44.2946 525
44.31471 490.985251711214
44.33482 498.030699611427
44.35494 526.02236676782
44.37505 526.972588298295
44.39516 538.038651058306
44.41528 496.025846305538
44.43539 505.986453199771
44.45551 526.003481852921
44.47562 516.977840581908
44.49573 492.974708634173
44.51585 490.022787405959
44.53596 502.979695396864
44.55607 501.025501231899
44.57619 502.971034902602
44.5963 569
44.61642 495.968842858465
44.63653 533.044259607412
44.65664 514.939085785844
44.67676 503.988332912373
44.69687 512.002452090492
44.71698 500.011146897973
44.7371 498
44.75721 510.011664981466
44.77732 534.0097286244
44.79744 513.899053128208
44.81755 485.877875775089
44.83767 570.962262278478
44.85778 517.056420724813
44.87789 511.987829930572
44.89801 515.977975012078
44.91812 467.017513618839
44.93823 544.086911991653
44.95835 536.89807905697
44.97846 505.022065792551
44.99858 513.983381461292
45.01869 534.982972859195
45.0388 557
45.05892 505.977516809585
45.07903 524.024308064591
45.09914 522.010618157024
45.11926 541.967860058832
45.13937 531.064249967454
45.15949 489.001359993812
45.1796 533
45.19971 559.988123823303
45.21983 506.936625929835
45.23994 510.087663264436
45.26005 560.930811442435
45.28017 542.089071632571
45.30028 495.983953771726
45.32039 548.992119999454
45.34051 523.000834662168
45.36062 566.02848684734
45.38074 548.923543788673
45.40085 517.952841008714
45.42096 514.975414041507
45.44108 530.991442258516
45.46119 530.999362126478
45.4813 541
45.50142 552.999625376088
45.52153 539.973376048826
45.54165 531.014371427583
45.56176 553.927414608872
45.58187 581.002868472384
45.60199 550.020160293945
45.6221 528
45.64221 552.013063412026
45.66233 559.978865109952
45.68244 546.024529409962
45.70256 582.933361553872
45.72267 590.021786430785
45.74278 567.022829997698
45.7629 558
45.78301 563.986291221958
45.80312 533.02471979127
45.82324 597.05449602189
45.84335 559.139569478402
45.86346 531.001611729946
45.88358 549.968101315285
45.90369 570.005212190441
45.92381 535.984055957422
45.94392 526.006723163431
45.96403 526.967193592411
45.98415 510.082518684138
46.00426 563.005624034033
46.02437 513.019717209129
46.04449 543.002356498281
46.0646 496
46.08472 521.013855372516
46.10483 515.029769946938
46.12494 561.052785984612
46.14506 550.041797554585
46.16517 541.999306126976
46.18528 543.001898901122
46.2054 534
46.22551 523.004567023279
46.24563 544.015092192887
46.26574 537.990502083779
46.28585 540.007472115233
46.30597 536.979361243365
46.32608 558.995447445894
46.34619 542.008467135437
46.36631 530.989795044012
46.38642 515.017979601849
46.40653 545.990063894545
46.42665 497.893596032723
46.44676 489.980105640152
46.46688 498.99399431352
46.48699 501.000557722325
46.5071 504
46.52722 530.034124737589
46.54733 550.985530372812
46.56744 514.918874761662
46.58756 500.954526912116
46.60767 541.954440122278
46.62779 539.015322959724
46.6479 510
46.66801 529.006815054961
46.68813 528.003581800671
46.70824 544.043403245931
46.72835 545.095733700814
46.74847 498.00856182137
46.76858 529.983979673347
46.78869 512.008230393361
46.80881 514.001024062719
46.82892 507.996285737796
46.84904 519.055625509341
46.86915 555.082226914056
46.88926 575.979101876766
46.90938 567.039144464973
46.92949 522.007458652338
46.9496 542
46.96972 552.008056838271
46.98983 549.951281470762
47.00995 503.946089519378
47.03006 518.947532666417
47.05017 531.999697374764
47.07029 526.003023875544
47.0904 516
47.11051 489.996832517689
47.13063 505.024486040992
47.15074 516.037204629801
47.17086 528.04419696299
47.19097 492.002888958964
47.21108 516.006298017751
47.2312 482
47.25131 522.017156899007
47.27142 509.948700324194
47.29154 476.067298016914
47.31165 556.859110327796
47.33176 543.119052444793
47.35188 521.922482318412
47.37199 630.994167190361
47.39211 535.958982606411
47.41222 530.015319908529
47.43233 524.981790245305
47.45245 513.963649728284
47.47256 501.002449583091
47.49267 505.010916991106
47.51279 498.987770206459
47.5329 533
47.55302 503.01578581066
47.57313 545.974429037611
47.59324 492.038339408288
47.61336 562.024315970145
47.63347 480.010086319495
47.65358 563.955691895666
47.6737 522
47.69381 521.003324974407
47.71393 510.977963479514
47.73404 510.038720123152
47.75415 531.007862313124
47.77427 505.032645653573
47.79438 506.981512721147
47.81449 520.003737404441
47.83461 519.023669302554
47.85472 577.991306350004
47.87483 511.949276774267
47.89495 539.069915634252
47.91506 534.024899794739
47.93518 531.002164122802
47.95529 529.995424108328
47.9754 543
47.99552 519.955578999905
48.01563 482.995870869819
48.03574 507.033773621066
48.05586 504.998345450914
48.07597 514.994610035428
48.09609 509.001593074003
48.1162 520
48.13631 528.983264396147
48.15643 486.012510712439
48.17654 536.042878802518
48.19665 505.092866663678
48.21677 507.934641651198
48.23688 563.961320976335
48.257 554
48.27711 489.991965007992
48.29722 515.008836842288
48.31734 493.98506749906
48.33745 514.045859302386
48.35756 514.012515557511
48.37768 514.990430472619
48.39779 532.987678833189
48.4179 551
48.43802 543.008029901329
48.45813 549.948438926663
48.47825 493.95748903576
48.49836 531.902937171792
48.51847 553.997323225657
48.53859 545.00835692842
48.5587 518
48.57881 478.994587253343
48.59893 497.03458082293
48.61904 511.028134336772
48.63916 529.962172687656
48.65927 527.063187213239
48.67938 472.023277339885
48.6995 505
48.71961 546.984819754313
48.73972 491.010228717422
48.75984 561.063068469395
48.77995 523.10171354674
48.80006 514.01809688784
48.82018 505.973837678298
48.84029 553.988183612136
48.86041 534.982975965376
48.88052 522.017134864636
48.90063 534.948302205809
48.92075 486.032761293923
48.94086 551.9348008496
48.96097 522.054594998247
48.98109 512.003232744687
49.0012 512
49.02132 552.999280067248
49.04143 508.941901302428
49.06154 508.04312385516
49.08166 530.964122103868
49.10177 534.023946700915
49.12188 526.965935035013
49.142 587
49.16211 566.96731066959
49.18223 522.044929742516
49.20234 576.951609006698
49.22245 499.003834519653
49.24257 577.949981872932
49.26268 525.05381010377
49.28279 521.992670216053
49.30291 536.013984683328
49.32302 577.037688067888
49.34313 590.978019655768
49.36325 573.022272971202
49.38336 600.982404156621
49.40348 569.056137365151
49.42359 534.99057985492
49.4437 578
49.46382 542.97512243295
49.48393 559.053330841141
49.50404 579.986161561827
49.52416 552.057041857349
49.54427 548.956973360486
49.56439 579.002924234166
49.5845 550
49.60461 580.008856244578
49.62473 560.946143311088
49.64484 538.001174409218
49.66495 546.027803270738
49.68507 526.983296866951
49.70518 573.95010153058
49.7253 579
49.74541 510.992044586565
49.76552 546.020777633324
49.78564 536.014601486736
49.80575 567.032495029159
49.82586 545.064587164002
49.84598 532.985212025006
49.86609 572.971720064963
49.8862 597
49.90632 517.979531425519
49.92643 571.082150670922
49.94655 577.95055593414
49.96666 561.010852200769
49.98677 572.959925014321
50.00689 614.970184743125
50.027 653
50.04711 602.003795889656
50.06723 648.976330715264
50.08734 573.942671959472
50.10746 607.984050570515
50.12757 574.004880001085
50.14768 607.995254856782
50.1678 582
50.18791 613.989840817396
50.20802 553.989194889526
50.22814 595.014135385779
50.24825 546.102537814839
50.26837 549.965781361744
50.28848 543.059248409051
50.30859 481.994283752575
50.32871 537.99914927525
50.34882 487.01007952661
50.36893 554.014233504685
50.38905 492.923373498627
50.40916 518.982357401182
50.42927 494.002343068421
50.44939 528.986498090096
50.4695 529
50.48962 532.992902829275
50.50973 522.014159970576
50.52984 533.944796400616
50.54996 488.00047373525
50.57007 539.929879513796
50.59018 538.037322032189
50.6103 502
50.63041 514.00426681798
50.65053 508.996161840065
50.67064 515.009518693808
50.69075 518.966851021091
50.71087 539.974986111744
50.73098 547.993354546116
50.75109 539.023106832337
50.77121 487.999633980168
50.79132 537.043348849927
50.81143 536.960104529566
50.83155 508.948444819395
50.85166 509.943058248379
50.87178 552.961969462603
50.89189 561.014152291927
50.912 525
50.93212 539.998727982259
50.95223 511.961590507572
50.97234 507.010639645719
50.99246 507.021042215156
51.01257 493.007517341042
51.03269 504.987751286844
51.0528 525
51.07291 507.987235033914
51.09303 496.019672548897
51.11314 526.053949494763
51.13325 528.063649335304
51.15337 505.977302698591
51.17348 533.020382327977
51.1936 463
51.21371 455.017119260938
51.23382 499.032179870591
51.25394 508.996236794278
51.27405 500.053817312011
51.29416 479.996879187622
51.31428 507.961114079452
51.33439 522.015881826112
51.3545 467
51.37462 473.021851477827
51.39473 488.013986394137
51.41485 481.918976661203
51.43496 455.950408239475
51.45507 501.01478158759
51.47519 446.00735337253
51.4953 479
51.51541 450.007413285616
51.53553 505.023117692856
51.55564 473.989430346332
51.57576 513.93553254679
51.59587 501.064875114896
51.61598 461.017271674037
51.6361 475
51.65621 499.99764695173
51.67632 471.975217565469
51.69644 460.974952291333
51.71655 449.976871404097
51.73667 468.005358647509
51.75678 450.991827683971
51.77689 481.993736037804
51.79701 473.003734687609
51.81712 502.017389471583
51.83723 496.991745784756
51.85735 497.981768233995
51.87746 477.049621733482
51.89757 463.992134192124
51.91769 490.977269447839
51.9378 521
51.95792 476.980842645948
51.97803 493.015430353215
51.99814 485.003528965522
52.01826 497.010899928391
52.03837 470.037122323229
52.05848 469.976240719612
52.0786 491
52.09871 454.981190050759
52.11883 445.031495906113
52.13894 494.1405892752
52.15905 549.973222996802
52.17917 507.112114048496
52.19928 453.998144849378
52.21939 493.985892521664
52.23951 476.976984938918
52.25962 437.988793292122
52.27974 467.122477953227
52.29985 517.005267404775
52.31996 476.085275308115
52.34008 464.986513972032
52.36019 483.993781280094
52.3803 490
52.40042 499.989652471104
52.42053 478.995586570473
52.44064 508.092481384788
52.46076 528.071603262852
52.48087 465.047344489858
52.50099 487.978852724135
52.5211 512
52.54121 502.996085902229
52.56133 500.993862534188
52.58144 496.006561701607
52.60155 508.96322951201
52.62167 506.048494597179
52.64178 474.986708010594
52.6619 525
52.68201 503.965396717161
52.70212 457.038314239493
52.72224 550.10713498552
52.74235 511.227572337958
52.76246 449.975625579937
52.78258 511.95554197653
52.80269 498.023314446616
52.8228 474
52.84292 528.021206116389
52.86303 503.963570820416
52.88315 494.943751126923
52.90326 475.938699212205
52.92337 538.95308729902
52.94349 513.022467803015
52.9636 492
52.98371 527.02681577229
53.00383 565.997028828266
53.02394 520.871996861483
53.04406 494.90772830033
53.06417 567.969951299766
53.08428 536.003408661671
53.1044 559
53.12451 478.983609070806
53.14462 510.018548256716
53.16474 497.024402257984
53.18485 534.982293439685
53.20497 510.998246844824
53.22508 550.96421851156
53.24519 548.016885504009
53.26531 511.991498124073
53.28542 530.048170292681
53.30553 565.97825980485
53.32565 522.971584824575
53.34576 555.939925969725
53.36587 547.055843211247
53.38599 519.994206744021
53.4061 561
53.42622 557.971526788687
53.44633 547.059395658181
53.46644 607.033248796298
53.48656 571.068443835004
53.50667 569.985015960788
53.52678 575.990863656839
53.5469 583
53.56701 563.993028089753
53.58713 572.04615483488
53.60724 601.002716421977
53.62735 581.023172063088
53.64747 594.973284811639
53.66758 604.990350546958
53.68769 609.007303561041
53.70781 610.031907295762
53.72792 681.977298419925
53.74804 569.81422539786
53.76815 561.084660068097
53.78826 601.894858980498
53.80838 652.970132949065
53.82849 661.996409012395
53.8486 680
53.86872 672.937534513081
53.88883 600.987866417326
53.90894 660.113208714841
53.92906 663.066538971617
53.94917 623.051195291404
53.96929 606.998726346417
53.9894 624
54.00951 664.030079176024
54.02963 703.956787954334
54.04974 633.930117984836
54.06985 650.973933959
54.08997 645.956170641717
54.11008 687.020048845435
54.1302 634
54.15031 706.007285650351
54.17042 655.991633688584
54.19054 713.080188363955
54.21065 703.029562669094
54.23076 704.039655435566
54.25088 671.004137639031
54.27099 700.986364608263
54.29111 697.987826540714
54.31122 673.989540695759
54.33133 670.978461000956
54.35145 644.95309885699
54.37156 647.95848950372
54.39167 648.082789421542
54.41179 580.999773550886
54.4319 653
54.45201 658.979845941873
54.47213 623.005369238872
54.49224 646.980846530335
54.51236 611.99587057563
54.53247 651.975369443146
54.55258 636.992886047368
54.5727 661
54.59281 595.971596001972
54.61292 593.042592154715
54.63304 641.041659462534
54.65315 632.023922866619
54.67327 629.027664957072
54.69338 604.000142253486
54.71349 639.974158189953
54.73361 663.986213801167
54.75372 618.995870020836
54.77383 661.053105255192
54.79395 651.901828763185
54.81406 623.977325442668
54.83417 658.977373173015
54.85429 628.029742956052
54.8744 590
54.89452 636.015260162237
54.91463 615.998978023507
54.93474 648.047075152839
54.95486 628.114652824116
54.97497 575.017947591109
54.99508 599.978748854774
55.0152 600
55.03531 606.996540802674
55.05543 593.007697842794
55.07554 612.002943544936
55.09565 585.08652263333
55.11577 574.959973263017
55.13588 617.973894488028
55.15599 610.013251672976
55.17611 577.980277663861
55.19622 558.029117990218
55.21634 613.055197457149
55.23645 601.978455665603
55.25656 611.992287872197
55.27668 592.036596990139
55.29679 575.982435828401
55.3169 631
55.33702 583.939346605506
55.35713 557.014327293178
55.37724 593.099156905611
55.39736 618.051863995655
55.41747 562.05793384219
55.43759 569.981548385645
55.4577 586
55.47781 523.987846910242
55.49793 551.045517216327
55.51804 567.062320203017
55.53815 601.014908372905
55.55827 559.046918976366
55.57838 560.988443839047
55.5985 566
55.61861 574.001786319784
55.63872 561.967801398022
55.65884 533.005696209384
55.67895 557.978040729801
55.69906 552.956795333052
55.71918 595.982088730029
55.73929 578.009244431118
55.75941 576.9996605282
55.77952 571.000276056825
55.79963 558.918697124265
55.81975 500.011257194009
55.83986 552.963464760436
55.85997 527.99138946466
55.88009 567.99839543232
55.9002 535
55.92031 575.004092564287
55.94043 535.951636768604
55.96054 540.033183666213
55.98066 548.990787642948
56.00077 551.003485902221
56.02088 548.995285649543
56.041 551
56.06111 529.000951810586
56.08122 541.982129417533
56.10134 508.013645383115
56.12145 550.956896345694
56.14157 543.952735258734
56.16168 599.000253452048
56.18179 547.010608761897
56.20191 573.003689291741
56.22202 550.000512003094
56.24213 586.044358749517
56.26225 579.926284180609
56.28236 552.025777730155
56.30248 548.014149016664
56.32259 535.989123919273
56.3427 583
56.36282 583.99544895713
56.38293 570.926271711007
56.40304 513.984102559502
56.42316 552.946010013565
56.44327 534.060740645645
56.46338 519.963477811053
56.4835 578
56.50361 553.981557764956
56.52373 558.093821952116
56.54384 604.878001086056
56.56395 495.01523413085
56.58407 593.920798938809
56.60418 545.055405193782
56.62429 546.985767280494
56.64441 573.012523516166
56.66452 584.984742321771
56.68464 557.982276970902
56.70475 568.000497278422
56.72486 543.072879092903
56.74498 524.982581221236
56.76509 556.995812558102
56.7852 531
56.80532 523.021948665387
56.82543 555.025295771303
56.84554 541.934179368706
56.86566 511.032499820479
56.88577 519.951153949737
56.90589 561.980972137696
56.926 572
56.94611 530.99385038724
56.96623 562.073551757926
56.98634 582.942474908356
57.00645 535.035762327226
57.02657 548.02732487347
57.04668 507.993217533607
57.0668 564
57.08691 558.995630638657
57.10702 560.987507064481
57.12714 533.968030915681
57.14725 535.995280607876
57.16736 535.97105101716
57.18748 557.994275147847
57.20759 530.027588562778
57.22771 490.006062043359
57.24782 540.036654466418
57.26793 551.034819195972
57.28805 585.012222262096
57.30816 559.037711721598
57.32827 560.005948362349
57.34839 541.009465757452
57.3685 526
57.38861 508.003792188243
57.40873 541.054436470973
57.42884 547.932932916318
57.44896 498.060131194022
57.46907 515.911955389401
57.48918 561.016862395894
57.5093 508
57.52941 552.024525234793
57.54952 562.982605609437
57.56964 554.053047131769
57.58975 590.020568041108
57.60987 534.079981571044
57.62998 523.975599188786
57.65009 555.989387737758
57.67021 550.985659634189
57.69032 525.000983698777
57.71043 544.005956202536
57.73055 514.882600404404
57.75066 484.98402013937
57.77078 516.978722828417
57.79089 514.003238376125
57.811 518
57.83112 526.011795162618
57.85123 537.002870943231
57.87134 526.966872502958
57.89146 513.01428944362
57.91157 508.017068658119
57.93168 490.015937829078
57.9518 496
57.97191 538.001004633428
57.99203 505.973679883186
58.01214 525.059345742987
58.03225 537.021696441626
58.05237 523.997128393359
58.07248 536.002071129836
58.09259 505.02512027764
58.11271 477.013507624323
58.13282 519.987007914057
58.15294 470.007761553428
58.17305 530.070099099645
58.19316 504.029236643671
58.21328 523.987565278333
58.23339 506.014554694414
58.2535 484
58.27362 472.992066625158
58.29373 479.048358095971
58.31385 526.093339898183
58.33396 529.06481829139
58.35407 490.022891225642
58.37419 495.004132152749
58.3943 480
58.41441 522.007462603394
58.43453 503.990085101215
58.45464 524.035429964824
58.47475 514.085522229483
58.49487 488.977906230479
58.51498 521.004089487184
58.5351 481
58.55521 491.00130549546
58.57532 482.014508608922
58.59544 523.070022030012
58.61555 535.984069959561
58.63566 540.02002885429
58.65578 518.019880059858
58.67589 509.00150760999
58.69601 513.008503654822
58.71612 524.982731613832
58.73623 499.015289458913
58.75635 537.03137835855
58.77646 508.066868092323
58.79657 498.988182532031
58.81669 508.997603469316
58.8368 510
58.85691 508.986002751004
58.87703 472.993618908756
58.89714 507.078771333231
58.91726 513.06771545097
58.93737 474.999403355997
58.95748 518.950180536046
58.9776 533
58.99771 487.981920250751
59.01782 473.99512215789
59.03794 488.111601231327
59.05805 549.979770281711
59.07817 497.092395435671
59.09828 473.988576613424
59.11839 493.996609042006
59.13851 505.027033107895
59.15862 564.988927736317
59.17873 488.913100152932
59.19885 492.063258188605
59.21896 500.020912749372
59.23908 495.971696596158
59.25919 528.009657731869
59.2793 477
59.29942 526.043752618086
59.31953 510.900637603154
59.33964 452.000420137798
59.35976 497.947311687774
59.37987 489.988694762753
59.39998 519.990979086731
59.4201 494
59.44021 477.995880743382
59.46033 490.078940858875
59.48044 547.007691333467
59.50055 493.146522370183
59.52067 475.971573140286
59.54078 506.97567798652
59.56089 503.017785419123
59.58101 462.993370430479
59.60112 493.058902760375
59.62124 540.014909943332
59.64135 513.933829450323
59.66146 505.011752191649
59.68158 511.955811887472
59.70169 559.004923625696
59.7218 501
59.74192 520.043342697693
59.76203 551.019927939355
59.78215 546.959885764868
59.80226 539.963966032861
59.82237 575.954171406853
59.84249 590.993952364364
59.8626 596
59.88271 562.990588180577
59.90283 559.980606511999
59.92294 540.003581618727
59.94305 550.059870304639
59.96317 512.979654636675
59.98328 562.99187152012
60.0034 515
60.02351 528.02336346102
60.04362 552.966261674755
60.06374 489.949255258429
60.08385 528.841851307307
60.10396 555.067539821423
60.12408 504.002228899164
60.14419 543.995194774682
60.16431 498.974486391195
60.18442 492.039457010309
60.20453 530.983182054359
60.22465 487.982909462095
60.24476 525.952843722235
60.26487 518.992663741746
60.28499 537.005225058319
60.3051 513
60.32522 561.00578680091
60.34533 512.936165755134
60.36544 507.006955864273
60.38556 504.990403673153
60.40567 518.98034383516
60.42578 509.04520055719
60.4459 462
60.46601 497.009187773783
60.48612 488.006273898505
60.50624 509.990787322768
60.52635 484.991924317326
60.54647 519.967782642046
60.56658 510.014380608696
60.58669 506.002871298701
60.60681 491.991813296376
60.62692 494.035477044115
60.64703 533.999861666608
60.66715 493.91139917253
60.68726 500.913404843796
60.70738 531.027275395475
60.72749 475.005762300735
60.7476 514
60.76772 493.978239461358
60.78783 493.002987464069
60.80794 491.009647757425
60.82806 507.953467265937
60.84817 517.030644600087
60.86828 491.989119842099
60.8884 522
60.90851 473.984477528533
60.92863 488.046826813234
60.94874 499.967371456102
60.96885 482.952350944965
60.98897 521.991458755313
61.00908 501.984881581697
61.02919 542.003330081982
61.04931 479.973012218727
61.06942 476.025755313254
61.08954 508.069215448439
61.10965 533.014745012619
61.12976 517.062441039964
61.14988 490.009211553659
61.16999 496.995866760424
61.1901 517
61.21022 566.973596121409
61.23033 488.947380915295
61.25045 522.082230399126
61.27056 523.984517299175
61.29067 540.015539429809
61.31079 519.989005621871
61.3309 564
61.35101 511.989165519514
61.37113 545.054220564061
61.39124 547.968605484797
61.41135 543.941186954596
61.43147 581.965513964221
61.45158 564.05559739227
61.4717 516
61.49181 552.004709617252
61.51192 521.977528940806
61.53204 527.011919072514
61.55215 526.966363536734
61.57226 551.970603201689
61.59238 561.967648697172
61.61249 606.990013828601
61.63261 579.970778339134
61.65272 550.043767820997
61.67283 611.968627207269
61.69295 533.97910745517
61.71306 608.909495275871
61.73317 586.026627181695
61.75329 606.9901916594
61.7734 601
61.79352 594.005510163912
61.81363 612.040261051413
61.83374 640.048946310859
61.85386 647.040602165372
61.87397 624.98223576694
61.89408 656.000462733322
61.9142 632
61.93431 681.015316380536
61.95442 661.955747915838
61.97454 636.024240309658
61.99465 664.988428009098
62.01477 651.974473828527
62.03488 703.956531092038
62.05499 717.996898466481
62.07511 740.019606978502
62.09522 779.01902247711
62.11533 770.965624623614
62.13545 769.107271751624
62.15556 824.975637984433
62.17568 781.056204973251
62.19579 751.004095581079
62.2159 753
62.23602 772.049625187498
62.25613 828.030197851939
62.27624 804.935982953289
62.29636 784.0462805796
62.31647 753.04539064189
62.33659 737.996583339118
62.3567 773
62.37681 807.975901067075
62.39693 713.931070413864
62.41704 741.06531159831
62.43715 748.951008866698
62.45727 770.037222121078
62.47738 693.087097836478
62.49749 653.98654386995
62.51761 702.003033227751
62.53772 663.978500126921
62.55784 670.975028561812
62.57795 622.871666157221
62.59806 610.922446886291
62.61818 655.00807881769
62.63829 605.012053940593
62.6584 614
62.67852 581.024365727019
62.69863 638.993094710179
62.71875 580.984055310259
62.73886 641.92215503269
62.75897 616.067593616244
62.77909 594.999459548987
62.7992 606
62.81931 601.988277466111
62.83943 576.994631692104
62.85954 579.944407616551
62.87965 551.899806841646
62.89977 619.024303256888
62.91988 519.07309972828
62.94 538
62.96011 589.007834340674
62.98022 570.969176443881
63.00034 540.928641757548
63.02045 516.968698938582
63.04056 561.903275710572
63.06068 580.017820339966
63.08079 553.001880258899
63.10091 571.002952513981
63.12102 553.983029821568
63.14113 556.025926619436
63.16125 573.011451079473
63.18136 574.958204626466
63.20147 595.033876122357
63.22159 544.01135949349
63.2417 559
63.26182 532.966035325846
63.28193 527.051782776591
63.30204 581.078792770616
63.32216 580.067793970119
63.34227 536.057259309565
63.36238 523.980687411543
63.3825 550
63.40261 545.01661509766
63.42272 602.01983599099
63.44284 565.899642795068
63.46295 539.017097657483
63.48307 547.96377043262
63.50318 566.009256416533
63.52329 554.983053811347
63.54341 609.000924884244
63.56352 552.952520945166
63.58363 562.072049544978
63.60375 598.981679971767
63.62386 567.00766067714
63.64398 596.983217487944
63.66409 579.013704100137
63.6842 567
63.70432 583.026042871266
63.72443 601.995433119236
63.74454 574.924094270454
63.76466 552.982452380128
63.78477 576.98636615766
63.80489 572.99263840452
63.825 606
63.84511 591.983880065423
63.86523 572.013462156545
63.88534 603.058790905186
63.90545 614.003343757082
63.92557 610.005007008762
63.94568 610.99427947755
63.96579 621.991876075922
63.98591 619.978052672493
64.00602 563.986158361673
64.02614 593.037773997314
64.04625 577.949350835399
64.06636 590.888248722858
64.08648 637.027279875384
64.10659 555.026918352532
64.1267 574
64.14682 615.014912782358
64.16693 602.95841083484
64.18705 584.008694090222
64.20716 598.002132390405
64.22727 577.030207528595
64.24739 568.003987564234
64.2675 560
64.28761 579.017853507611
64.30773 603.980757705953
64.32784 554.887258005004
64.34796 531.952849348675
64.36807 573.971370492647
64.38818 548.051889746094
64.4083 515
64.42841 552.006947338211
64.44852 527.970637517846
64.46864 530.076071872659
64.48875 569.001564579166
64.50886 530.071447404729
64.52898 516.014820484857
64.54909 495.004740410731
64.56921 510.017403418964
64.58932 548.0284570246
64.60943 554.978374778575
64.62955 529.938395177224
64.64966 519.982733767896
64.66977 538.974343557907
64.68989 537.013125486184
64.71 503
64.73012 504.005682178559
64.75023 498.977133986808
64.77034 492.038983456781
64.79046 524.97076591548
64.81057 516.009919070955
64.83068 508.03892246561
64.8508 464
64.87091 513.012376054282
64.89102 488.968195265691
64.91114 486.04399506344
64.93125 515.939723829461
64.95137 533.96323863974
64.97148 548.026616851475
64.99159 487.029053063471
65.01171 467.008630242381
65.03182 498.021921090546
65.05193 493.963284227765
65.07205 464.94350328273
65.09216 468.919686920924
65.11228 515.98587071141
65.13239 491.015410177614
65.1525 485
65.17262 511.023965354933
65.19273 518.983370927431
65.21284 506.010771047087
65.23296 518.026847322095
65.25307 489.003705093183
65.27319 514.992959656392
65.2933 506
65.31341 518.003654266697
65.33353 501.942776180496
65.35364 463.968084144248
65.37375 475.939258690301
65.39387 493.9875994488
65.41398 492.009513800193
65.43409 488.992556620945
65.45421 507.998825736288
65.47432 484.982491157326
65.49444 495.067437656666
65.51455 525.005246038987
65.53466 500.054155095457
65.55478 498.971258016032
65.57489 526.00520994617
65.595 484
65.61512 485.014971897195
65.63523 488.98006646792
65.65535 467.96838230701
65.67546 476.944049919383
65.69557 501.996729805346
65.71569 483.009287933615
65.7358 484
65.75591 500.999315406175
65.77603 476.949154821581
65.79614 459.023332410826
65.81626 488.954390846307
65.83637 497.980144644872
65.85648 511.010105270104
65.8766 479
65.89671 472.005636586058
65.91682 483.99921801378
65.93694 477.01350014848
65.95705 500.939282725208
65.97716 500.070725678656
65.99728 469.975089203769
66.01739 521.000927992385
66.03751 462.98091097123
66.05762 475.017469689963
66.07773 469.983653746269
66.09785 462.975751568076
66.11796 453.996011105208
66.13807 466.979415546231
66.15819 475.995601475151
66.1783 483
66.19842 475.99579148381
66.21853 474.991186061526
66.23864 473.037531428249
66.25876 497.007317610819
66.27887 474.002010679209
66.29898 489.015037250893
66.3191 448
66.33921 471.012506694593
66.35933 477.003562210961
66.37944 486.0206184148
66.39955 486.041706713939
66.41967 463.018254478352
66.43978 471.976545336773
66.45989 484.009505093757
66.48001 459.00695700056
66.50012 494.996280609686
66.52023 455.987688076568
66.54035 494.084764098009
66.56046 494.028233249788
66.58058 488.992530696289
66.60069 508.985530793891
66.6208 521
66.64092 463.947678130161
66.66103 447.024473511393
66.68114 474.034144245037
66.70126 477.984421333176
66.72137 496.96961143185
66.74149 499.013055688646
66.7616 465
66.78171 491.023621910999
66.80183 515.96160853463
66.82194 455.900597465655
66.84205 451.916534574701
66.86217 485.991275936775
66.88228 462.02655807073
66.90239 455.994577383659
66.92251 482.021418916828
66.94262 508.975958258233
66.96274 462.992983707941
66.98285 497.006909711455
67.00296 454.068366099222
67.02308 450.006092134782
67.04319 434.999086496408
67.0633 471
67.08342 505.96429626069
67.10353 442.996366139698
67.12365 501.077378656103
67.14376 468.09336584237
67.16387 463.931977291723
67.18399 522.985451171345
67.2041 499
67.22421 457.001382026689
67.24433 490.029011037839
67.26444 491.042358392995
67.28456 530.964096835083
67.30467 513.041443717423
67.32478 500.996976051122
67.3449 503
67.36501 477.992957782433
67.38512 477.996151598769
67.40524 473.029123456096
67.42535 503.942670741975
67.44546 505.021966211281
67.46558 489.023669151231
67.48569 473.993427422518
67.50581 495.995933019391
67.52592 468.001397663458
67.54603 502.030964170032
67.56615 494.991102518669
67.58626 511.953418768858
67.60637 522.013669366481
67.62649 503.006775701365
67.6466 508
67.66672 525.996062794951
67.68683 518.036026614041
67.70694 551.971264618194
67.72706 500.039846475814
67.74717 526.970323834926
67.76728 519.002371591608
67.7874 530
67.80751 507.987564992535
67.82763 500.01709328356
67.84774 520.030420284754
67.86785 519.038734900379
67.88797 504.997019209673
67.90808 514.007489682926
67.92819 505.984484491777
67.94831 550.996819630451
67.96842 504.991270022233
67.98853 546.039948779269
68.00865 538.001209563645
68.02876 549.038990097516
68.04888 510.005993298561
68.06899 539.991781314065
68.0891 540
68.10922 589.010422834427
68.12933 562.995307184921
68.14944 590.01064696542
68.16956 560.053707422858
68.18967 553.012219233174
68.20979 535.007572334805
68.2299 526
68.25001 523.013409552124
68.27013 562.018088614933
68.29024 530.896927872371
68.31035 494.021370233087
68.33047 500.009607862039
68.35058 481.004546200877
68.3707 510
68.39081 544.989081033081
68.41092 492.982180741072
68.43104 507.965633393323
68.45115 467.021430037546
68.47126 517.974721879599
68.49138 483.011560858507
68.51149 507.998173319247
68.5316 479
68.55172 493.011293491152
68.57183 492.01270856745
68.59195 510.014077852813
68.61206 506.972762128829
68.63217 531.991787081361
68.65229 504.022129829094
68.6724 482
68.69251 521.00271526761
68.71263 486.956089703785
68.73274 487.020801675208
68.75286 493.983008384321
68.77297 498.017472410593
68.79308 487.97972485747
68.8132 519
68.83331 471.979885271584
68.85342 467.012759022237
68.87354 480.026202481058
68.89365 479.073056415616
68.91376 446.989292868682
68.93388 493.94789376979
68.95399 503.023306061303
68.97411 445.995638651307
68.99422 486.030935494231
69.01433 486.006347748445
69.03445 506.029823112502
69.05456 499.026300130642
69.07467 486.028509096573
69.09479 473.992707222742
69.1149 494
69.13502 455.993859761704
69.15513 485.020198874839
69.17524 470.993686090214
69.19536 480.031454308852
69.21547 448.999362997309
69.23558 489.956428088635
69.2557 498
69.27581 463.996282570026
69.29593 486.033620209978
69.31604 478.924708683129
69.33615 449.948063304745
69.35627 494.996417081286
69.37638 460.997176741966
69.39649 499.000978946256
69.41661 456.996620735787
69.43672 495.017241856051
69.45683 471.973535030513
69.47695 472.969411290637
69.49706 450.992090011844
69.51718 482.973663363737
69.53729 485.003889137863
69.5574 474
69.57752 475.066272113734
69.59763 567.052205614271
69.61774 521.868333483925
69.63786 485.031638550927
69.65797 474.020360512025
69.67809 466.991800741291
69.6982 486
69.71831 452.001954331526
69.73843 502.072755651773
69.75854 516.991711201849
69.77865 512.997849998786
69.79877 503.061510013595
69.81888 458.997838218309
69.839 504
69.85911 500.99147233816
69.87922 489.991404163368
69.89934 477.965533852788
69.91945 463.999794750106
69.93956 477.965051419478
69.95968 494.97741607276
69.97979 513.001673740086
69.9999 493
70.02002 493.004060505642
70.04013 489.984797370273
70.06025 479.994152772537
70.08036 491.949355845153
70.10047 505.03661069888
70.12059 457.015925506344
70.1407 455
70.16081 465.022786081911
70.18093 521.018251272469
70.20104 480.906093731676
70.22116 456.036060794222
70.24127 453.941725089239
70.26138 503.9943623318
70.2815 474
70.30161 507.004492928772
70.32172 479.983262479012
70.34184 492.026637656204
70.36195 479.09821531532
70.38207 446.985514072976
70.40218 486.975786998602
70.42229 484.996483731341
70.44241 494.985735381489
70.46252 446.993572048104
70.48263 479.010069640207
70.50275 457.023063278704
70.52286 500.95624198318
70.54297 482.033538123347
70.56309 478.999078864219
70.5832 473
70.60332 456.980115685935
70.62343 453.047715326171
70.64354 497.024449486926
70.66366 467.077325840906
70.68377 446.014394355732
70.70388 456.952931587029
70.724 500
70.74411 444.993953698644
70.76423 478.000713396755
70.78434 439.989757588976
70.80445 484.898679257709
70.82457 494.989532963752
70.84468 497.032558266291
70.86479 448.008432224963
70.88491 468.006664411265
70.90502 455.987314487155
70.92513 465.042830692621
70.94525 481.940091852757
70.96536 445.978824289244
70.98548 475.039081739773
71.00559 401.992650685921
71.0257 503
71.04582 477.957683313876
71.06593 478.046911582894
71.08604 506.001748281652
71.10616 475.086801134544
71.12627 443.022537598064
71.14639 440.000558607254
71.1665 442
71.18661 465.004881453683
71.20673 446.938935025772
71.22684 422.049523054721
71.24695 477.915553458993
71.26707 474.007499638136
71.28718 487.983942520507
71.3073 486
71.32741 456.99252640897
71.34752 467.026550799023
71.36764 500.074312374802
71.38775 513.094619160443
71.40786 455.040175310774
71.42798 493.939069669822
71.44809 528.002914562295
71.4682 488
71.48832 464.036522397701
71.50843 516.994067474952
71.52855 463.947231068251
71.54866 487.995998685585
71.56877 448.051822127
71.58889 450.987197842255
71.609 485
71.62911 515.999227367761
71.64923 487.95887907335
71.66934 484.031692685616
71.68946 495.030113714109
71.70957 476.96494931694
71.72968 522.995142985381
71.7498 480
71.76991 486.009501441017
71.79002 496.005275278139
71.81014 497.991381163371
71.83025 483.066544131256
71.85037 462.990248167481
71.87048 493.966775311404
71.89059 498.017444677277
71.91071 469.015939638351
71.93082 543.041849531562
71.95093 514.906514477192
71.97105 476.018792131761
71.99116 498.036570120619
72.01127 457.982251228593
72.03139 510.995366550452
72.0515 469
72.07162 505.036822493254
72.09173 510.990837731621
72.11184 504.975149961259
72.13196 479.078662435912
72.15207 444.01800238043
72.17218 466.948723762395
72.1923 501
72.21241 447.992224973426
72.23253 486.060994614905
72.25264 503.033783547501
72.27275 516.046809018293
72.29287 473.04720553639
72.31298 470.989849497735
72.33309 476.998619724314
72.35321 472.992389595138
72.37332 461.010372375756
72.39344 489.043178593714
72.41355 495.011494339102
72.43366 498.026188265935
72.45378 478.002929596032
72.47389 496.989133024668
72.494 501
72.51412 470.962092173976
72.53423 456.04914320174
72.55434 515.076999614893
72.57446 502.098606103619
72.59457 468.967921322035
72.61469 514.000434901232
72.6348 467
72.65491 488.009217434144
72.67503 477.974206941699
72.69514 476.029239093274
72.71525 492.991528925619
72.73537 485.9976516983
72.75548 504.973917928841
72.7756 518
72.79571 494.992843642299
72.81582 492.993061432007
72.83594 475.970611292855
72.85605 475.96261794854
72.87616 487.024487015816
72.89628 468.986641942716
72.91639 504.993804955922
72.9365 478
72.95662 468.021163345966
72.97673 491.989752914852
72.99685 470.029979009069
73.01696 508.980965104379
73.03707 494.963553691399
73.05719 543.002789103108
73.0773 488
73.09741 519.012525420943
73.11753 503.955321075309
73.13764 482.973342928737
73.15776 482.959214148578
73.17787 513.963609950061
73.19798 524.991980869501
73.2181 529
73.23821 519.010155686982
73.25832 550.996015418999
73.27844 511.949104803326
73.29855 520.959402282005
73.31867 519.027756000349
73.33878 492.028656916097
73.35889 494.969274655338
73.37901 566.001751896663
73.39912 514.984031021389
73.41923 549.014851452879
73.43935 518.970084518743
73.45946 533.019262711118
73.47957 491.049451563946
73.49969 499.978585122419
73.5198 538
73.53992 509.979767327568
73.56003 513.006946794465
73.58014 503.967442454039
73.60026 496.974532058938
73.62037 515.998143046001
73.64048 503.996645468249
73.6606 530
73.68071 535.992010972726
73.70083 513.983686681908
73.72094 524.047655730451
73.74105 527.113559763311
73.76117 465.027089781304
73.78128 504.948403886573
73.80139 519.013563557024
73.82151 487.001670434571
73.84162 522.02283508621
73.86174 508.941627884388
73.88185 489.996045888859
73.90196 501.970834340425
73.92208 500.02695871137
73.94219 475.992124325397
73.9623 511
73.98242 469.979695165698
74.00253 485.010758839338
74.02264 477.02479303184
74.04276 504.000430823399
74.06287 470.048854051484
74.08299 467.988529501016
74.1031 492
74.12321 486.002629656318
74.14333 498.990210241805
74.16344 483.023519858536
74.18355 511.011954905216
74.20367 467.060517101897
74.22378 459.986157851473
74.2439 472
74.26401 470.00840979297
74.28412 503.025506744178
74.30424 502.959056199483
74.32435 482.015362694756
74.34446 497.939507527205
74.36458 514.01938838785
74.38469 487.991189458805
74.40481 526.99375931231
74.42492 471.984370448151
74.44503 513.050279563419
74.46515 493.867199484801
74.48526 461.946356594126
74.50537 526.933090367466
74.52549 520.015919229322
74.5456 508
74.56571 545.000924287584
74.58583 515.985427136124
74.60594 535.014859510355
74.62606 510.075216972089
74.64617 481.02694236434
74.66628 481.974248882021
74.6864 508
74.70651 476.988831910598
74.72662 483.019389709699
74.74674 493.990989492183
74.76685 487.966306835635
74.78697 514.980218417796
74.80708 496.042190074036
74.82719 464.996796902507
74.84731 503.018666744392
74.86742 505.966513932109
74.88753 480.041900421238
74.90765 524.94663910294
74.92776 448.075581720069
74.94787 471.97780861648
74.96799 455.000154679522
74.9881 484
75.00822 477.979917770561
