3.00117 20522
3.02128 20341
3.0414 19613
3.06151 18765
3.08162 18683
3.10174 17922
3.12185 17843
3.14197 16898
3.16208 16353
3.18219 16313
3.20231 15330
3.22242 15268
3.24253 14463
3.26265 14111
3.28276 13771
3.30288 13154
3.32299 13176
3.3431 12281
3.36322 12064
3.38333 11755
3.40344 11408
3.42356 10993
3.44367 10504
3.46379 10080
3.4839 9915
3.50401 9443
3.52413 9366
3.54424 8832
3.56435 8679
3.58447 8337
3.60458 7897
3.62469 7829
3.64481 7293
3.66492 6950
3.68504 6855
3.70515 6670
3.72526 6531
3.74538 5930
3.76549 5792
3.7856 5585
3.80572 5170
3.82583 5208
3.84595 4824
3.86606 4745
3.88617 4579
3.90629 4231
3.9264 4188
3.94651 3770
3.96663 3745
3.98674 3678
4.00686 3443
4.02697 3562
4.04708 3063
4.0672 3050
4.08731 2919
4.10742 2802
4.12754 2723
4.14765 2374
4.16776 2422
4.18788 2406
4.20799 2250
4.22811 2227
4.24822 1921
4.26833 1996
4.28845 2002
4.30856 1832
4.32867 1863
4.34879 1723
4.3689 1660
4.38902 1673
4.40913 1630
4.42924 1595
4.44936 1389
4.46947 1456
4.48958 1485
4.5097 1502
4.52981 1357
4.54992 1296
4.57004 1281
4.59015 1284
4.61027 1233
4.63038 1271
4.65049 1171
4.67061 1141
4.69072 1155
4.71083 1071
4.73095 1071
4.75106 971
4.77118 1016
4.79129 1081
4.8114 959
4.83152 923
4.85163 880
4.87174 864
4.89186 898
4.91197 893
4.93209 823
4.9522 828
4.97231 805
4.99243 759
5.01254 801
5.03265 647
5.05277 746
5.07288 684
5.09299 758
5.11311 705
5.13322 727
5.15334 686
5.17345 640
5.19356 647
5.21368 628
5.23379 638
5.2539 603
5.27402 551
5.29413 581
5.31425 554
5.33436 511
5.35447 568
5.37459 508
5.3947 500
5.41481 531
5.43493 482
5.45504 464
5.47516 496
5.49527 485
5.51538 492
5.5355 467
5.55561 448
5.57572 440
5.59584 416
5.61595 430
5.63606 403
5.65618 388
5.67629 403
5.69641 425
5.71652 394
5.73663 382
5.75675 370
5.77686 406
5.79697 410
5.81709 395
5.8372 372
5.85732 395
5.87743 383
5.89754 380
5.91766 335
5.93777 350
5.95788 342
5.978 341
5.99811 352
6.01823 322
6.03834 329
6.05845 321
6.07857 325
6.09868 335
6.11879 299
6.13891 342
6.15902 352
6.17913 304
6.19925 288
6.21936 296
6.23948 301
6.25959 299
6.2797 334
6.29982 326
6.31993 278
6.34004 286
6.36016 300
6.38027 262
6.40039 298
6.4205 295
6.44061 307
6.46073 306
6.48084 309
6.50095 314
6.52107 301
6.54118 300
6.56129 275
6.58141 304
6.60152 300
6.62164 265
6.64175 275
6.66186 307
6.68198 296
6.70209 280
6.7222 293
6.74232 290
6.76243 276
6.78255 292
6.80266 268
6.82277 253
6.84289 267
6.863 258
6.88311 282
6.90323 275
6.92334 265
6.94346 272
6.96357 249
6.98368 281
7.0038 275
7.02391 294
7.04402 262
7.06414 281
7.08425 249
7.10436 253
7.12448 253
7.14459 258
7.16471 295
7.18482 260
7.20493 281
7.22505 286
7.24516 309
7.26527 317
7.28539 259
7.3055 307
7.32562 265
7.34573 275
7.36584 283
7.38596 237
7.40607 264
7.42618 266
7.4463 280
7.46641 284
7.48653 258
7.50664 276
7.52675 255
7.54687 256
7.56698 257
7.58709 260
7.60721 274
7.62732 264
7.64743 289
7.66755 258
7.68766 296
7.70778 267
7.72789 281
7.748 275
7.76812 253
7.78823 264
7.80834 267
7.82846 280
7.84857 261
7.86869 283
7.8888 279
7.90891 296
7.92903 266
7.94914 277
7.96925 289
7.98937 255
8.00948 277
8.0296 293
8.04971 280
8.06982 300
8.08994 287
8.11005 271
8.13016 283
8.15028 269
8.17039 245
8.1905 281
8.21062 296
8.23073 277
8.25085 283
8.27096 294
8.29107 286
8.31119 313
8.3313 315
8.35141 293
8.37153 299
8.39164 314
8.41176 317
8.43187 301
8.45198 298
8.4721 314
8.49221 307
8.51232 295
8.53244 337
8.55255 336
8.57266 351
8.59278 296
8.61289 342
8.63301 362
8.65312 338
8.67323 318
8.69335 352
8.71346 334
8.73357 359
8.75369 366
8.7738 387
8.79392 355
8.81403 324
8.83414 343
8.85426 352
8.87437 320
8.89448 361
8.9146 318
8.93471 317
8.95483 327
8.97494 358
8.99505 314
9.01517 323
9.03528 295
9.05539 285
9.07551 299
9.09562 299
9.11573 257
9.13585 249
9.15596 293
9.17608 291
9.19619 286
9.2163 290
9.23642 316
9.25653 282
9.27664 275
9.29676 248
9.31687 291
9.33699 319
9.3571 304
9.37721 282
9.39733 270
9.41744 271
9.43755 292
9.45767 250
9.47778 259
9.4979 258
9.51801 257
9.53812 255
9.55824 284
9.57835 267
9.59846 265
9.61858 277
9.63869 260
9.6588 284
9.67892 279
9.69903 283
9.71915 272
9.73926 257
9.75937 289
9.77949 283
9.7996 298
9.81971 303
9.83983 302
9.85994 279
9.88006 285
9.90017 276
9.92028 286
9.9404 255
9.96051 239
9.98062 296
10.00074 258
10.02085 275
10.04097 284
10.06108 258
10.08119 292
10.10131 267
10.12142 249
10.14153 269
10.16165 256
10.18176 256
10.20187 287
10.22199 293
10.2421 282
10.26222 268
10.28233 247
10.30244 262
10.32256 320
10.34267 275
10.36278 291
10.3829 255
10.40301 246
10.42313 281
10.44324 268
10.46335 271
10.48347 268
10.50358 307
10.52369 293
10.54381 243
10.56392 310
10.58403 269
10.60415 266
10.62426 288
10.64438 262
10.66449 272
10.6846 263
10.70472 270
10.72483 277
10.74494 255
10.76506 269
10.78517 256
10.80529 287
10.8254 260
10.84551 255
10.86563 262
10.88574 266
10.90585 271
10.92597 241
10.94608 245
10.9662 297
10.98631 288
11.00642 284
11.02654 253
11.04665 244
11.06676 260
11.08688 271
11.10699 255
11.1271 252
11.14722 235
11.16733 284
11.18745 269
11.20756 258
11.22767 303
11.24779 263
11.2679 295
11.28801 266
11.30813 278
11.32824 243
11.34836 236
11.36847 297
11.38858 302
11.4087 265
11.42881 265
11.44892 280
11.46904 279
11.48915 248
11.50927 282
11.52938 313
11.54949 253
11.56961 266
11.58972 253
11.60983 298
11.62995 276
11.65006 263
11.67017 286
11.69029 287
11.7104 262
11.73052 278
11.75063 275
11.77074 303
11.79086 323
11.81097 279
11.83108 272
11.8512 303
11.87131 289
11.89143 287
11.91154 296
11.93165 289
11.95177 288
11.97188 296
11.99199 258
12.01211 276
12.03222 320
12.05234 332
12.07245 281
12.09256 296
12.11268 281
12.13279 290
12.1529 279
12.17302 270
12.19313 277
12.21324 321
12.23336 310
12.25347 298
12.27359 294
12.2937 274
12.31381 292
12.33393 288
12.35404 277
12.37415 263
12.39427 287
12.41438 280
12.4345 289
12.45461 271
12.47472 291
12.49484 265
12.51495 269
12.53506 286
12.55518 246
12.57529 248
12.5954 243
12.61552 245
12.63563 280
12.65575 260
12.67586 311
12.69597 238
12.71609 250
12.7362 289
12.75631 249
12.77643 224
12.79654 254
12.81666 234
12.83677 251
12.85688 223
12.877 250
12.89711 232
12.91722 213
12.93734 261
12.95745 250
12.97757 241
12.99768 226
13.01779 234
13.03791 262
13.05802 282
13.07813 273
13.09825 226
13.11836 245
13.13847 263
13.15859 263
13.1787 258
13.19882 253
13.21893 226
13.23904 274
13.25916 293
13.27927 236
13.29938 247
13.3195 259
13.33961 273
13.35973 277
13.37984 264
13.39995 283
13.42007 251
13.44018 255
13.46029 231
13.48041 277
13.50052 274
13.52064 238
13.54075 257
13.56086 271
13.58098 277
13.60109 295
13.6212 307
13.64132 316
13.66143 306
13.68154 299
13.70166 283
13.72177 278
13.74189 289
13.762 289
13.78211 289
13.80223 353
13.82234 332
13.84245 362
13.86257 331
13.88268 351
13.9028 295
13.92291 300
13.94302 290
13.96314 280
13.98325 240
14.00336 219
14.02348 253
14.04359 269
14.06371 216
14.08382 236
14.10393 224
14.12405 242
14.14416 235
14.16427 211
14.18439 250
14.2045 244
14.22461 202
14.24473 242
14.26484 212
14.28496 204
14.30507 226
14.32518 228
14.3453 238
14.36541 243
14.38552 242
14.40564 208
14.42575 225
14.44587 232
14.46598 255
14.48609 223
14.50621 193
14.52632 218
14.54643 246
14.56655 231
14.58666 218
14.60677 247
14.62689 229
14.647 255
14.66712 227
14.68723 247
14.70734 204
14.72746 240
14.74757 237
14.76768 230
14.7878 241
14.80791 229
14.82803 232
14.84814 246
14.86825 220
14.88837 236
14.90848 228
14.92859 254
14.94871 251
14.96882 259
14.98894 230
15.00905 276
15.02916 262
15.04928 305
15.06939 300
15.0895 294
15.10962 276
15.12973 266
15.14984 288
15.16996 261
15.19007 256
15.21019 237
15.2303 263
15.25041 224
15.27053 232
15.29064 203
15.31075 207
15.33087 229
15.35098 232
15.3711 226
15.39121 251
15.41132 229
15.43144 208
15.45155 236
15.47166 202
15.49178 199
15.51189 240
15.53201 196
15.55212 239
15.57223 211
15.59235 222
15.61246 253
15.63257 243
15.65269 246
15.6728 230
15.69291 230
15.71303 217
15.73314 222
15.75326 219
15.77337 260
15.79348 235
15.8136 247
15.83371 251
15.85382 214
15.87394 222
15.89405 232
15.91417 187
15.93428 199
15.95439 237
15.97451 216
15.99462 219
16.01473 224
16.03485 220
16.05496 252
16.07508 222
16.09519 270
16.1153 212
16.13542 213
16.15553 226
16.17564 225
16.19576 213
16.21587 213
16.23598 238
16.2561 214
16.27621 203
16.29633 207
16.31644 237
16.33655 198
16.35667 219
16.37678 210
16.39689 197
16.41701 212
16.43712 218
16.45724 236
16.47735 220
16.49746 217
16.51758 247
16.53769 251
16.5578 200
16.57792 241
16.59803 224
16.61814 254
16.63826 220
16.65837 224
16.67849 200
16.6986 212
16.71871 218
16.73883 231
16.75894 244
16.77905 212
16.79917 230
16.81928 221
16.8394 200
16.85951 210
16.87962 197
16.89974 214
16.91985 201
16.93996 231
16.96008 237
16.98019 203
17.00031 223
17.02042 223
17.04053 196
17.06065 219
17.08076 231
17.10087 210
17.12099 204
17.1411 215
17.16121 224
17.18133 228
17.20144 216
17.22156 233
17.24167 227
17.26178 225
17.2819 236
17.30201 218
17.32212 229
17.34224 191
17.36235 208
17.38247 226
17.40258 231
17.42269 217
17.44281 232
17.46292 229
17.48303 207
17.50315 224
17.52326 220
17.54338 226
17.56349 236
17.5836 228
17.60372 258
17.62383 222
17.64394 253
17.66406 186
17.68417 200
17.70428 258
17.7244 254
17.74451 222
17.76463 251
17.78474 216
17.80485 225
17.82497 214
17.84508 226
17.86519 213
17.88531 199
17.90542 205
17.92554 226
17.94565 236
17.96576 202
17.98588 225
18.00599 231
18.0261 202
18.04622 236
18.06633 202
18.08645 241
18.10656 210
18.12667 238
18.14679 233
18.1669 226
18.18701 198
18.20713 205
18.22724 214
18.24735 218
18.26747 214
18.28758 219
18.3077 220
18.32781 243
18.34792 217
18.36804 256
18.38815 236
18.40826 211
18.42838 237
18.44849 200
18.46861 214
18.48872 224
18.50883 220
18.52895 213
18.54906 207
18.56917 220
18.58929 225
18.6094 187
18.62951 212
18.64963 245
18.66974 263
18.68986 218
18.70997 187
18.73008 213
18.7502 237
18.77031 237
18.79042 243
18.81054 227
18.83065 231
18.85077 224
18.87088 257
18.89099 256
18.91111 237
18.93122 246
18.95133 250
18.97145 280
18.99156 220
19.01168 225
19.03179 259
19.0519 257
19.07202 222
19.09213 241
19.11224 225
19.13236 226
19.15247 234
19.17258 217
19.1927 234
19.21281 223
19.23293 287
19.25304 257
19.27315 308
19.29327 243
19.31338 296
19.33349 259
19.35361 268
19.37372 292
19.39384 267
19.41395 264
19.43406 264
19.45418 288
19.47429 256
19.4944 304
19.51452 314
19.53463 283
19.55475 298
19.57486 297
19.59497 306
19.61509 322
19.6352 307
19.65531 367
19.67543 315
19.69554 330
19.71565 342
19.73577 328
19.75588 351
19.776 345
19.79611 379
19.81622 344
19.83634 362
19.85645 348
19.87656 370
19.89668 400
19.91679 389
19.93691 397
19.95702 424
19.97713 403
19.99725 417
20.01736 386
20.03747 368
20.05759 358
20.0777 349
20.09782 354
20.11793 339
20.13804 412
20.15816 367
20.17827 351
20.19838 371
20.2185 356
20.23861 366
20.25872 361
20.27884 339
20.29895 377
20.31907 348
20.33918 345
20.35929 378
20.37941 352
20.39952 386
20.41963 368
20.43975 392
20.45986 388
20.47998 412
20.50009 368
20.5202 396
20.54032 397
20.56043 428
20.58054 439
20.60066 473
20.62077 492
20.64088 563
20.661 588
20.68111 727
20.70123 910
20.72134 1138
20.74145 1531
20.76157 2176
20.78168 2977
20.80179 3852
20.82191 4760
20.84202 5277
20.86214 5062
20.88225 4226
20.90236 3125
20.92248 2223
20.94259 1534
20.9627 1092
20.98282 882
21.00293 810
21.02305 756
21.04316 751
21.06327 649
21.08339 561
21.1035 565
21.12361 475
21.14373 413
21.16384 385
21.18395 377
21.20407 380
21.22418 346
21.2443 384
21.26441 341
21.28452 355
21.30464 363
21.32475 342
21.34486 358
21.36498 297
21.38509 332
21.40521 295
21.42532 295
21.44543 322
21.46555 306
21.48566 322
21.50577 294
21.52589 332
21.546 335
21.56612 343
21.58623 309
21.60634 314
21.62646 329
21.64657 300
21.66668 291
21.6868 293
21.70691 335
21.72702 332
21.74714 337
21.76725 371
21.78737 360
21.80748 353
21.82759 372
21.84771 414
21.86782 485
21.88793 564
21.90805 633
21.92816 784
21.94828 932
21.96839 1013
21.9885 1064
22.00862 1061
22.02873 848
22.04884 670
22.06896 617
22.08907 471
22.10919 401
22.1293 366
22.14941 352
22.16953 324
22.18964 314
22.20975 297
22.22987 302
22.24998 303
22.27009 311
22.29021 327
22.31032 278
22.33044 326
22.35055 328
22.37066 330
22.39078 322
22.41089 307
22.431 337
22.45112 366
22.47123 343
22.49135 392
22.51146 352
22.53157 335
22.55169 322
22.5718 296
22.59191 350
22.61203 304
22.63214 271
22.65225 301
22.67237 308
22.69248 294
22.7126 274
22.73271 296
22.75282 330
22.77294 324
22.79305 296
22.81316 312
22.83328 356
22.85339 358
22.87351 379
22.89362 431
22.91373 456
22.93385 460
22.95396 414
22.97407 388
22.99419 370
23.0143 322
23.03442 341
23.05453 346
23.07464 340
23.09476 306
23.11487 326
23.13498 356
23.1551 389
23.17521 341
23.19532 351
23.21544 324
23.23555 314
23.25567 317
23.27578 335
23.29589 359
23.31601 332
23.33612 369
23.35623 346
23.37635 361
23.39646 408
23.41658 363
23.43669 425
23.4568 476
23.47692 501
23.49703 467
23.51714 540
23.53726 630
23.55737 653
23.57749 714
23.5976 769
23.61771 672
23.63783 644
23.65794 584
23.67805 483
23.69817 465
23.71828 418
23.73839 402
23.75851 402
23.77862 457
23.79874 451
23.81885 438
23.83896 520
23.85908 498
23.87919 585
23.8993 525
23.91942 630
23.93953 643
23.95965 683
23.97976 586
23.99987 588
24.01999 578
24.0401 498
24.06021 441
24.08033 407
24.10044 393
24.12056 427
24.14067 354
24.16078 430
24.1809 456
24.20101 427
24.22112 505
24.24124 584
24.26135 596
24.28146 569
24.30158 636
24.32169 625
24.34181 531
24.36192 540
24.38203 489
24.40215 444
24.42226 431
24.44237 386
24.46249 339
24.4826 407
24.50272 356
24.52283 342
24.54294 354
24.56306 347
24.58317 377
24.60328 329
24.6234 363
24.64351 339
24.66362 346
24.68374 339
24.70385 347
24.72397 344
24.74408 348
24.76419 335
24.78431 360
24.80442 346
24.82453 307
24.84465 323
24.86476 352
24.88488 336
24.90499 349
24.9251 324
24.94522 349
24.96533 299
24.98544 368
25.00556 333
25.02567 345
25.04579 371
25.0659 351
25.08601 371
25.10613 350
25.12624 355
25.14635 364
25.16647 374
25.18658 352
25.20669 406
25.22681 363
25.24692 370
25.26704 343
25.28715 349
25.30726 330
25.32738 396
25.34749 335
25.3676 378
25.38772 370
25.40783 406
25.42795 442
25.44806 475
25.46817 496
25.48829 526
25.5084 526
25.52851 586
25.54863 578
25.56874 572
25.58886 601
25.60897 600
25.62908 588
25.6492 531
25.66931 544
25.68942 547
25.70954 503
25.72965 475
25.74976 527
25.76988 463
25.78999 473
25.81011 435
25.83022 395
25.85033 461
25.87045 458
25.89056 447
25.91067 451
25.93079 456
25.9509 444
25.97102 433
25.99113 420
26.01124 441
26.03136 485
26.05147 484
26.07158 539
26.0917 538
26.11181 563
26.13193 564
26.15204 598
26.17215 608
26.19227 718
26.21238 696
26.23249 773
26.25261 746
26.27272 885
26.29283 910
26.31295 937
26.33306 1134
26.35318 1222
26.37329 1397
26.3934 1590
26.41352 1964
26.43363 2285
26.45374 3025
26.47386 3704
26.49397 5089
26.51409 7014
26.5342 9717
26.55431 13470
26.57443 17119
26.59454 20753
26.61465 22984
26.63477 22452
26.65488 19654
26.67499 14963
26.69511 11397
26.71522 8172
26.73534 5050
26.75545 2899
26.77556 1915
26.79568 1596
26.81579 1371
26.8359 1244
26.85602 1168
26.87613 1157
26.89625 1051
26.91636 998
26.93647 1019
26.95659 1024
26.9767 942
26.99681 921
27.01693 902
27.03704 902
27.05716 889
27.07727 875
27.09738 829
27.1175 758
27.13761 660
27.15772 622
27.17784 572
27.19795 524
27.21806 575
27.23818 524
27.25829 478
27.27841 532
27.29852 542
27.31863 616
27.33875 631
27.35886 606
27.37897 707
27.39909 827
27.4192 875
27.43932 953
27.45943 1060
27.47954 988
27.49966 921
27.51977 893
27.53988 878
27.56 731
27.58011 665
27.60023 681
27.62034 658
27.64045 710
27.66057 806
27.68068 1004
27.70079 1103
27.72091 1224
27.74102 1465
27.76113 1580
27.78125 1633
27.80136 1704
27.82148 1536
27.84159 1500
27.8617 1506
27.88182 1388
27.90193 1431
27.92204 1466
27.94216 1443
27.96227 1495
27.98239 1506
28.0025 1338
28.02261 1116
28.04273 1009
28.06284 776
28.08295 684
28.10307 535
28.12318 495
28.1433 459
28.16341 496
28.18352 486
28.20364 596
28.22375 622
28.24386 624
28.26398 629
28.28409 627
28.3042 614
28.32432 555
28.34443 520
28.36455 504
28.38466 436
28.40477 391
28.42489 351
28.445 337
28.46511 324
28.48523 328
28.50534 307
28.52546 316
28.54557 335
28.56568 323
28.5858 272
28.60591 297
28.62602 322
28.64614 330
28.66625 288
28.68636 313
28.70648 321
28.72659 265
28.74671 288
28.76682 302
28.78693 302
28.80705 300
28.82716 313
28.84727 322
28.86739 316
28.8875 300
28.90762 317
28.92773 293
28.94784 308
28.96796 263
28.98807 291
29.00818 301
29.0283 307
29.04841 297
29.06853 268
29.08864 281
29.10875 283
29.12887 299
29.14898 274
29.16909 265
29.18921 272
29.20932 279
29.22943 274
29.24955 302
29.26966 303
29.28978 311
29.30989 301
29.33 329
29.35012 325
29.37023 287
29.39034 301
29.41046 316
29.43057 339
29.45069 305
29.4708 286
29.49091 332
29.51103 346
29.53114 290
29.55125 291
29.57137 344
29.59148 326
29.6116 348
29.63171 357
29.65182 386
29.67194 391
29.69205 440
29.71216 449
29.73228 440
29.75239 480
29.7725 518
29.79262 488
29.81273 518
29.83285 490
29.85296 477
29.87307 444
29.89319 435
29.9133 372
29.93341 378
29.95353 381
29.97364 376
29.99376 318
30.01387 340
30.03398 320
30.0541 359
30.07421 355
30.09432 355
30.11444 364
30.13455 348
30.15467 388
30.17478 376
30.19489 382
30.21501 384
30.23512 417
30.25523 416
30.27535 447
30.29546 458
30.31557 538
30.33569 541
30.3558 624
30.37592 609
30.39603 612
30.41614 555
30.43626 504
30.45637 563
30.47648 505
30.4966 467
30.51671 414
30.53683 395
30.55694 323
30.57705 366
30.59717 322
30.61728 290
30.63739 338
30.65751 329
30.67762 362
30.69773 361
30.71785 357
30.73796 398
30.75808 409
30.77819 444
30.7983 391
30.81842 368
30.83853 380
30.85864 384
30.87876 343
30.89887 340
30.91899 312
30.9391 301
30.95921 253
30.97933 290
30.99944 272
31.01955 275
31.03967 255
31.05978 252
31.0799 277
31.10001 246
31.12012 254
31.14024 243
31.16035 303
31.18046 274
31.20058 280
31.22069 277
31.2408 302
31.26092 328
31.28103 316
31.30115 360
31.32126 382
31.34137 393
31.36149 381
31.3816 375
31.40171 403
31.42183 354
31.44194 353
31.46206 315
31.48217 334
31.50228 313
31.5224 277
31.54251 257
31.56262 276
31.58274 323
31.60285 291
31.62297 263
31.64308 308
31.66319 271
31.68331 231
31.70342 257
31.72353 224
31.74365 257
31.76376 269
31.78387 243
31.80399 255
31.8241 270
31.84422 248
31.86433 246
31.88444 242
31.90456 216
31.92467 258
31.94478 220
31.9649 241
31.98501 239
32.00513 273
32.02524 231
32.04535 246
32.06547 247
32.08558 263
32.10569 282
32.12581 284
32.14592 257
32.16604 269
32.18615 295
32.20626 293
32.22638 304
32.24649 276
32.2666 305
32.28672 270
32.30683 342
32.32694 319
32.34706 302
32.36717 286
32.38729 302
32.4074 297
32.42751 273
32.44763 276
32.46774 277
32.48785 272
32.50797 280
32.52808 282
32.5482 311
32.56831 257
32.58842 232
32.60854 280
32.62865 249
32.64876 234
32.66888 263
32.68899 242
32.7091 254
32.72922 205
32.74933 263
32.76945 228
32.78956 221
32.80967 249
32.82979 232
32.8499 247
32.87001 257
32.89013 250
32.91024 268
32.93036 244
32.95047 282
32.97058 271
32.9907 254
33.01081 230
33.03092 267
33.05104 265
33.07115 240
33.09127 224
33.11138 275
33.13149 257
33.15161 249
33.17172 270
33.19183 246
33.21195 244
33.23206 261
33.25217 236
33.27229 253
33.2924 204
33.31252 212
33.33263 211
33.35274 237
33.37286 231
33.39297 222
33.41308 261
33.4332 233
33.45331 242
33.47343 251
33.49354 264
33.51365 213
33.53377 247
33.55388 228
33.57399 252
33.59411 241
33.61422 230
33.63434 243
33.65445 245
33.67456 245
33.69468 256
33.71479 279
33.7349 282
33.75502 296
33.77513 339
33.79524 342
33.81536 320
33.83547 358
33.85559 322
33.8757 327
33.89581 277
33.91593 301
33.93604 304
33.95615 271
33.97627 270
33.99638 253
34.0165 286
34.03661 247
34.05672 254
34.07684 271
34.09695 274
34.11706 306
34.13718 331
34.15729 333
34.17741 365
34.19752 340
34.21763 349
34.23775 404
34.25786 365
34.27797 344
34.29809 397
34.3182 374
34.33831 342
34.35843 371
34.37854 383
34.39866 361
34.41877 395
34.43888 325
34.459 336
34.47911 305
34.49922 343
34.51934 353
34.53945 323
34.55957 328
34.57968 308
34.59979 300
34.61991 323
34.64002 295
34.66013 322
34.68025 320
34.70036 333
34.72047 293
34.74059 305
34.7607 324
34.78082 302
34.80093 350
34.82104 334
34.84116 338
34.86127 335
34.88138 356
34.9015 338
34.92161 340
34.94173 384
34.96184 344
34.98195 324
35.00207 357
35.02218 311
35.04229 364
35.06241 360
35.08252 381
35.10264 348
35.12275 350
35.14286 401
35.16298 375
35.18309 397
35.2032 389
35.22332 456
35.24343 419
35.26354 466
35.28366 454
35.30377 469
35.32389 447
35.344 436
35.36411 445
35.38423 421
35.40434 405
35.42445 427
35.44457 439
35.46468 389
35.4848 402
35.50491 450
35.52502 462
35.54514 438
35.56525 385
35.58536 373
35.60548 416
35.62559 374
35.64571 402
35.66582 394
35.68593 385
35.70605 339
35.72616 337
35.74627 316
35.76639 333
35.7865 288
35.80661 299
35.82673 296
35.84684 340
35.86696 301
35.88707 308
35.90718 298
35.9273 320
35.94741 299
35.96752 311
35.98764 303
36.00775 350
36.02787 375
36.04798 331
36.06809 367
36.08821 348
36.10832 328
36.12843 359
36.14855 358
36.16866 363
36.18878 372
36.20889 391
36.229 366
36.24912 406
36.26923 390
36.28934 454
36.30946 453
36.32957 421
36.34968 520
36.3698 523
36.38991 708
36.41003 770
36.43014 932
36.45025 1152
36.47037 1441
36.49048 1634
36.51059 1624
36.53071 1707
36.55082 1485
36.57094 1308
36.59105 1157
36.61116 1031
36.63128 871
36.65139 676
36.6715 511
36.69162 425
36.71173 376
36.73184 375
36.75196 349
36.77207 356
36.79219 330
36.8123 351
36.83241 358
36.85253 364
36.87264 340
36.89275 319
36.91287 390
36.93298 385
36.9531 397
36.97321 351
36.99332 393
37.01344 390
37.03355 407
37.05366 364
37.07378 339
37.09389 346
37.11401 364
37.13412 305
37.15423 325
37.17435 295
37.19446 264
37.21457 278
37.23469 286
37.2548 317
37.27491 296
37.29503 260
37.31514 271
37.33526 308
37.35537 278
37.37548 259
37.3956 287
37.41571 322
37.43582 273
37.45594 320
37.47605 313
37.49617 283
37.51628 330
37.53639 300
37.55651 320
37.57662 281
37.59673 329
37.61685 299
37.63696 294
37.65708 319
37.67719 292
37.6973 306
37.71742 321
37.73753 307
37.75764 294
37.77776 280
37.79787 245
37.81798 282
37.8381 270
37.85821 270
37.87833 274
37.89844 234
37.91855 245
37.93867 240
37.95878 223
37.97889 263
37.99901 260
38.01912 277
38.03924 258
38.05935 256
38.07946 265
38.09958 256
38.11969 239
38.1398 226
38.15992 270
38.18003 257
38.20015 251
38.22026 247
38.24037 251
38.26049 261
38.2806 235
38.30071 274
38.32083 302
38.34094 269
38.36105 291
38.38117 286
38.40128 257
38.4214 266
38.44151 295
38.46162 285
38.48174 296
38.50185 285
38.52196 329
38.54208 295
38.56219 295
38.58231 272
38.60242 293
38.62253 272
38.64265 257
38.66276 309
38.68287 264
38.70299 259
38.7231 276
38.74321 255
38.76333 268
38.78344 255
38.80356 240
38.82367 248
38.84378 250
38.8639 282
38.88401 243
38.90412 261
38.92424 260
38.94435 294
38.96447 250
38.98458 296
39.00469 295
39.02481 305
39.04492 311
39.06503 310
39.08515 279
39.10526 318
39.12538 360
39.14549 344
39.1656 364
39.18572 338
39.20583 365
39.22594 380
39.24606 411
39.26617 515
39.28628 530
39.3064 608
39.32651 661
39.34663 863
39.36674 1031
39.38685 1288
39.40697 1482
39.42708 1664
39.44719 1622
39.46731 1467
39.48742 1221
39.50754 1039
39.52765 976
39.54776 925
39.56788 792
39.58799 622
39.6081 496
39.62822 375
39.64833 318
39.66845 291
39.68856 327
39.70867 299
39.72879 262
39.7489 283
39.76901 316
39.78913 272
39.80924 270
39.82935 250
39.84947 276
39.86958 268
39.8897 293
39.90981 307
39.92992 262
39.95004 288
39.97015 271
39.99026 249
40.01038 283
40.03049 296
40.05061 316
40.07072 323
40.09083 356
40.11095 382
40.13106 430
40.15117 479
40.17129 575
40.1914 631
40.21152 733
40.23163 773
40.25174 949
40.27186 885
40.29197 792
40.31208 640
40.3322 601
40.35231 559
40.37242 556
40.39254 484
40.41265 409
40.43277 369
40.45288 291
40.47299 273
40.49311 286
40.51322 240
40.53333 276
40.55345 254
40.57356 253
40.59368 269
40.61379 252
40.6339 277
40.65402 239
40.67413 266
40.69424 278
40.71436 261
40.73447 290
40.75458 270
40.7747 250
40.79481 262
40.81493 227
40.83504 268
40.85515 245
40.87527 290
40.89538 281
40.91549 243
40.93561 262
40.95572 246
40.97584 303
40.99595 265
41.01606 244
41.03618 251
41.05629 246
41.0764 266
41.09652 251
41.11663 253
41.13675 277
41.15686 297
41.17697 268
41.19709 228
41.2172 255
41.23731 297
41.25743 278
41.27754 258
41.29765 250
41.31777 280
41.33788 246
41.358 260
41.37811 291
41.39822 236
41.41834 269
41.43845 283
41.45856 258
41.47868 260
41.49879 269
41.51891 283
41.53902 277
41.55913 284
41.57925 293
41.59936 299
41.61947 280
41.63959 293
41.6597 324
41.67982 309
41.69993 352
41.72004 373
41.74016 383
41.76027 369
41.78038 361
41.8005 348
41.82061 324
41.84072 293
41.86084 310
41.88095 297
41.90107 308
41.92118 282
41.94129 275
41.96141 278
41.98152 288
42.00163 271
42.02175 297
42.04186 249
42.06198 266
42.08209 281
42.1022 307
42.12232 289
42.14243 310
42.16254 319
42.18266 353
42.20277 358
42.22289 359
42.243 469
42.26311 490
42.28323 523
42.30334 564
42.32345 670
42.34357 792
42.36368 916
42.38379 1054
42.40391 1152
42.42402 1181
42.44414 1091
42.46425 936
42.48436 783
42.50448 747
42.52459 732
42.5447 655
42.56482 522
42.58493 455
42.60505 349
42.62516 338
42.64527 314
42.66539 287
42.6855 280
42.70561 300
42.72573 301
42.74584 317
42.76595 301
42.78607 319
42.80618 303
42.8263 329
42.84641 302
42.86652 313
42.88664 315
42.90675 307
42.92686 320
42.94698 303
42.96709 298
42.98721 285
43.00732 299
43.02743 282
43.04755 292
43.06766 253
43.08777 263
43.10789 248
43.128 279
43.14812 246
43.16823 260
43.18834 247
43.20846 194
43.22857 246
43.24868 246
43.2688 227
43.28891 213
43.30902 212
43.32914 253
43.34925 185
43.36937 220
43.38948 254
43.40959 206
43.42971 226
43.44982 232
43.46993 262
43.49005 262
43.51016 240
43.53028 229
43.55039 230
43.5705 253
43.59062 207
43.61073 214
43.63084 220
43.65096 238
43.67107 255
43.69119 239
43.7113 217
43.73141 230
43.75153 240
43.77164 237
43.79175 225
43.81187 230
43.83198 230
43.85209 229
43.87221 203
43.89232 199
43.91244 205
43.93255 205
43.95266 221
43.97278 222
43.99289 221
44.013 220
44.03312 224
44.05323 227
44.07335 227
44.09346 251
44.11357 223
44.13369 230
44.1538 216
44.17391 205
44.19403 209
44.21414 230
44.23426 232
44.25437 194
44.27448 196
44.2946 228
44.31471 207
44.33482 205
44.35494 231
44.37505 218
44.39516 216
44.41528 190
44.43539 203
44.45551 208
44.47562 186
44.49573 217
44.51585 196
44.53596 218
44.55607 218
44.57619 220
44.5963 222
44.61642 224
44.63653 208
44.65664 200
44.67676 211
44.69687 239
44.71698 237
44.7371 198
44.75721 219
44.77732 223
44.79744 236
44.81755 235
44.83767 236
44.85778 264
44.87789 236
44.89801 247
44.91812 234
44.93823 227
44.95835 257
44.97846 239
44.99858 262
45.01869 241
45.0388 259
45.05892 268
45.07903 260
45.09914 254
45.11926 252
45.13937 229
45.15949 246
45.1796 259
45.19971 262
45.21983 269
45.23994 275
45.26005 263
45.28017 281
45.30028 237
45.32039 249
45.34051 245
45.36062 245
45.38074 257
45.40085 233
45.42096 315
45.44108 266
45.46119 319
45.4813 291
45.50142 255
45.52153 303
45.54165 310
45.56176 356
45.58187 361
45.60199 366
45.6221 450
45.64221 469
45.66233 500
45.68244 604
45.70256 699
45.72267 707
45.74278 833
45.7629 833
45.78301 805
45.80312 686
45.82324 581
45.84335 554
45.86346 533
45.88358 531
45.90369 486
45.92381 412
45.94392 319
45.96403 277
45.98415 255
46.00426 280
46.02437 244
46.04449 253
46.0646 253
46.08472 251
46.10483 248
46.12494 255
46.14506 265
46.16517 234
46.18528 237
46.2054 235
46.22551 211
46.24563 245
46.26574 225
46.28585 206
46.30597 220
46.32608 234
46.34619 204
46.36631 206
46.38642 218
46.40653 210
46.42665 212
46.44676 212
46.46688 196
46.48699 209
46.5071 201
46.52722 217
46.54733 190
46.56744 217
46.58756 233
46.60767 193
46.62779 206
46.6479 201
46.66801 223
46.68813 220
46.70824 201
46.72835 213
46.74847 220
46.76858 236
46.78869 230
46.80881 218
46.82892 211
46.84904 267
46.86915 224
46.88926 223
46.90938 247
46.92949 229
46.9496 233
46.96972 241
46.98983 221
47.00995 243
47.03006 225
47.05017 237
47.07029 228
47.0904 221
47.11051 235
47.13063 245
47.15074 239
47.17086 247
47.19097 248
47.21108 213
47.2312 224
47.25131 241
47.27142 218
47.29154 244
47.31165 235
47.33176 212
47.35188 257
47.37199 220
47.39211 237
47.41222 288
47.43233 260
47.45245 269
47.47256 262
47.49267 296
47.51279 296
47.5329 263
47.55302 276
47.57313 264
47.59324 271
47.61336 228
47.63347 227
47.65358 247
47.6737 221
47.69381 224
47.71393 198
47.73404 223
47.75415 223
47.77427 225
47.79438 193
47.81449 201
47.83461 208
47.85472 226
47.87483 251
47.89495 213
47.91506 219
47.93518 207
47.95529 193
47.9754 229
47.99552 214
48.01563 236
48.03574 197
48.05586 231
48.07597 205
48.09609 230
48.1162 209
48.13631 217
48.15643 234
48.17654 224
48.19665 221
48.21677 262
48.23688 249
48.257 257
48.27711 255
48.29722 277
48.31734 240
48.33745 259
48.35756 239
48.37768 223
48.39779 241
48.4179 239
48.43802 209
48.45813 197
48.47825 249
48.49836 197
48.51847 199
48.53859 205
48.5587 204
48.57881 226
48.59893 219
48.61904 214
48.63916 211
48.65927 256
48.67938 234
48.6995 234
48.71961 253
48.73972 216
48.75984 241
48.77995 231
48.80006 241
48.82018 237
48.84029 237
48.86041 230
48.88052 235
48.90063 280
48.92075 260
48.94086 288
48.96097 277
48.98109 245
49.0012 284
49.02132 313
49.04143 241
49.06154 282
49.08166 315
49.10177 305
49.12188 314
49.142 325
49.16211 300
49.18223 322
49.20234 288
49.22245 250
49.24257 280
49.26268 243
49.28279 267
49.30291 299
49.32302 233
49.34313 268
49.36325 263
49.38336 249
49.40348 244
49.42359 255
49.4437 231
49.46382 222
49.48393 246
49.50404 257
49.52416 251
49.54427 285
49.56439 274
49.5845 279
49.60461 313
49.62473 307
49.64484 304
49.66495 369
49.68507 326
49.70518 383
49.7253 356
49.74541 402
49.76552 426
49.78564 436
49.80575 439
49.82586 506
49.84598 552
49.86609 587
49.8862 607
49.90632 679
49.92643 710
49.94655 766
49.96666 885
49.98677 1060
50.00689 1248
50.027 1534
50.04711 1859
50.06723 2090
50.08734 2375
50.10746 2399
50.12757 2240
50.14768 1878
50.1678 1472
50.18791 1290
50.20802 1281
50.22814 1371
50.24825 1187
50.26837 1031
50.28848 741
50.30859 524
50.32871 423
50.34882 356
50.36893 356
50.38905 310
50.40916 354
50.42927 360
50.44939 359
50.4695 328
50.48962 358
50.50973 381
50.52984 391
50.54996 360
50.57007 418
50.59018 429
50.6103 367
50.63041 401
50.65053 429
50.67064 369
50.69075 363
50.71087 376
50.73098 373
50.75109 342
50.77121 323
50.79132 316
50.81143 292
50.83155 308
50.85166 255
50.87178 289
50.89189 263
50.912 258
50.93212 261
50.95223 227
50.97234 217
50.99246 229
51.01257 251
51.03269 237
51.0528 243
51.07291 275
51.09303 241
51.11314 244
51.13325 282
51.15337 236
51.17348 286
51.1936 295
51.21371 263
51.23382 308
51.25394 325
51.27405 337
51.29416 344
51.31428 361
51.33439 298
51.3545 324
51.37462 302
51.39473 293
51.41485 266
51.43496 288
51.45507 270
51.47519 258
51.4953 246
51.51541 237
51.53553 244
51.55564 227
51.57576 209
51.59587 224
51.61598 207
51.6361 183
51.65621 201
51.67632 217
51.69644 196
51.71655 182
51.73667 182
51.75678 212
51.77689 206
51.79701 212
51.81712 184
51.83723 192
51.85735 209
51.87746 213
51.89757 212
51.91769 205
51.9378 203
51.95792 186
51.97803 187
51.99814 207
52.01826 226
52.03837 207
52.05848 198
52.0786 193
52.09871 210
52.11883 237
52.13894 219
52.15905 235
52.17917 239
52.19928 259
52.21939 240
52.23951 230
52.25962 220
52.27974 236
52.29985 222
52.31996 235
52.34008 243
52.36019 236
52.3803 214
52.40042 217
52.42053 232
52.44064 222
52.46076 244
52.48087 224
52.50099 254
52.5211 220
52.54121 268
52.56133 206
52.58144 251
52.60155 240
52.62167 219
52.64178 230
52.6619 235
52.68201 291
52.70212 239
52.72224 253
52.74235 234
52.76246 237
52.78258 252
52.80269 226
52.8228 244
52.84292 266
52.86303 282
52.88315 279
52.90326 267
52.92337 258
52.94349 274
52.9636 256
52.98371 235
53.00383 248
53.02394 233
53.04406 238
53.06417 257
53.08428 241
53.1044 228
53.12451 251
53.14462 251
53.16474 238
53.18485 272
53.20497 236
53.22508 220
53.24519 246
53.26531 226
53.28542 226
53.30553 257
53.32565 291
53.34576 245
53.36587 263
53.38599 261
53.4061 246
53.42622 241
53.44633 246
53.46644 259
53.48656 233
53.50667 227
53.52678 246
53.5469 252
53.56701 271
53.58713 220
53.60724 226
53.62735 222
53.64747 237
53.66758 202
53.68769 220
53.70781 259
53.72792 228
53.74804 258
53.76815 245
53.78826 222
53.80838 236
53.82849 240
53.8486 241
53.86872 245
53.88883 259
53.90894 240
53.92906 227
53.94917 246
53.96929 235
53.9894 271
54.00951 263
54.02963 254
54.04974 245
54.06985 272
54.08997 240
54.11008 265
54.1302 251
54.15031 231
54.17042 274
54.19054 273
54.21065 235
54.23076 258
54.25088 242
54.27099 268
54.29111 276
54.31122 273
54.33133 258
54.35145 253
54.37156 277
54.39167 243
54.41179 257
54.4319 257
54.45201 267
54.47213 301
54.49224 256
54.51236 267
54.53247 269
54.55258 289
54.5727 292
54.59281 277
54.61292 329
54.63304 343
54.65315 349
54.67327 384
54.69338 422
54.71349 468
54.73361 503
54.75372 602
54.77383 637
54.79395 710
54.81406 829
54.83417 814
54.85429 803
54.8744 705
54.89452 630
54.91463 570
54.93474 530
54.95486 579
54.97497 544
54.99508 532
55.0152 474
55.03531 450
55.05543 345
55.07554 306
55.09565 321
55.11577 294
55.13588 347
55.15599 326
55.17611 381
55.19622 390
55.21634 403
55.23645 425
55.25656 471
55.27668 489
55.29679 519
55.3169 438
55.33702 444
55.35713 367
55.37724 353
55.39736 370
55.41747 365
55.43759 345
55.4577 373
55.47781 352
55.49793 297
55.51804 274
55.53815 273
55.55827 232
55.57838 267
55.5985 230
55.61861 220
55.63872 253
55.65884 227
55.67895 239
55.69906 218
55.71918 231
55.73929 258
55.75941 231
55.77952 250
55.79963 230
55.81975 205
55.83986 211
55.85997 249
55.88009 230
55.9002 198
55.92031 222
55.94043 215
55.96054 201
55.98066 205
56.00077 215
56.02088 193
56.041 234
56.06111 226
56.08122 220
56.10134 200
56.12145 196
56.14157 203
56.16168 214
56.18179 188
56.20191 189
56.22202 204
56.24213 202
56.26225 204
56.28236 226
56.30248 231
56.32259 210
56.3427 230
56.36282 224
56.38293 212
56.40304 206
56.42316 220
56.44327 207
56.46338 211
56.4835 221
56.50361 195
56.52373 200
56.54384 201
56.56395 192
56.58407 206
56.60418 216
56.62429 178
56.64441 208
56.66452 221
56.68464 221
56.70475 228
56.72486 207
56.74498 197
56.76509 183
56.7852 220
56.80532 189
56.82543 206
56.84554 209
56.86566 195
56.88577 203
56.90589 208
56.926 186
56.94611 194
56.96623 219
56.98634 183
57.00645 203
57.02657 203
57.04668 234
57.0668 186
57.08691 214
57.10702 238
57.12714 214
57.14725 241
57.16736 253
57.18748 241
57.20759 214
57.22771 243
57.24782 227
57.26793 227
57.28805 254
57.30816 218
57.32827 217
57.34839 216
57.3685 224
57.38861 209
57.40873 222
57.42884 241
57.44896 237
57.46907 228
57.48918 220
57.5093 234
57.52941 229
57.54952 240
57.56964 218
57.58975 217
57.60987 239
57.62998 206
57.65009 228
57.67021 221
57.69032 215
57.71043 223
57.73055 217
57.75066 188
57.77078 221
57.79089 190
57.811 211
57.83112 187
57.85123 167
57.87134 214
57.89146 214
57.91157 209
57.93168 208
57.9518 216
57.97191 201
57.99203 215
58.01214 210
58.03225 201
58.05237 199
58.07248 194
58.09259 207
58.11271 209
58.13282 224
58.15294 224
58.17305 197
58.19316 202
58.21328 203
58.23339 216
58.2535 212
58.27362 198
58.29373 226
58.31385 176
58.33396 207
58.35407 233
58.37419 228
58.3943 199
58.41441 228
58.43453 214
58.45464 224
58.47475 248
58.49487 221
58.51498 201
58.5351 258
58.55521 253
58.57532 245
58.59544 216
58.61555 217
58.63566 205
58.65578 232
58.67589 233
58.69601 228
58.71612 224
58.73623 231
58.75635 237
58.77646 213
58.79657 225
58.81669 203
58.8368 214
58.85691 225
58.87703 207
58.89714 226
58.91726 193
58.93737 207
58.95748 198
58.9776 215
58.99771 205
59.01782 175
59.03794 216
59.05805 207
59.07817 199
59.09828 208
59.11839 224
59.13851 230
59.15862 206
59.17873 198
59.19885 193
59.21896 207
59.23908 223
59.25919 198
59.2793 222
59.29942 223
59.31953 232
59.33964 230
59.35976 243
59.37987 228
59.39998 240
59.4201 212
59.44021 220
59.46033 227
59.48044 254
59.50055 255
59.52067 255
59.54078 257
59.56089 255
59.58101 313
59.60112 324
59.62124 324
59.64135 322
59.66146 327
59.68158 374
59.70169 412
59.7218 437
59.74192 479
59.76203 585
59.78215 663
59.80226 783
59.82237 922
59.84249 1089
59.8626 1266
59.88271 1454
59.90283 1491
59.92294 1489
59.94305 1411
59.96317 1172
59.98328 935
60.0034 832
60.02351 823
60.04362 885
60.06374 840
60.08385 876
60.10396 778
60.12408 649
60.14419 499
60.16431 399
60.18442 353
60.20453 320
60.22465 272
60.24476 312
60.26487 303
60.28499 284
60.3051 273
60.32522 248
60.34533 264
60.36544 257
60.38556 281
60.40567 260
60.42578 250
60.4459 244
60.46601 240
60.48612 249
60.50624 250
60.52635 264
60.54647 250
60.56658 251
60.58669 248
60.60681 239
60.62692 228
60.64703 233
60.66715 208
60.68726 280
60.70738 230
60.72749 246
60.7476 210
60.76772 207
60.78783 239
60.80794 231
60.82806 215
60.84817 210
60.86828 241
60.8884 226
60.90851 207
60.92863 223
60.94874 221
60.96885 232
60.98897 214
61.00908 229
61.02919 233
61.04931 231
61.06942 263
61.08954 222
61.10965 226
61.12976 232
61.14988 230
61.16999 228
61.1901 247
61.21022 223
61.23033 218
61.25045 207
61.27056 213
61.29067 224
61.31079 206
61.3309 223
61.35101 229
61.37113 203
61.39124 201
61.41135 214
61.43147 223
61.45158 227
61.4717 202
61.49181 222
61.51192 206
61.53204 246
61.55215 222
61.57226 237
61.59238 220
61.61249 244
61.63261 241
61.65272 227
61.67283 204
61.69295 224
61.71306 233
61.73317 240
61.75329 241
61.7734 249
61.79352 237
61.81363 250
61.83374 221
61.85386 260
61.87397 264
61.89408 277
61.9142 272
61.93431 245
61.95442 263
61.97454 265
61.99465 248
62.01477 241
62.03488 257
62.05499 247
62.07511 247
62.09522 226
62.11533 242
62.13545 246
62.15556 244
62.17568 250
62.19579 247
62.2159 203
62.23602 241
62.25613 263
62.27624 224
62.29636 235
62.31647 225
62.33659 223
62.3567 247
62.37681 230
62.39693 261
62.41704 224
62.43715 236
62.45727 250
62.47738 228
62.49749 224
62.51761 230
62.53772 243
62.55784 233
62.57795 212
62.59806 217
62.61818 228
62.63829 208
62.6584 220
62.67852 218
62.69863 202
62.71875 219
62.73886 233
62.75897 224
62.77909 227
62.7992 220
62.81931 229
62.83943 266
62.85954 249
62.87965 227
62.89977 244
62.91988 251
62.94 233
62.96011 246
62.98022 223
63.00034 233
63.02045 233
63.04056 252
63.06068 214
63.08079 251
63.10091 212
63.12102 239
63.14113 241
63.16125 234
63.18136 215
63.20147 245
63.22159 234
63.2417 235
63.26182 226
63.28193 231
63.30204 223
63.32216 185
63.34227 220
63.36238 228
63.3825 227
63.40261 236
63.42272 229
63.44284 213
63.46295 218
63.48307 234
63.50318 239
63.52329 233
63.54341 234
63.56352 242
63.58363 253
63.60375 230
63.62386 222
63.64398 241
63.66409 230
63.6842 294
63.70432 291
63.72443 269
63.74454 267
63.76466 311
63.78477 305
63.80489 327
63.825 310
63.84511 312
63.86523 354
63.88534 373
63.90545 366
63.92557 383
63.94568 457
63.96579 449
63.98591 480
64.00602 458
64.02614 406
64.04625 382
64.06636 377
64.08648 369
64.10659 335
64.1267 334
64.14682 323
64.16693 331
64.18705 311
64.20716 304
64.22727 260
64.24739 269
64.2675 234
64.28761 212
64.30773 232
64.32784 221
64.34796 215
64.36807 208
64.38818 216
64.4083 211
64.42841 222
64.44852 241
64.46864 206
64.48875 204
64.50886 198
64.52898 209
64.54909 199
64.56921 188
64.58932 195
64.60943 183
64.62955 184
64.64966 192
64.66977 180
64.68989 194
64.71 183
64.73012 189
64.75023 211
64.77034 197
64.79046 200
64.81057 215
64.83068 183
64.8508 175
64.87091 227
64.89102 214
64.91114 213
64.93125 195
64.95137 220
64.97148 205
64.99159 230
65.01171 198
65.03182 205
65.05193 212
65.07205 233
65.09216 237
65.11228 251
65.13239 203
65.1525 224
65.17262 221
65.19273 223
65.21284 201
65.23296 227
65.25307 219
65.27319 222
65.2933 233
65.31341 200
65.33353 218
65.35364 218
65.37375 231
65.39387 220
65.41398 207
65.43409 235
65.45421 234
65.47432 250
65.49444 206
65.51455 214
65.53466 214
65.55478 203
65.57489 234
65.595 229
65.61512 197
65.63523 228
65.65535 228
65.67546 236
65.69557 250
65.71569 242
65.7358 215
65.75591 236
65.77603 221
65.79614 201
65.81626 215
65.83637 197
65.85648 225
65.8766 230
65.89671 204
65.91682 219
65.93694 226
65.95705 196
65.97716 200
65.99728 210
66.01739 210
66.03751 185
66.05762 192
66.07773 200
66.09785 203
66.11796 226
66.13807 204
66.15819 230
66.1783 215
66.19842 218
66.21853 200
66.23864 210
66.25876 190
66.27887 204
66.29898 208
66.3191 191
66.33921 214
66.35933 205
66.37944 217
66.39955 201
66.41967 198
66.43978 212
66.45989 212
66.48001 187
66.50012 234
66.52023 193
66.54035 197
66.56046 205
66.58058 179
66.60069 188
66.6208 200
66.64092 186
66.66103 190
66.68114 210
66.70126 184
66.72137 228
66.74149 215
66.7616 209
66.78171 197
66.80183 211
66.82194 200
66.84205 198
66.86217 200
66.88228 200
66.90239 205
66.92251 215
66.94262 216
66.96274 207
66.98285 209
67.00296 201
67.02308 216
67.04319 221
67.0633 228
67.08342 224
67.10353 226
67.12365 219
67.14376 228
67.16387 220
67.18399 234
67.2041 212
67.22421 206
67.24433 221
67.26444 256
67.28456 244
67.30467 246
67.32478 243
67.3449 245
67.36501 280
67.38512 266
67.40524 279
67.42535 308
67.44546 309
67.46558 322
67.48569 327
67.50581 356
67.52592 431
67.54603 491
67.56615 491
67.58626 635
67.60637 688
67.62649 778
67.6466 835
67.66672 931
67.68683 976
67.70694 947
67.72706 857
67.74717 819
67.76728 656
67.7874 580
67.80751 582
67.82763 617
67.84774 664
67.86785 728
67.88797 693
67.90808 755
67.92819 722
67.94831 737
67.96842 701
67.98853 770
68.00865 828
68.02876 972
68.04888 1052
68.06899 1193
68.0891 1265
68.10922 1180
68.12933 1178
68.14944 1121
68.16956 980
68.18967 912
68.20979 957
68.2299 1088
68.25001 1193
68.27013 1178
68.29024 1122
68.31035 1006
68.33047 883
68.35058 669
68.3707 586
68.39081 545
68.41092 532
68.43104 524
68.45115 533
68.47126 520
68.49138 484
68.51149 412
68.5316 311
68.55172 282
68.57183 246
68.59195 248
68.61206 231
68.63217 241
68.65229 234
68.6724 236
68.69251 211
68.71263 238
68.73274 230
68.75286 239
68.77297 238
68.79308 221
68.8132 220
68.83331 238
68.85342 206
68.87354 239
68.89365 198
68.91376 233
68.93388 236
68.95399 217
68.97411 203
68.99422 207
69.01433 234
69.03445 217
69.05456 215
69.07467 200
69.09479 238
69.1149 235
69.13502 245
69.15513 210
69.17524 257
69.19536 228
69.21547 227
69.23558 233
69.2557 206
69.27581 205
69.29593 237
69.31604 259
69.33615 202
69.35627 259
69.37638 245
69.39649 215
69.41661 230
69.43672 219
69.45683 201
69.47695 207
69.49706 199
69.51718 213
69.53729 187
69.5574 219
69.57752 203
69.59763 214
69.61774 200
69.63786 238
69.65797 205
69.67809 205
69.6982 221
69.71831 219
69.73843 192
69.75854 211
69.77865 206
69.79877 221
69.81888 197
69.839 215
69.85911 197
69.87922 205
69.89934 210
69.91945 202
69.93956 208
69.95968 192
69.97979 192
69.9999 193
70.02002 205
70.04013 190
70.06025 193
70.08036 195
70.10047 187
70.12059 198
70.1407 183
70.16081 199
70.18093 186
70.20104 184
70.22116 190
70.24127 180
70.26138 181
70.2815 183
70.30161 184
70.32172 199
70.34184 178
70.36195 201
70.38207 193
70.40218 190
70.42229 173
70.44241 182
70.46252 190
70.48263 184
70.50275 174
70.52286 177
70.54297 172
70.56309 163
70.5832 191
70.60332 193
70.62343 201
70.64354 203
70.66366 168
70.68377 192
70.70388 187
70.724 193
70.74411 190
70.76423 191
70.78434 194
70.80445 193
70.82457 203
70.84468 187
70.86479 200
70.88491 187
70.90502 192
70.92513 203
70.94525 186
70.96536 210
70.98548 190
71.00559 183
71.0257 190
71.04582 183
71.06593 214
71.08604 200
71.10616 206
71.12627 184
71.14639 202
71.1665 193
71.18661 220
71.20673 186
71.22684 235
71.24695 200
71.26707 216
71.28718 230
71.3073 208
71.32741 199
71.34752 188
71.36764 214
71.38775 203
71.40786 218
71.42798 228
71.44809 222
71.4682 184
71.48832 207
71.50843 195
71.52855 201
71.54866 196
71.56877 214
71.58889 206
71.609 185
71.62911 208
71.64923 197
71.66934 209
71.68946 177
71.70957 208
71.72968 199
71.7498 197
71.76991 198
71.79002 181
71.81014 184
71.83025 203
71.85037 186
71.87048 174
71.89059 188
71.91071 190
71.93082 203
71.95093 177
71.97105 177
71.99116 191
72.01127 168
72.03139 172
72.0515 185
72.07162 187
72.09173 193
72.11184 191
72.13196 194
72.15207 201
72.17218 186
72.1923 184
72.21241 172
72.23253 189
72.25264 176
72.27275 184
72.29287 223
72.31298 187
72.33309 198
72.35321 173
72.37332 189
72.39344 197
72.41355 212
72.43366 189
72.45378 169
72.47389 177
72.494 167
72.51412 195
72.53423 184
72.55434 196
72.57446 186
72.59457 202
72.61469 182
72.6348 191
72.65491 180
72.67503 163
72.69514 190
72.71525 176
72.73537 179
72.75548 195
72.7756 197
72.79571 196
72.81582 167
72.83594 207
72.85605 183
72.87616 213
72.89628 177
72.91639 221
72.9365 191
72.95662 186
72.97673 196
72.99685 208
73.01696 216
73.03707 205
73.05719 162
73.0773 234
73.09741 217
73.11753 229
73.13764 208
73.15776 243
73.17787 244
73.19798 231
73.2181 242
73.23821 245
73.25832 286
73.27844 263
73.29855 342
73.31867 329
73.33878 371
73.35889 384
73.37901 440
73.39912 428
73.41923 403
73.43935 444
73.45946 397
73.47957 336
73.49969 313
73.5198 277
73.53992 330
73.56003 293
73.58014 292
73.60026 285
73.62037 296
73.64048 328
73.6606 319
73.68071 318
73.70083 249
73.72094 220
73.74105 200
73.76117 194
73.78128 217
73.80139 221
73.82151 209
73.84162 204
73.86174 214
73.88185 205
73.90196 193
73.92208 205
73.94219 202
73.9623 202
73.98242 192
74.00253 199
74.02264 212
74.04276 222
74.06287 203
74.08299 207
74.1031 190
74.12321 191
74.14333 178
74.16344 198
74.18355 192
74.20367 185
74.22378 178
74.2439 221
74.26401 177
74.28412 206
74.30424 190
74.32435 187
74.34446 216
74.36458 193
74.38469 181
74.40481 174
74.42492 182
74.44503 192
74.46515 219
74.48526 191
74.50537 180
74.52549 190
74.5456 204
74.56571 217
74.58583 205
74.60594 204
74.62606 185
74.64617 205
74.66628 206
74.6864 193
74.70651 186
74.72662 201
74.74674 224
74.76685 196
74.78697 191
74.80708 205
74.82719 225
74.84731 198
74.86742 190
74.88753 188
74.90765 189
74.92776 226
74.94787 189
74.96799 198
74.9881 214
75.00822 223
