3.00117 20535
3.02128 19927
3.0414 19256
3.06151 18931
3.08162 18184
3.10174 17868
3.12185 17123
3.14197 16635
3.16208 16347
3.18219 15824
3.20231 15200
3.22242 14790
3.24253 14443
3.26265 14085
3.28276 13655
3.30288 13245
3.32299 12725
3.3431 12303
3.36322 12066
3.38333 11746
3.40344 11254
3.42356 10973
3.44367 10568
3.46379 10390
3.4839 9809
3.50401 9752
3.52413 9076
3.54424 8881
3.56435 8545
3.58447 8194
3.60458 8150
3.62469 7630
3.64481 7189
3.66492 7090
3.68504 6836
3.70515 6696
3.72526 6257
3.74538 6012
3.76549 5857
3.7856 5557
3.80572 5495
3.82583 5057
3.84595 4972
3.86606 4691
3.88617 4560
3.90629 4499
3.9264 4038
3.94651 3974
3.96663 3893
3.98674 3771
4.00686 3662
4.02697 3313
4.04708 3280
4.0672 3155
4.08731 3025
4.10742 2898
4.12754 2714
4.14765 2704
4.16776 2515
4.18788 2371
4.20799 2487
4.22811 2080
4.24822 2175
4.26833 2231
4.28845 2018
4.30856 2026
4.32867 1807
4.34879 1874
4.3689 1901
4.38902 1807
4.40913 1731
4.42924 1674
4.44936 1605
4.46947 1573
4.48958 1615
4.5097 1495
4.52981 1527
4.54992 1452
4.57004 1451
4.59015 1437
4.61027 1456
4.63038 1387
4.65049 1265
4.67061 1328
4.69072 1284
4.71083 1285
4.73095 1257
4.75106 1148
4.77118 1170
4.79129 1144
4.8114 1078
4.83152 1047
4.85163 1099
4.87174 1101
4.89186 1105
4.91197 1055
4.93209 1114
4.9522 921
4.97231 942
4.99243 946
5.01254 936
5.03265 910
5.05277 894
5.07288 873
5.09299 903
5.11311 906
5.13322 839
5.15334 819
5.17345 819
5.19356 850
5.21368 801
5.23379 798
5.2539 766
5.27402 781
5.29413 709
5.31425 705
5.33436 683
5.35447 731
5.37459 729
5.3947 612
5.41481 677
5.43493 677
5.45504 628
5.47516 620
5.49527 645
5.51538 657
5.5355 609
5.55561 644
5.57572 615
5.59584 616
5.61595 548
5.63606 553
5.65618 558
5.67629 564
5.69641 575
5.71652 614
5.73663 594
5.75675 601
5.77686 512
5.79697 542
5.81709 563
5.8372 518
5.85732 560
5.87743 500
5.89754 533
5.91766 470
5.93777 536
5.95788 537
5.978 505
5.99811 495
6.01823 484
6.03834 496
6.05845 514
6.07857 505
6.09868 469
6.11879 520
6.13891 552
6.15902 444
6.17913 461
6.19925 503
6.21936 504
6.23948 451
6.25959 488
6.2797 465
6.29982 463
6.31993 422
6.34004 464
6.36016 467
6.38027 437
6.40039 497
6.4205 460
6.44061 484
6.46073 483
6.48084 431
6.50095 447
6.52107 479
6.54118 458
6.56129 449
6.58141 427
6.60152 494
6.62164 418
6.64175 424
6.66186 484
6.68198 447
6.70209 442
6.7222 450
6.74232 459
6.76243 473
6.78255 424
6.80266 451
6.82277 475
6.84289 465
6.863 477
6.88311 437
6.90323 438
6.92334 468
6.94346 434
6.96357 467
6.98368 427
7.0038 454
7.02391 440
7.04402 413
7.06414 400
7.08425 400
7.10436 472
7.12448 443
7.14459 422
7.16471 438
7.18482 440
7.20493 438
7.22505 426
7.24516 430
7.26527 421
7.28539 422
7.3055 445
7.32562 477
7.34573 406
7.36584 445
7.38596 430
7.40607 436
7.42618 457
7.4463 424
7.46641 473
7.48653 390
7.50664 475
7.52675 443
7.54687 415
7.56698 438
7.58709 431
7.60721 416
7.62732 409
7.64743 403
7.66755 427
7.68766 411
7.70778 453
7.72789 437
7.748 459
7.76812 454
7.78823 423
7.80834 454
7.82846 408
7.84857 464
7.86869 406
7.8888 449
7.90891 408
7.92903 401
7.94914 459
7.96925 442
7.98937 462
8.00948 431
8.0296 421
8.04971 421
8.06982 455
8.08994 432
8.11005 398
8.13016 388
8.15028 440
8.17039 406
8.1905 397
8.21062 404
8.23073 457
8.25085 418
8.27096 420
8.29107 383
8.31119 390
8.3313 368
8.35141 396
8.37153 398
8.39164 398
8.41176 428
8.43187 405
8.45198 379
8.4721 331
8.49221 395
8.51232 423
8.53244 350
8.55255 400
8.57266 433
8.59278 367
8.61289 383
8.63301 365
8.65312 394
8.67323 367
8.69335 419
8.71346 411
8.73357 410
8.75369 416
8.7738 367
8.79392 393
8.81403 393
8.83414 395
8.85426 424
8.87437 416
8.89448 335
8.9146 374
8.93471 394
8.95483 395
8.97494 354
8.99505 404
9.01517 320
9.03528 379
9.05539 368
9.07551 362
9.09562 366
9.11573 370
9.13585 332
9.15596 380
9.17608 355
9.19619 353
9.2163 338
9.23642 331
9.25653 335
9.27664 327
9.29676 350
9.31687 340
9.33699 311
9.3571 329
9.37721 361
9.39733 343
9.41744 333
9.43755 355
9.45767 348
9.47778 325
9.4979 331
9.51801 334
9.53812 342
9.55824 356
9.57835 345
9.59846 322
9.61858 340
9.63869 349
9.6588 383
9.67892 326
9.69903 344
9.71915 368
9.73926 335
9.75937 368
9.77949 328
9.7996 346
9.81971 358
9.83983 361
9.85994 356
9.88006 350
9.90017 308
9.92028 335
9.9404 287
9.96051 330
9.98062 366
10.00074 319
10.02085 348
10.04097 351
10.06108 338
10.08119 342
10.10131 363
10.12142 330
10.14153 339
10.16165 333
10.18176 335
10.20187 337
10.22199 318
10.2421 306
10.26222 341
10.28233 392
10.30244 308
10.32256 335
10.34267 300
10.36278 341
10.3829 324
10.40301 334
10.42313 331
10.44324 322
10.46335 383
10.48347 332
10.50358 324
10.52369 355
10.54381 315
10.56392 348
10.58403 310
10.60415 323
10.62426 305
10.64438 323
10.66449 287
10.6846 329
10.70472 316
10.72483 324
10.74494 309
10.76506 311
10.78517 320
10.80529 307
10.8254 327
10.84551 319
10.86563 360
10.88574 322
10.90585 324
10.92597 324
10.94608 327
10.9662 317
10.98631 326
11.00642 325
11.02654 354
11.04665 329
11.06676 330
11.08688 330
11.10699 322
11.1271 352
11.14722 331
11.16733 319
11.18745 309
11.20756 324
11.22767 353
11.24779 300
11.2679 312
11.28801 371
11.30813 320
11.32824 327
11.34836 288
11.36847 348
11.38858 329
11.4087 373
11.42881 299
11.44892 324
11.46904 334
11.48915 338
11.50927 348
11.52938 345
11.54949 344
11.56961 344
11.58972 313
11.60983 314
11.62995 339
11.65006 344
11.67017 329
11.69029 336
11.7104 359
11.73052 354
11.75063 373
11.77074 283
11.79086 318
11.81097 354
11.83108 364
11.8512 285
11.87131 311
11.89143 326
11.91154 332
11.93165 307
11.95177 345
11.97188 303
11.99199 313
12.01211 333
12.03222 330
12.05234 336
12.07245 304
12.09256 367
12.11268 335
12.13279 339
12.1529 379
12.17302 331
12.19313 294
12.21324 317
12.23336 326
12.25347 303
12.27359 303
12.2937 352
12.31381 312
12.33393 336
12.35404 328
12.37415 337
12.39427 324
12.41438 339
12.4345 351
12.45461 308
12.47472 341
12.49484 306
12.51495 314
12.53506 294
12.55518 339
12.57529 311
12.5954 371
12.61552 321
12.63563 313
12.65575 294
12.67586 315
12.69597 291
12.71609 289
12.7362 295
12.75631 299
12.77643 260
12.79654 314
12.81666 297
12.83677 298
12.85688 296
12.877 279
12.89711 298
12.91722 280
12.93734 320
12.95745 287
12.97757 292
12.99768 298
13.01779 285
13.03791 274
13.05802 300
13.07813 320
13.09825 307
13.11836 299
13.13847 322
13.15859 321
13.1787 308
13.19882 315
13.21893 293
13.23904 314
13.25916 299
13.27927 294
13.29938 299
13.3195 311
13.33961 328
13.35973 313
13.37984 325
13.39995 338
13.42007 329
13.44018 306
13.46029 319
13.48041 357
13.50052 324
13.52064 354
13.54075 366
13.56086 348
13.58098 378
13.60109 382
13.6212 347
13.64132 405
13.66143 344
13.68154 365
13.70166 313
13.72177 320
13.74189 348
13.762 310
13.78211 383
13.80223 334
13.82234 369
13.84245 334
13.86257 329
13.88268 356
13.9028 357
13.92291 282
13.94302 306
13.96314 279
13.98325 347
14.00336 280
14.02348 330
14.04359 282
14.06371 282
14.08382 270
14.10393 286
14.12405 263
14.14416 335
14.16427 297
14.18439 315
14.2045 273
14.22461 313
14.24473 303
14.26484 283
14.28496 272
14.30507 291
14.32518 277
14.3453 292
14.36541 272
14.38552 304
14.40564 281
14.42575 281
14.44587 271
14.46598 273
14.48609 266
14.50621 293
14.52632 284
14.54643 286
14.56655 274
14.58666 284
14.60677 277
14.62689 278
14.647 292
14.66712 313
14.68723 282
14.70734 278
14.72746 291
14.74757 294
14.76768 307
14.7878 304
14.80791 327
14.82803 288
14.84814 313
14.86825 294
14.88837 299
14.90848 321
14.92859 335
14.94871 340
14.96882 307
14.98894 334
15.00905 346
15.02916 339
15.04928 330
15.06939 346
15.0895 302
15.10962 321
15.12973 279
15.14984 262
15.16996 299
15.19007 317
15.21019 250
15.2303 279
15.25041 278
15.27053 257
15.29064 313
15.31075 280
15.33087 247
15.35098 248
15.3711 291
15.39121 273
15.41132 288
15.43144 255
15.45155 249
15.47166 301
15.49178 259
15.51189 275
15.53201 289
15.55212 320
15.57223 281
15.59235 275
15.61246 284
15.63257 313
15.65269 296
15.6728 275
15.69291 309
15.71303 277
15.73314 288
15.75326 293
15.77337 320
15.79348 284
15.8136 262
15.83371 271
15.85382 256
15.87394 273
15.89405 291
15.91417 288
15.93428 298
15.95439 300
15.97451 288
15.99462 244
16.01473 293
16.03485 281
16.05496 341
16.07508 295
16.09519 271
16.1153 267
16.13542 276
16.15553 290
16.17564 268
16.19576 282
16.21587 302
16.23598 287
16.2561 271
16.27621 329
16.29633 263
16.31644 266
16.33655 267
16.35667 268
16.37678 297
16.39689 261
16.41701 290
16.43712 283
16.45724 279
16.47735 244
16.49746 281
16.51758 295
16.53769 283
16.5578 280
16.57792 259
16.59803 281
16.61814 281
16.63826 292
16.65837 279
16.67849 267
16.6986 273
16.71871 283
16.73883 279
16.75894 260
16.77905 253
16.79917 264
16.81928 276
16.8394 244
16.85951 317
16.87962 304
16.89974 283
16.91985 260
16.93996 305
16.96008 286
16.98019 308
17.00031 301
17.02042 268
17.04053 278
17.06065 275
17.08076 287
17.10087 289
17.12099 278
17.1411 323
17.16121 276
17.18133 283
17.20144 293
17.22156 248
17.24167 257
17.26178 275
17.2819 277
17.30201 280
17.32212 288
17.34224 271
17.36235 280
17.38247 255
17.40258 318
17.42269 278
17.44281 293
17.46292 288
17.48303 281
17.50315 268
17.52326 293
17.54338 333
17.56349 300
17.5836 270
17.60372 297
17.62383 286
17.64394 303
17.66406 312
17.68417 308
17.70428 311
17.7244 315
17.74451 313
17.76463 314
17.78474 317
17.80485 322
17.82497 295
17.84508 315
17.86519 294
17.88531 293
17.90542 327
17.92554 271
17.94565 310
17.96576 303
17.98588 263
18.00599 297
18.0261 284
18.04622 321
18.06633 288
18.08645 281
18.10656 286
18.12667 315
18.14679 294
18.1669 292
18.18701 311
18.20713 265
18.22724 271
18.24735 302
18.26747 284
18.28758 299
18.3077 321
18.32781 258
18.34792 312
18.36804 284
18.38815 268
18.40826 273
18.42838 303
18.44849 273
18.46861 297
18.48872 271
18.50883 309
18.52895 264
18.54906 255
18.56917 333
18.58929 293
18.6094 292
18.62951 274
18.64963 301
18.66974 292
18.68986 283
18.70997 289
18.73008 278
18.7502 320
18.77031 309
18.79042 299
18.81054 281
18.83065 312
18.85077 274
18.87088 313
18.89099 326
18.91111 282
18.93122 292
18.95133 283
18.97145 290
18.99156 306
19.01168 324
19.03179 299
19.0519 312
19.07202 290
19.09213 282
19.11224 314
19.13236 313
19.15247 307
19.17258 285
19.1927 323
19.21281 310
19.23293 361
19.25304 368
19.27315 320
19.29327 327
19.31338 375
19.33349 383
19.35361 335
19.37372 354
19.39384 386
19.41395 341
19.43406 331
19.45418 389
19.47429 347
19.4944 402
19.51452 384
19.53463 400
19.55475 417
19.57486 462
19.59497 487
19.61509 523
19.6352 492
19.65531 540
19.67543 585
19.69554 609
19.71565 657
19.73577 681
19.75588 659
19.776 654
19.79611 702
19.81622 734
19.83634 675
19.85645 708
19.87656 675
19.89668 608
19.91679 621
19.93691 586
19.95702 566
19.97713 593
19.99725 560
20.01736 587
20.03747 586
20.05759 611
20.0777 536
20.09782 525
20.11793 535
20.13804 542
20.15816 514
20.17827 571
20.19838 498
20.2185 524
20.23861 517
20.25872 498
20.27884 526
20.29895 484
20.31907 458
20.33918 521
20.35929 506
20.37941 532
20.39952 515
20.41963 463
20.43975 535
20.45986 536
20.47998 492
20.50009 504
20.5202 608
20.54032 580
20.56043 598
20.58054 687
20.60066 637
20.62077 735
20.64088 854
20.661 999
20.68111 1237
20.70123 1608
20.72134 1844
20.74145 2430
20.76157 3033
20.78168 3368
20.80179 3635
20.82191 3585
20.84202 3117
20.86214 2504
20.88225 2038
20.90236 1485
20.92248 1160
20.94259 963
20.9627 876
20.98282 867
21.00293 860
21.02305 831
21.04316 793
21.06327 787
21.08339 713
21.1035 720
21.12361 669
21.14373 645
21.16384 574
21.18395 534
21.20407 505
21.22418 499
21.2443 514
21.26441 477
21.28452 500
21.30464 491
21.32475 465
21.34486 473
21.36498 477
21.38509 451
21.40521 494
21.42532 408
21.44543 408
21.46555 425
21.48566 436
21.50577 471
21.52589 435
21.546 424
21.56612 446
21.58623 398
21.60634 436
21.62646 430
21.64657 448
21.66668 409
21.6868 371
21.70691 400
21.72702 384
21.74714 414
21.76725 447
21.78737 413
21.80748 515
21.82759 487
21.84771 481
21.86782 493
21.88793 527
21.90805 563
21.92816 608
21.94828 668
21.96839 685
21.9885 641
22.00862 593
22.02873 535
22.04884 558
22.06896 485
22.08907 420
22.10919 430
22.1293 392
22.14941 405
22.16953 432
22.18964 368
22.20975 408
22.22987 444
22.24998 422
22.27009 458
22.29021 433
22.31032 420
22.33044 410
22.35055 459
22.37066 467
22.39078 460
22.41089 434
22.431 407
22.45112 466
22.47123 434
22.49135 433
22.51146 444
22.53157 463
22.55169 488
22.5718 437
22.59191 441
22.61203 430
22.63214 453
22.65225 402
22.67237 391
22.69248 387
22.7126 364
22.73271 397
22.75282 409
22.77294 431
22.79305 402
22.81316 415
22.83328 415
22.85339 444
22.87351 389
22.89362 382
22.91373 424
22.93385 445
22.95396 435
22.97407 426
22.99419 436
23.0143 429
23.03442 440
23.05453 482
23.07464 434
23.09476 501
23.11487 480
23.13498 448
23.1551 472
23.17521 466
23.19532 482
23.21544 461
23.23555 409
23.25567 463
23.27578 465
23.29589 424
23.31601 485
23.33612 487
23.35623 472
23.37635 508
23.39646 491
23.41658 604
23.43669 616
23.4568 614
23.47692 694
23.49703 658
23.51714 677
23.53726 635
23.55737 667
23.57749 575
23.5976 592
23.61771 498
23.63783 550
23.65794 524
23.67805 467
23.69817 455
23.71828 490
23.73839 482
23.75851 451
23.77862 412
23.79874 484
23.81885 476
23.83896 482
23.85908 489
23.87919 495
23.8993 501
23.91942 510
23.93953 552
23.95965 561
23.97976 531
23.99987 508
24.01999 550
24.0401 480
24.06021 499
24.08033 473
24.10044 541
24.12056 536
24.14067 540
24.16078 498
24.1809 532
24.20101 507
24.22112 540
24.24124 571
24.26135 537
24.28146 530
24.30158 526
24.32169 461
24.34181 479
24.36192 457
24.38203 463
24.40215 440
24.42226 415
24.44237 418
24.46249 451
24.4826 447
24.50272 417
24.52283 410
24.54294 496
24.56306 426
24.58317 429
24.60328 441
24.6234 412
24.64351 414
24.66362 445
24.68374 437
24.70385 383
24.72397 444
24.74408 457
24.76419 464
24.78431 438
24.80442 444
24.82453 414
24.84465 379
24.86476 447
24.88488 423
24.90499 399
24.9251 423
24.94522 417
24.96533 425
24.98544 427
25.00556 437
25.02567 425
25.04579 431
25.0659 417
25.08601 480
25.10613 436
25.12624 453
25.14635 471
25.16647 441
25.18658 515
25.20669 526
25.22681 520
25.24692 502
25.26704 491
25.28715 497
25.30726 499
25.32738 536
25.34749 527
25.3676 519
25.38772 531
25.40783 493
25.42795 505
25.44806 578
25.46817 581
25.48829 609
25.5084 612
25.52851 627
25.54863 634
25.56874 682
25.58886 730
25.60897 710
25.62908 675
25.6492 707
25.66931 661
25.68942 663
25.70954 603
25.72965 592
25.74976 589
25.76988 534
25.78999 524
25.81011 552
25.83022 497
25.85033 549
25.87045 533
25.89056 539
25.91067 541
25.93079 549
25.9509 504
25.97102 529
25.99113 577
26.01124 578
26.03136 591
26.05147 555
26.07158 600
26.0917 650
26.11181 690
26.13193 705
26.15204 708
26.17215 799
26.19227 774
26.21238 867
26.23249 868
26.25261 970
26.27272 991
26.29283 1085
26.31295 1250
26.33306 1398
26.35318 1654
26.37329 1970
26.3934 2376
26.41352 2929
26.43363 3714
26.45374 4662
26.47386 6118
26.49397 7871
26.51409 10081
26.5342 12159
26.55431 14249
26.57443 15377
26.59454 15156
26.61465 13554
26.63477 11294
26.65488 8775
26.67499 6443
26.69511 4543
26.71522 2934
26.73534 2047
26.75545 1439
26.77556 1302
26.79568 1222
26.81579 1128
26.8359 1143
26.85602 1098
26.87613 977
26.89625 1048
26.91636 1078
26.93647 1031
26.95659 1028
26.9767 970
26.99681 960
27.01693 962
27.03704 976
27.05716 897
27.07727 928
27.09738 844
27.1175 840
27.13761 780
27.15772 754
27.17784 744
27.19795 788
27.21806 730
27.23818 696
27.25829 778
27.27841 803
27.29852 847
27.31863 912
27.33875 988
27.35886 1014
27.37897 1028
27.39909 1088
27.4192 1077
27.43932 1145
27.45943 1029
27.47954 986
27.49966 953
27.51977 873
27.53988 916
27.56 878
27.58011 842
27.60023 825
27.62034 810
27.64045 828
27.66057 771
27.68068 758
27.70079 671
27.72091 743
27.74102 742
27.76113 729
27.78125 850
27.80136 801
27.82148 758
27.84159 849
27.8617 836
27.88182 883
27.90193 1022
27.92204 877
27.94216 805
27.96227 735
27.98239 707
28.0025 600
28.02261 575
28.04273 526
28.06284 544
28.08295 505
28.10307 530
28.12318 528
28.1433 455
28.16341 550
28.18352 488
28.20364 458
28.22375 473
28.24386 438
28.26398 407
28.28409 436
28.3042 404
28.32432 413
28.34443 419
28.36455 410
28.38466 372
28.40477 392
28.42489 404
28.445 407
28.46511 399
28.48523 355
28.50534 370
28.52546 423
28.54557 347
28.56568 390
28.5858 392
28.60591 345
28.62602 384
28.64614 377
28.66625 379
28.68636 389
28.70648 355
28.72659 336
28.74671 379
28.76682 347
28.78693 357
28.80705 361
28.82716 370
28.84727 355
28.86739 359
28.8875 364
28.90762 372
28.92773 340
28.94784 380
28.96796 382
28.98807 355
29.00818 353
29.0283 387
29.04841 361
29.06853 393
29.08864 371
29.10875 334
29.12887 369
29.14898 351
29.16909 352
29.18921 377
29.20932 350
29.22943 346
29.24955 359
29.26966 372
29.28978 395
29.30989 396
29.33 447
29.35012 398
29.37023 427
29.39034 406
29.41046 404
29.43057 390
29.45069 402
29.4708 392
29.49091 406
29.51103 395
29.53114 364
29.55125 414
29.57137 403
29.59148 410
29.6116 436
29.63171 440
29.65182 451
29.67194 460
29.69205 471
29.71216 487
29.73228 525
29.75239 483
29.7725 507
29.79262 532
29.81273 502
29.83285 525
29.85296 513
29.87307 496
29.89319 500
29.9133 513
29.93341 483
29.95353 435
29.97364 444
29.99376 473
30.01387 443
30.03398 439
30.0541 436
30.07421 461
30.09432 442
30.11444 495
30.13455 452
30.15467 438
30.17478 463
30.19489 473
30.21501 447
30.23512 429
30.25523 442
30.27535 472
30.29546 437
30.31557 443
30.33569 454
30.3558 430
30.37592 457
30.39603 448
30.41614 479
30.43626 458
30.45637 449
30.47648 446
30.4966 408
30.51671 439
30.53683 426
30.55694 468
30.57705 437
30.59717 435
30.61728 443
30.63739 556
30.65751 502
30.67762 506
30.69773 480
30.71785 555
30.73796 527
30.75808 530
30.77819 466
30.7983 488
30.81842 510
30.83853 504
30.85864 397
30.87876 411
30.89887 389
30.91899 389
30.9391 342
30.95921 341
30.97933 409
30.99944 378
31.01955 352
31.03967 323
31.05978 345
31.0799 338
31.10001 343
31.12012 378
31.14024 354
31.16035 366
31.18046 334
31.20058 316
31.22069 346
31.2408 364
31.26092 352
31.28103 338
31.30115 357
31.32126 319
31.34137 372
31.36149 375
31.3816 347
31.40171 369
31.42183 328
31.44194 340
31.46206 305
31.48217 331
31.50228 301
31.5224 342
31.54251 340
31.56262 301
31.58274 308
31.60285 311
31.62297 309
31.64308 308
31.66319 299
31.68331 311
31.70342 343
31.72353 317
31.74365 299
31.76376 282
31.78387 310
31.80399 322
31.8241 289
31.84422 331
31.86433 302
31.88444 318
31.90456 290
31.92467 306
31.94478 322
31.9649 307
31.98501 341
32.00513 321
32.02524 333
32.04535 304
32.06547 353
32.08558 315
32.10569 367
32.12581 352
32.14592 350
32.16604 368
32.18615 388
32.20626 358
32.22638 382
32.24649 364
32.2666 367
32.28672 366
32.30683 351
32.32694 374
32.34706 378
32.36717 360
32.38729 360
32.4074 364
32.42751 395
32.44763 361
32.46774 358
32.48785 316
32.50797 346
32.52808 339
32.5482 344
32.56831 314
32.58842 341
32.60854 344
32.62865 358
32.64876 316
32.66888 317
32.68899 303
32.7091 343
32.72922 334
32.74933 348
32.76945 299
32.78956 292
32.80967 300
32.82979 323
32.8499 313
32.87001 318
32.89013 315
32.91024 313
32.93036 335
32.95047 315
32.97058 331
32.9907 325
33.01081 304
33.03092 280
33.05104 332
33.07115 315
33.09127 316
33.11138 293
33.13149 355
33.15161 350
33.17172 344
33.19183 354
33.21195 315
33.23206 314
33.25217 288
33.27229 323
33.2924 315
33.31252 304
33.33263 343
33.35274 327
33.37286 312
33.39297 300
33.41308 329
33.4332 332
33.45331 312
33.47343 327
33.49354 303
33.51365 314
33.53377 341
33.55388 296
33.57399 339
33.59411 324
33.61422 334
33.63434 311
33.65445 314
33.67456 338
33.69468 313
33.71479 320
33.7349 340
33.75502 306
33.77513 310
33.79524 340
33.81536 349
33.83547 315
33.85559 311
33.8757 330
33.89581 338
33.91593 356
33.93604 349
33.95615 358
33.97627 349
33.99638 299
34.0165 352
34.03661 365
34.05672 372
34.07684 351
34.09695 365
34.11706 351
34.13718 366
34.15729 374
34.17741 403
34.19752 422
34.21763 398
34.23775 399
34.25786 438
34.27797 402
34.29809 432
34.3182 400
34.33831 421
34.35843 428
34.37854 409
34.39866 420
34.41877 452
34.43888 420
34.459 430
34.47911 482
34.49922 478
34.51934 509
34.53945 482
34.55957 464
34.57968 543
34.59979 527
34.61991 516
34.64002 530
34.66013 533
34.68025 537
34.70036 537
34.72047 582
34.74059 569
34.7607 534
34.78082 594
34.80093 585
34.82104 593
34.84116 590
34.86127 591
34.88138 596
34.9015 592
34.92161 604
34.94173 578
34.96184 636
34.98195 589
35.00207 591
35.02218 548
35.04229 559
35.06241 574
35.08252 572
35.10264 609
35.12275 516
35.14286 585
35.16298 589
35.18309 548
35.2032 498
35.22332 502
35.24343 505
35.26354 507
35.28366 502
35.30377 478
35.32389 492
35.344 491
35.36411 466
35.38423 526
35.40434 503
35.42445 476
35.44457 463
35.46468 534
35.4848 479
35.50491 466
35.52502 484
35.54514 472
35.56525 471
35.58536 462
35.60548 469
35.62559 446
35.64571 444
35.66582 433
35.68593 400
35.70605 467
35.72616 401
35.74627 400
35.76639 417
35.7865 425
35.80661 462
35.82673 445
35.84684 432
35.86696 399
35.88707 398
35.90718 413
35.9273 409
35.94741 402
35.96752 383
35.98764 417
36.00775 410
36.02787 384
36.04798 428
36.06809 425
36.08821 406
36.10832 419
36.12843 443
36.14855 465
36.16866 449
36.18878 458
36.20889 416
36.229 498
36.24912 495
36.26923 501
36.28934 536
36.30946 596
36.32957 672
36.34968 718
36.3698 849
36.38991 924
36.41003 1049
36.43014 1177
36.45025 1346
36.47037 1338
36.49048 1312
36.51059 1260
36.53071 1173
36.55082 1071
36.57094 922
36.59105 801
36.61116 698
36.63128 626
36.65139 544
36.6715 473
36.69162 465
36.71173 440
36.73184 455
36.75196 427
36.77207 410
36.79219 444
36.8123 441
36.83241 431
36.85253 413
36.87264 439
36.89275 457
36.91287 423
36.93298 412
36.9531 423
36.97321 475
36.99332 405
37.01344 425
37.03355 400
37.05366 424
37.07378 430
37.09389 414
37.11401 392
37.13412 415
37.15423 387
37.17435 385
37.19446 380
37.21457 369
37.23469 393
37.2548 411
37.27491 403
37.29503 357
37.31514 387
37.33526 397
37.35537 414
37.37548 379
37.3956 387
37.41571 376
37.43582 399
37.45594 391
37.47605 404
37.49617 398
37.51628 375
37.53639 398
37.55651 381
37.57662 403
37.59673 384
37.61685 401
37.63696 415
37.65708 405
37.67719 372
37.6973 426
37.71742 368
37.73753 386
37.75764 399
37.77776 379
37.79787 369
37.81798 378
37.8381 386
37.85821 359
37.87833 341
37.89844 349
37.91855 402
37.93867 325
37.95878 352
37.97889 353
37.99901 322
38.01912 387
38.03924 349
38.05935 355
38.07946 353
38.09958 343
38.11969 338
38.1398 338
38.15992 360
38.18003 336
38.20015 384
38.22026 340
38.24037 355
38.26049 384
38.2806 393
38.30071 343
38.32083 352
38.34094 377
38.36105 330
38.38117 334
38.40128 311
38.4214 387
38.44151 352
38.46162 357
38.48174 329
38.50185 385
38.52196 376
38.54208 384
38.56219 355
38.58231 353
38.60242 368
38.62253 385
38.64265 388
38.66276 387
38.68287 346
38.70299 368
38.7231 321
38.74321 327
38.76333 353
38.78344 366
38.80356 351
38.82367 356
38.84378 352
38.8639 347
38.88401 352
38.90412 327
38.92424 348
38.94435 345
38.96447 317
38.98458 341
39.00469 329
39.02481 357
39.04492 355
39.06503 360
39.08515 367
39.10526 339
39.12538 357
39.14549 400
39.1656 394
39.18572 427
39.20583 454
39.22594 483
39.24606 543
39.26617 572
39.28628 719
39.3064 798
39.32651 948
39.34663 984
39.36674 1103
39.38685 1169
39.40697 1183
39.42708 1187
39.44719 1045
39.46731 918
39.48742 855
39.50754 756
39.52765 693
39.54776 550
39.56788 531
39.58799 466
39.6081 402
39.62822 375
39.64833 348
39.66845 323
39.68856 362
39.70867 352
39.72879 340
39.7489 342
39.76901 343
39.78913 322
39.80924 310
39.82935 351
39.84947 366
39.86958 341
39.8897 337
39.90981 352
39.92992 365
39.95004 372
39.97015 378
39.99026 369
40.01038 407
40.03049 418
40.05061 452
40.07072 496
40.09083 474
40.11095 501
40.13106 580
40.15117 607
40.17129 709
40.1914 721
40.21152 748
40.23163 746
40.25174 692
40.27186 671
40.29197 625
40.31208 537
40.3322 538
40.35231 500
40.37242 487
40.39254 419
40.41265 405
40.43277 363
40.45288 342
40.47299 325
40.49311 334
40.51322 363
40.53333 344
40.55345 314
40.57356 315
40.59368 351
40.61379 295
40.6339 350
40.65402 304
40.67413 329
40.69424 324
40.71436 349
40.73447 337
40.75458 351
40.7747 333
40.79481 314
40.81493 334
40.83504 302
40.85515 370
40.87527 348
40.89538 300
40.91549 361
40.93561 333
40.95572 296
40.97584 333
40.99595 362
41.01606 328
41.03618 363
41.05629 342
41.0764 334
41.09652 350
41.11663 353
41.13675 362
41.15686 301
41.17697 325
41.19709 334
41.2172 336
41.23731 342
41.25743 354
41.27754 334
41.29765 352
41.31777 362
41.33788 336
41.358 324
41.37811 319
41.39822 340
41.41834 364
41.43845 324
41.45856 370
41.47868 360
41.49879 385
41.51891 372
41.53902 398
41.55913 386
41.57925 392
41.59936 379
41.61947 396
41.63959 386
41.6597 403
41.67982 382
41.69993 404
41.72004 409
41.74016 379
41.76027 431
41.78038 373
41.8005 377
41.82061 384
41.84072 364
41.86084 341
41.88095 374
41.90107 345
41.92118 377
41.94129 353
41.96141 349
41.98152 368
42.00163 369
42.02175 347
42.04186 382
42.06198 400
42.08209 344
42.1022 387
42.12232 366
42.14243 368
42.16254 435
42.18266 445
42.20277 452
42.22289 554
42.243 553
42.26311 592
42.28323 668
42.30334 731
42.32345 784
42.34357 861
42.36368 952
42.38379 939
42.40391 881
42.42402 809
42.44414 785
42.46425 701
42.48436 675
42.50448 600
42.52459 604
42.5447 489
42.56482 435
42.58493 401
42.60505 358
42.62516 367
42.64527 361
42.66539 330
42.6855 330
42.70561 346
42.72573 354
42.74584 339
42.76595 346
42.78607 332
42.80618 319
42.8263 323
42.84641 312
42.86652 336
42.88664 308
42.90675 290
42.92686 324
42.94698 299
42.96709 314
42.98721 279
43.00732 272
43.02743 273
43.04755 311
43.06766 302
43.08777 305
43.10789 300
43.128 295
43.14812 307
43.16823 292
43.18834 331
43.20846 336
43.22857 287
43.24868 255
43.2688 281
43.28891 267
43.30902 286
43.32914 325
43.34925 319
43.36937 306
43.38948 298
43.40959 302
43.42971 298
43.44982 271
43.46993 315
43.49005 282
43.51016 295
43.53028 297
43.55039 281
43.5705 283
43.59062 287
43.61073 268
43.63084 309
43.65096 305
43.67107 257
43.69119 293
43.7113 260
43.73141 293
43.75153 313
43.77164 291
43.79175 326
43.81187 293
43.83198 276
43.85209 291
43.87221 292
43.89232 283
43.91244 284
43.93255 278
43.95266 275
43.97278 275
43.99289 312
44.013 300
44.03312 300
44.05323 320
44.07335 292
44.09346 285
44.11357 283
44.13369 279
44.1538 289
44.17391 285
44.19403 293
44.21414 267
44.23426 279
44.25437 286
44.27448 273
44.2946 272
44.31471 290
44.33482 281
44.35494 303
44.37505 316
44.39516 273
44.41528 284
44.43539 290
44.45551 261
44.47562 248
44.49573 311
44.51585 290
44.53596 289
44.55607 262
44.57619 297
44.5963 273
44.61642 316
44.63653 294
44.65664 327
44.67676 292
44.69687 304
44.71698 294
44.7371 284
44.75721 331
44.77732 276
44.79744 300
44.81755 295
44.83767 299
44.85778 258
44.87789 306
44.89801 286
44.91812 301
44.93823 286
44.95835 312
44.97846 300
44.99858 290
45.01869 295
45.0388 291
45.05892 274
45.07903 290
45.09914 316
45.11926 305
45.13937 278
45.15949 315
45.1796 303
45.19971 333
45.21983 311
45.23994 333
45.26005 332
45.28017 347
45.30028 343
45.32039 349
45.34051 346
45.36062 342
45.38074 328
45.40085 333
45.42096 332
45.44108 358
45.46119 348
45.4813 367
45.50142 377
45.52153 402
45.54165 440
45.56176 396
45.58187 489
45.60199 494
45.6221 530
45.64221 551
45.66233 642
45.68244 612
45.70256 703
45.72267 726
45.74278 713
45.7629 636
45.78301 584
45.80312 543
45.82324 495
45.84335 497
45.86346 453
45.88358 430
45.90369 442
45.92381 370
45.94392 328
45.96403 317
45.98415 333
46.00426 336
46.02437 340
46.04449 323
46.0646 328
46.08472 303
46.10483 308
46.12494 292
46.14506 272
46.16517 304
46.18528 296
46.2054 298
46.22551 306
46.24563 286
46.26574 276
46.28585 278
46.30597 290
46.32608 294
46.34619 276
46.36631 284
46.38642 305
46.40653 295
46.42665 282
46.44676 292
46.46688 296
46.48699 266
46.5071 288
46.52722 261
46.54733 275
46.56744 239
46.58756 270
46.60767 271
46.62779 305
46.6479 309
46.66801 275
46.68813 301
46.70824 282
46.72835 313
46.74847 292
46.76858 265
46.78869 282
46.80881 306
46.82892 281
46.84904 298
46.86915 286
46.88926 286
46.90938 263
46.92949 297
46.9496 283
46.96972 275
46.98983 291
47.00995 273
47.03006 294
47.05017 309
47.07029 301
47.0904 303
47.11051 323
47.13063 312
47.15074 317
47.17086 290
47.19097 278
47.21108 314
47.2312 279
47.25131 292
47.27142 320
47.29154 309
47.31165 280
47.33176 326
47.35188 307
47.37199 289
47.39211 318
47.41222 274
47.43233 313
47.45245 290
47.47256 280
47.49267 300
47.51279 275
47.5329 275
47.55302 274
47.57313 290
47.59324 320
47.61336 296
47.63347 287
47.65358 302
47.6737 319
47.69381 284
47.71393 266
47.73404 306
47.75415 272
47.77427 350
47.79438 285
47.81449 289
47.83461 299
47.85472 281
47.87483 310
47.89495 293
47.91506 319
47.93518 282
47.95529 279
47.9754 311
47.99552 285
48.01563 277
48.03574 305
48.05586 299
48.07597 285
48.09609 306
48.1162 297
48.13631 313
48.15643 309
48.17654 293
48.19665 322
48.21677 267
48.23688 276
48.257 273
48.27711 275
48.29722 292
48.31734 306
48.33745 274
48.35756 294
48.37768 288
48.39779 292
48.4179 285
48.43802 247
48.45813 285
48.47825 245
48.49836 249
48.51847 296
48.53859 237
48.5587 289
48.57881 291
48.59893 297
48.61904 312
48.63916 285
48.65927 288
48.67938 317
48.6995 291
48.71961 303
48.73972 296
48.75984 300
48.77995 296
48.80006 294
48.82018 281
48.84029 288
48.86041 299
48.88052 312
48.90063 322
48.92075 313
48.94086 309
48.96097 282
48.98109 292
49.0012 292
49.02132 301
49.04143 312
49.06154 335
49.08166 306
49.10177 326
49.12188 302
49.142 335
49.16211 337
49.18223 314
49.20234 292
49.22245 289
49.24257 268
49.26268 295
49.28279 298
49.30291 306
49.32302 325
49.34313 306
49.36325 284
49.38336 310
49.40348 324
49.42359 268
49.4437 315
49.46382 296
49.48393 328
49.50404 319
49.52416 304
49.54427 310
49.56439 327
49.5845 337
49.60461 314
49.62473 366
49.64484 327
49.66495 375
49.68507 383
49.70518 372
49.7253 368
49.74541 377
49.76552 435
49.78564 431
49.80575 467
49.82586 519
49.84598 527
49.86609 611
49.8862 636
49.90632 794
49.92643 861
49.94655 993
49.96666 1039
49.98677 1289
50.00689 1374
50.027 1524
50.04711 1691
50.06723 1779
50.08734 1630
50.10746 1495
50.12757 1318
50.14768 1174
50.1678 1035
50.18791 1058
50.20802 971
50.22814 821
50.24825 714
50.26837 594
50.28848 472
50.30859 416
50.32871 378
50.34882 367
50.36893 402
50.38905 385
50.40916 382
50.42927 387
50.44939 396
50.4695 415
50.48962 393
50.50973 454
50.52984 429
50.54996 448
50.57007 429
50.59018 410
50.6103 393
50.63041 424
50.65053 405
50.67064 409
50.69075 399
50.71087 388
50.73098 375
50.75109 386
50.77121 343
50.79132 358
50.81143 343
50.83155 365
50.85166 319
50.87178 336
50.89189 309
50.912 333
50.93212 297
50.95223 329
50.97234 310
50.99246 297
51.01257 285
51.03269 282
51.0528 294
51.07291 295
51.09303 291
51.11314 307
51.13325 291
51.15337 288
51.17348 307
51.1936 305
51.21371 273
51.23382 314
51.25394 257
51.27405 269
51.29416 259
51.31428 273
51.33439 274
51.3545 261
51.37462 295
51.39473 253
51.41485 257
51.43496 276
51.45507 291
51.47519 260
51.4953 271
51.51541 259
51.53553 270
51.55564 265
51.57576 284
51.59587 266
51.61598 258
51.6361 265
51.65621 277
51.67632 271
51.69644 255
51.71655 281
51.73667 275
51.75678 269
51.77689 269
51.79701 248
51.81712 249
51.83723 289
51.85735 239
51.87746 262
51.89757 262
51.91769 265
51.9378 262
51.95792 267
51.97803 278
51.99814 244
52.01826 252
52.03837 290
52.05848 263
52.0786 284
52.09871 263
52.11883 259
52.13894 272
52.15905 258
52.17917 266
52.19928 281
52.21939 244
52.23951 263
52.25962 262
52.27974 272
52.29985 269
52.31996 242
52.34008 269
52.36019 263
52.3803 258
52.40042 282
52.42053 276
52.44064 278
52.46076 281
52.48087 262
52.50099 267
52.5211 297
52.54121 281
52.56133 250
52.58144 274
52.60155 291
52.62167 305
52.64178 276
52.6619 273
52.68201 265
52.70212 280
52.72224 288
52.74235 286
52.76246 283
52.78258 289
52.80269 291
52.8228 266
52.84292 287
52.86303 273
52.88315 259
52.90326 263
52.92337 299
52.94349 273
52.9636 308
52.98371 299
53.00383 274
53.02394 271
53.04406 300
53.06417 269
53.08428 320
53.1044 301
53.12451 313
53.14462 305
53.16474 325
53.18485 323
53.20497 320
53.22508 356
53.24519 306
53.26531 289
53.28542 294
53.30553 296
53.32565 290
53.34576 329
53.36587 279
53.38599 315
53.4061 278
53.42622 258
53.44633 315
53.46644 287
53.48656 265
53.50667 306
53.52678 312
53.5469 282
53.56701 306
53.58713 307
53.60724 303
53.62735 271
53.64747 297
53.66758 273
53.68769 293
53.70781 321
53.72792 314
53.74804 309
53.76815 289
53.78826 328
53.80838 328
53.82849 311
53.8486 293
53.86872 317
53.88883 317
53.90894 327
53.92906 305
53.94917 345
53.96929 361
53.9894 322
54.00951 306
54.02963 322
54.04974 301
54.06985 329
54.08997 311
54.11008 312
54.1302 307
54.15031 325
54.17042 293
54.19054 333
54.21065 339
54.23076 331
54.25088 310
54.27099 359
54.29111 285
54.31122 372
54.33133 306
54.35145 351
54.37156 366
54.39167 356
54.41179 297
54.4319 358
54.45201 324
54.47213 348
54.49224 356
54.51236 353
54.53247 350
54.55258 380
54.5727 377
54.59281 378
54.61292 448
54.63304 437
54.65315 450
54.67327 512
54.69338 524
54.71349 601
54.73361 611
54.75372 679
54.77383 723
54.79395 738
54.81406 737
54.83417 622
54.85429 658
54.8744 597
54.89452 556
54.91463 553
54.93474 528
54.95486 562
54.97497 473
54.99508 443
55.0152 451
55.03531 380
55.05543 403
55.07554 386
55.09565 410
55.11577 382
55.13588 416
55.15599 432
55.17611 465
55.19622 435
55.21634 448
55.23645 485
55.25656 447
55.27668 473
55.29679 425
55.3169 376
55.33702 388
55.35713 384
55.37724 407
55.39736 415
55.41747 393
55.43759 407
55.4577 391
55.47781 350
55.49793 354
55.51804 323
55.53815 328
55.55827 308
55.57838 305
55.5985 300
55.61861 327
55.63872 295
55.65884 306
55.67895 297
55.69906 269
55.71918 297
55.73929 314
55.75941 301
55.77952 297
55.79963 287
55.81975 304
55.83986 285
55.85997 290
55.88009 310
55.9002 305
55.92031 291
55.94043 265
55.96054 291
55.98066 283
56.00077 277
56.02088 275
56.041 275
56.06111 271
56.08122 269
56.10134 295
56.12145 259
56.14157 269
56.16168 270
56.18179 298
56.20191 306
56.22202 309
56.24213 281
56.26225 290
56.28236 289
56.30248 297
56.32259 280
56.3427 285
56.36282 296
56.38293 262
56.40304 287
56.42316 293
56.44327 304
56.46338 277
56.4835 248
56.50361 284
56.52373 285
56.54384 297
56.56395 322
56.58407 276
56.60418 291
56.62429 316
56.64441 303
56.66452 300
56.68464 287
56.70475 295
56.72486 260
56.74498 291
56.76509 269
56.7852 287
56.80532 293
56.82543 258
56.84554 291
56.86566 289
56.88577 304
56.90589 279
56.926 287
56.94611 287
56.96623 288
56.98634 276
57.00645 282
57.02657 285
57.04668 293
57.0668 262
57.08691 303
57.10702 272
57.12714 279
57.14725 309
57.16736 291
57.18748 287
57.20759 300
57.22771 264
57.24782 278
57.26793 244
57.28805 282
57.30816 277
57.32827 299
57.34839 303
57.3685 283
57.38861 269
57.40873 287
57.42884 308
57.44896 273
57.46907 284
57.48918 292
57.5093 288
57.52941 282
57.54952 282
57.56964 286
57.58975 272
57.60987 286
57.62998 281
57.65009 275
57.67021 277
57.69032 256
57.71043 264
57.73055 306
57.75066 265
57.77078 273
57.79089 278
57.811 247
57.83112 294
57.85123 266
57.87134 268
57.89146 258
57.91157 255
57.93168 271
57.9518 274
57.97191 273
57.99203 270
58.01214 281
58.03225 270
58.05237 257
58.07248 263
58.09259 265
58.11271 292
58.13282 249
58.15294 259
58.17305 279
58.19316 252
58.21328 291
58.23339 244
58.2535 240
58.27362 270
58.29373 274
58.31385 279
58.33396 279
58.35407 256
58.37419 261
58.3943 262
58.41441 266
58.43453 261
58.45464 260
58.47475 268
58.49487 265
58.51498 281
58.5351 272
58.55521 304
58.57532 281
58.59544 286
58.61555 300
58.63566 297
58.65578 279
58.67589 286
58.69601 281
58.71612 281
58.73623 277
58.75635 296
58.77646 288
58.79657 287
58.81669 244
58.8368 268
58.85691 277
58.87703 286
58.89714 273
58.91726 274
58.93737 291
58.95748 267
58.9776 259
58.99771 265
59.01782 249
59.03794 249
59.05805 260
59.07817 282
59.09828 274
59.11839 264
59.13851 255
59.15862 274
59.17873 260
59.19885 311
59.21896 282
59.23908 301
59.25919 297
59.2793 287
59.29942 279
59.31953 298
59.33964 254
59.35976 285
59.37987 299
59.39998 315
59.4201 300
59.44021 282
59.46033 315
59.48044 329
59.50055 339
59.52067 320
59.54078 340
59.56089 347
59.58101 361
59.60112 386
59.62124 400
59.64135 422
59.66146 474
59.68158 472
59.70169 554
59.7218 579
59.74192 656
59.76203 732
59.78215 843
59.80226 928
59.82237 1004
59.84249 1098
59.8626 1154
59.88271 1097
59.90283 1109
59.92294 988
59.94305 858
59.96317 763
59.98328 725
60.0034 774
60.02351 711
60.04362 720
60.06374 644
60.08385 633
60.10396 530
60.12408 443
60.14419 372
60.16431 345
60.18442 324
60.20453 361
60.22465 352
60.24476 351
60.26487 309
60.28499 310
60.3051 314
60.32522 319
60.34533 291
60.36544 270
60.38556 292
60.40567 310
60.42578 298
60.4459 305
60.46601 301
60.48612 326
60.50624 293
60.52635 299
60.54647 315
60.56658 271
60.58669 289
60.60681 311
60.62692 299
60.64703 285
60.66715 288
60.68726 294
60.70738 293
60.72749 283
60.7476 293
60.76772 296
60.78783 278
60.80794 271
60.82806 279
60.84817 285
60.86828 274
60.8884 309
60.90851 308
60.92863 281
60.94874 293
60.96885 302
60.98897 311
61.00908 309
61.02919 288
61.04931 260
61.06942 296
61.08954 291
61.10965 307
61.12976 301
61.14988 293
61.16999 272
61.1901 308
61.21022 275
61.23033 308
61.25045 305
61.27056 321
61.29067 312
61.31079 316
61.3309 321
61.35101 307
61.37113 274
61.39124 335
61.41135 304
61.43147 294
61.45158 304
61.4717 293
61.49181 319
61.51192 348
61.53204 343
61.55215 376
61.57226 329
61.59238 358
61.61249 354
61.63261 336
61.65272 351
61.67283 334
61.69295 363
61.71306 349
61.73317 367
61.75329 372
61.7734 338
61.79352 371
61.81363 393
61.83374 380
61.85386 390
61.87397 367
61.89408 354
61.9142 411
61.93431 403
61.95442 383
61.97454 343
61.99465 384
62.01477 371
62.03488 361
62.05499 348
62.07511 344
62.09522 350
62.11533 357
62.13545 344
62.15556 314
62.17568 340
62.19579 311
62.2159 327
62.23602 331
62.25613 338
62.27624 313
62.29636 321
62.31647 312
62.33659 311
62.3567 274
62.37681 316
62.39693 310
62.41704 329
62.43715 319
62.45727 299
62.47738 308
62.49749 302
62.51761 307
62.53772 297
62.55784 314
62.57795 288
62.59806 296
62.61818 319
62.63829 298
62.6584 305
62.67852 303
62.69863 264
62.71875 283
62.73886 304
62.75897 298
62.77909 294
62.7992 286
62.81931 264
62.83943 320
62.85954 299
62.87965 275
62.89977 302
62.91988 277
62.94 245
62.96011 310
62.98022 302
63.00034 302
63.02045 315
63.04056 271
63.06068 267
63.08079 297
63.10091 308
63.12102 311
63.14113 273
63.16125 297
63.18136 289
63.20147 278
63.22159 269
63.2417 286
63.26182 284
63.28193 264
63.30204 271
63.32216 303
63.34227 288
63.36238 274
63.3825 289
63.40261 303
63.42272 257
63.44284 291
63.46295 300
63.48307 273
63.50318 297
63.52329 282
63.54341 303
63.56352 271
63.58363 295
63.60375 295
63.62386 285
63.64398 319
63.66409 304
63.6842 302
63.70432 303
63.72443 317
63.74454 327
63.76466 315
63.78477 355
63.80489 354
63.825 359
63.84511 361
63.86523 381
63.88534 392
63.90545 394
63.92557 436
63.94568 451
63.96579 465
63.98591 452
64.00602 397
64.02614 365
64.04625 318
64.06636 331
64.08648 349
64.10659 374
64.1267 351
64.14682 365
64.16693 330
64.18705 323
64.20716 296
64.22727 300
64.24739 283
64.2675 235
64.28761 279
64.30773 295
64.32784 267
64.34796 267
64.36807 266
64.38818 261
64.4083 278
64.42841 296
64.44852 248
64.46864 263
64.48875 280
64.50886 254
64.52898 274
64.54909 264
64.56921 248
64.58932 239
64.60943 282
64.62955 251
64.64966 279
64.66977 278
64.68989 252
64.71 256
64.73012 252
64.75023 267
64.77034 254
64.79046 271
64.81057 284
64.83068 296
64.8508 258
64.87091 256
64.89102 251
64.91114 265
64.93125 272
64.95137 286
64.97148 290
64.99159 252
65.01171 257
65.03182 265
65.05193 278
65.07205 247
65.09216 286
65.11228 287
65.13239 289
65.1525 252
65.17262 285
65.19273 286
65.21284 267
65.23296 267
65.25307 275
65.27319 266
65.2933 251
65.31341 248
65.33353 284
65.35364 254
65.37375 267
65.39387 254
65.41398 265
65.43409 269
65.45421 272
65.47432 281
65.49444 291
65.51455 233
65.53466 255
65.55478 263
65.57489 275
65.595 279
65.61512 287
65.63523 270
65.65535 285
65.67546 301
65.69557 283
65.71569 311
65.7358 287
65.75591 259
65.77603 268
65.79614 254
65.81626 277
65.83637 272
65.85648 254
65.8766 281
65.89671 274
65.91682 250
65.93694 277
65.95705 287
65.97716 271
65.99728 252
66.01739 226
66.03751 238
66.05762 237
66.07773 250
66.09785 244
66.11796 242
66.13807 262
66.15819 255
66.1783 242
66.19842 279
66.21853 259
66.23864 274
66.25876 253
66.27887 279
66.29898 252
66.3191 261
66.33921 256
66.35933 263
66.37944 255
66.39955 260
66.41967 289
66.43978 246
66.45989 274
66.48001 294
66.50012 234
66.52023 246
66.54035 232
66.56046 260
66.58058 263
66.60069 254
66.6208 288
66.64092 257
66.66103 254
66.68114 240
66.70126 239
66.72137 243
66.74149 245
66.7616 249
66.78171 249
66.80183 274
66.82194 239
66.84205 276
66.86217 272
66.88228 225
66.90239 272
66.92251 235
66.94262 267
66.96274 247
66.98285 270
67.00296 263
67.02308 268
67.04319 243
67.0633 257
67.08342 267
67.10353 289
67.12365 266
67.14376 291
67.16387 279
67.18399 299
67.2041 308
67.22421 292
67.24433 273
67.26444 311
67.28456 307
67.30467 305
67.32478 321
67.3449 320
67.36501 328
67.38512 356
67.40524 362
67.42535 324
67.44546 379
67.46558 383
67.48569 440
67.50581 454
67.52592 526
67.54603 508
67.56615 569
67.58626 661
67.60637 730
67.62649 761
67.6466 769
67.66672 845
67.68683 773
67.70694 738
67.72706 669
67.74717 611
67.76728 609
67.7874 581
67.80751 616
67.82763 629
67.84774 628
67.86785 723
67.88797 671
67.90808 677
67.92819 700
67.94831 698
67.96842 708
67.98853 767
68.00865 892
68.02876 881
68.04888 966
68.06899 1012
68.0891 992
68.10922 988
68.12933 875
68.14944 885
68.16956 862
68.18967 820
68.20979 863
68.2299 858
68.25001 824
68.27013 824
68.29024 786
68.31035 684
68.33047 565
68.35058 569
68.3707 475
68.39081 490
68.41092 482
68.43104 432
68.45115 435
68.47126 418
68.49138 380
68.51149 356
68.5316 314
68.55172 299
68.57183 310
68.59195 294
68.61206 267
68.63217 325
68.65229 258
68.6724 272
68.69251 284
68.71263 274
68.73274 271
68.75286 294
68.77297 270
68.79308 274
68.8132 247
68.83331 271
68.85342 280
68.87354 278
68.89365 250
68.91376 289
68.93388 259
68.95399 282
68.97411 253
68.99422 268
69.01433 276
69.03445 261
69.05456 246
69.07467 261
69.09479 253
69.1149 252
69.13502 252
69.15513 266
69.17524 264
69.19536 249
69.21547 267
69.23558 263
69.2557 261
69.27581 274
69.29593 245
69.31604 266
69.33615 275
69.35627 247
69.37638 259
69.39649 245
69.41661 245
69.43672 259
69.45683 255
69.47695 233
69.49706 245
69.51718 238
69.53729 246
69.5574 238
69.57752 270
69.59763 255
69.61774 268
69.63786 263
69.65797 272
69.67809 248
69.6982 257
69.71831 258
69.73843 257
69.75854 271
69.77865 237
69.79877 245
69.81888 257
69.839 259
69.85911 241
69.87922 233
69.89934 254
69.91945 263
69.93956 264
69.95968 260
69.97979 260
69.9999 276
70.02002 243
70.04013 271
70.06025 244
70.08036 232
70.10047 273
70.12059 255
70.1407 271
70.16081 252
70.18093 272
70.20104 242
70.22116 254
70.24127 220
70.26138 266
70.2815 238
70.30161 232
70.32172 246
70.34184 226
70.36195 267
70.38207 251
70.40218 226
70.42229 242
70.44241 227
70.46252 216
70.48263 256
70.50275 256
70.52286 251
70.54297 246
70.56309 264
70.5832 240
70.60332 234
70.62343 224
70.64354 233
70.66366 250
70.68377 226
70.70388 251
70.724 248
70.74411 243
70.76423 266
70.78434 251
70.80445 234
70.82457 272
70.84468 259
70.86479 232
70.88491 241
70.90502 290
70.92513 247
70.94525 248
70.96536 232
70.98548 277
71.00559 253
71.0257 261
71.04582 261
71.06593 239
71.08604 232
71.10616 245
71.12627 229
71.14639 251
71.1665 217
71.18661 212
71.20673 222
71.22684 235
71.24695 257
71.26707 256
71.28718 263
71.3073 215
71.32741 241
71.34752 236
71.36764 267
71.38775 256
71.40786 247
71.42798 263
71.44809 239
71.4682 255
71.48832 265
71.50843 226
71.52855 247
71.54866 237
71.56877 233
71.58889 266
71.609 252
71.62911 231
71.64923 246
71.66934 272
71.68946 251
71.70957 264
71.72968 249
71.7498 258
71.76991 283
71.79002 248
71.81014 252
71.83025 248
71.85037 271
71.87048 209
71.89059 255
71.91071 245
71.93082 230
71.95093 246
71.97105 257
71.99116 257
72.01127 247
72.03139 261
72.0515 265
72.07162 240
72.09173 233
72.11184 243
72.13196 244
72.15207 225
72.17218 237
72.1923 269
72.21241 273
72.23253 226
72.25264 244
72.27275 226
72.29287 256
72.31298 235
72.33309 236
72.35321 248
72.37332 218
72.39344 246
72.41355 258
72.43366 236
72.45378 242
72.47389 244
72.494 263
72.51412 252
72.53423 231
72.55434 276
72.57446 265
72.59457 259
72.61469 254
72.6348 243
72.65491 265
72.67503 246
72.69514 269
72.71525 254
72.73537 263
72.75548 276
72.7756 270
72.79571 239
72.81582 263
72.83594 231
72.85605 261
72.87616 263
72.89628 260
72.91639 264
72.9365 271
72.95662 314
72.97673 261
72.99685 279
73.01696 262
73.03707 285
73.05719 268
73.0773 282
73.09741 285
73.11753 287
73.13764 282
73.15776 287
73.17787 326
73.19798 304
73.2181 340
73.23821 329
73.25832 332
73.27844 371
73.29855 389
73.31867 426
73.33878 408
73.35889 440
73.37901 459
73.39912 440
73.41923 414
73.43935 414
73.45946 399
73.47957 354
73.49969 325
73.5198 330
73.53992 347
73.56003 351
73.58014 366
73.60026 336
73.62037 319
73.64048 332
73.6606 337
73.68071 285
73.70083 289
73.72094 277
73.74105 243
73.76117 255
73.78128 279
73.80139 261
73.82151 273
73.84162 259
73.86174 269
73.88185 244
73.90196 260
73.92208 295
73.94219 277
73.9623 254
73.98242 254
74.00253 247
74.02264 285
74.04276 234
74.06287 242
74.08299 244
74.1031 272
74.12321 249
74.14333 265
74.16344 231
74.18355 273
74.20367 257
74.22378 251
74.2439 248
74.26401 243
74.28412 227
74.30424 258
74.32435 256
74.34446 249
74.36458 239
74.38469 272
74.40481 257
74.42492 227
74.44503 249
74.46515 269
74.48526 249
74.50537 255
74.52549 229
74.5456 273
74.56571 259
74.58583 262
74.60594 272
74.62606 229
74.64617 233
74.66628 246
74.6864 255
74.70651 252
74.72662 257
74.74674 262
74.76685 245
74.78697 280
74.80708 231
74.82719 231
74.84731 276
74.86742 267
74.88753 264
74.90765 257
74.92776 243
74.94787 250
74.96799 281
74.9881 278
75.00822 258
