3.00117 16338
3.02128 16168
3.0414 15404
3.06151 15059
3.08162 14697
3.10174 13743
3.12185 13861
3.14197 13223
3.16208 12829
3.18219 12459
3.20231 11877
3.22242 11910
3.24253 11211
3.26265 10671
3.28276 10848
3.30288 9895
3.32299 9926
3.3431 9522
3.36322 9131
3.38333 8704
3.40344 8390
3.42356 8349
3.44367 7746
3.46379 7792
3.4839 7459
3.50401 6987
3.52413 7029
3.54424 6684
3.56435 6270
3.58447 6124
3.60458 5853
3.62469 5795
3.64481 5499
3.66492 5129
3.68504 5026
3.70515 4677
3.72526 4644
3.74538 4438
3.76549 4241
3.7856 4003
3.80572 3858
3.82583 3736
3.84595 3543
3.86606 3291
3.88617 3357
3.90629 3086
3.9264 3146
3.94651 3004
3.96663 2713
3.98674 2653
4.00686 2567
4.02697 2538
4.04708 2393
4.0672 2185
4.08731 2262
4.10742 2084
4.12754 2169
4.14765 2067
4.16776 1922
4.18788 1874
4.20799 1804
4.22811 1843
4.24822 1867
4.26833 1642
4.28845 1735
4.30856 1590
4.32867 1530
4.34879 1633
4.3689 1509
4.38902 1506
4.40913 1471
4.42924 1427
4.44936 1411
4.46947 1296
4.48958 1338
4.5097 1181
4.52981 1251
4.54992 1373
4.57004 1189
4.59015 1155
4.61027 1108
4.63038 1177
4.65049 1137
4.67061 1088
4.69072 1061
4.71083 1010
4.73095 1050
4.75106 1013
4.77118 967
4.79129 895
4.8114 886
4.83152 904
4.85163 926
4.87174 856
4.89186 813
4.91197 863
4.93209 781
4.9522 873
4.97231 754
4.99243 782
5.01254 767
5.03265 735
5.05277 798
5.07288 706
5.09299 706
5.11311 739
5.13322 732
5.15334 714
5.17345 639
5.19356 634
5.21368 635
5.23379 596
5.2539 652
5.27402 573
5.29413 605
5.31425 574
5.33436 584
5.35447 598
5.37459 564
5.3947 582
5.41481 551
5.43493 556
5.45504 556
5.47516 468
5.49527 522
5.51538 509
5.5355 540
5.55561 496
5.57572 475
5.59584 467
5.61595 459
5.63606 481
5.65618 443
5.67629 454
5.69641 482
5.71652 437
5.73663 461
5.75675 461
5.77686 398
5.79697 400
5.81709 415
5.8372 410
5.85732 370
5.87743 367
5.89754 387
5.91766 374
5.93777 399
5.95788 397
5.978 407
5.99811 394
6.01823 403
6.03834 369
6.05845 380
6.07857 364
6.09868 365
6.11879 372
6.13891 392
6.15902 323
6.17913 387
6.19925 363
6.21936 332
6.23948 369
6.25959 357
6.2797 355
6.29982 378
6.31993 346
6.34004 346
6.36016 349
6.38027 351
6.40039 347
6.4205 337
6.44061 335
6.46073 388
6.48084 363
6.50095 327
6.52107 367
6.54118 345
6.56129 345
6.58141 370
6.60152 324
6.62164 297
6.64175 369
6.66186 334
6.68198 321
6.70209 311
6.7222 328
6.74232 338
6.76243 348
6.78255 318
6.80266 349
6.82277 326
6.84289 362
6.863 296
6.88311 331
6.90323 359
6.92334 333
6.94346 329
6.96357 349
6.98368 318
7.0038 338
7.02391 266
7.04402 317
7.06414 320
7.08425 332
7.10436 322
7.12448 298
7.14459 307
7.16471 304
7.18482 340
7.20493 292
7.22505 321
7.24516 347
7.26527 325
7.28539 352
7.3055 315
7.32562 307
7.34573 279
7.36584 319
7.38596 354
7.40607 316
7.42618 336
7.4463 315
7.46641 298
7.48653 347
7.50664 334
7.52675 356
7.54687 349
7.56698 343
7.58709 307
7.60721 320
7.62732 350
7.64743 309
7.66755 333
7.68766 378
7.70778 314
7.72789 337
7.748 335
7.76812 299
7.78823 363
7.80834 359
7.82846 311
7.84857 311
7.86869 319
7.8888 361
7.90891 339
7.92903 321
7.94914 306
7.96925 363
7.98937 338
8.00948 355
8.0296 313
8.04971 324
8.06982 345
8.08994 393
8.11005 340
8.13016 321
8.15028 345
8.17039 327
8.1905 350
8.21062 368
8.23073 372
8.25085 336
8.27096 395
8.29107 358
8.31119 358
8.3313 356
8.35141 343
8.37153 362
8.39164 337
8.41176 348
8.43187 355
8.45198 387
8.4721 379
8.49221 336
8.51232 363
8.53244 366
8.55255 344
8.57266 378
8.59278 402
8.61289 391
8.63301 398
8.65312 363
8.67323 381
8.69335 356
8.71346 348
8.73357 442
8.75369 349
8.7738 395
8.79392 365
8.81403 409
8.83414 362
8.85426 405
8.87437 352
8.89448 411
8.9146 325
8.93471 368
8.95483 377
8.97494 355
8.99505 337
9.01517 328
9.03528 298
9.05539 348
9.07551 308
9.09562 323
9.11573 371
9.13585 350
9.15596 310
9.17608 287
9.19619 310
9.2163 313
9.23642 332
9.25653 325
9.27664 343
9.29676 296
9.31687 295
9.33699 294
9.3571 324
9.37721 299
9.39733 269
9.41744 298
9.43755 319
9.45767 314
9.47778 261
9.4979 285
9.51801 291
9.53812 281
9.55824 324
9.57835 303
9.59846 296
9.61858 253
9.63869 260
9.6588 275
9.67892 289
9.69903 276
9.71915 230
9.73926 292
9.75937 230
9.77949 299
9.7996 290
9.81971 277
9.83983 280
9.85994 268
9.88006 255
9.90017 263
9.92028 239
9.9404 277
9.96051 240
9.98062 287
10.00074 252
10.02085 242
10.04097 239
10.06108 252
10.08119 265
10.10131 261
10.12142 251
10.14153 263
10.16165 275
10.18176 278
10.20187 249
10.22199 270
10.2421 228
10.26222 259
10.28233 243
10.30244 262
10.32256 235
10.34267 267
10.36278 249
10.3829 257
10.40301 261
10.42313 263
10.44324 289
10.46335 243
10.48347 257
10.50358 255
10.52369 273
10.54381 259
10.56392 257
10.58403 263
10.60415 213
10.62426 250
10.64438 256
10.66449 238
10.6846 249
10.70472 227
10.72483 295
10.74494 215
10.76506 258
10.78517 233
10.80529 232
10.8254 258
10.84551 267
10.86563 251
10.88574 257
10.90585 276
10.92597 258
10.94608 249
10.9662 252
10.98631 248
11.00642 266
11.02654 242
11.04665 260
11.06676 223
11.08688 221
11.10699 264
11.1271 237
11.14722 261
11.16733 224
11.18745 241
11.20756 246
11.22767 258
11.24779 245
11.2679 262
11.28801 241
11.30813 282
11.32824 241
11.34836 268
11.36847 240
11.38858 272
11.4087 226
11.42881 234
11.44892 224
11.46904 221
11.48915 215
11.50927 246
11.52938 258
11.54949 249
11.56961 270
11.58972 254
11.60983 272
11.62995 279
11.65006 203
11.67017 234
11.69029 222
11.7104 235
11.73052 216
11.75063 255
11.77074 228
11.79086 217
11.81097 216
11.83108 257
11.8512 240
11.87131 254
11.89143 248
11.91154 249
11.93165 240
11.95177 257
11.97188 235
11.99199 260
12.01211 247
12.03222 265
12.05234 252
12.07245 244
12.09256 259
12.11268 254
12.13279 230
12.1529 241
12.17302 252
12.19313 247
12.21324 229
12.23336 246
12.25347 246
12.27359 239
12.2937 250
12.31381 206
12.33393 227
12.35404 233
12.37415 257
12.39427 238
12.41438 259
12.4345 237
12.45461 208
12.47472 220
12.49484 227
12.51495 221
12.53506 231
12.55518 255
12.57529 226
12.5954 216
12.61552 226
12.63563 218
12.65575 227
12.67586 254
12.69597 245
12.71609 220
12.7362 235
12.75631 242
12.77643 237
12.79654 251
12.81666 263
12.83677 246
12.85688 237
12.877 213
12.89711 192
12.91722 226
12.93734 246
12.95745 239
12.97757 234
12.99768 233
13.01779 236
13.03791 212
13.05802 234
13.07813 252
13.09825 244
13.11836 238
13.13847 220
13.15859 241
13.1787 249
13.19882 233
13.21893 237
13.23904 231
13.25916 243
13.27927 226
13.29938 234
13.3195 238
13.33961 242
13.35973 236
13.37984 237
13.39995 221
13.42007 229
13.44018 212
13.46029 258
13.48041 262
13.50052 234
13.52064 247
13.54075 264
13.56086 257
13.58098 285
13.60109 258
13.6212 266
13.64132 234
13.66143 276
13.68154 230
13.70166 263
13.72177 260
13.74189 260
13.762 288
13.78211 248
13.80223 229
13.82234 220
13.84245 223
13.86257 217
13.88268 278
13.9028 224
13.92291 206
13.94302 227
13.96314 234
13.98325 237
14.00336 216
14.02348 195
14.04359 253
14.06371 205
14.08382 221
14.10393 223
14.12405 217
14.14416 221
14.16427 210
14.18439 201
14.2045 217
14.22461 219
14.24473 224
14.26484 208
14.28496 221
14.30507 207
14.32518 197
14.3453 234
14.36541 209
14.38552 215
14.40564 214
14.42575 219
14.44587 214
14.46598 202
14.48609 211
14.50621 178
14.52632 217
14.54643 178
14.56655 202
14.58666 203
14.60677 207
14.62689 211
14.647 228
14.66712 189
14.68723 222
14.70734 245
14.72746 212
14.74757 212
14.76768 216
14.7878 207
14.80791 240
14.82803 216
14.84814 231
14.86825 226
14.88837 235
14.90848 227
14.92859 231
14.94871 213
14.96882 237
14.98894 215
15.00905 225
15.02916 191
15.04928 244
15.06939 217
15.0895 235
15.10962 238
15.12973 218
15.14984 208
15.16996 211
15.19007 223
15.21019 227
15.2303 230
15.25041 214
15.27053 193
15.29064 199
15.31075 214
15.33087 189
15.35098 209
15.3711 215
15.39121 219
15.41132 207
15.43144 198
15.45155 210
15.47166 235
15.49178 214
15.51189 211
15.53201 207
15.55212 210
15.57223 244
15.59235 224
15.61246 200
15.63257 235
15.65269 201
15.6728 219
15.69291 198
15.71303 212
15.73314 215
15.75326 226
15.77337 216
15.79348 189
15.8136 191
15.83371 197
15.85382 206
15.87394 169
15.89405 201
15.91417 201
15.93428 195
15.95439 183
15.97451 219
15.99462 188
16.01473 181
16.03485 192
16.05496 187
16.07508 207
16.09519 212
16.1153 189
16.13542 199
16.15553 206
16.17564 186
16.19576 206
16.21587 185
16.23598 187
16.2561 191
16.27621 205
16.29633 183
16.31644 207
16.33655 162
16.35667 208
16.37678 208
16.39689 194
16.41701 219
16.43712 192
16.45724 179
16.47735 211
16.49746 203
16.51758 214
16.53769 216
16.5578 202
16.57792 215
16.59803 194
16.61814 179
16.63826 195
16.65837 204
16.67849 183
16.6986 209
16.71871 202
16.73883 192
16.75894 207
16.77905 197
16.79917 207
16.81928 208
16.8394 199
16.85951 211
16.87962 226
16.89974 205
16.91985 200
16.93996 203
16.96008 193
16.98019 187
17.00031 191
17.02042 196
17.04053 197
17.06065 219
17.08076 198
17.10087 206
17.12099 218
17.1411 226
17.16121 212
17.18133 222
17.20144 205
17.22156 166
17.24167 210
17.26178 230
17.2819 209
17.30201 195
17.32212 213
17.34224 236
17.36235 218
17.38247 221
17.40258 204
17.42269 180
17.44281 184
17.46292 196
17.48303 217
17.50315 218
17.52326 186
17.54338 211
17.56349 235
17.5836 225
17.60372 215
17.62383 198
17.64394 209
17.66406 220
17.68417 220
17.70428 207
17.7244 197
17.74451 227
17.76463 206
17.78474 212
17.80485 210
17.82497 234
17.84508 227
17.86519 210
17.88531 215
17.90542 223
17.92554 201
17.94565 220
17.96576 201
17.98588 221
18.00599 220
18.0261 187
18.04622 237
18.06633 183
18.08645 206
18.10656 204
18.12667 227
18.14679 218
18.1669 214
18.18701 215
18.20713 202
18.22724 212
18.24735 207
18.26747 219
18.28758 204
18.3077 196
18.32781 190
18.34792 199
18.36804 212
18.38815 198
18.40826 227
18.42838 199
18.44849 234
18.46861 204
18.48872 195
18.50883 198
18.52895 214
18.54906 202
18.56917 200
18.58929 206
18.6094 182
18.62951 226
18.64963 242
18.66974 238
18.68986 203
18.70997 255
18.73008 238
18.7502 192
18.77031 214
18.79042 270
18.81054 231
18.83065 195
18.85077 215
18.87088 215
18.89099 230
18.91111 195
18.93122 229
18.95133 235
18.97145 206
18.99156 221
19.01168 225
19.03179 223
19.0519 216
19.07202 234
19.09213 217
19.11224 250
19.13236 259
19.15247 243
19.17258 245
19.1927 266
19.21281 252
19.23293 254
19.25304 275
19.27315 274
19.29327 270
19.31338 294
19.33349 260
19.35361 282
19.37372 344
19.39384 303
19.41395 334
19.43406 328
19.45418 326
19.47429 335
19.4944 332
19.51452 375
19.53463 354
19.55475 409
19.57486 391
19.59497 416
19.61509 403
19.6352 436
19.65531 447
19.67543 411
19.69554 502
19.71565 476
19.73577 468
19.75588 497
19.776 465
19.79611 480
19.81622 492
19.83634 504
19.85645 490
19.87656 476
19.89668 494
19.91679 472
19.93691 438
19.95702 397
19.97713 484
19.99725 434
20.01736 447
20.03747 404
20.05759 448
20.0777 434
20.09782 440
20.11793 403
20.13804 418
20.15816 427
20.17827 384
20.19838 416
20.2185 386
20.23861 371
20.25872 386
20.27884 364
20.29895 388
20.31907 370
20.33918 389
20.35929 378
20.37941 411
20.39952 445
20.41963 388
20.43975 388
20.45986 394
20.47998 445
20.50009 483
20.5202 438
20.54032 488
20.56043 533
20.58054 560
20.60066 645
20.62077 721
20.64088 895
20.661 1118
20.68111 1423
20.70123 1844
20.72134 2344
20.74145 3088
20.76157 3702
20.78168 3935
20.80179 4266
20.82191 4184
20.84202 3704
20.86214 3056
20.88225 2270
20.90236 1670
20.92248 1220
20.94259 898
20.9627 743
20.98282 680
21.00293 584
21.02305 568
21.04316 514
21.06327 488
21.08339 464
21.1035 366
21.12361 398
21.14373 380
21.16384 343
21.18395 351
21.20407 306
21.22418 354
21.2443 314
21.26441 296
21.28452 307
21.30464 341
21.32475 322
21.34486 324
21.36498 310
21.38509 295
21.40521 295
21.42532 285
21.44543 282
21.46555 295
21.48566 287
21.50577 287
21.52589 321
21.546 305
21.56612 299
21.58623 297
21.60634 283
21.62646 290
21.64657 303
21.66668 284
21.6868 299
21.70691 299
21.72702 314
21.74714 325
21.76725 314
21.78737 339
21.80748 354
21.82759 322
21.84771 356
21.86782 381
21.88793 389
21.90805 428
21.92816 444
21.94828 434
21.96839 444
21.9885 427
22.00862 354
22.02873 377
22.04884 336
22.06896 289
22.08907 339
22.10919 304
22.1293 290
22.14941 300
22.16953 290
22.18964 296
22.20975 279
22.22987 281
22.24998 326
22.27009 300
22.29021 321
22.31032 307
22.33044 301
22.35055 334
22.37066 312
22.39078 317
22.41089 296
22.431 278
22.45112 300
22.47123 293
22.49135 314
22.51146 326
22.53157 269
22.55169 271
22.5718 279
22.59191 288
22.61203 272
22.63214 270
22.65225 288
22.67237 300
22.69248 285
22.7126 275
22.73271 303
22.75282 258
22.77294 300
22.79305 307
22.81316 299
22.83328 299
22.85339 326
22.87351 331
22.89362 323
22.91373 344
22.93385 321
22.95396 340
22.97407 362
22.99419 327
23.0143 331
23.03442 341
23.05453 317
23.07464 345
23.09476 347
23.11487 330
23.13498 334
23.1551 335
23.17521 378
23.19532 338
23.21544 310
23.23555 341
23.25567 324
23.27578 326
23.29589 357
23.31601 327
23.33612 298
23.35623 343
23.37635 325
23.39646 316
23.41658 340
23.43669 362
23.4568 345
23.47692 386
23.49703 385
23.51714 422
23.53726 412
23.55737 410
23.57749 399
23.5976 367
23.61771 350
23.63783 351
23.65794 348
23.67805 338
23.69817 312
23.71828 361
23.73839 342
23.75851 380
23.77862 348
23.79874 374
23.81885 410
23.83896 414
23.85908 421
23.87919 399
23.8993 417
23.91942 423
23.93953 395
23.95965 379
23.97976 366
23.99987 331
24.01999 358
24.0401 333
24.06021 334
24.08033 316
24.10044 282
24.12056 342
24.14067 331
24.16078 342
24.1809 344
24.20101 328
24.22112 380
24.24124 379
24.26135 380
24.28146 362
24.30158 376
24.32169 378
24.34181 358
24.36192 338
24.38203 318
24.40215 283
24.42226 312
24.44237 298
24.46249 312
24.4826 308
24.50272 279
24.52283 282
24.54294 338
24.56306 314
24.58317 287
24.60328 309
24.6234 314
24.64351 347
24.66362 328
24.68374 335
24.70385 284
24.72397 290
24.74408 292
24.76419 318
24.78431 274
24.80442 284
24.82453 303
24.84465 294
24.86476 325
24.88488 310
24.90499 280
24.9251 296
24.94522 286
24.96533 290
24.98544 311
25.00556 340
25.02567 304
25.04579 323
25.0659 277
25.08601 306
25.10613 310
25.12624 342
25.14635 302
25.16647 352
25.18658 322
25.20669 343
25.22681 345
25.24692 334
25.26704 357
25.28715 324
25.30726 364
25.32738 336
25.34749 367
25.3676 338
25.38772 383
25.40783 392
25.42795 398
25.44806 485
25.46817 441
25.48829 446
25.5084 480
25.52851 450
25.54863 513
25.56874 446
25.58886 479
25.60897 449
25.62908 489
25.6492 462
25.66931 460
25.68942 445
25.70954 436
25.72965 451
25.74976 453
25.76988 430
25.78999 422
25.81011 420
25.83022 409
25.85033 445
25.87045 458
25.89056 454
25.91067 455
25.93079 435
25.9509 465
25.97102 502
25.99113 490
26.01124 518
26.03136 503
26.05147 567
26.07158 550
26.0917 600
26.11181 643
26.13193 642
26.15204 752
26.17215 768
26.19227 768
26.21238 840
26.23249 935
26.25261 995
26.27272 1090
26.29283 1187
26.31295 1297
26.33306 1668
26.35318 1918
26.37329 2359
26.3934 2952
26.41352 3805
26.43363 4898
26.45374 6517
26.47386 8512
26.49397 11029
26.51409 13882
26.5342 16469
26.55431 17949
26.57443 18899
26.59454 18210
26.61465 16574
26.63477 13958
26.65488 10520
26.67499 7758
26.69511 5412
26.71522 3739
26.73534 2486
26.75545 1784
26.77556 1395
26.79568 1195
26.81579 1168
26.8359 1065
26.85602 929
26.87613 971
26.89625 858
26.91636 856
26.93647 779
26.95659 820
26.9767 774
26.99681 731
27.01693 777
27.03704 778
27.05716 681
27.07727 708
27.09738 671
27.1175 580
27.13761 573
27.15772 596
27.17784 568
27.19795 555
27.21806 538
27.23818 544
27.25829 595
27.27841 658
27.29852 631
27.31863 730
27.33875 780
27.35886 784
27.37897 783
27.39909 815
27.4192 809
27.43932 813
27.45943 708
27.47954 716
27.49966 644
27.51977 610
27.53988 569
27.56 580
27.58011 502
27.60023 560
27.62034 574
27.64045 585
27.66057 593
27.68068 585
27.70079 584
27.72091 673
27.74102 639
27.76113 664
27.78125 652
27.80136 625
27.82148 599
27.84159 621
27.8617 615
27.88182 616
27.90193 581
27.92204 544
27.94216 564
27.96227 523
27.98239 529
28.0025 485
28.02261 443
28.04273 408
28.06284 396
28.08295 374
28.10307 342
28.12318 354
28.1433 381
28.16341 391
28.18352 385
28.20364 382
28.22375 392
28.24386 414
28.26398 414
28.28409 353
28.3042 365
28.32432 352
28.34443 341
28.36455 346
28.38466 319
28.40477 305
28.42489 328
28.445 290
28.46511 313
28.48523 314
28.50534 316
28.52546 299
28.54557 280
28.56568 317
28.5858 289
28.60591 301
28.62602 282
28.64614 280
28.66625 281
28.68636 300
28.70648 282
28.72659 276
28.74671 310
28.76682 252
28.78693 289
28.80705 309
28.82716 308
28.84727 319
28.86739 315
28.8875 306
28.90762 264
28.92773 287
28.94784 277
28.96796 283
28.98807 283
29.00818 309
29.0283 297
29.04841 281
29.06853 288
29.08864 301
29.10875 276
29.12887 334
29.14898 312
29.16909 320
29.18921 325
29.20932 352
29.22943 371
29.24955 332
29.26966 398
29.28978 417
29.30989 447
29.33 453
29.35012 449
29.37023 507
29.39034 495
29.41046 477
29.43057 476
29.45069 457
29.4708 457
29.49091 388
29.51103 409
29.53114 401
29.55125 374
29.57137 396
29.59148 372
29.6116 343
29.63171 357
29.65182 346
29.67194 366
29.69205 353
29.71216 361
29.73228 390
29.75239 355
29.7725 367
29.79262 336
29.81273 339
29.83285 354
29.85296 318
29.87307 331
29.89319 346
29.9133 316
29.93341 337
29.95353 326
29.97364 324
29.99376 304
30.01387 322
30.03398 306
30.0541 308
30.07421 337
30.09432 336
30.11444 313
30.13455 322
30.15467 363
30.17478 337
30.19489 337
30.21501 323
30.23512 345
30.25523 309
30.27535 347
30.29546 348
30.31557 360
30.33569 375
30.3558 336
30.37592 350
30.39603 365
30.41614 335
30.43626 322
30.45637 311
30.47648 311
30.4966 316
30.51671 316
30.53683 271
30.55694 291
30.57705 306
30.59717 320
30.61728 339
30.63739 358
30.65751 340
30.67762 323
30.69773 380
30.71785 329
30.73796 354
30.75808 332
30.77819 363
30.7983 358
30.81842 339
30.83853 317
30.85864 319
30.87876 295
30.89887 265
30.91899 295
30.9391 290
30.95921 270
30.97933 295
30.99944 268
31.01955 273
31.03967 266
31.05978 256
31.0799 277
31.10001 256
31.12012 252
31.14024 244
31.16035 264
31.18046 252
31.20058 258
31.22069 296
31.2408 252
31.26092 252
31.28103 258
31.30115 250
31.32126 256
31.34137 293
31.36149 300
31.3816 283
31.40171 250
31.42183 272
31.44194 265
31.46206 225
31.48217 246
31.50228 259
31.5224 245
31.54251 258
31.56262 265
31.58274 232
31.60285 255
31.62297 258
31.64308 269
31.66319 217
31.68331 242
31.70342 235
31.72353 232
31.74365 244
31.76376 234
31.78387 262
31.80399 249
31.8241 236
31.84422 252
31.86433 233
31.88444 207
31.90456 231
31.92467 247
31.94478 261
31.9649 255
31.98501 282
32.00513 255
32.02524 250
32.04535 248
32.06547 264
32.08558 250
32.10569 238
32.12581 246
32.14592 252
32.16604 245
32.18615 301
32.20626 243
32.22638 295
32.24649 264
32.2666 268
32.28672 277
32.30683 253
32.32694 258
32.34706 243
32.36717 281
32.38729 236
32.4074 252
32.42751 258
32.44763 241
32.46774 261
32.48785 286
32.50797 225
32.52808 232
32.5482 256
32.56831 241
32.58842 228
32.60854 240
32.62865 229
32.64876 257
32.66888 208
32.68899 205
32.7091 226
32.72922 234
32.74933 230
32.76945 238
32.78956 238
32.80967 215
32.82979 257
32.8499 213
32.87001 188
32.89013 234
32.91024 255
32.93036 230
32.95047 236
32.97058 216
32.9907 241
33.01081 244
33.03092 206
33.05104 202
33.07115 204
33.09127 219
33.11138 256
33.13149 193
33.15161 196
33.17172 212
33.19183 190
33.21195 222
33.23206 200
33.25217 213
33.27229 193
33.2924 179
33.31252 198
33.33263 198
33.35274 212
33.37286 246
33.39297 198
33.41308 187
33.4332 251
33.45331 200
33.47343 194
33.49354 205
33.51365 204
33.53377 226
33.55388 232
33.57399 235
33.59411 214
33.61422 220
33.63434 221
33.65445 231
33.67456 250
33.69468 230
33.71479 212
33.7349 262
33.75502 215
33.77513 224
33.79524 271
33.81536 233
33.83547 238
33.85559 213
33.8757 260
33.89581 238
33.91593 251
33.93604 209
33.95615 229
33.97627 241
33.99638 237
34.0165 230
34.03661 272
34.05672 280
34.07684 297
34.09695 313
34.11706 284
34.13718 330
34.15729 307
34.17741 328
34.19752 305
34.21763 312
34.23775 341
34.25786 366
34.27797 358
34.29809 347
34.3182 348
34.33831 348
34.35843 307
34.37854 379
34.39866 360
34.41877 346
34.43888 364
34.459 378
34.47911 375
34.49922 379
34.51934 373
34.53945 406
34.55957 419
34.57968 398
34.59979 375
34.61991 399
34.64002 431
34.66013 371
34.68025 357
34.70036 367
34.72047 386
34.74059 410
34.7607 369
34.78082 401
34.80093 376
34.82104 418
34.84116 407
34.86127 394
34.88138 421
34.9015 377
34.92161 372
34.94173 412
34.96184 409
34.98195 390
35.00207 354
35.02218 348
35.04229 347
35.06241 330
35.08252 375
35.10264 353
35.12275 350
35.14286 319
35.16298 312
35.18309 351
35.2032 348
35.22332 325
35.24343 323
35.26354 330
35.28366 369
35.30377 342
35.32389 333
35.344 330
35.36411 340
35.38423 358
35.40434 347
35.42445 311
35.44457 292
35.46468 327
35.4848 320
35.50491 325
35.52502 289
35.54514 303
35.56525 299
35.58536 319
35.60548 285
35.62559 303
35.64571 290
35.66582 247
35.68593 290
35.70605 255
35.72616 287
35.74627 270
35.76639 306
35.7865 276
35.80661 284
35.82673 291
35.84684 313
35.86696 308
35.88707 278
35.90718 259
35.9273 302
35.94741 301
35.96752 318
35.98764 320
36.00775 290
36.02787 304
36.04798 315
36.06809 310
36.08821 334
36.10832 327
36.12843 344
36.14855 305
36.16866 355
36.18878 358
36.20889 371
36.229 359
36.24912 388
36.26923 484
36.28934 481
36.30946 536
36.32957 669
36.34968 759
36.3698 887
36.38991 1068
36.41003 1232
36.43014 1403
36.45025 1421
36.47037 1407
36.49048 1474
36.51059 1335
36.53071 1174
36.55082 1029
36.57094 846
36.59105 758
36.61116 643
36.63128 526
36.65139 427
36.6715 371
36.69162 330
36.71173 343
36.73184 351
36.75196 308
36.77207 352
36.79219 336
36.8123 315
36.83241 326
36.85253 332
36.87264 325
36.89275 339
36.91287 313
36.93298 315
36.9531 336
36.97321 309
36.99332 314
37.01344 312
37.03355 327
37.05366 315
37.07378 317
37.09389 308
37.11401 326
37.13412 291
37.15423 287
37.17435 296
37.19446 262
37.21457 268
37.23469 266
37.2548 285
37.27491 291
37.29503 286
37.31514 292
37.33526 257
37.35537 307
37.37548 282
37.3956 304
37.41571 305
37.43582 295
37.45594 305
37.47605 292
37.49617 261
37.51628 282
37.53639 302
37.55651 272
37.57662 288
37.59673 269
37.61685 296
37.63696 263
37.65708 274
37.67719 300
37.6973 287
37.71742 295
37.73753 271
37.75764 252
37.77776 251
37.79787 233
37.81798 261
37.8381 259
37.85821 267
37.87833 245
37.89844 246
37.91855 248
37.93867 229
37.95878 270
37.97889 243
37.99901 251
38.01912 271
38.03924 254
38.05935 262
38.07946 232
38.09958 226
38.11969 248
38.1398 257
38.15992 245
38.18003 236
38.20015 261
38.22026 237
38.24037 258
38.26049 241
38.2806 260
38.30071 251
38.32083 248
38.34094 238
38.36105 243
38.38117 266
38.40128 261
38.4214 268
38.44151 223
38.46162 215
38.48174 264
38.50185 298
38.52196 253
38.54208 240
38.56219 269
38.58231 284
38.60242 234
38.62253 275
38.64265 272
38.66276 254
38.68287 236
38.70299 228
38.7231 222
38.74321 227
38.76333 241
38.78344 238
38.80356 220
38.82367 236
38.84378 214
38.8639 215
38.88401 271
38.90412 247
38.92424 241
38.94435 267
38.96447 252
38.98458 279
39.00469 264
39.02481 313
39.04492 299
39.06503 291
39.08515 288
39.10526 334
39.12538 336
39.14549 371
39.1656 379
39.18572 405
39.20583 440
39.22594 518
39.24606 571
39.26617 645
39.28628 840
39.3064 946
39.32651 1075
39.34663 1215
39.36674 1281
39.38685 1316
39.40697 1322
39.42708 1239
39.44719 1160
39.46731 1027
39.48742 909
39.50754 775
39.52765 637
39.54776 552
39.56788 473
39.58799 356
39.6081 340
39.62822 276
39.64833 291
39.66845 308
39.68856 304
39.70867 269
39.72879 256
39.7489 274
39.76901 286
39.78913 260
39.80924 265
39.82935 257
39.84947 276
39.86958 256
39.8897 273
39.90981 269
39.92992 280
39.95004 280
39.97015 307
39.99026 289
40.01038 361
40.03049 325
40.05061 391
40.07072 436
40.09083 455
40.11095 549
40.13106 549
40.15117 640
40.17129 664
40.1914 753
40.21152 742
40.23163 759
40.25174 769
40.27186 688
40.29197 573
40.31208 541
40.3322 492
40.35231 442
40.37242 376
40.39254 327
40.41265 262
40.43277 259
40.45288 265
40.47299 246
40.49311 272
40.51322 243
40.53333 257
40.55345 231
40.57356 249
40.59368 247
40.61379 265
40.6339 243
40.65402 231
40.67413 222
40.69424 226
40.71436 243
40.73447 230
40.75458 247
40.7747 247
40.79481 249
40.81493 240
40.83504 230
40.85515 233
40.87527 224
40.89538 252
40.91549 227
40.93561 226
40.95572 233
40.97584 248
40.99595 233
41.01606 254
41.03618 257
41.05629 234
41.0764 247
41.09652 225
41.11663 259
41.13675 220
41.15686 191
41.17697 217
41.19709 227
41.2172 234
41.23731 231
41.25743 215
41.27754 251
41.29765 214
41.31777 224
41.33788 264
41.358 198
41.37811 241
41.39822 265
41.41834 256
41.43845 248
41.45856 264
41.47868 253
41.49879 250
41.51891 250
41.53902 280
41.55913 264
41.57925 283
41.59936 305
41.61947 316
41.63959 280
41.6597 297
41.67982 319
41.69993 347
41.72004 311
41.74016 315
41.76027 284
41.78038 302
41.8005 320
41.82061 302
41.84072 292
41.86084 253
41.88095 271
41.90107 251
41.92118 249
41.94129 245
41.96141 276
41.98152 258
42.00163 267
42.02175 286
42.04186 238
42.06198 278
42.08209 316
42.1022 307
42.12232 317
42.14243 323
42.16254 365
42.18266 358
42.20277 406
42.22289 490
42.243 569
42.26311 624
42.28323 708
42.30334 846
42.32345 882
42.34357 959
42.36368 1003
42.38379 999
42.40391 965
42.42402 869
42.44414 815
42.46425 699
42.48436 594
42.50448 570
42.52459 514
42.5447 430
42.56482 368
42.58493 355
42.60505 326
42.62516 308
42.64527 306
42.66539 281
42.6855 271
42.70561 276
42.72573 257
42.74584 293
42.76595 258
42.78607 252
42.80618 260
42.8263 282
42.84641 266
42.86652 246
42.88664 237
42.90675 253
42.92686 227
42.94698 226
42.96709 241
42.98721 253
43.00732 234
43.02743 254
43.04755 252
43.06766 229
43.08777 264
43.10789 246
43.128 240
43.14812 250
43.16823 251
43.18834 238
43.20846 233
43.22857 243
43.24868 237
43.2688 227
43.28891 239
43.30902 223
43.32914 224
43.34925 223
43.36937 224
43.38948 244
43.40959 200
43.42971 199
43.44982 234
43.46993 215
43.49005 227
43.51016 215
43.53028 219
43.55039 202
43.5705 236
43.59062 223
43.61073 217
43.63084 238
43.65096 204
43.67107 203
43.69119 224
43.7113 219
43.73141 225
43.75153 235
43.77164 205
43.79175 211
43.81187 191
43.83198 205
43.85209 198
43.87221 198
43.89232 194
43.91244 230
43.93255 200
43.95266 230
43.97278 216
43.99289 216
44.013 235
44.03312 225
44.05323 208
44.07335 202
44.09346 224
44.11357 205
44.13369 186
44.1538 219
44.17391 237
44.19403 226
44.21414 192
44.23426 207
44.25437 205
44.27448 218
44.2946 186
44.31471 239
44.33482 206
44.35494 219
44.37505 179
44.39516 200
44.41528 206
44.43539 219
44.45551 229
44.47562 196
44.49573 195
44.51585 201
44.53596 221
44.55607 213
44.57619 220
44.5963 214
44.61642 241
44.63653 217
44.65664 202
44.67676 212
44.69687 213
44.71698 198
44.7371 219
44.75721 223
44.77732 229
44.79744 232
44.81755 211
44.83767 224
44.85778 221
44.87789 196
44.89801 208
44.91812 223
44.93823 221
44.95835 225
44.97846 211
44.99858 202
45.01869 228
45.0388 241
45.05892 214
45.07903 239
45.09914 196
45.11926 216
45.13937 216
45.15949 231
45.1796 237
45.19971 218
45.21983 215
45.23994 214
45.26005 236
45.28017 240
45.30028 240
45.32039 224
45.34051 234
45.36062 225
45.38074 255
45.40085 274
45.42096 271
45.44108 283
45.46119 253
45.4813 280
45.50142 320
45.52153 337
45.54165 350
45.56176 387
45.58187 429
45.60199 483
45.6221 556
45.64221 624
45.66233 618
45.68244 745
45.70256 799
45.72267 718
45.74278 707
45.7629 629
45.78301 554
45.80312 534
45.82324 501
45.84335 452
45.86346 431
45.88358 392
45.90369 303
45.92381 294
45.94392 285
45.96403 245
45.98415 246
46.00426 217
46.02437 242
46.04449 202
46.0646 201
46.08472 228
46.10483 217
46.12494 238
46.14506 235
46.16517 225
46.18528 200
46.2054 202
46.22551 210
46.24563 193
46.26574 227
46.28585 198
46.30597 207
46.32608 216
46.34619 175
46.36631 197
46.38642 200
46.40653 215
46.42665 217
46.44676 194
46.46688 211
46.48699 202
46.5071 194
46.52722 190
46.54733 178
46.56744 184
46.58756 192
46.60767 188
46.62779 199
46.6479 187
46.66801 204
46.68813 179
46.70824 204
46.72835 223
46.74847 183
46.76858 189
46.78869 194
46.80881 191
46.82892 184
46.84904 184
46.86915 174
46.88926 232
46.90938 229
46.92949 220
46.9496 197
46.96972 226
46.98983 224
47.00995 223
47.03006 218
47.05017 201
47.07029 222
47.0904 214
47.11051 216
47.13063 214
47.15074 218
47.17086 229
47.19097 189
47.21108 226
47.2312 215
47.25131 209
47.27142 210
47.29154 220
47.31165 227
47.33176 225
47.35188 206
47.37199 238
47.39211 237
47.41222 237
47.43233 219
47.45245 231
47.47256 199
47.49267 206
47.51279 225
47.5329 225
47.55302 207
47.57313 241
47.59324 215
47.61336 198
47.63347 218
47.65358 187
47.6737 212
47.69381 220
47.71393 196
47.73404 209
47.75415 191
47.77427 191
47.79438 218
47.81449 210
47.83461 198
47.85472 204
47.87483 191
47.89495 190
47.91506 197
47.93518 192
47.95529 197
47.9754 199
47.99552 207
48.01563 208
48.03574 186
48.05586 208
48.07597 197
48.09609 188
48.1162 194
48.13631 213
48.15643 200
48.17654 183
48.19665 218
48.21677 228
48.23688 201
48.257 196
48.27711 199
48.29722 192
48.31734 217
48.33745 240
48.35756 226
48.37768 206
48.39779 224
48.4179 221
48.43802 246
48.45813 221
48.47825 227
48.49836 239
48.51847 193
48.53859 215
48.5587 220
48.57881 218
48.59893 196
48.61904 227
48.63916 211
48.65927 229
48.67938 203
48.6995 239
48.71961 209
48.73972 195
48.75984 217
48.77995 209
48.80006 207
48.82018 227
48.84029 225
48.86041 197
48.88052 196
48.90063 229
48.92075 194
48.94086 206
48.96097 238
48.98109 228
49.0012 230
49.02132 199
49.04143 221
49.06154 209
49.08166 214
49.10177 221
49.12188 203
49.142 237
49.16211 219
49.18223 222
49.20234 192
49.22245 200
49.24257 217
49.26268 218
49.28279 213
49.30291 221
49.32302 214
49.34313 247
49.36325 226
49.38336 202
49.40348 219
49.42359 195
49.4437 239
49.46382 207
49.48393 220
49.50404 218
49.52416 269
49.54427 269
49.56439 207
49.5845 255
49.60461 289
49.62473 261
49.64484 248
49.66495 279
49.68507 324
49.70518 327
49.7253 338
49.74541 382
49.76552 390
49.78564 410
49.80575 466
49.82586 510
49.84598 541
49.86609 603
49.8862 753
49.90632 890
49.92643 908
49.94655 1128
49.96666 1321
49.98677 1549
50.00689 1788
50.027 1984
50.04711 2076
50.06723 2003
50.08734 1829
50.10746 1706
50.12757 1548
50.14768 1309
50.1678 1174
50.18791 1121
50.20802 1015
50.22814 890
50.24825 750
50.26837 522
50.28848 475
50.30859 397
50.32871 361
50.34882 339
50.36893 319
50.38905 321
50.40916 329
50.42927 352
50.44939 329
50.4695 348
50.48962 329
50.50973 325
50.52984 319
50.54996 298
50.57007 304
50.59018 305
50.6103 326
50.63041 306
50.65053 325
50.67064 245
50.69075 285
50.71087 292
50.73098 273
50.75109 249
50.77121 245
50.79132 237
50.81143 228
50.83155 228
50.85166 228
50.87178 210
50.89189 236
50.912 191
50.93212 204
50.95223 206
50.97234 180
50.99246 202
51.01257 234
51.03269 214
51.0528 207
51.07291 209
51.09303 216
51.11314 229
51.13325 221
51.15337 207
51.17348 217
51.1936 204
51.21371 224
51.23382 212
51.25394 193
51.27405 215
51.29416 244
51.31428 198
51.33439 200
51.3545 182
51.37462 205
51.39473 180
51.41485 191
51.43496 169
51.45507 172
51.47519 170
51.4953 186
51.51541 188
51.53553 162
51.55564 173
51.57576 183
51.59587 183
51.61598 197
51.6361 193
51.65621 187
51.67632 163
51.69644 181
51.71655 177
51.73667 175
51.75678 214
51.77689 153
51.79701 178
51.81712 182
51.83723 176
51.85735 161
51.87746 169
51.89757 172
51.91769 181
51.9378 152
51.95792 183
51.97803 184
51.99814 174
52.01826 193
52.03837 191
52.05848 172
52.0786 179
52.09871 173
52.11883 172
52.13894 181
52.15905 191
52.17917 158
52.19928 191
52.21939 189
52.23951 203
52.25962 175
52.27974 179
52.29985 206
52.31996 153
52.34008 169
52.36019 210
52.3803 217
52.40042 214
52.42053 190
52.44064 204
52.46076 166
52.48087 188
52.50099 192
52.5211 166
52.54121 197
52.56133 189
52.58144 168
52.60155 190
52.62167 183
52.64178 196
52.6619 195
52.68201 191
52.70212 189
52.72224 221
52.74235 163
52.76246 193
52.78258 210
52.80269 199
52.8228 197
52.84292 198
52.86303 173
52.88315 204
52.90326 182
52.92337 203
52.94349 170
52.9636 187
52.98371 200
53.00383 165
53.02394 216
53.04406 184
53.06417 183
53.08428 190
53.1044 176
53.12451 177
53.14462 182
53.16474 216
53.18485 218
53.20497 215
53.22508 205
53.24519 204
53.26531 193
53.28542 171
53.30553 193
53.32565 199
53.34576 228
53.36587 210
53.38599 219
53.4061 200
53.42622 222
53.44633 178
53.46644 187
53.48656 225
53.50667 198
53.52678 208
53.5469 193
53.56701 218
53.58713 187
53.60724 237
53.62735 248
53.64747 229
53.66758 190
53.68769 208
53.70781 225
53.72792 250
53.74804 245
53.76815 209
53.78826 212
53.80838 225
53.82849 235
53.8486 209
53.86872 212
53.88883 227
53.90894 200
53.92906 226
53.94917 215
53.96929 224
53.9894 222
54.00951 246
54.02963 236
54.04974 227
54.06985 227
54.08997 228
54.11008 214
54.1302 223
54.15031 224
54.17042 202
54.19054 219
54.21065 233
54.23076 242
54.25088 235
54.27099 230
54.29111 238
54.31122 217
54.33133 245
54.35145 232
54.37156 222
54.39167 222
54.41179 247
54.4319 247
54.45201 237
54.47213 263
54.49224 268
54.51236 261
54.53247 289
54.55258 279
54.5727 319
54.59281 320
54.61292 377
54.63304 381
54.65315 413
54.67327 502
54.69338 533
54.71349 626
54.73361 649
54.75372 729
54.77383 721
54.79395 741
54.81406 695
54.83417 627
54.85429 584
54.8744 532
54.89452 532
54.91463 491
54.93474 460
54.95486 460
54.97497 463
54.99508 388
55.0152 375
55.03531 297
55.05543 320
55.07554 308
55.09565 336
55.11577 336
55.13588 367
55.15599 389
55.17611 402
55.19622 407
55.21634 400
55.23645 449
55.25656 448
55.27668 413
55.29679 384
55.3169 391
55.33702 339
55.35713 322
55.37724 317
55.39736 383
55.41747 317
55.43759 284
55.4577 284
55.47781 270
55.49793 256
55.51804 267
55.53815 243
55.55827 218
55.57838 227
55.5985 235
55.61861 208
55.63872 236
55.65884 269
55.67895 217
55.69906 248
55.71918 240
55.73929 210
55.75941 201
55.77952 194
55.79963 204
55.81975 220
55.83986 194
55.85997 206
55.88009 210
55.9002 191
55.92031 206
55.94043 226
55.96054 174
55.98066 195
56.00077 222
56.02088 198
56.041 207
56.06111 193
56.08122 186
56.10134 221
56.12145 177
56.14157 224
56.16168 203
56.18179 181
56.20191 192
56.22202 204
56.24213 205
56.26225 195
56.28236 219
56.30248 207
56.32259 207
56.3427 216
56.36282 213
56.38293 217
56.40304 238
56.42316 234
56.44327 210
56.46338 223
56.4835 204
56.50361 230
56.52373 176
56.54384 221
56.56395 202
56.58407 183
56.60418 184
56.62429 213
56.64441 225
56.66452 176
56.68464 193
56.70475 222
56.72486 227
56.74498 220
56.76509 212
56.7852 218
56.80532 233
56.82543 231
56.84554 203
56.86566 179
56.88577 198
56.90589 194
56.926 196
56.94611 216
56.96623 182
56.98634 197
57.00645 199
57.02657 227
57.04668 207
57.0668 226
57.08691 213
57.10702 222
57.12714 230
57.14725 217
57.16736 236
57.18748 200
57.20759 228
57.22771 198
57.24782 203
57.26793 209
57.28805 233
57.30816 236
57.32827 228
57.34839 214
57.3685 214
57.38861 216
57.40873 247
57.42884 199
57.44896 210
57.46907 215
57.48918 216
57.5093 211
57.52941 217
57.54952 203
57.56964 224
57.58975 211
57.60987 218
57.62998 197
57.65009 188
57.67021 198
57.69032 183
57.71043 179
57.73055 175
57.75066 212
57.77078 199
57.79089 185
57.811 183
57.83112 207
57.85123 184
57.87134 197
57.89146 222
57.91157 189
57.93168 201
57.9518 204
57.97191 220
57.99203 205
58.01214 213
58.03225 217
58.05237 194
58.07248 189
58.09259 192
58.11271 183
58.13282 209
58.15294 185
58.17305 187
58.19316 198
58.21328 186
58.23339 199
58.2535 183
58.27362 158
58.29373 194
58.31385 215
58.33396 207
58.35407 188
58.37419 195
58.3943 203
58.41441 170
58.43453 197
58.45464 182
58.47475 186
58.49487 203
58.51498 206
58.5351 204
58.55521 192
58.57532 184
58.59544 231
58.61555 209
58.63566 208
58.65578 181
58.67589 160
58.69601 193
58.71612 204
58.73623 193
58.75635 201
58.77646 187
58.79657 189
58.81669 199
58.8368 176
58.85691 198
58.87703 183
58.89714 195
58.91726 183
58.93737 206
58.95748 174
58.9776 227
58.99771 201
59.01782 187
59.03794 185
59.05805 220
59.07817 195
59.09828 191
59.11839 184
59.13851 187
59.15862 213
59.17873 211
59.19885 197
59.21896 206
59.23908 191
59.25919 200
59.2793 236
59.29942 212
59.31953 242
59.33964 216
59.35976 241
59.37987 224
59.39998 249
59.4201 234
59.44021 270
59.46033 264
59.48044 243
59.50055 290
59.52067 287
59.54078 294
59.56089 303
59.58101 334
59.60112 343
59.62124 414
59.64135 398
59.66146 497
59.68158 507
59.70169 574
59.7218 668
59.74192 756
59.76203 819
59.78215 1033
59.80226 1116
59.82237 1275
59.84249 1335
59.8626 1424
59.88271 1344
59.90283 1252
59.92294 1131
59.94305 992
59.96317 914
59.98328 820
60.0034 858
60.02351 781
60.04362 732
60.06374 640
60.08385 593
60.10396 477
60.12408 400
60.14419 354
60.16431 284
60.18442 267
60.20453 269
60.22465 250
60.24476 221
60.26487 246
60.28499 232
60.3051 231
60.32522 243
60.34533 227
60.36544 209
60.38556 225
60.40567 223
60.42578 220
60.4459 205
60.46601 206
60.48612 200
60.50624 198
60.52635 220
60.54647 228
60.56658 209
60.58669 196
60.60681 247
60.62692 215
60.64703 221
60.66715 227
60.68726 234
60.70738 207
60.72749 213
60.7476 201
60.76772 198
60.78783 234
60.80794 228
60.82806 217
60.84817 213
60.86828 200
60.8884 216
60.90851 224
60.92863 233
60.94874 224
60.96885 217
60.98897 204
61.00908 210
61.02919 223
61.04931 242
61.06942 207
61.08954 249
61.10965 249
61.12976 236
61.14988 259
61.16999 262
61.1901 253
61.21022 265
61.23033 238
61.25045 255
61.27056 258
61.29067 242
61.31079 233
61.3309 271
61.35101 260
61.37113 255
61.39124 251
61.41135 230
61.43147 263
61.45158 257
61.4717 242
61.49181 271
61.51192 233
61.53204 255
61.55215 242
61.57226 268
61.59238 268
61.61249 261
61.63261 257
61.65272 276
61.67283 261
61.69295 242
61.71306 244
61.73317 253
61.75329 241
61.7734 230
61.79352 246
61.81363 245
61.83374 257
61.85386 255
61.87397 248
61.89408 267
61.9142 239
61.93431 225
61.95442 221
61.97454 242
61.99465 232
62.01477 214
62.03488 221
62.05499 201
62.07511 230
62.09522 247
62.11533 244
62.13545 218
62.15556 236
62.17568 226
62.19579 230
62.2159 219
62.23602 209
62.25613 205
62.27624 195
62.29636 182
62.31647 205
62.33659 239
62.3567 188
62.37681 178
62.39693 220
62.41704 208
62.43715 191
62.45727 210
62.47738 206
62.49749 178
62.51761 191
62.53772 197
62.55784 203
62.57795 200
62.59806 203
62.61818 184
62.63829 184
62.6584 174
62.67852 181
62.69863 218
62.71875 207
62.73886 218
62.75897 198
62.77909 217
62.7992 206
62.81931 197
62.83943 214
62.85954 217
62.87965 201
62.89977 199
62.91988 208
62.94 167
62.96011 181
62.98022 218
63.00034 203
63.02045 191
63.04056 176
63.06068 200
63.08079 181
63.10091 179
63.12102 197
63.14113 191
63.16125 190
63.18136 192
63.20147 177
63.22159 193
63.2417 180
63.26182 180
63.28193 178
63.30204 192
63.32216 178
63.34227 176
63.36238 200
63.3825 167
63.40261 179
63.42272 228
63.44284 196
63.46295 204
63.48307 204
63.50318 200
63.52329 206
63.54341 190
63.56352 234
63.58363 215
63.60375 207
63.62386 217
63.64398 234
63.66409 209
63.6842 241
63.70432 230
63.72443 218
63.74454 248
63.76466 266
63.78477 274
63.80489 288
63.825 308
63.84511 313
63.86523 331
63.88534 373
63.90545 382
63.92557 428
63.94568 410
63.96579 348
63.98591 345
64.00602 326
64.02614 347
64.04625 323
64.06636 288
64.08648 291
64.10659 296
64.1267 297
64.14682 279
64.16693 258
64.18705 233
64.20716 208
64.22727 220
64.24739 206
64.2675 209
64.28761 179
64.30773 201
64.32784 183
64.34796 179
64.36807 167
64.38818 189
64.4083 173
64.42841 178
64.44852 192
64.46864 156
64.48875 183
64.50886 174
64.52898 163
64.54909 180
64.56921 174
64.58932 169
64.60943 195
64.62955 186
64.64966 197
64.66977 202
64.68989 192
64.71 171
64.73012 187
64.75023 175
64.77034 197
64.79046 195
64.81057 171
64.83068 204
64.8508 179
64.87091 176
64.89102 195
64.91114 168
64.93125 174
64.95137 186
64.97148 190
64.99159 185
65.01171 184
65.03182 178
65.05193 177
65.07205 160
65.09216 176
65.11228 189
65.13239 167
65.1525 186
65.17262 204
65.19273 221
65.21284 205
65.23296 187
65.25307 179
65.27319 190
65.2933 171
65.31341 203
65.33353 196
65.35364 206
65.37375 192
65.39387 206
65.41398 191
65.43409 195
65.45421 200
65.47432 187
65.49444 191
65.51455 222
65.53466 213
65.55478 219
65.57489 205
65.595 185
65.61512 204
65.63523 219
65.65535 242
65.67546 213
65.69557 220
65.71569 204
65.7358 238
65.75591 242
65.77603 240
65.79614 221
65.81626 222
65.83637 218
65.85648 193
65.8766 196
65.89671 200
65.91682 199
65.93694 178
65.95705 188
65.97716 190
65.99728 188
66.01739 181
66.03751 179
66.05762 159
66.07773 179
66.09785 206
66.11796 184
66.13807 182
66.15819 169
66.1783 174
66.19842 189
66.21853 179
66.23864 170
66.25876 185
66.27887 170
66.29898 189
66.3191 176
66.33921 183
66.35933 196
66.37944 182
66.39955 155
66.41967 169
66.43978 169
66.45989 186
66.48001 160
66.50012 157
66.52023 172
66.54035 186
66.56046 196
66.58058 164
66.60069 188
66.6208 175
66.64092 182
66.66103 173
66.68114 186
66.70126 170
66.72137 187
66.74149 167
66.7616 174
66.78171 181
66.80183 180
66.82194 198
66.84205 183
66.86217 211
66.88228 197
66.90239 204
66.92251 179
66.94262 184
66.96274 192
66.98285 213
67.00296 187
67.02308 213
67.04319 199
67.0633 223
67.08342 193
67.10353 189
67.12365 214
67.14376 217
67.16387 225
67.18399 232
67.2041 203
67.22421 217
67.24433 247
67.26444 205
67.28456 255
67.30467 237
67.32478 263
67.3449 253
67.36501 260
67.38512 312
67.40524 310
67.42535 328
67.44546 346
67.46558 395
67.48569 428
67.50581 492
67.52592 580
67.54603 628
67.56615 668
67.58626 764
67.60637 889
67.62649 930
67.6466 911
67.66672 861
67.68683 863
67.70694 697
67.72706 711
67.74717 686
67.76728 654
67.7874 684
67.80751 698
67.82763 695
67.84774 723
67.86785 740
67.88797 719
67.90808 758
67.92819 784
67.94831 788
67.96842 988
67.98853 963
68.00865 1077
68.02876 1118
68.04888 1112
68.06899 1165
68.0891 1161
68.10922 1036
68.12933 1050
68.14944 1004
68.16956 1031
68.18967 1107
68.20979 1040
68.2299 1069
68.25001 1022
68.27013 876
68.29024 794
68.31035 677
68.33047 611
68.35058 546
68.3707 510
68.39081 478
68.41092 420
68.43104 433
68.45115 406
68.47126 360
68.49138 322
68.51149 326
68.5316 265
68.55172 263
68.57183 234
68.59195 214
68.61206 200
68.63217 233
68.65229 218
68.6724 210
68.69251 206
68.71263 212
68.73274 219
68.75286 193
68.77297 182
68.79308 207
68.8132 191
68.83331 197
68.85342 189
68.87354 204
68.89365 197
68.91376 172
68.93388 223
68.95399 185
68.97411 194
68.99422 193
69.01433 190
69.03445 200
69.05456 186
69.07467 203
69.09479 207
69.1149 184
69.13502 206
69.15513 154
69.17524 200
69.19536 175
69.21547 189
69.23558 163
69.2557 167
69.27581 184
69.29593 198
69.31604 185
69.33615 190
69.35627 178
69.37638 189
69.39649 162
69.41661 188
69.43672 184
69.45683 182
69.47695 185
69.49706 173
69.51718 151
69.53729 189
69.5574 178
69.57752 175
69.59763 167
69.61774 177
69.63786 204
69.65797 182
69.67809 164
69.6982 188
69.71831 197
69.73843 185
69.75854 197
69.77865 170
69.79877 170
69.81888 186
69.839 174
69.85911 193
69.87922 178
69.89934 160
69.91945 151
69.93956 174
69.95968 186
69.97979 193
69.9999 196
70.02002 175
70.04013 160
70.06025 179
70.08036 183
70.10047 176
70.12059 168
70.1407 182
70.16081 153
70.18093 174
70.20104 167
70.22116 175
70.24127 175
70.26138 168
70.2815 179
70.30161 176
70.32172 166
70.34184 176
70.36195 155
70.38207 172
70.40218 172
70.42229 167
70.44241 188
70.46252 178
70.48263 160
70.50275 167
70.52286 178
70.54297 193
70.56309 181
70.5832 165
70.60332 183
70.62343 145
70.64354 174
70.66366 194
70.68377 177
70.70388 155
70.724 179
70.74411 190
70.76423 177
70.78434 167
70.80445 177
70.82457 145
70.84468 166
70.86479 164
70.88491 200
70.90502 175
70.92513 164
70.94525 167
70.96536 205
70.98548 168
71.00559 177
71.0257 177
71.04582 156
71.06593 160
71.08604 171
71.10616 186
71.12627 169
71.14639 162
71.1665 168
71.18661 172
71.20673 174
71.22684 192
71.24695 174
71.26707 179
71.28718 167
71.3073 177
71.32741 186
71.34752 186
71.36764 161
71.38775 168
71.40786 179
71.42798 227
71.44809 187
71.4682 152
71.48832 182
71.50843 192
71.52855 180
71.54866 151
71.56877 166
71.58889 186
71.609 191
71.62911 185
71.64923 182
71.66934 176
71.68946 171
71.70957 170
71.72968 185
71.7498 185
71.76991 167
71.79002 184
71.81014 159
71.83025 173
71.85037 185
71.87048 171
71.89059 205
71.91071 198
71.93082 165
71.95093 194
71.97105 200
71.99116 176
72.01127 166
72.03139 177
72.0515 184
72.07162 179
72.09173 177
72.11184 191
72.13196 201
72.15207 187
72.17218 195
72.1923 186
72.21241 176
72.23253 184
72.25264 179
72.27275 180
72.29287 199
72.31298 188
72.33309 171
72.35321 193
72.37332 184
72.39344 189
72.41355 188
72.43366 192
72.45378 203
72.47389 177
72.494 192
72.51412 199
72.53423 207
72.55434 179
72.57446 187
72.59457 179
72.61469 201
72.6348 215
72.65491 191
72.67503 197
72.69514 221
72.71525 199
72.73537 199
72.75548 212
72.7756 189
72.79571 204
72.81582 186
72.83594 207
72.85605 192
72.87616 231
72.89628 199
72.91639 202
72.9365 191
72.95662 196
72.97673 205
72.99685 236
73.01696 215
73.03707 209
73.05719 226
73.0773 238
73.09741 221
73.11753 261
73.13764 219
73.15776 259
73.17787 233
73.19798 250
73.2181 287
73.23821 326
73.25832 296
73.27844 349
73.29855 367
73.31867 405
73.33878 398
73.35889 438
73.37901 425
73.39912 393
73.41923 380
73.43935 362
73.45946 309
73.47957 300
73.49969 289
73.5198 316
73.53992 302
73.56003 295
73.58014 324
73.60026 310
73.62037 296
73.64048 257
73.6606 251
73.68071 217
73.70083 207
73.72094 219
73.74105 204
73.76117 191
73.78128 190
73.80139 192
73.82151 167
73.84162 223
73.86174 181
73.88185 176
73.90196 162
73.92208 195
73.94219 197
73.9623 166
73.98242 184
74.00253 171
74.02264 181
74.04276 161
74.06287 173
74.08299 169
74.1031 178
74.12321 168
74.14333 178
74.16344 176
74.18355 206
74.20367 178
74.22378 167
74.2439 176
74.26401 172
74.28412 185
74.30424 171
74.32435 175
74.34446 192
74.36458 168
74.38469 177
74.40481 170
74.42492 187
74.44503 174
74.46515 190
74.48526 178
74.50537 184
74.52549 193
74.5456 172
74.56571 161
74.58583 152
74.60594 155
74.62606 173
74.64617 181
74.66628 184
74.6864 188
74.70651 202
74.72662 188
74.74674 196
74.76685 188
74.78697 188
74.80708 181
74.82719 197
74.84731 169
74.86742 190
74.88753 185
74.90765 194
74.92776 206
74.94787 189
74.96799 179
74.9881 193
75.00822 169
