3.00117 24446
3.02128 23751
3.0414 23944
3.06151 22973
3.08162 22375
3.10174 21893
3.12185 21173
3.14197 20725
3.16208 19633
3.18219 19717
3.20231 19083
3.22242 18148
3.24253 17565
3.26265 17011
3.28276 16685
3.30288 16284
3.32299 15706
3.3431 15235
3.36322 14521
3.38333 14266
3.40344 13576
3.42356 13318
3.44367 13243
3.46379 12437
3.4839 12013
3.50401 11732
3.52413 11144
3.54424 11144
3.56435 10491
3.58447 10276
3.60458 9506
3.62469 9255
3.64481 9080
3.66492 8750
3.68504 8448
3.70515 7861
3.72526 7611
3.74538 7596
3.76549 6973
3.7856 6748
3.80572 6365
3.82583 6228
3.84595 6043
3.86606 5650
3.88617 5488
3.90629 5145
3.9264 4796
3.94651 4806
3.96663 4507
3.98674 4317
4.00686 4000
4.02697 3899
4.04708 3790
4.0672 3502
4.08731 3534
4.10742 3204
4.12754 2950
4.14765 2945
4.16776 2770
4.18788 2713
4.20799 2383
4.22811 2321
4.24822 2362
4.26833 2291
4.28845 2059
4.30856 1995
4.32867 1873
4.34879 1905
4.3689 1861
4.38902 1767
4.40913 1574
4.42924 1479
4.44936 1667
4.46947 1553
4.48958 1457
4.5097 1347
4.52981 1344
4.54992 1419
4.57004 1288
4.59015 1255
4.61027 1201
4.63038 1097
4.65049 1191
4.67061 1150
4.69072 1137
4.71083 1048
4.73095 1033
4.75106 1069
4.77118 1048
4.79129 950
4.8114 991
4.83152 916
4.85163 877
4.87174 852
4.89186 826
4.91197 823
4.93209 718
4.9522 749
4.97231 775
4.99243 753
5.01254 709
5.03265 647
5.05277 704
5.07288 685
5.09299 634
5.11311 611
5.13322 553
5.15334 603
5.17345 622
5.19356 567
5.21368 504
5.23379 498
5.2539 529
5.27402 544
5.29413 489
5.31425 467
5.33436 445
5.35447 454
5.37459 457
5.3947 416
5.41481 447
5.43493 437
5.45504 396
5.47516 358
5.49527 369
5.51538 398
5.5355 350
5.55561 372
5.57572 351
5.59584 358
5.61595 313
5.63606 345
5.65618 286
5.67629 293
5.69641 305
5.71652 287
5.73663 308
5.75675 290
5.77686 308
5.79697 268
5.81709 263
5.8372 228
5.85732 261
5.87743 255
5.89754 259
5.91766 230
5.93777 216
5.95788 229
5.978 215
5.99811 214
6.01823 208
6.03834 224
6.05845 210
6.07857 197
6.09868 209
6.11879 210
6.13891 230
6.15902 238
6.17913 211
6.19925 201
6.21936 180
6.23948 175
6.25959 200
6.2797 204
6.29982 191
6.31993 179
6.34004 173
6.36016 193
6.38027 191
6.40039 197
6.4205 218
6.44061 189
6.46073 157
6.48084 196
6.50095 172
6.52107 190
6.54118 174
6.56129 199
6.58141 153
6.60152 185
6.62164 160
6.64175 162
6.66186 178
6.68198 161
6.70209 160
6.7222 168
6.74232 145
6.76243 196
6.78255 154
6.80266 177
6.82277 164
6.84289 170
6.863 171
6.88311 165
6.90323 197
6.92334 161
6.94346 169
6.96357 181
6.98368 154
7.0038 164
7.02391 189
7.04402 153
7.06414 177
7.08425 163
7.10436 154
7.12448 174
7.14459 160
7.16471 164
7.18482 130
7.20493 145
7.22505 170
7.24516 175
7.26527 156
7.28539 160
7.3055 176
7.32562 212
7.34573 177
7.36584 164
7.38596 191
7.40607 173
7.42618 146
7.4463 180
7.46641 179
7.48653 183
7.50664 162
7.52675 175
7.54687 177
7.56698 164
7.58709 164
7.60721 185
7.62732 175
7.64743 190
7.66755 163
7.68766 191
7.70778 183
7.72789 189
7.748 161
7.76812 184
7.78823 176
7.80834 185
7.82846 189
7.84857 189
7.86869 179
7.8888 160
7.90891 200
7.92903 172
7.94914 206
7.96925 178
7.98937 178
8.00948 202
8.0296 194
8.04971 168
8.06982 168
8.08994 173
8.11005 171
8.13016 161
8.15028 190
8.17039 162
8.1905 174
8.21062 156
8.23073 229
8.25085 196
8.27096 169
8.29107 170
8.31119 187
8.3313 214
8.35141 179
8.37153 160
8.39164 191
8.41176 178
8.43187 157
8.45198 176
8.4721 177
8.49221 194
8.51232 166
8.53244 188
8.55255 182
8.57266 164
8.59278 150
8.61289 191
8.63301 191
8.65312 209
8.67323 188
8.69335 190
8.71346 171
8.73357 190
8.75369 203
8.7738 171
8.79392 213
8.81403 179
8.83414 184
8.85426 217
8.87437 195
8.89448 219
8.9146 195
8.93471 211
8.95483 183
8.97494 189
8.99505 207
9.01517 182
9.03528 193
9.05539 199
9.07551 153
9.09562 194
9.11573 206
9.13585 204
9.15596 178
9.17608 197
9.19619 195
9.2163 199
9.23642 210
9.25653 196
9.27664 166
9.29676 216
9.31687 208
9.33699 189
9.3571 181
9.37721 184
9.39733 164
9.41744 174
9.43755 204
9.45767 192
9.47778 208
9.4979 233
9.51801 180
9.53812 200
9.55824 192
9.57835 194
9.59846 213
9.61858 173
9.63869 190
9.6588 207
9.67892 184
9.69903 201
9.71915 190
9.73926 172
9.75937 210
9.77949 185
9.7996 166
9.81971 186
9.83983 189
9.85994 185
9.88006 179
9.90017 163
9.92028 198
9.9404 193
9.96051 205
9.98062 162
10.00074 189
10.02085 188
10.04097 195
10.06108 219
10.08119 201
10.10131 190
10.12142 179
10.14153 186
10.16165 201
10.18176 188
10.20187 185
10.22199 191
10.2421 199
10.26222 187
10.28233 194
10.30244 176
10.32256 191
10.34267 206
10.36278 197
10.3829 177
10.40301 188
10.42313 168
10.44324 201
10.46335 183
10.48347 199
10.50358 186
10.52369 198
10.54381 193
10.56392 205
10.58403 209
10.60415 182
10.62426 164
10.64438 198
10.66449 188
10.6846 219
10.70472 183
10.72483 163
10.74494 182
10.76506 166
10.78517 172
10.80529 168
10.8254 163
10.84551 199
10.86563 190
10.88574 192
10.90585 197
10.92597 193
10.94608 197
10.9662 188
10.98631 164
11.00642 216
11.02654 195
11.04665 202
11.06676 206
11.08688 192
11.10699 171
11.1271 170
11.14722 190
11.16733 208
11.18745 197
11.20756 186
11.22767 192
11.24779 177
11.2679 193
11.28801 205
11.30813 181
11.32824 175
11.34836 183
11.36847 188
11.38858 195
11.4087 183
11.42881 226
11.44892 160
11.46904 205
11.48915 187
11.50927 195
11.52938 186
11.54949 197
11.56961 193
11.58972 204
11.60983 184
11.62995 195
11.65006 170
11.67017 155
11.69029 191
11.7104 187
11.73052 230
11.75063 196
11.77074 197
11.79086 191
11.81097 198
11.83108 205
11.8512 194
11.87131 197
11.89143 190
11.91154 198
11.93165 221
11.95177 210
11.97188 225
11.99199 241
12.01211 207
12.03222 231
12.05234 205
12.07245 221
12.09256 222
12.11268 227
12.13279 265
12.1529 243
12.17302 247
12.19313 237
12.21324 226
12.23336 231
12.25347 258
12.27359 263
12.2937 255
12.31381 245
12.33393 216
12.35404 275
12.37415 218
12.39427 252
12.41438 204
12.4345 197
12.45461 274
12.47472 211
12.49484 228
12.51495 205
12.53506 206
12.55518 195
12.57529 209
12.5954 224
12.61552 217
12.63563 224
12.65575 219
12.67586 214
12.69597 191
12.71609 189
12.7362 210
12.75631 183
12.77643 217
12.79654 188
12.81666 187
12.83677 167
12.85688 178
12.877 197
12.89711 197
12.91722 209
12.93734 190
12.95745 198
12.97757 179
12.99768 201
13.01779 183
13.03791 191
13.05802 201
13.07813 154
13.09825 188
13.11836 203
13.13847 185
13.15859 184
13.1787 199
13.19882 218
13.21893 178
13.23904 178
13.25916 153
13.27927 192
13.29938 198
13.3195 212
13.33961 177
13.35973 161
13.37984 191
13.39995 180
13.42007 178
13.44018 145
13.46029 179
13.48041 147
13.50052 168
13.52064 154
13.54075 160
13.56086 176
13.58098 181
13.60109 188
13.6212 164
13.64132 189
13.66143 208
13.68154 219
13.70166 210
13.72177 182
13.74189 169
13.762 173
13.78211 193
13.80223 175
13.82234 188
13.84245 175
13.86257 170
13.88268 179
13.9028 154
13.92291 187
13.94302 164
13.96314 191
13.98325 183
14.00336 189
14.02348 147
14.04359 182
14.06371 145
14.08382 174
14.10393 163
14.12405 161
14.14416 177
14.16427 182
14.18439 148
14.2045 158
14.22461 187
14.24473 160
14.26484 150
14.28496 143
14.30507 164
14.32518 156
14.3453 183
14.36541 169
14.38552 193
14.40564 160
14.42575 151
14.44587 198
14.46598 166
14.48609 191
14.50621 163
14.52632 169
14.54643 152
14.56655 156
14.58666 160
14.60677 179
14.62689 168
14.647 171
14.66712 130
14.68723 166
14.70734 199
14.72746 135
14.74757 168
14.76768 157
14.7878 170
14.80791 192
14.82803 161
14.84814 153
14.86825 173
14.88837 152
14.90848 188
14.92859 177
14.94871 169
14.96882 171
14.98894 175
15.00905 152
15.02916 162
15.04928 180
15.06939 133
15.0895 151
15.10962 152
15.12973 171
15.14984 157
15.16996 175
15.19007 163
15.21019 145
15.2303 185
15.25041 178
15.27053 158
15.29064 167
15.31075 170
15.33087 139
15.35098 186
15.3711 158
15.39121 158
15.41132 159
15.43144 148
15.45155 151
15.47166 130
15.49178 148
15.51189 160
15.53201 150
15.55212 146
15.57223 168
15.59235 160
15.61246 151
15.63257 147
15.65269 153
15.6728 175
15.69291 147
15.71303 161
15.73314 204
15.75326 143
15.77337 136
15.79348 151
15.8136 150
15.83371 148
15.85382 172
15.87394 147
15.89405 152
15.91417 158
15.93428 172
15.95439 178
15.97451 177
15.99462 169
16.01473 153
16.03485 177
16.05496 155
16.07508 175
16.09519 159
16.1153 157
16.13542 160
16.15553 126
16.17564 153
16.19576 171
16.21587 167
16.23598 133
16.2561 153
16.27621 170
16.29633 140
16.31644 155
16.33655 157
16.35667 137
16.37678 180
16.39689 147
16.41701 150
16.43712 145
16.45724 148
16.47735 145
16.49746 166
16.51758 154
16.53769 134
16.5578 151
16.57792 161
16.59803 150
16.61814 124
16.63826 148
16.65837 145
16.67849 166
16.6986 135
16.71871 140
16.73883 152
16.75894 131
16.77905 154
16.79917 149
16.81928 164
16.8394 169
16.85951 164
16.87962 138
16.89974 158
16.91985 148
16.93996 143
16.96008 166
16.98019 140
17.00031 138
17.02042 159
17.04053 156
17.06065 146
17.08076 156
17.10087 147
17.12099 158
17.1411 143
17.16121 154
17.18133 142
17.20144 139
17.22156 153
17.24167 155
17.26178 152
17.2819 141
17.30201 161
17.32212 149
17.34224 131
17.36235 140
17.38247 147
17.40258 147
17.42269 117
17.44281 148
17.46292 132
17.48303 143
17.50315 153
17.52326 144
17.54338 163
17.56349 152
17.5836 138
17.60372 169
17.62383 153
17.64394 138
17.66406 154
17.68417 132
17.70428 126
17.7244 137
17.74451 146
17.76463 141
17.78474 156
17.80485 158
17.82497 175
17.84508 154
17.86519 154
17.88531 152
17.90542 151
17.92554 130
17.94565 161
17.96576 144
17.98588 137
18.00599 149
18.0261 149
18.04622 151
18.06633 131
18.08645 142
18.10656 136
18.12667 149
18.14679 137
18.1669 141
18.18701 158
18.20713 120
18.22724 168
18.24735 157
18.26747 155
18.28758 185
18.3077 131
18.32781 154
18.34792 139
18.36804 163
18.38815 146
18.40826 155
18.42838 151
18.44849 156
18.46861 177
18.48872 150
18.50883 169
18.52895 151
18.54906 160
18.56917 158
18.58929 158
18.6094 151
18.62951 131
18.64963 183
18.66974 163
18.68986 166
18.70997 141
18.73008 150
18.7502 154
18.77031 165
18.79042 163
18.81054 166
18.83065 172
18.85077 154
18.87088 167
18.89099 172
18.91111 166
18.93122 132
18.95133 173
18.97145 156
18.99156 154
19.01168 158
19.03179 132
19.0519 147
19.07202 172
19.09213 151
19.11224 163
19.13236 168
19.15247 164
19.17258 132
19.1927 155
19.21281 142
19.23293 137
19.25304 146
19.27315 169
19.29327 155
19.31338 139
19.33349 193
19.35361 157
19.37372 173
19.39384 154
19.41395 150
19.43406 164
19.45418 166
19.47429 159
19.4944 153
19.51452 179
19.53463 160
19.55475 165
19.57486 182
19.59497 184
19.61509 175
19.6352 180
19.65531 161
19.67543 174
19.69554 167
19.71565 188
19.73577 202
19.75588 218
19.776 165
19.79611 212
19.81622 222
19.83634 224
19.85645 191
19.87656 249
19.89668 245
19.91679 211
19.93691 214
19.95702 263
19.97713 224
19.99725 228
20.01736 255
20.03747 248
20.05759 251
20.0777 206
20.09782 255
20.11793 277
20.13804 243
20.15816 262
20.17827 311
20.19838 281
20.2185 289
20.23861 296
20.25872 297
20.27884 316
20.29895 281
20.31907 326
20.33918 324
20.35929 328
20.37941 337
20.39952 315
20.41963 285
20.43975 331
20.45986 370
20.47998 348
20.50009 368
20.5202 411
20.54032 401
20.56043 419
20.58054 404
20.60066 485
20.62077 521
20.64088 498
20.661 545
20.68111 700
20.70123 850
20.72134 1085
20.74145 1362
20.76157 1868
20.78168 2667
20.80179 3780
20.82191 5370
20.84202 6881
20.86214 8289
20.88225 9139
20.90236 8965
20.92248 7528
20.94259 5640
20.9627 3978
20.98282 2509
21.00293 1587
21.02305 1052
21.04316 822
21.06327 682
21.08339 651
21.1035 559
21.12361 575
21.14373 448
21.16384 415
21.18395 417
21.20407 408
21.22418 388
21.2443 360
21.26441 319
21.28452 345
21.30464 300
21.32475 290
21.34486 270
21.36498 305
21.38509 278
21.40521 289
21.42532 246
21.44543 257
21.46555 271
21.48566 249
21.50577 269
21.52589 243
21.546 272
21.56612 252
21.58623 273
21.60634 232
21.62646 262
21.64657 258
21.66668 244
21.6868 212
21.70691 243
21.72702 229
21.74714 230
21.76725 210
21.78737 237
21.80748 223
21.82759 248
21.84771 228
21.86782 233
21.88793 215
21.90805 220
21.92816 211
21.94828 229
21.96839 227
21.9885 228
22.00862 225
22.02873 270
22.04884 219
22.06896 234
22.08907 214
22.10919 222
22.1293 257
22.14941 220
22.16953 241
22.18964 203
22.20975 227
22.22987 219
22.24998 215
22.27009 251
22.29021 240
22.31032 235
22.33044 261
22.35055 215
22.37066 241
22.39078 250
22.41089 233
22.431 209
22.45112 204
22.47123 201
22.49135 207
22.51146 212
22.53157 202
22.55169 215
22.5718 220
22.59191 231
22.61203 197
22.63214 242
22.65225 207
22.67237 226
22.69248 186
22.7126 236
22.73271 218
22.75282 179
22.77294 196
22.79305 185
22.81316 201
22.83328 179
22.85339 204
22.87351 205
22.89362 171
22.91373 189
22.93385 195
22.95396 209
22.97407 199
22.99419 191
23.0143 225
23.03442 194
23.05453 238
23.07464 201
23.09476 243
23.11487 227
23.13498 235
23.1551 258
23.17521 244
23.19532 244
23.21544 256
23.23555 262
23.25567 226
23.27578 234
23.29589 218
23.31601 221
23.33612 184
23.35623 183
23.37635 222
23.39646 195
23.41658 223
23.43669 202
23.4568 186
23.47692 196
23.49703 186
23.51714 204
23.53726 198
23.55737 209
23.57749 221
23.5976 233
23.61771 207
23.63783 203
23.65794 208
23.67805 206
23.69817 213
23.71828 236
23.73839 222
23.75851 219
23.77862 223
23.79874 242
23.81885 223
23.83896 234
23.85908 268
23.87919 240
23.8993 270
23.91942 263
23.93953 279
23.95965 292
23.97976 335
23.99987 340
24.01999 385
24.0401 359
24.06021 310
24.08033 314
24.10044 298
24.12056 250
24.14067 219
24.16078 222
24.1809 198
24.20101 193
24.22112 206
24.24124 207
24.26135 244
24.28146 214
24.30158 233
24.32169 247
24.34181 198
24.36192 200
24.38203 239
24.40215 216
24.42226 212
24.44237 210
24.46249 236
24.4826 215
24.50272 225
24.52283 234
24.54294 198
24.56306 222
24.58317 219
24.60328 210
24.6234 228
24.64351 243
24.66362 238
24.68374 274
24.70385 289
24.72397 258
24.74408 249
24.76419 261
24.78431 263
24.80442 254
24.82453 237
24.84465 253
24.86476 247
24.88488 271
24.90499 257
24.9251 283
24.94522 247
24.96533 234
24.98544 239
25.00556 251
25.02567 257
25.04579 245
25.0659 229
25.08601 234
25.10613 208
25.12624 227
25.14635 213
25.16647 206
25.18658 233
25.20669 248
25.22681 240
25.24692 248
25.26704 247
25.28715 234
25.30726 265
25.32738 248
25.34749 247
25.3676 248
25.38772 236
25.40783 258
25.42795 261
25.44806 262
25.46817 303
25.48829 301
25.5084 275
25.52851 310
25.54863 340
25.56874 343
25.58886 321
25.60897 333
25.62908 334
25.6492 383
25.66931 383
25.68942 404
25.70954 411
25.72965 409
25.74976 408
25.76988 476
25.78999 457
25.81011 476
25.83022 476
25.85033 463
25.87045 475
25.89056 475
25.91067 438
25.93079 491
25.9509 494
25.97102 519
25.99113 567
26.01124 515
26.03136 482
26.05147 533
26.07158 601
26.0917 598
26.11181 611
26.13193 665
26.15204 689
26.17215 746
26.19227 841
26.21238 860
26.23249 857
26.25261 977
26.27272 1082
26.29283 1059
26.31295 1216
26.33306 1320
26.35318 1436
26.37329 1537
26.3934 1919
26.41352 2108
26.43363 2572
26.45374 3154
26.47386 3902
26.49397 5247
26.51409 7298
26.5342 10036
26.55431 14019
26.57443 19599
26.59454 26484
26.61465 33432
26.63477 40062
26.65488 42524
26.67499 41379
26.69511 35868
26.71522 28019
26.73534 20717
26.75545 14750
26.77556 9352
26.79568 5346
26.81579 3326
26.8359 2447
26.85602 2082
26.87613 1722
26.89625 1605
26.91636 1489
26.93647 1360
26.95659 1219
26.9767 1058
26.99681 1035
27.01693 926
27.03704 899
27.05716 829
27.07727 789
27.09738 769
27.1175 692
27.13761 613
27.15772 607
27.17784 632
27.19795 585
27.21806 511
27.23818 514
27.25829 495
27.27841 473
27.29852 522
27.31863 497
27.33875 544
27.35886 519
27.37897 575
27.39909 590
27.4192 646
27.43932 622
27.45943 678
27.47954 656
27.49966 625
27.51977 623
27.53988 559
27.56 520
27.58011 483
27.60023 443
27.62034 392
27.64045 381
27.66057 356
27.68068 337
27.70079 361
27.72091 346
27.74102 323
27.76113 345
27.78125 324
27.80136 345
27.82148 328
27.84159 322
27.8617 324
27.88182 294
27.90193 328
27.92204 329
27.94216 302
27.96227 302
27.98239 308
28.0025 283
28.02261 335
28.04273 296
28.06284 263
28.08295 289
28.10307 296
28.12318 281
28.1433 252
28.16341 283
28.18352 304
28.20364 259
28.22375 266
28.24386 270
28.26398 270
28.28409 249
28.3042 234
28.32432 295
28.34443 242
28.36455 226
28.38466 247
28.40477 264
28.42489 217
28.445 270
28.46511 250
28.48523 235
28.50534 237
28.52546 263
28.54557 251
28.56568 211
28.5858 246
28.60591 238
28.62602 247
28.64614 233
28.66625 228
28.68636 246
28.70648 230
28.72659 232
28.74671 234
28.76682 218
28.78693 232
28.80705 233
28.82716 244
28.84727 234
28.86739 232
28.8875 230
28.90762 233
28.92773 239
28.94784 260
28.96796 253
28.98807 233
29.00818 233
29.0283 234
29.04841 227
29.06853 244
29.08864 196
29.10875 231
29.12887 225
29.14898 236
29.16909 221
29.18921 220
29.20932 243
29.22943 221
29.24955 207
29.26966 205
29.28978 247
29.30989 240
29.33 207
29.35012 252
29.37023 261
29.39034 248
29.41046 238
29.43057 279
29.45069 260
29.4708 270
29.49091 240
29.51103 254
29.53114 250
29.55125 229
29.57137 235
29.59148 240
29.6116 257
29.63171 202
29.65182 224
29.67194 232
29.69205 218
29.71216 232
29.73228 217
29.75239 241
29.7725 208
29.79262 201
29.81273 224
29.83285 213
29.85296 211
29.87307 246
29.89319 217
29.9133 219
29.93341 214
29.95353 206
29.97364 212
29.99376 217
30.01387 231
30.03398 199
30.0541 211
30.07421 228
30.09432 207
30.11444 224
30.13455 246
30.15467 231
30.17478 239
30.19489 238
30.21501 229
30.23512 244
30.25523 238
30.27535 270
30.29546 237
30.31557 233
30.33569 231
30.3558 208
30.37592 235
30.39603 230
30.41614 178
30.43626 203
30.45637 218
30.47648 209
30.4966 217
30.51671 202
30.53683 201
30.55694 171
30.57705 212
30.59717 231
30.61728 218
30.63739 221
30.65751 211
30.67762 215
30.69773 243
30.71785 213
30.73796 231
30.75808 246
30.77819 229
30.7983 229
30.81842 255
30.83853 231
30.85864 231
30.87876 216
30.89887 225
30.91899 209
30.9391 215
30.95921 199
30.97933 184
30.99944 189
31.01955 197
31.03967 189
31.05978 203
31.0799 181
31.10001 171
31.12012 183
31.14024 185
31.16035 157
31.18046 168
31.20058 165
31.22069 193
31.2408 149
31.26092 187
31.28103 164
31.30115 186
31.32126 154
31.34137 160
31.36149 166
31.3816 171
31.40171 153
31.42183 173
31.44194 152
31.46206 177
31.48217 179
31.50228 134
31.5224 177
31.54251 139
31.56262 165
31.58274 155
31.60285 151
31.62297 168
31.64308 181
31.66319 173
31.68331 185
31.70342 174
31.72353 168
31.74365 164
31.76376 159
31.78387 170
31.80399 198
31.8241 177
31.84422 184
31.86433 164
31.88444 148
31.90456 146
31.92467 162
31.94478 158
31.9649 171
31.98501 155
32.00513 187
32.02524 155
32.04535 159
32.06547 174
32.08558 176
32.10569 174
32.12581 181
32.14592 178
32.16604 183
32.18615 183
32.20626 163
32.22638 169
32.24649 160
32.2666 154
32.28672 154
32.30683 159
32.32694 175
32.34706 172
32.36717 181
32.38729 159
32.4074 189
32.42751 215
32.44763 195
32.46774 193
32.48785 203
32.50797 222
32.52808 199
32.5482 150
32.56831 199
32.58842 193
32.60854 170
32.62865 151
32.64876 172
32.66888 166
32.68899 201
32.7091 170
32.72922 165
32.74933 139
32.76945 147
32.78956 143
32.80967 176
32.82979 142
32.8499 163
32.87001 157
32.89013 161
32.91024 159
32.93036 145
32.95047 135
32.97058 141
32.9907 142
33.01081 171
33.03092 144
33.05104 143
33.07115 138
33.09127 151
33.11138 172
33.13149 151
33.15161 138
33.17172 152
33.19183 135
33.21195 153
33.23206 171
33.25217 142
33.27229 156
33.2924 140
33.31252 141
33.33263 165
33.35274 125
33.37286 172
33.39297 150
33.41308 125
33.4332 142
33.45331 146
33.47343 141
33.49354 124
33.51365 145
33.53377 163
33.55388 170
33.57399 146
33.59411 142
33.61422 145
33.63434 137
33.65445 151
33.67456 153
33.69468 151
33.71479 146
33.7349 137
33.75502 114
33.77513 169
33.79524 134
33.81536 149
33.83547 141
33.85559 144
33.8757 131
33.89581 137
33.91593 129
33.93604 137
33.95615 152
33.97627 143
33.99638 154
34.0165 147
34.03661 139
34.05672 137
34.07684 148
34.09695 160
34.11706 149
34.13718 188
34.15729 133
34.17741 156
34.19752 154
34.21763 161
34.23775 177
34.25786 191
34.27797 177
34.29809 163
34.3182 161
34.33831 135
34.35843 167
34.37854 144
34.39866 150
34.41877 150
34.43888 142
34.459 149
34.47911 161
34.49922 133
34.51934 166
34.53945 155
34.55957 155
34.57968 182
34.59979 199
34.61991 167
34.64002 175
34.66013 186
34.68025 165
34.70036 188
34.72047 181
34.74059 162
34.7607 179
34.78082 164
34.80093 159
34.82104 181
34.84116 185
34.86127 168
34.88138 183
34.9015 196
34.92161 184
34.94173 180
34.96184 204
34.98195 211
35.00207 194
35.02218 182
35.04229 201
35.06241 199
35.08252 196
35.10264 204
35.12275 189
35.14286 180
35.16298 201
35.18309 209
35.2032 198
35.22332 195
35.24343 218
35.26354 213
35.28366 211
35.30377 189
35.32389 185
35.344 210
35.36411 208
35.38423 207
35.40434 164
35.42445 222
35.44457 195
35.46468 178
35.4848 197
35.50491 194
35.52502 207
35.54514 208
35.56525 229
35.58536 221
35.60548 213
35.62559 194
35.64571 195
35.66582 201
35.68593 184
35.70605 186
35.72616 170
35.74627 176
35.76639 188
35.7865 219
35.80661 169
35.82673 201
35.84684 201
35.86696 182
35.88707 197
35.90718 204
35.9273 218
35.94741 183
35.96752 217
35.98764 192
36.00775 203
36.02787 201
36.04798 207
36.06809 189
36.08821 210
36.10832 229
36.12843 246
36.14855 230
36.16866 201
36.18878 236
36.20889 264
36.229 254
36.24912 293
36.26923 265
36.28934 297
36.30946 318
36.32957 363
36.34968 425
36.3698 494
36.38991 592
36.41003 753
36.43014 933
36.45025 1228
36.47037 1644
36.49048 1996
36.51059 2459
36.53071 2791
36.55082 2816
36.57094 2659
36.59105 2264
36.61116 1903
36.63128 1582
36.65139 1373
36.6715 1171
36.69162 868
36.71173 521
36.73184 418
36.75196 320
36.77207 301
36.79219 249
36.8123 254
36.83241 267
36.85253 243
36.87264 250
36.89275 234
36.91287 245
36.93298 223
36.9531 221
36.97321 224
36.99332 214
37.01344 222
37.03355 197
37.05366 201
37.07378 216
37.09389 181
37.11401 200
37.13412 184
37.15423 183
37.17435 192
37.19446 194
37.21457 158
37.23469 171
37.2548 152
37.27491 143
37.29503 159
37.31514 164
37.33526 194
37.35537 161
37.37548 163
37.3956 175
37.41571 164
37.43582 165
37.45594 153
37.47605 179
37.49617 149
37.51628 177
37.53639 156
37.55651 160
37.57662 154
37.59673 161
37.61685 155
37.63696 132
37.65708 173
37.67719 164
37.6973 158
37.71742 165
37.73753 188
37.75764 164
37.77776 174
37.79787 164
37.81798 159
37.8381 164
37.85821 180
37.87833 174
37.89844 140
37.91855 164
37.93867 151
37.95878 153
37.97889 167
37.99901 148
38.01912 186
38.03924 177
38.05935 145
38.07946 174
38.09958 173
38.11969 184
38.1398 174
38.15992 164
38.18003 209
38.20015 173
38.22026 171
38.24037 163
38.26049 166
38.2806 163
38.30071 202
38.32083 157
38.34094 168
38.36105 185
38.38117 170
38.40128 184
38.4214 190
38.44151 185
38.46162 192
38.48174 187
38.50185 202
38.52196 201
38.54208 171
38.56219 183
38.58231 197
38.60242 184
38.62253 180
38.64265 184
38.66276 183
38.68287 159
38.70299 172
38.7231 173
38.74321 190
38.76333 191
38.78344 183
38.80356 188
38.82367 172
38.84378 159
38.8639 176
38.88401 207
38.90412 177
38.92424 168
38.94435 177
38.96447 182
38.98458 174
39.00469 168
39.02481 207
39.04492 202
39.06503 181
39.08515 223
39.10526 223
39.12538 265
39.14549 256
39.1656 245
39.18572 316
39.20583 295
39.22594 334
39.24606 367
39.26617 400
39.28628 514
39.3064 597
39.32651 707
39.34663 886
39.36674 1184
39.38685 1513
39.40697 1861
39.42708 2164
39.44719 2393
39.46731 2671
39.48742 2386
39.50754 2134
39.52765 1839
39.54776 1547
39.56788 1385
39.58799 1104
39.6081 963
39.62822 681
39.64833 480
39.66845 327
39.68856 288
39.70867 295
39.72879 225
39.7489 280
39.76901 246
39.78913 227
39.80924 226
39.82935 210
39.84947 231
39.86958 198
39.8897 218
39.90981 246
39.92992 228
39.95004 235
39.97015 229
39.99026 212
40.01038 248
40.03049 234
40.05061 263
40.07072 276
40.09083 318
40.11095 388
40.13106 375
40.15117 452
40.17129 580
40.1914 648
40.21152 811
40.23163 1009
40.25174 1190
40.27186 1294
40.29197 1293
40.31208 1313
40.3322 1109
40.35231 940
40.37242 839
40.39254 765
40.41265 677
40.43277 568
40.45288 416
40.47299 281
40.49311 237
40.51322 244
40.53333 215
40.55345 177
40.57356 185
40.59368 206
40.61379 202
40.6339 208
40.65402 189
40.67413 191
40.69424 164
40.71436 156
40.73447 151
40.75458 149
40.7747 157
40.79481 155
40.81493 144
40.83504 166
40.85515 175
40.87527 168
40.89538 158
40.91549 179
40.93561 148
40.95572 164
40.97584 161
40.99595 143
41.01606 146
41.03618 149
41.05629 167
41.0764 170
41.09652 179
41.11663 132
41.13675 165
41.15686 157
41.17697 178
41.19709 142
41.2172 169
41.23731 165
41.25743 185
41.27754 156
41.29765 156
41.31777 145
41.33788 177
41.358 156
41.37811 146
41.39822 163
41.41834 161
41.43845 189
41.45856 192
41.47868 166
41.49879 215
41.51891 199
41.53902 186
41.55913 181
41.57925 194
41.59936 171
41.61947 163
41.63959 205
41.6597 194
41.67982 203
41.69993 189
41.72004 210
41.74016 207
41.76027 208
41.78038 205
41.8005 204
41.82061 223
41.84072 231
41.86084 204
41.88095 215
41.90107 183
41.92118 179
41.94129 188
41.96141 180
41.98152 184
42.00163 162
42.02175 196
42.04186 183
42.06198 202
42.08209 209
42.1022 220
42.12232 213
42.14243 237
42.16254 240
42.18266 242
42.20277 277
42.22289 307
42.243 359
42.26311 424
42.28323 447
42.30334 520
42.32345 694
42.34357 810
42.36368 1093
42.38379 1314
42.40391 1528
42.42402 1791
42.44414 1821
42.46425 1807
42.48436 1691
42.50448 1327
42.52459 1159
42.5447 998
42.56482 973
42.58493 856
42.60505 623
42.62516 416
42.64527 346
42.66539 250
42.6855 268
42.70561 222
42.72573 223
42.74584 251
42.76595 209
42.78607 198
42.80618 188
42.8263 172
42.84641 168
42.86652 168
42.88664 145
42.90675 147
42.92686 153
42.94698 183
42.96709 151
42.98721 155
43.00732 150
43.02743 141
43.04755 145
43.06766 155
43.08777 157
43.10789 151
43.128 125
43.14812 150
43.16823 145
43.18834 148
43.20846 164
43.22857 171
43.24868 153
43.2688 129
43.28891 150
43.30902 152
43.32914 143
43.34925 130
43.36937 139
43.38948 127
43.40959 150
43.42971 144
43.44982 156
43.46993 149
43.49005 155
43.51016 123
43.53028 148
43.55039 156
43.5705 134
43.59062 140
43.61073 168
43.63084 161
43.65096 149
43.67107 136
43.69119 128
43.7113 147
43.73141 131
43.75153 145
43.77164 120
43.79175 127
43.81187 141
43.83198 135
43.85209 137
43.87221 153
43.89232 154
43.91244 128
43.93255 136
43.95266 135
43.97278 128
43.99289 129
44.013 153
44.03312 145
44.05323 146
44.07335 139
44.09346 130
44.11357 150
44.13369 160
44.1538 150
44.17391 136
44.19403 143
44.21414 142
44.23426 150
44.25437 132
44.27448 152
44.2946 153
44.31471 147
44.33482 136
44.35494 135
44.37505 136
44.39516 137
44.41528 145
44.43539 141
44.45551 120
44.47562 132
44.49573 150
44.51585 180
44.53596 140
44.55607 139
44.57619 130
44.5963 130
44.61642 143
44.63653 145
44.65664 142
44.67676 147
44.69687 124
44.71698 149
44.7371 152
44.75721 137
44.77732 116
44.79744 140
44.81755 143
44.83767 137
44.85778 153
44.87789 132
44.89801 148
44.91812 163
44.93823 145
44.95835 163
44.97846 168
44.99858 143
45.01869 170
45.0388 175
45.05892 144
45.07903 156
45.09914 150
45.11926 148
45.13937 141
45.15949 163
45.1796 130
45.19971 169
45.21983 147
45.23994 147
45.26005 152
45.28017 169
45.30028 133
45.32039 160
45.34051 149
45.36062 165
45.38074 173
45.40085 202
45.42096 170
45.44108 187
45.46119 192
45.4813 184
45.50142 208
45.52153 223
45.54165 258
45.56176 269
45.58187 313
45.60199 347
45.6221 381
45.64221 465
45.66233 490
45.68244 596
45.70256 756
45.72267 926
45.74278 1019
45.7629 1144
45.78301 1258
45.80312 1178
45.82324 1079
45.84335 902
45.86346 805
45.88358 730
45.90369 689
45.92381 585
45.94392 495
45.96403 385
45.98415 279
46.00426 258
46.02437 212
46.04449 185
46.0646 187
46.08472 188
46.10483 181
46.12494 167
46.14506 169
46.16517 133
46.18528 161
46.2054 151
46.22551 151
46.24563 152
46.26574 165
46.28585 147
46.30597 144
46.32608 142
46.34619 147
46.36631 147
46.38642 139
46.40653 133
46.42665 132
46.44676 153
46.46688 129
46.48699 144
46.5071 151
46.52722 124
46.54733 121
46.56744 128
46.58756 130
46.60767 152
46.62779 158
46.6479 130
46.66801 137
46.68813 123
46.70824 140
46.72835 145
46.74847 132
46.76858 126
46.78869 132
46.80881 114
46.82892 120
46.84904 138
46.86915 130
46.88926 125
46.90938 139
46.92949 126
46.9496 132
46.96972 134
46.98983 120
47.00995 124
47.03006 151
47.05017 162
47.07029 125
47.0904 157
47.11051 146
47.13063 144
47.15074 146
47.17086 142
47.19097 143
47.21108 149
47.2312 144
47.25131 146
47.27142 163
47.29154 148
47.31165 142
47.33176 154
47.35188 132
47.37199 129
47.39211 149
47.41222 139
47.43233 140
47.45245 129
47.47256 129
47.49267 148
47.51279 163
47.5329 148
47.55302 125
47.57313 162
47.59324 140
47.61336 129
47.63347 151
47.65358 137
47.6737 135
47.69381 134
47.71393 145
47.73404 121
47.75415 117
47.77427 132
47.79438 134
47.81449 142
47.83461 132
47.85472 137
47.87483 122
47.89495 145
47.91506 145
47.93518 121
47.95529 139
47.9754 130
47.99552 144
48.01563 125
48.03574 119
48.05586 142
48.07597 136
48.09609 129
48.1162 127
48.13631 129
48.15643 136
48.17654 138
48.19665 124
48.21677 128
48.23688 151
48.257 141
48.27711 126
48.29722 156
48.31734 129
48.33745 143
48.35756 134
48.37768 136
48.39779 128
48.4179 144
48.43802 141
48.45813 154
48.47825 149
48.49836 134
48.51847 167
48.53859 131
48.5587 146
48.57881 149
48.59893 148
48.61904 129
48.63916 139
48.65927 149
48.67938 170
48.6995 139
48.71961 152
48.73972 152
48.75984 146
48.77995 143
48.80006 168
48.82018 182
48.84029 156
48.86041 163
48.88052 170
48.90063 165
48.92075 167
48.94086 149
48.96097 145
48.98109 168
49.0012 146
49.02132 141
49.04143 138
49.06154 144
49.08166 155
49.10177 154
49.12188 164
49.142 157
49.16211 146
49.18223 151
49.20234 184
49.22245 147
49.24257 150
49.26268 160
49.28279 148
49.30291 149
49.32302 140
49.34313 156
49.36325 164
49.38336 145
49.40348 171
49.42359 150
49.4437 155
49.46382 149
49.48393 180
49.50404 144
49.52416 183
49.54427 183
49.56439 171
49.5845 195
49.60461 197
49.62473 190
49.64484 212
49.66495 216
49.68507 223
49.70518 237
49.7253 225
49.74541 262
49.76552 280
49.78564 317
49.80575 339
49.82586 374
49.84598 413
49.86609 443
49.8862 508
49.90632 605
49.92643 676
49.94655 819
49.96666 1003
49.98677 1183
50.00689 1458
50.027 1888
50.04711 2245
50.06723 2846
50.08734 3420
50.10746 3858
50.12757 3932
50.14768 3617
50.1678 3207
50.18791 2579
50.20802 2282
50.22814 2229
50.24825 2147
50.26837 1965
50.28848 1733
50.30859 1288
50.32871 882
50.34882 617
50.36893 493
50.38905 404
50.40916 404
50.42927 352
50.44939 346
50.4695 326
50.48962 308
50.50973 320
50.52984 315
50.54996 334
50.57007 315
50.59018 373
50.6103 322
50.63041 300
50.65053 288
50.67064 271
50.69075 252
50.71087 270
50.73098 221
50.75109 197
50.77121 238
50.79132 214
50.81143 184
50.83155 182
50.85166 185
50.87178 195
50.89189 182
50.912 174
50.93212 172
50.95223 162
50.97234 166
50.99246 170
51.01257 172
51.03269 153
51.0528 132
51.07291 143
51.09303 158
51.11314 143
51.13325 166
51.15337 145
51.17348 157
51.1936 138
51.21371 148
51.23382 157
51.25394 134
51.27405 141
51.29416 138
51.31428 135
51.33439 156
51.3545 140
51.37462 127
51.39473 125
51.41485 122
51.43496 132
51.45507 129
51.47519 135
51.4953 132
51.51541 149
51.53553 123
51.55564 128
51.57576 114
51.59587 124
51.61598 122
51.6361 127
51.65621 145
51.67632 148
51.69644 125
51.71655 155
51.73667 130
51.75678 116
51.77689 113
51.79701 121
51.81712 122
51.83723 109
51.85735 114
51.87746 127
51.89757 120
51.91769 123
51.9378 117
51.95792 116
51.97803 133
51.99814 123
52.01826 142
52.03837 123
52.05848 120
52.0786 121
52.09871 130
52.11883 128
52.13894 122
52.15905 100
52.17917 119
52.19928 126
52.21939 127
52.23951 117
52.25962 127
52.27974 137
52.29985 111
52.31996 136
52.34008 107
52.36019 117
52.3803 124
52.40042 146
52.42053 143
52.44064 129
52.46076 116
52.48087 123
52.50099 133
52.5211 122
52.54121 128
52.56133 129
52.58144 137
52.60155 114
52.62167 115
52.64178 117
52.6619 135
52.68201 140
52.70212 116
52.72224 123
52.74235 127
52.76246 128
52.78258 138
52.80269 119
52.8228 128
52.84292 117
52.86303 118
52.88315 137
52.90326 123
52.92337 130
52.94349 128
52.9636 127
52.98371 122
53.00383 130
53.02394 129
53.04406 138
53.06417 147
53.08428 129
53.1044 133
53.12451 113
53.14462 134
53.16474 132
53.18485 135
53.20497 134
53.22508 138
53.24519 135
53.26531 162
53.28542 132
53.30553 139
53.32565 138
53.34576 138
53.36587 157
53.38599 126
53.4061 142
53.42622 143
53.44633 141
53.46644 128
53.48656 137
53.50667 148
53.52678 138
53.5469 137
53.56701 157
53.58713 143
53.60724 141
53.62735 146
53.64747 145
53.66758 127
53.68769 141
53.70781 152
53.72792 116
53.74804 151
53.76815 134
53.78826 129
53.80838 126
53.82849 143
53.8486 132
53.86872 133
53.88883 119
53.90894 114
53.92906 130
53.94917 136
53.96929 128
53.9894 126
54.00951 132
54.02963 158
54.04974 136
54.06985 138
54.08997 132
54.11008 150
54.1302 134
54.15031 137
54.17042 151
54.19054 144
54.21065 173
54.23076 167
54.25088 154
54.27099 166
54.29111 159
54.31122 156
54.33133 152
54.35145 173
54.37156 156
54.39167 166
54.41179 197
54.4319 156
54.45201 159
54.47213 178
54.49224 180
54.51236 180
54.53247 188
54.55258 194
54.5727 200
54.59281 237
54.61292 250
54.63304 268
54.65315 280
54.67327 349
54.69338 380
54.71349 495
54.73361 546
54.75372 611
54.77383 818
54.79395 887
54.81406 986
54.83417 1128
54.85429 1219
54.8744 1233
54.89452 994
54.91463 958
54.93474 814
54.95486 738
54.97497 687
54.99508 749
55.0152 707
55.03531 602
55.05543 546
55.07554 435
55.09565 338
55.11577 320
55.13588 307
55.15599 350
55.17611 326
55.19622 364
55.21634 418
55.23645 488
55.25656 515
55.27668 541
55.29679 558
55.3169 541
55.33702 580
55.35713 472
55.37724 425
55.39736 365
55.41747 352
55.43759 381
55.4577 344
55.47781 374
55.49793 322
55.51804 234
55.53815 202
55.55827 179
55.57838 188
55.5985 184
55.61861 172
55.63872 149
55.65884 144
55.67895 149
55.69906 164
55.71918 154
55.73929 124
55.75941 137
55.77952 143
55.79963 149
55.81975 130
55.83986 122
55.85997 165
55.88009 150
55.9002 133
55.92031 150
55.94043 116
55.96054 124
55.98066 140
56.00077 147
56.02088 120
56.041 128
56.06111 107
56.08122 139
56.10134 128
56.12145 119
56.14157 124
56.16168 130
56.18179 128
56.20191 104
56.22202 123
56.24213 122
56.26225 135
56.28236 126
56.30248 124
56.32259 110
56.3427 126
56.36282 138
56.38293 121
56.40304 151
56.42316 123
56.44327 110
56.46338 133
56.4835 115
56.50361 126
56.52373 129
56.54384 125
56.56395 121
56.58407 114
56.60418 141
56.62429 130
56.64441 122
56.66452 130
56.68464 135
56.70475 105
56.72486 132
56.74498 128
56.76509 132
56.7852 110
56.80532 127
56.82543 133
56.84554 97
56.86566 131
56.88577 125
56.90589 110
56.926 126
56.94611 133
56.96623 130
56.98634 121
57.00645 113
57.02657 163
57.04668 126
57.0668 128
57.08691 146
57.10702 150
57.12714 155
57.14725 160
57.16736 176
57.18748 147
57.20759 181
57.22771 207
57.24782 166
57.26793 150
57.28805 151
57.30816 183
57.32827 143
57.34839 138
57.3685 153
57.38861 134
57.40873 137
57.42884 138
57.44896 120
57.46907 133
57.48918 127
57.5093 118
57.52941 137
57.54952 141
57.56964 132
57.58975 138
57.60987 111
57.62998 117
57.65009 133
57.67021 116
57.69032 109
57.71043 119
57.73055 139
57.75066 125
57.77078 125
57.79089 128
57.811 126
57.83112 131
57.85123 139
57.87134 125
57.89146 151
57.91157 116
57.93168 116
57.9518 100
57.97191 119
57.99203 134
58.01214 123
58.03225 112
58.05237 139
58.07248 88
58.09259 118
58.11271 126
58.13282 123
58.15294 120
58.17305 95
58.19316 105
58.21328 125
58.23339 131
58.2535 106
58.27362 111
58.29373 127
58.31385 121
58.33396 127
58.35407 123
58.37419 126
58.3943 116
58.41441 120
58.43453 115
58.45464 157
58.47475 130
58.49487 116
58.51498 129
58.5351 120
58.55521 158
58.57532 134
58.59544 124
58.61555 116
58.63566 150
58.65578 141
58.67589 127
58.69601 122
58.71612 134
58.73623 131
58.75635 139
58.77646 127
58.79657 137
58.81669 143
58.8368 126
58.85691 150
58.87703 139
58.89714 152
58.91726 126
58.93737 163
58.95748 141
58.9776 130
58.99771 139
59.01782 128
59.03794 130
59.05805 118
59.07817 141
59.09828 147
59.11839 128
59.13851 119
59.15862 151
59.17873 158
59.19885 150
59.21896 139
59.23908 166
59.25919 136
59.2793 141
59.29942 139
59.31953 157
59.33964 176
59.35976 165
59.37987 177
59.39998 162
59.4201 170
59.44021 188
59.46033 171
59.48044 207
59.50055 200
59.52067 204
59.54078 206
59.56089 231
59.58101 230
59.60112 267
59.62124 303
59.64135 303
59.66146 315
59.68158 374
59.70169 415
59.7218 454
59.74192 548
59.76203 644
59.78215 809
59.80226 968
59.82237 1213
59.84249 1398
59.8626 1700
59.88271 1976
59.90283 2188
59.92294 2470
59.94305 2334
59.96317 2161
59.98328 1895
60.0034 1540
60.02351 1306
60.04362 1277
60.06374 1295
60.08385 1284
60.10396 1250
60.12408 1114
60.14419 971
60.16431 725
60.18442 538
60.20453 415
60.22465 289
60.24476 253
60.26487 252
60.28499 216
60.3051 192
60.32522 200
60.34533 172
60.36544 184
60.38556 166
60.40567 157
60.42578 137
60.4459 132
60.46601 160
60.48612 152
60.50624 159
60.52635 165
60.54647 131
60.56658 132
60.58669 149
60.60681 133
60.62692 119
60.64703 146
60.66715 141
60.68726 145
60.70738 134
60.72749 124
60.7476 143
60.76772 122
60.78783 135
60.80794 139
60.82806 159
60.84817 125
60.86828 129
60.8884 120
60.90851 115
60.92863 145
60.94874 116
60.96885 126
60.98897 136
61.00908 126
61.02919 131
61.04931 112
61.06942 152
61.08954 128
61.10965 152
61.12976 134
61.14988 136
61.16999 136
61.1901 136
61.21022 128
61.23033 129
61.25045 145
61.27056 129
61.29067 115
61.31079 142
61.3309 138
61.35101 126
61.37113 122
61.39124 120
61.41135 126
61.43147 125
61.45158 125
61.4717 109
61.49181 132
61.51192 105
61.53204 130
61.55215 134
61.57226 135
61.59238 139
61.61249 138
61.63261 141
61.65272 127
61.67283 148
61.69295 127
61.71306 110
61.73317 126
61.75329 108
61.7734 121
61.79352 134
61.81363 122
61.83374 133
61.85386 134
61.87397 141
61.89408 136
61.9142 155
61.93431 133
61.95442 134
61.97454 139
61.99465 141
62.01477 143
62.03488 128
62.05499 135
62.07511 146
62.09522 118
62.11533 142
62.13545 150
62.15556 145
62.17568 117
62.19579 159
62.2159 158
62.23602 149
62.25613 139
62.27624 141
62.29636 155
62.31647 147
62.33659 134
62.3567 146
62.37681 155
62.39693 140
62.41704 154
62.43715 141
62.45727 126
62.47738 116
62.49749 148
62.51761 133
62.53772 119
62.55784 125
62.57795 135
62.59806 122
62.61818 116
62.63829 132
62.6584 119
62.67852 108
62.69863 123
62.71875 122
62.73886 141
62.75897 113
62.77909 133
62.7992 124
62.81931 124
62.83943 116
62.85954 121
62.87965 124
62.89977 100
62.91988 120
62.94 131
62.96011 109
62.98022 134
63.00034 128
63.02045 128
63.04056 141
63.06068 122
63.08079 127
63.10091 139
63.12102 132
63.14113 104
63.16125 153
63.18136 128
63.20147 135
63.22159 118
63.2417 133
63.26182 129
63.28193 133
63.30204 139
63.32216 128
63.34227 106
63.36238 146
63.3825 121
63.40261 128
63.42272 130
63.44284 136
63.46295 125
63.48307 122
63.50318 119
63.52329 105
63.54341 147
63.56352 134
63.58363 129
63.60375 129
63.62386 118
63.64398 145
63.66409 172
63.6842 132
63.70432 143
63.72443 155
63.74454 175
63.76466 184
63.78477 160
63.80489 206
63.825 201
63.84511 227
63.86523 266
63.88534 278
63.90545 318
63.92557 376
63.94568 418
63.96579 475
63.98591 509
64.00602 496
64.02614 492
64.04625 444
64.06636 369
64.08648 348
64.10659 285
64.1267 307
64.14682 241
64.16693 329
64.18705 310
64.20716 324
64.22727 225
64.24739 201
64.2675 203
64.28761 169
64.30773 141
64.32784 154
64.34796 122
64.36807 111
64.38818 159
64.4083 104
64.42841 112
64.44852 114
64.46864 125
64.48875 136
64.50886 124
64.52898 128
64.54909 113
64.56921 110
64.58932 106
64.60943 106
64.62955 111
64.64966 122
64.66977 122
64.68989 112
64.71 103
64.73012 109
64.75023 120
64.77034 121
64.79046 132
64.81057 104
64.83068 147
64.8508 108
64.87091 113
64.89102 133
64.91114 124
64.93125 117
64.95137 104
64.97148 122
64.99159 104
65.01171 118
65.03182 112
65.05193 116
65.07205 130
65.09216 122
65.11228 136
65.13239 124
65.1525 121
65.17262 126
65.19273 116
65.21284 118
65.23296 124
65.25307 124
65.27319 141
65.2933 140
65.31341 109
65.33353 139
65.35364 119
65.37375 128
65.39387 130
65.41398 125
65.43409 141
65.45421 123
65.47432 151
65.49444 123
65.51455 123
65.53466 121
65.55478 144
65.57489 149
65.595 143
65.61512 147
65.63523 135
65.65535 162
65.67546 201
65.69557 165
65.71569 199
65.7358 212
65.75591 228
65.77603 206
65.79614 200
65.81626 182
65.83637 175
65.85648 172
65.8766 179
65.89671 170
65.91682 166
65.93694 184
65.95705 178
65.97716 158
65.99728 162
66.01739 141
66.03751 148
66.05762 143
66.07773 130
66.09785 149
66.11796 126
66.13807 121
66.15819 133
66.1783 119
66.19842 122
66.21853 129
66.23864 163
66.25876 128
66.27887 139
66.29898 128
66.3191 120
66.33921 134
66.35933 140
66.37944 136
66.39955 113
66.41967 126
66.43978 129
66.45989 132
66.48001 134
66.50012 132
66.52023 131
66.54035 121
66.56046 128
66.58058 125
66.60069 118
66.6208 131
66.64092 110
66.66103 133
66.68114 124
66.70126 122
66.72137 116
66.74149 110
66.7616 130
66.78171 113
66.80183 127
66.82194 143
66.84205 136
66.86217 117
66.88228 153
66.90239 148
66.92251 136
66.94262 129
66.96274 163
66.98285 139
67.00296 155
67.02308 125
67.04319 147
67.0633 158
67.08342 159
67.10353 151
67.12365 170
67.14376 146
67.16387 146
67.18399 170
67.2041 158
67.22421 170
67.24433 161
67.26444 162
67.28456 177
67.30467 182
67.32478 188
67.3449 198
67.36501 213
67.38512 221
67.40524 246
67.42535 271
67.44546 245
67.46558 283
67.48569 331
67.50581 395
67.52592 400
67.54603 485
67.56615 568
67.58626 644
67.60637 727
67.62649 897
67.6466 1035
67.66672 1180
67.68683 1314
67.70694 1370
67.72706 1367
67.74717 1243
67.76728 1209
67.7874 979
67.80751 867
67.82763 844
67.84774 867
67.86785 932
67.88797 984
67.90808 1014
67.92819 1026
67.94831 1058
67.96842 1012
67.98853 1023
68.00865 1089
68.02876 1225
68.04888 1326
68.06899 1568
68.0891 1631
68.10922 1745
68.12933 1786
68.14944 1727
68.16956 1648
68.18967 1460
68.20979 1448
68.2299 1470
68.25001 1576
68.27013 1678
68.29024 1641
68.31035 1593
68.33047 1470
68.35058 1279
68.3707 1033
68.39081 890
68.41092 716
68.43104 682
68.45115 666
68.47126 625
68.49138 575
68.51149 537
68.5316 449
68.55172 367
68.57183 296
68.59195 274
68.61206 210
68.63217 225
68.65229 203
68.6724 188
68.69251 161
68.71263 172
68.73274 170
68.75286 190
68.77297 169
68.79308 167
68.8132 160
68.83331 157
68.85342 143
68.87354 126
68.89365 125
68.91376 131
68.93388 132
68.95399 147
68.97411 158
68.99422 146
69.01433 145
69.03445 134
69.05456 111
69.07467 115
69.09479 155
69.1149 114
69.13502 152
69.15513 144
69.17524 132
69.19536 126
69.21547 123
69.23558 122
69.2557 116
69.27581 137
69.29593 119
69.31604 130
69.33615 109
69.35627 102
69.37638 130
69.39649 149
69.41661 117
69.43672 105
69.45683 137
69.47695 128
69.49706 107
69.51718 114
69.53729 119
69.5574 105
69.57752 108
69.59763 115
69.61774 117
69.63786 112
69.65797 126
69.67809 121
69.6982 104
69.71831 114
69.73843 107
69.75854 115
69.77865 94
69.79877 101
69.81888 122
69.839 106
69.85911 120
69.87922 119
69.89934 101
69.91945 122
69.93956 110
69.95968 113
69.97979 120
69.9999 117
70.02002 105
70.04013 122
70.06025 97
70.08036 123
70.10047 116
70.12059 103
70.1407 110
70.16081 108
70.18093 116
70.20104 116
70.22116 109
70.24127 107
70.26138 111
70.2815 113
70.30161 125
70.32172 97
70.34184 104
70.36195 107
70.38207 101
70.40218 93
70.42229 116
70.44241 102
70.46252 107
70.48263 107
70.50275 120
70.52286 99
70.54297 110
70.56309 116
70.5832 95
70.60332 106
70.62343 107
70.64354 95
70.66366 107
70.68377 110
70.70388 96
70.724 118
70.74411 113
70.76423 103
70.78434 111
70.80445 127
70.82457 111
70.84468 115
70.86479 108
70.88491 100
70.90502 95
70.92513 96
70.94525 118
70.96536 107
70.98548 104
71.00559 124
71.0257 108
71.04582 108
71.06593 110
71.08604 93
71.10616 112
71.12627 119
71.14639 100
71.1665 105
71.18661 112
71.20673 116
71.22684 92
71.24695 100
71.26707 112
71.28718 110
71.3073 111
71.32741 100
71.34752 121
71.36764 100
71.38775 108
71.40786 111
71.42798 134
71.44809 108
71.4682 103
71.48832 105
71.50843 98
71.52855 108
71.54866 114
71.56877 88
71.58889 118
71.609 113
71.62911 110
71.64923 116
71.66934 115
71.68946 85
71.70957 105
71.72968 102
71.7498 106
71.76991 108
71.79002 118
71.81014 115
71.83025 120
71.85037 115
71.87048 115
71.89059 101
71.91071 95
71.93082 98
71.95093 88
71.97105 112
71.99116 125
72.01127 115
72.03139 110
72.0515 112
72.07162 112
72.09173 123
72.11184 120
72.13196 123
72.15207 119
72.17218 117
72.1923 105
72.21241 113
72.23253 119
72.25264 105
72.27275 123
72.29287 95
72.31298 124
72.33309 118
72.35321 87
72.37332 105
72.39344 107
72.41355 115
72.43366 104
72.45378 98
72.47389 107
72.494 106
72.51412 97
72.53423 99
72.55434 101
72.57446 107
72.59457 104
72.61469 106
72.6348 103
72.65491 102
72.67503 112
72.69514 125
72.71525 104
72.73537 129
72.75548 119
72.7756 103
72.79571 105
72.81582 112
72.83594 111
72.85605 119
72.87616 131
72.89628 97
72.91639 104
72.9365 123
72.95662 120
72.97673 119
72.99685 113
73.01696 126
73.03707 128
73.05719 141
73.0773 130
73.09741 144
73.11753 141
73.13764 135
73.15776 160
73.17787 157
73.19798 151
73.2181 198
73.23821 217
73.25832 212
73.27844 258
73.29855 246
73.31867 298
73.33878 335
73.35889 371
73.37901 449
73.39912 480
73.41923 493
73.43935 562
73.45946 483
73.47957 459
73.49969 389
73.5198 342
73.53992 299
73.56003 268
73.58014 312
73.60026 353
73.62037 302
73.64048 351
73.6606 315
73.68071 304
73.70083 267
73.72094 233
73.74105 195
73.76117 158
73.78128 126
73.80139 134
73.82151 129
73.84162 156
73.86174 118
73.88185 110
73.90196 111
73.92208 127
73.94219 97
73.9623 100
73.98242 105
74.00253 113
74.02264 115
74.04276 109
74.06287 112
74.08299 129
74.1031 111
74.12321 124
74.14333 101
74.16344 103
74.18355 107
74.20367 101
74.22378 99
74.2439 120
74.26401 98
74.28412 104
74.30424 106
74.32435 105
74.34446 102
74.36458 113
74.38469 103
74.40481 107
74.42492 102
74.44503 108
74.46515 109
74.48526 107
74.50537 103
74.52549 90
74.5456 112
74.56571 97
74.58583 102
74.60594 110
74.62606 114
74.64617 118
74.66628 100
74.6864 115
74.70651 107
74.72662 122
74.74674 131
74.76685 118
74.78697 106
74.80708 100
74.82719 120
74.84731 94
74.86742 107
74.88753 124
74.90765 116
74.92776 107
74.94787 96
74.96799 121
74.9881 102
75.00822 98
