3.00117 19530.5155808031
3.02128 19545.6031790885
3.0414 18630
3.06151 18474.8970872452
3.08162 17846.0808308837
3.10174 17118.6712608899
3.12185 17158.1949389556
3.14197 16232.8487155025
3.16208 16157.2468295499
3.18219 15468.3630204284
3.20231 14987.8307878635
3.22242 14705.8051058353
3.24253 14357.8597662703
3.26265 13508.1529398675
3.28276 13553.5693591987
3.30288 12820.5747585256
3.32299 12559.1920490097
3.3431 11922
3.36322 11688.0609238671
3.38333 11648.2653856391
3.40344 10865.8884655351
3.42356 10610.7655779127
3.44367 10103.2818324709
3.46379 10190.0612220294
3.4839 9624
3.50401 9070.89523780948
3.52413 8977.49258703096
3.54424 8415.2102212325
3.56435 8365.76852938156
3.58447 8227.80499267273
3.60458 7564.33719425652
3.62469 7533.09405264483
3.64481 7081.82575439436
3.66492 6976.92340614793
3.68504 6644.70418855349
3.70515 6009.45107568724
3.72526 6120.08217875694
3.74538 5775.31566548953
3.76549 5693.98402663973
3.7856 5599
3.80572 5129.63612893765
3.82583 4939.74089934953
3.84595 4705.47218959895
3.86606 4622.85573203634
3.88617 4621.49398946408
3.90629 4132.10886529419
3.9264 4170
3.94651 3727.79886728332
3.96663 3660.35150989946
3.98674 3820.48558672267
4.00686 3254.82426002978
4.02697 3196.92750078203
4.04708 3136.13374149372
4.0672 3046
4.08731 3073.9017408721
4.10742 2682.6656648336
4.12754 2571.06695882818
4.14765 2584.23579588733
4.16776 2441.08770227464
4.18788 2450.1314140418
4.20799 2218.04775430372
4.22811 2271.99077744779
4.24822 2108.84330238935
4.26833 2071.06866428717
4.28845 2058.56027712634
4.30856 1832.10866843875
4.32867 1945.91321787075
4.34879 1824.10004384407
4.3689 1725
4.38902 1841.92071580146
4.40913 1599.78953278178
4.42924 1632.02998565141
4.44936 1560.07674742254
4.46947 1642.74281787209
4.48958 1748.08658207892
4.5097 1511
4.52981 1440.01973632891
4.54992 1494.00939160807
4.57004 1456.94693392587
4.59015 1451.07813969108
4.61027 1394.05404190568
4.63038 1370.06654791847
4.65049 1272.03086101917
4.67061 1306.06116239302
4.69072 1379.894614802
4.71083 1178.87913026793
4.73095 1247.07955674837
4.75106 1173.12872987311
4.77118 1186.95327270545
4.79129 1187.04044567931
4.8114 1062
4.83152 1064.09809641219
4.85163 1160.99891712704
4.87174 1071.85571391491
4.89186 1066.9821570699
4.91197 1023.16389494
4.93209 935.98123879796
4.9522 1041
4.97231 958.990418596901
4.99243 998.908127498015
5.01254 846.857759773842
5.03265 916.748829307133
5.05277 939.084239264406
5.07288 866.027515047555
5.09299 881.003590049436
5.11311 830.975923334031
5.13322 825.032798281227
5.15334 857.995160772589
5.17345 821.918750736528
5.19356 810.021186271892
5.21368 787.02927436605
5.23379 749.027174320598
5.2539 720
5.27402 807.040490826404
5.29413 763.883235921455
5.31425 696.856219148354
5.33436 667.956667896389
5.35447 711.976041417718
5.37459 682.021726271231
5.3947 659
5.41481 655.983485361378
5.43493 608.974726098871
5.45504 636.082207371183
5.47516 647.068225690058
5.49527 618.933430332069
5.51538 683.036432691187
5.5355 577
5.55561 647.011256857598
5.57572 579.941988465443
5.59584 565.935824262236
5.61595 517.996043889061
5.63606 559.983905305742
5.65618 554.922925793138
5.67629 658.012079501989
5.69641 523.963758778116
5.71652 573.060858279697
5.73663 567.940173564188
5.75675 526.903146033462
5.77686 506.974033092444
5.79697 531.997017204699
5.81709 511.004384441893
5.8372 530
5.85732 522.936049989181
5.87743 445.966712337269
5.89754 487.0915861349
5.91766 491.053299945346
5.93777 482.927072306544
5.95788 543.01297098453
5.978 473
5.99811 499.994559546011
6.01823 442.969995636753
6.03834 468.997605307141
6.05845 421.101100760692
6.07857 427.938874450176
6.09868 463.994420043124
6.11879 456.988174426521
6.13891 492.993117915995
6.15902 432.959589776756
6.17913 450.070998610538
6.19925 464.866121895832
6.21936 394.994202203207
6.23948 450.999374129408
6.25959 398.996608264135
6.2797 466
6.29982 406.949738974906
6.31993 415.04847495034
6.34004 431.991204041917
6.36016 409.064777425235
6.38027 388.991262731532
6.40039 418.980644181077
6.4205 433
6.44061 384.988664465455
6.46073 408.068350947638
6.48084 430.955226980848
6.50095 385.060906787392
6.52107 409.913979662397
6.54118 455.993276494285
6.56129 433.007682552127
6.58141 427.985551696624
6.60152 377.96668791173
6.62164 379.032104844133
6.64175 385.98238968365
6.66186 374.005543204855
6.68198 380.996715945238
6.70209 372.008155722135
6.7222 373
6.74232 422.013072689486
6.76243 393.958041627416
6.78255 387.993618371833
6.80266 377.024851882003
6.82277 372.988648685362
6.84289 385.995535094466
6.863 383
6.88311 371.000018704797
6.90323 381.011000550613
6.92334 378.988867417991
6.94346 371.029589024132
6.96357 364.965445690529
6.98368 399.990991608645
7.0038 376
7.02391 364.995395691516
7.04402 369.042033261726
7.06414 402.908908424897
7.08425 323.984738482139
7.10436 410.909596564988
7.12448 371.045887677943
7.14459 379.977081023043
7.16471 409.989400463222
7.18482 359.979162050418
7.20493 393.081132257234
7.22505 409.883840665959
7.24516 341.046238720854
7.26527 366.983254171078
7.28539 344.006182040765
7.3055 365
7.32562 386.008377472151
7.34573 375.950350951425
7.36584 346.009134638652
7.38596 383.923269747747
7.40607 376.103050855864
7.42618 311.978140411579
7.4463 391
7.46641 339.979823854695
7.48653 364.083271056478
7.50664 395.970730286064
7.52675 354.066383672605
7.54687 355.99746600616
7.56698 349.992147764965
7.58709 361.009119747921
7.60721 334.008740044643
7.62732 376.996186600051
7.64743 325.960419528254
7.66755 346.042868995681
7.68766 340.995081826757
7.70778 352.009189480731
7.72789 317.018616397147
7.748 315
7.76812 369.001616705397
7.78823 326.972054750475
7.80834 357.074883509297
7.82846 365.035489475546
7.84857 343.012629779127
7.86869 342.008677547512
7.8888 323
7.90891 366.008144821399
7.92903 336.937502799966
7.94914 327.068282686485
7.96925 370.984133605241
7.98937 347.000096184776
8.00948 380.976441107122
8.0296 360
8.04971 313.998797072831
8.06982 343.01423570421
8.08994 328.98021821998
8.11005 346.086328261435
8.13016 377.964551421899
8.15028 357.072905028104
8.17039 287.997260885225
8.1905 347
8.21062 314.991466109312
8.23073 348.024727408795
8.25085 323.922957761359
8.27096 321.941689230043
8.29107 355.985311255119
8.31119 346.996737158269
8.3313 369
8.35141 345.989458137431
8.37153 338.987889080158
8.39164 334.035118266354
8.41176 351.052645737522
8.43187 301.016259485649
8.45198 335.97546336387
8.4721 334
8.49221 373.02035709063
8.51232 388.989935594097
8.53244 367.969083033304
8.55255 367.976895317405
8.57266 355.120285402807
8.59278 294.986158099465
8.61289 363.984367265451
8.63301 337.994804980452
8.65312 357.992539222571
8.67323 310.939128797081
8.69335 314.096832674761
8.71346 350.990317687628
8.73357 333.002637515104
8.75369 365.976617347136
8.7738 391
8.79392 355.97237384682
8.81403 355.023153202563
8.83414 365.991514548856
8.85426 357.979077978147
8.87437 377.007103538294
8.89448 348.021155766043
8.9146 339
8.93471 300.988715949673
8.95483 310.041925839461
8.97494 333.012585528738
8.99505 328.991206545273
9.01517 344.976964647281
9.03528 345.017147106219
9.05539 322.007669913363
9.07551 317.998941534049
9.09562 320.01783927806
9.11573 338.990212349166
9.13585 327.072728648335
9.15596 371.028709796805
9.17608 306.034514243248
9.19619 323.994017686631
9.2163 306
9.23642 318.023460258839
9.25653 331.995578612506
9.27664 316.970446243905
9.29676 311.001092232979
9.31687 317.969961276949
9.33699 337.999528293433
9.3571 323
9.37721 334.011221833294
9.39733 340.959066485253
9.41744 301.982034691929
9.43755 324.961582825209
9.45767 331.944503365606
9.47778 370.029188297711
9.4979 299
9.51801 344.0124643751
9.53812 316.972178913559
9.55824 314.999783728035
9.57835 316.063150802417
9.59846 338.064407499063
9.61858 279.006919239062
9.63869 343.961247943076
9.6588 366
9.67892 309.99487447555
9.69903 343.997827807085
9.71915 302.9743293675
9.73926 329.004246527317
9.75937 295.007672034818
9.77949 315.009753451335
9.7996 261
9.81971 295.016468664658
9.83983 313.062606078773
9.85994 348.92273959126
9.88006 261.083495673976
9.90017 297.918923880894
9.92028 323.986414183789
9.9404 336
9.96051 329.991977883293
9.98062 315.999391525027
10.00074 324.001228966933
10.02085 319.974938988712
10.04097 336.007453007558
10.06108 312.01386524742
10.08119 317.996688098685
10.10131 313.996670437937
10.12142 317.017065602761
10.14153 331.988209275989
10.16165 304.945971461854
10.18176 310.936868578211
10.20187 336.018149266507
10.22199 300.00784003684
10.2421 323
10.26222 331.967166003171
10.28233 286.981664542873
10.30244 305.002817577708
10.32256 295.933347893193
10.34267 350.996229080207
10.36278 302.02500644403
10.3829 331
10.40301 325.9730504813
10.42313 268.989437389694
10.44324 313.087478528264
10.46335 319.046803478901
10.48347 306.980442035692
10.50358 333.988841758019
10.52369 321.007887105174
10.54381 307.987160515628
10.56392 284.008038505844
10.58403 323.057729819822
10.60415 333.9677340849
10.62426 312.039089038712
10.64438 308.983329530918
10.66449 327.999737092819
10.6846 308
10.70472 316.050543343519
10.72483 372.015980593479
10.74494 323.860477934598
10.76506 281.999707587181
10.78517 305.9760168115
10.80529 307.993191027434
10.8254 334
10.84551 328.99831760316
10.86563 339.022974965379
10.88574 343.973636038116
10.90585 323.025480165783
10.92597 323.012869605832
10.94608 308.000209210597
10.9662 331
10.98631 353.000852686612
11.00642 329.956924473394
11.02654 291.977048085058
11.04665 299.008597675078
11.06676 289.961353305593
11.08688 327.987615528249
11.10699 314.997056753863
11.1271 334
11.14722 286.982892547724
11.16733 319.063055112202
11.18745 321.883013798369
11.20756 267.019606971514
11.22767 303.950899994412
11.24779 307.000801746775
11.2679 314
11.28801 309.998131850255
11.30813 311.003646445419
11.32824 304.958074494906
11.34836 289.962465751705
11.36847 332.955676968656
11.38858 327.026329040968
11.4087 303
11.42881 305.007710803632
11.44892 325.017686945859
11.46904 343.054540428892
11.48915 362.041002467791
11.50927 324.027613331221
11.52938 330.005643715568
11.54949 310.000366957945
11.56961 324.996783860423
11.58972 297.990554912736
11.60983 322.053149046262
11.62995 340.989984534093
11.65006 326.01491367253
11.67017 332.984942777552
11.69029 337.998438707588
11.7104 347
11.73052 361.991387466194
11.75063 342.000239198705
11.77074 353.968448777397
11.79086 320.005017103143
11.81097 355.952031515189
11.83108 347.044665236375
11.8512 313
11.87131 361.006190192494
11.89143 332.987377111582
11.91154 355.007318017264
11.93165 339.963441747876
11.95177 373.012848463288
11.97188 328.015864686902
11.99199 352.993933765404
12.01211 333.992651499727
12.03222 355.052764866272
12.05234 396.983303082809
12.07245 353.94287111868
12.09256 361.01500776656
12.11268 346.96787111344
12.13279 401.99941730125
12.1529 359
12.17302 411.028905434749
12.19313 395.993012180823
12.21324 421.039573221865
12.23336 429.946486079209
12.25347 459.020403055515
12.27359 417.005386084743
12.2937 439
12.31381 418.013004273271
12.33393 475.009773323103
12.35404 434.996387038007
12.37415 479.961501744746
12.39427 440.067252197247
12.41438 430.982353851117
12.4345 448
12.45461 415.972787687469
12.47472 358.954025668612
12.49484 346.059112703631
12.51495 381.016752479339
12.53506 338.053493610282
12.55518 350.97617015104
12.57529 351.01490681485
12.5954 327
12.61552 364.975998414385
12.63563 291.95095307876
12.65575 322.06723517469
12.67586 308.05417362312
12.69597 288.03005080512
12.71609 281.985201167282
12.7362 324
12.75631 297.991073511883
12.77643 302.999660586639
12.79654 286.971575449806
12.81666 289.96358758561
12.83677 306.002838316157
12.85688 287.019435439394
12.877 290
12.89711 318.993732672813
12.91722 276.979385955941
12.93734 288.005205313855
12.95745 267.048684976802
12.97757 272.954149769261
12.99768 312.965667242284
13.01779 320.013767006918
13.03791 282.993190868296
13.05802 295.007477314225
13.07813 293.020265914281
13.09825 310.965701547514
13.11836 275.024486313365
13.13847 291.990683624252
13.15859 272.010701179078
13.1787 275
13.19882 304.002132876773
13.21893 279.966313311167
13.23904 283.050335757392
13.25916 297.054867975999
13.27927 254.003151371677
13.29938 292.976467764956
13.3195 283
13.33961 291.997408603567
13.35973 273.998757737247
13.37984 286.987448971978
13.39995 262.024317724173
13.42007 271.0037356852
13.44018 250.016032753406
13.46029 255.989104661346
13.48041 280.009184272481
13.50052 286.997233587047
13.52064 279.985330967442
13.54075 273.983277649557
13.56086 269.991471066662
13.58098 285.974544113304
13.60109 298.01126764231
13.6212 266
13.64132 305.023046729045
13.66143 294.983621166039
13.68154 294.981683575697
13.70166 278.006107003196
13.72177 296.958843107323
13.74189 300.020518103229
13.762 249
13.78211 271.991601542365
13.80223 235.047786188871
13.82234 318.054485070939
13.84245 277.038470251705
13.86257 306.99801279347
13.88268 273.001634717916
13.9028 301
13.92291 245.986373331135
13.94302 269.026580718865
13.96314 261.937078713029
13.98325 246.916187869793
14.00336 296.002247922917
14.02348 255.00454280275
14.04359 300.982979922546
14.06371 285.980477491828
14.08382 261.002815875916
14.10393 273.98807100843
14.12405 248.982591276424
14.14416 265.976149290225
14.16427 253.04321153526
14.18439 239.987114254296
14.2045 286
14.22461 274.991108927166
14.24473 265.980992535475
14.26484 251.999565518109
14.28496 264.979079960652
14.30507 263.013300388691
14.32518 259.989894190055
14.3453 272
14.36541 254.997021846294
14.38552 263.001770693796
14.40564 257.00962845404
14.42575 270.00044607548
14.44587 251.032990885548
14.46598 252.962628312757
14.48609 290.005616290743
14.50621 240.985960223685
14.52632 251.007294049084
14.54643 238.989264567275
14.56655 247.023730123266
14.58666 245.025735578305
14.60677 238.972899201749
14.62689 269.992488960658
14.647 261
14.66712 266.022906378306
14.68723 280.970773569846
14.70734 241.966341674238
14.72746 251.999450240056
14.74757 233.016610081277
14.76768 244.976992378539
14.7878 265
14.80791 268.995280289702
14.82803 253.985595334029
14.84814 255.012296229328
14.86825 262.97058378029
14.88837 272.999407663998
14.90848 271.986422091219
14.92859 286.007983192943
14.94871 252.996847634565
14.96882 279.020415845277
14.98894 271.962457724246
15.00905 263.017373309915
15.02916 272.017936412932
15.04928 253.000939242155
15.06939 271.993683112987
15.0895 263
15.10962 252.006612311569
15.12973 266.003436979199
15.14984 258.004073738219
15.16996 272.979354276433
15.19007 269.015885890829
15.21019 259.004857032336
15.2303 253
15.25041 263.007458731985
15.27053 269.984032089606
15.29064 248.971515973463
15.31075 249.980175062862
15.33087 254.003750455912
15.35098 245.012795509784
15.3711 246
15.39121 277.99599142471
15.41132 233.966320664002
15.43144 234.023103918924
15.45155 246.934881785731
15.47166 270.016994101935
15.49178 232.036453829164
15.51189 225.988526417973
15.53201 257.009595101657
15.55212 252.980806207347
15.57223 236.996813113061
15.59235 241.987316374707
15.61246 235.961356463392
15.63257 270.978540509406
15.65269 258.005327887565
15.6728 252
15.69291 221.006875651047
15.71303 269.036271254189
15.73314 246.933492465584
15.75326 237.967345874863
15.77337 265.962814969583
15.79348 265.034794881795
15.8136 229
15.83371 267.012118403661
15.85382 250.964469560404
15.87394 233.03293462639
15.89405 264.971821919037
15.91417 247.029837880948
15.93428 244.991418817928
15.95439 259.987841808922
15.97451 265.978386016828
15.99462 206.990334019317
16.01473 256.078564149436
16.03485 272.99243325764
16.05496 264.032671552367
16.07508 250.997180926109
16.09519 260.003478056914
16.1153 236
16.13542 230.999294459635
16.15553 237.038331148933
16.17564 258.964215807214
16.19576 227.961587471354
16.21587 281.985181815435
16.23598 236.034412740427
16.2561 247
16.27621 256.000686950691
16.29633 246.956940447074
16.31644 208.946080549602
16.33655 213.90518058634
16.35667 251.994708955558
16.37678 227.012958643847
16.39689 239.993802884328
16.41701 233.992139169093
16.43712 220.993797725004
16.45724 231.063342771178
16.47735 265.027419953114
16.49746 248.049505225061
16.51758 240.983531352136
16.53769 267.990773462072
16.5578 275
16.57792 282.981340089502
16.59803 241.947119878989
16.61814 230.003240889267
16.63826 239.95463974205
16.65837 258.013316469422
16.67849 232.005408009345
16.6986 242
16.71871 226.989215432092
16.73883 220.024456697397
16.75894 246.026382657801
16.77905 248.956749531332
16.79917 271.011963810483
16.81928 237.02098131087
16.8394 245
16.85951 260.016441747541
16.87962 289.988605200248
16.89974 244.935474791312
16.91985 250.939903749897
16.93996 261.032034735516
16.96008 237.998522838709
16.98019 259.996498548578
17.00031 246.998720808139
17.02042 260.003301894681
17.04053 247.988379791153
17.06065 252.009703476377
17.08076 249.009559417285
17.10087 251.977173666056
17.12099 256.017633991193
17.1411 214
17.16121 271.014953605708
17.18133 248.958275117905
17.20144 247.019805062879
17.22156 256.976031464847
17.24167 269.984008519494
17.26178 265.030687371504
17.2819 229
17.30201 251.014759090364
17.32212 261.990527926206
17.34224 256.046615748444
17.36235 296.94900769905
17.38247 274.077030701545
17.40258 232.00884141792
17.42269 254.985095941412
17.44281 270.001508351141
17.46292 270.002901049144
17.48303 279.018414295284
17.50315 277.929462981489
17.52326 249.97187504804
17.54338 289.992060505831
17.56349 254.016856653231
17.5836 247
17.60372 244.009668763061
17.62383 258.997970445582
17.64394 238.961317408197
17.66406 248.902747016955
17.68417 294.016614763864
17.70428 246.012832597886
17.7244 276
17.74451 242.985071839074
17.76463 251.054762105606
17.78474 280.994557769934
17.80485 257.019089816584
17.82497 271.990351841436
17.84508 266.988183407326
17.86519 288.003013059877
17.88531 258.994258164178
17.90542 266.989363678611
17.92554 246.03037992058
17.94565 289.03985928458
17.96576 267.032578103181
17.98588 270.007485360441
18.00599 248.005220836831
18.0261 253
18.04622 244.004630956959
18.06633 263.019430613117
18.08645 261.992973601124
18.10656 263.9974628912
18.12667 256.030205328484
18.14679 244.988681642963
18.1669 287
18.18701 278.995351105985
18.20713 276.977967267536
18.22724 267.064415106026
18.24735 308.054231411497
18.26747 240.039022390667
18.28758 283.946280565841
18.3077 287
18.32781 230.991199374888
18.34792 260.03850579459
18.36804 270.965715696168
18.38815 238.088147006196
18.40826 222.969612837887
18.42838 251.984030064925
18.44849 246.005173025295
18.46861 253.014212550927
18.48872 286.016055278401
18.50883 274.95931917043
18.52895 260.037157286625
18.54906 288.981276232031
18.56917 265.056322950316
18.58929 247.9907551939
18.6094 282
18.62951 264.9876640073
18.64963 252.996901647459
18.66974 261.042151049634
18.68986 283.979853734251
18.70997 284.98499082964
18.73008 300.002404913523
18.7502 281
18.77031 283.000263987684
18.79042 274.992161896366
18.81054 265.960126159433
18.83065 244.011921701697
18.85077 264.945812694843
18.87088 283.023367327231
18.89099 242.005550675151
18.91111 267.009950000398
18.93122 263.997066407539
18.95133 274.019181524686
18.97145 275.968846959305
18.99156 254.044870645718
19.01168 245.987120387805
19.03179 264.998176821859
19.0519 253
19.07202 255.995577719539
19.09213 246.004902806042
19.11224 260.006783186149
19.13236 251.997822464231
19.15247 265.984756816292
19.17258 264.005857558966
19.1927 260
19.21281 263.010700145349
19.23293 283.985958309353
19.25304 258.001830789195
19.27315 288.948972695743
19.29327 284.007580520157
19.31338 289.000200703777
19.33349 286.992581186876
19.35361 311.003224876675
19.37372 299.998099705765
19.39384 309.996431024766
19.41395 299.014786586001
19.43406 318.990150258595
19.45418 302.016740318774
19.47429 308.983914427966
19.4944 346
19.51452 353.02190566754
19.53463 380.996399865915
19.55475 348.938775244499
19.57486 352.966312562803
19.59497 369.970223031764
19.61509 385.998879512689
19.6352 393
19.65531 432.989245197027
19.67543 395.078266167759
19.69554 508.074739789948
19.71565 459.026557951858
19.73577 520.934608891756
19.75588 516.990448858337
19.776 572
19.79611 625.01576511858
19.81622 641.009497525281
19.83634 637.938397715807
19.85645 599.028424361884
19.87656 632.876969061704
19.89668 672.016930993521
19.91679 617.020625894682
19.93691 629.026777288285
19.95702 675.000112419182
19.97713 612.846834407209
19.99725 539.006173974955
20.01736 597.905354792894
20.03747 586.077645737942
20.05759 551.988674597633
20.0777 594
20.09782 525.960266373466
20.11793 528.970481738092
20.13804 487.003662712074
20.15816 550.845319882129
20.17827 583.037726059363
20.19838 543.997251677208
20.2185 581
20.23861 547.9887539086
20.25872 558.013504339894
20.27884 556.990568552105
20.29895 541.112595427801
20.31907 499.9774342927
20.33918 565.940971346921
20.35929 580.006127654263
20.37941 565.99503776596
20.39952 561.998243260069
20.41963 568.034439222747
20.43975 598.043644101598
20.45986 589.060113632729
20.47998 566.9897217785
20.50009 602.984719685567
20.5202 606
20.54032 601.027889658536
20.56043 648.045060685973
20.58054 633.90028715709
20.60066 616.846732713839
20.62077 741.901458160623
20.64088 738.974677291316
20.661 823
20.68111 886.057600759939
20.70123 1083.36150816729
20.72134 1351.61813180604
20.74145 1705.05661874126
20.76157 2149.15825584183
20.78168 2801.35134099242
20.80179 3492.57345056991
20.82191 4387.33477880692
20.84202 4751.22283093788
20.86214 4860.70626076155
20.88225 4398.28349135973
20.90236 3654.40679041686
20.92248 2968.76394558845
20.94259 2165.34112719334
20.9627 1647
20.98282 1228.69094582007
21.00293 1025.75071863068
21.02305 864.718560386123
21.04316 815.024509467184
21.06327 792.082962954519
21.08339 723.02043496628
21.1035 711
21.12361 661.975496696183
21.14373 615.903238916543
21.16384 556.987138955191
21.18395 584.013045241105
21.20407 550.985744375155
21.22418 602.976411301994
21.2443 571
21.26441 552.000003625973
21.28452 561.014079572171
21.30464 581.060565307268
21.32475 599.054579677132
21.34486 533.172297074058
21.36498 480.985765192236
21.38509 547.963194844555
21.40521 570.979961304712
21.42532 511.97919997895
21.44543 527.992710636932
21.46555 487.920877971138
21.48566 488.969663781372
21.50577 506.958311337167
21.52589 511.030353401723
21.546 420
21.56612 438.020720486476
21.58623 433.000351648257
21.60634 464.112303959908
21.62646 491.103482499524
21.64657 400.060629037939
21.66668 419.999001044052
21.6868 386
21.70691 422.012889056011
21.72702 422.009458141575
21.74714 452.052066181626
21.76725 442.13413085643
21.78737 383.025765932009
21.80748 403.991407374414
21.82759 393.992137264214
21.84771 419.988067741862
21.86782 362.987062307188
21.88793 415.091567562135
21.90805 439.996029206936
21.92816 423.061373103874
21.94828 405.976976878517
21.96839 445.996473506269
21.9885 417
22.00862 428.012436113714
22.02873 429.006450672869
22.04884 443.030411117494
22.06896 443.046527601965
22.08907 404.057769742368
22.10919 383.999424257634
22.1293 405
22.14941 413.970524824904
22.16953 337.998518393224
22.18964 413.121288405496
22.20975 407.089024679807
22.22987 377.03873602967
22.24998 364.986536161179
22.27009 396.984235546826
22.29021 410.998863777768
22.31032 388.953631167164
22.33044 355.041301711633
22.35055 416.112299111018
22.37066 411.06648437134
22.39078 388.992678663974
22.41089 403.010030582311
22.431 362
22.45112 387.002549105679
22.47123 350.946436995759
22.49135 353.09759119107
22.51146 403.92533981772
22.53157 404.05492321418
22.55169 354.019923826702
22.5718 342
22.59191 357.002547718825
22.61203 358.024697025496
22.63214 381.00156785739
22.65225 364.004140392349
22.67237 372.031517292953
22.69248 335.000668452484
22.7126 369
22.73271 351.99671595573
22.75282 372.020826400924
22.77294 381.019568937517
22.79305 380.089766532075
22.81316 328.048346795643
22.83328 339.98718719528
22.85339 339.995638472573
22.87351 356.000005348929
22.89362 357.041968223252
22.91373 406.976677055367
22.93385 338.915119807097
22.95396 369.918150303419
22.97407 382.002133905021
22.99419 383.996685480885
23.0143 384
23.03442 358.99534021768
23.05453 380.038996264939
23.07464 379.92643259708
23.09476 334.03159160502
23.11487 366.907704948704
23.13498 396.04532358639
23.1551 313
23.17521 345.028558378309
23.19532 384.02440051408
23.21544 387.947012926757
23.23555 358.982346104245
23.25567 397.957761493841
23.27578 393.01807919256
23.29589 383.000285923127
23.31601 378.989265931043
23.33612 351.993885639035
23.35623 376.055703549637
23.37635 403.024441789231
23.39646 392.056827716278
23.41658 363.015405329403
23.43669 363.996812258737
23.4568 358
23.47692 328.989341720114
23.49703 353.079410648576
23.51714 393.985881326811
23.53726 363.983664568377
23.55737 406.980021531659
23.57749 375.01413550468
23.5976 374
23.61771 356.984667839122
23.63783 335.007491726871
23.65794 360.039690394175
23.67805 361.017021083331
23.69817 361.980135131577
23.71828 380.986554710433
23.73839 384.000656342262
23.75851 385.001880085567
23.77862 394.016137326547
23.79874 403.976743399984
23.81885 380.978461873726
23.83896 388.99724485266
23.85908 380.996857818565
23.87919 405.981633757718
23.8993 429
23.91942 410.002557097902
23.93953 436.026475344774
23.95965 432.988398741277
23.97976 439.974449625479
23.99987 438.047293997595
24.01999 400.002915369909
24.0401 413
24.06021 361.985896408903
24.08033 370.006607755048
24.10044 365.038874561113
24.12056 399.985742644651
24.14067 377.018599696979
24.16078 381.014357470068
24.1809 371
24.20101 449.004548574924
24.22112 383.950142605616
24.24124 394.052860150709
24.26135 402.998149363674
24.28146 403.005416738287
24.30158 395.013746749788
24.32169 383.999498487745
24.34181 393.001859832245
24.36192 390.00199821584
24.38203 388.964511915218
24.40215 365.044955446529
24.42226 400.030735758534
24.44237 344.028992212763
24.46249 380.982225036908
24.4826 383
24.50272 381.993471883662
24.52283 380.035500535265
24.54294 405.967183217342
24.56306 358.046683361492
24.58317 385.924425045561
24.60328 407.031969347159
24.6234 346
24.64351 357.024593724713
24.66362 415.050841795329
24.68374 437.978162746263
24.70385 417.995464086815
24.72397 444.963161439463
24.74408 453.992553367019
24.76419 475.980911551967
24.78431 521.019894459084
24.80442 525.951808215424
24.82453 457.947127846581
24.84465 472.070926456549
24.86476 488.971871113221
24.88488 497.010290843666
24.90499 481.996855439465
24.9251 510
24.94522 497.94589274183
24.96533 446.002204350136
24.98544 487.031573825185
25.00556 459.05120636978
25.02567 457.999720819325
25.04579 442.012924174797
25.0659 424
25.08601 433.997464541391
25.10613 415.991942180328
25.12624 439.083417877045
25.14635 466.030920414477
25.16647 436.00205372366
25.18658 460.997297647749
25.20669 451.98078112413
25.22681 514.000771337573
25.24692 450.952161621594
25.26704 469.111608073671
25.28715 504.964475003335
25.30726 461.045423174093
25.32738 472.990186873895
25.34749 455.017217853636
25.3676 433
25.38772 468.038922305699
25.40783 493.022137454712
25.42795 487.903936850924
25.44806 446.002287681954
25.46817 482.957383777966
25.48829 477.009902992901
25.5084 470
25.52851 493.009626223699
25.54863 500.000644639006
25.56874 503.017767914001
25.58886 505.041932396422
25.60897 475.01285995146
25.62908 495.971821311444
25.6492 515
25.66931 521.994229375125
25.68942 526.06380330886
25.70954 595.954489788406
25.72965 505.08757080196
25.74976 554.918460784717
25.76988 544.011308363448
25.78999 556.994774894768
25.81011 541.981768030967
25.83022 524.036967919704
25.85033 582.012255244434
25.87045 527.854501178766
25.89056 517.93252330001
25.91067 556.984894866607
25.93079 537.008511777082
25.9509 550
25.97102 578.993713074783
25.99113 553.999687890115
26.01124 583.038613645782
26.03136 593.915922378533
26.05147 653.96378667169
26.07158 633.021842919373
26.0917 661
26.11181 743.006873642785
26.13193 692.934442295674
26.15204 712.137988299145
26.17215 798.792144968094
26.19227 854.963609717793
26.21238 886.91731941015
26.23249 990.97463561132
26.25261 981.999090369764
26.27272 1019.04030863575
26.29283 1068.14601615919
26.31295 1199.26983018705
26.33306 1275.81937366623
26.35318 1397.87663688262
26.37329 1543.89191842076
26.3934 1823
26.41352 2095.30691825426
26.43363 2481.68475677267
26.45374 3020.25192056037
26.47386 3877.59496687197
26.49397 5325.83560597927
26.51409 6843.06317533514
26.5342 9233
26.55431 12208.6311488226
26.57443 15674.1674839921
26.59454 18794.2065799179
26.61465 20690.2236165399
26.63477 20879.2500129942
26.65488 19188.2666638392
26.67499 16550.5096224794
26.69511 13276.3545423993
26.71522 10130.0313655285
26.73534 7317.78089317238
26.75545 4999.24853152314
26.77556 3506.32691162324
26.79568 2554.7364676436
26.81579 2007.18033289965
26.8359 1723
26.85602 1411.79272756072
26.87613 1325.92017832895
26.89625 1229.69171007103
26.91636 1112.1816486035
26.93647 1055.05132354659
26.95659 999.054869822111
26.9767 878
26.99681 902.020159995794
27.01693 903.956851136538
27.03704 845.814675491265
27.05716 756.082768532467
27.07727 757.009617448302
27.09738 718.046261111887
27.1175 683
27.13761 654.987940510173
27.15772 627.961712128531
27.17784 584.936582540294
27.19795 579.945236148615
27.21806 589.087591166514
27.23818 518.031231366642
27.25829 548.975452549645
27.27841 578.006948505042
27.29852 582.996795629053
27.31863 575.989381912724
27.33875 575.019200678915
27.35886 593.940304926279
27.37897 626.958169110911
27.39909 647.99007485549
27.4192 662
27.43932 658.021254404864
27.45943 684.979775396084
27.47954 624.867547899249
27.49966 589.015454882034
27.51977 591.005703152855
27.53988 580.00387395973
27.56 566
27.58011 495.987342531803
27.60023 493.912578080364
27.62034 405.978778563014
27.64045 484.816803493146
27.66057 493.034680320728
27.68068 476.007447382972
27.70079 469.009387555739
27.72091 451.003990768176
27.74102 472.998842850427
27.76113 445.972358123397
27.78125 451.023387454811
27.80136 465.919223363936
27.82148 509.995101718893
27.84159 466.029878597113
27.8617 443
27.88182 498.018466317345
27.90193 467.949411608855
27.92204 459.000309110309
27.94216 454.017129489284
27.96227 444.015907045035
27.98239 437.99839036598
28.0025 429
28.02261 371.994056104855
28.04273 413.070504999512
28.06284 429.993596453405
28.08295 415.070144380852
28.10307 377.063752534138
28.12318 348.001940838171
28.1433 366
28.16341 378.011195974136
28.18352 402.000630853359
28.20364 383.985794241517
28.22375 382.927955206093
28.24386 341.011512600275
28.26398 371.980716906807
28.28409 358.01028515414
28.3042 354
28.32432 360.99234264891
28.34443 336.955745705776
28.36455 323.030826124435
28.38466 352.944537425222
28.40477 354.046426628822
28.42489 314.010051832806
28.445 329
28.46511 355.999317636984
28.48523 333.975460032503
28.50534 336.01450491651
28.52546 346.948070681358
28.54557 367.028086597156
28.56568 312.05520650664
28.5858 297
28.60591 330.994796410047
28.62602 299.016972307283
28.64614 352.01074624537
28.66625 301.080599847506
28.68636 313.979420012809
28.70648 301.008780602157
28.72659 305.99953120102
28.74671 298.999541043293
28.76682 309.011732595915
28.78693 315.002588386053
28.80705 326.080424925469
28.82716 349.057813122441
28.84727 290.036198333529
28.86739 315.986725943953
28.8875 317
28.90762 332.027302855523
28.92773 346.97271206832
28.94784 314.989076579127
28.96796 335.985767388963
28.98807 322.998819293114
29.00818 339.001436832953
29.0283 308
29.04841 296.015955824402
29.06853 347.042726873411
29.08864 324.880640341334
29.10875 280.96635440269
29.12887 334.946112671751
29.14898 326.022637786207
29.16909 323.989089585351
29.18921 349.001958881746
29.20932 331.986313026757
29.22943 330.99574073965
29.24955 325.010341889371
29.26966 332.021319112808
29.28978 310.006249564332
29.30989 320.000119249597
29.33 306
29.35012 321.022061511983
29.37023 336.008962769241
29.39034 343.039377105908
29.41046 360.026337744873
29.43057 330.008922002747
29.45069 349.996567790347
29.4708 337
29.49091 350.99927644067
29.51103 328.973702720017
29.53114 322.976191392303
29.55125 303.030627608575
29.57137 309.966669525464
29.59148 337.972271983884
29.6116 347
29.63171 312.994195623333
29.65182 324.000523858409
29.67194 307.989034326812
29.69205 319.016682511141
29.71216 313.012537406159
29.73228 314.993548085263
29.75239 326.988891011133
29.7725 341
29.79262 302.977152704351
29.81273 312.034135202513
29.83285 330.031065727398
29.85296 335.00779099084
29.87307 328.999863834084
29.89319 333.001246965416
29.9133 337
29.93341 372.993372098193
29.95353 331.001959671282
29.97364 371.004936407533
29.99376 316.110835247839
30.01387 308.948249369851
30.03398 345.993286312194
30.0541 320
30.07421 315.007053600696
30.09432 332.007722646999
30.11444 335.029365283165
30.13455 357.972599738766
30.15467 345.043180620612
30.17478 321.006163751108
30.19489 333.989750798204
30.21501 343.996396237184
30.23512 329.99637325301
30.25523 331.978901321622
30.27535 311.007779741518
30.29546 346.907798540054
30.31557 367.030945066412
30.33569 323.01744544118
30.3558 317
30.37592 328.006023624396
30.39603 330.005614440446
30.41614 331.981879266845
30.43626 321.982717460371
30.45637 335.02469097575
30.47648 298.014204098557
30.4966 307
30.51671 281.002659169774
30.53683 318.033147258692
30.55694 317.027062194975
30.57705 343.996964378164
30.59717 319.01870540928
30.61728 331.987272089991
30.63739 332.998315908781
30.65751 337.995844345213
30.67762 317.985058124424
30.69773 323.035098952364
30.71785 348.027365538521
30.73796 345.003242292699
30.75808 347.007501992505
30.77819 334.000582153739
30.7983 341
30.81842 314.967586047993
30.83853 307.051099178424
30.85864 357.043483462975
30.87876 341.038977543517
30.89887 334.018606601084
30.91899 310.011678954426
30.9391 302
30.95921 319.004455690367
30.97933 316.998170751892
30.99944 318.991998642171
31.01955 309.016421113902
31.03967 308.99926911397
31.05978 304.010298798833
31.0799 293
31.10001 295.00577011985
31.12012 311.014607690165
31.14024 308.943452017906
31.16035 276.014399764058
31.18046 297.962654553999
31.20058 290.02700250367
31.22069 274.989617642375
31.2408 311
31.26092 280.971059673491
31.28103 283.038748201586
31.30115 311.038084396141
31.32126 304.048126865264
31.34137 282.008281553306
31.36149 290.99640413666
31.3816 286
31.40171 279.001132677431
31.42183 286.003391709685
31.44194 279.983209908688
31.46206 275.996992687514
31.48217 276.014230845255
31.50228 265.993347431835
31.5224 280
31.54251 257.995308449063
31.56262 276.030964347258
31.58274 295.997826385032
31.60285 280.036440713688
31.62297 285.95561422631
31.64308 315.996473533953
31.66319 285.023256109631
31.68331 255.000250748042
31.70342 272.005747843521
31.72353 266.013910596931
31.74365 287.005059746922
31.76376 270.010883715015
31.78387 288.961398203201
31.80399 290.018894002108
31.8241 244
31.84422 276.031140680075
31.86433 275.96935227346
31.88444 268.053438867262
31.90456 303.012068944339
31.92467 271.986404280959
31.94478 318.982810543258
31.9649 285
31.98501 280.010822347147
32.00513 295.977498083632
32.02524 263.980793398183
32.04535 284.9488889727
32.06547 295.965105671536
32.08558 315.023988902778
32.10569 266.008315165425
32.12581 295.015345982657
32.14592 299.995233913954
32.16604 299.000628947118
32.18615 301.016271212549
32.20626 302.034624651316
32.22638 277.008844469642
32.24649 292.987134415076
32.2666 315
32.28672 325.995462977428
32.30683 299.930895929483
32.32694 258.97757158895
32.34706 283.914146595466
32.36717 315.985834973989
32.38729 305.008907846078
32.4074 308
32.42751 344.992630112267
32.44763 286.937307689593
32.46774 300.096031856463
32.48785 341.966076296583
32.50797 327.033092855926
32.52808 311.017810229926
32.5482 292
32.56831 285.993905027667
32.58842 274.006185547284
32.60854 295.028785362912
32.62865 296.988051225725
32.64876 292.085019308052
32.66888 236.016445407483
32.68899 269.978799421525
32.7091 283
32.72922 267.000240109165
32.74933 293.062889758091
32.76945 327.027848517004
32.78956 307.089071574936
32.80967 267.017878017069
32.82979 271.007746694227
32.8499 251
32.87001 304.004658243788
32.89013 271.998777366818
32.91024 304.994557817318
32.93036 254.083132877699
32.95047 257.956452375929
32.97058 289.967255800117
32.9907 316
33.01081 310.988722083831
33.03092 284.984553412746
33.05104 274.953808115397
33.07115 259.917157418843
33.09127 317.971827223395
33.11138 282.042240881446
33.13149 274.989100257315
33.15161 308.016281635503
33.17172 320.985191164116
33.19183 291.968209795441
33.21195 291.025437593362
33.23206 301.979520751616
33.25217 309.991846478513
33.27229 312.00105430427
33.2924 300
33.31252 273.996074211638
33.33263 286.001296407746
33.35274 268.970808179842
33.37286 273.956785046292
33.39297 298.973488532562
33.41308 303.005653709947
33.4332 296
33.45331 299.00479296848
33.47343 304.988698304228
33.49354 298.035053544805
33.51365 324.014884113436
33.53377 285.048777604248
33.55388 279.995400228013
33.57399 292.981027678517
33.59411 327.993392169579
33.61422 275.964035867747
33.63434 282.039926429073
33.65445 282.942232642416
33.67456 257.998169770306
33.69468 279.989326065138
33.71479 272.000884013188
33.7349 275
33.75502 241.986435775259
33.77513 263.055782942814
33.79524 279.95634037273
33.81536 258.923807065072
33.83547 329.97187373969
33.85559 284.018965295682
33.8757 279
33.89581 251.008161756288
33.91593 305.04741830464
33.93604 292.964452890606
33.95615 290.013070623514
33.97627 284.977574233564
33.99638 301.021850329574
34.0165 248
34.03661 248.007359467573
34.05672 265.029628434425
34.07684 293.002162355627
34.09695 276.995390987541
34.11706 296.993079737432
34.13718 285.98860185379
34.15729 310.005170110787
34.17741 278.00311645251
34.19752 330.045286304226
34.21763 327.942481310661
34.23775 290.979017441758
34.25786 316.922101604288
34.27797 339.006437335307
34.29809 323.00183176325
34.3182 328
34.33831 306.004285103704
34.35843 330.98288247002
34.37854 288.972012489056
34.39866 309.990707336732
34.41877 297.966689159141
34.43888 354.959453938111
34.459 355
34.47911 354.006477507477
34.49922 360.980175640894
34.51934 343.067049931873
34.53945 396.024928708332
34.55957 333.035330732878
34.57968 376.952892943479
34.59979 389.997344451274
34.61991 400.000158045016
34.64002 391.999360574678
34.66013 410.048279512671
34.68025 426.940726445192
34.70036 388.999923683733
34.72047 419.000085958627
34.74059 396.987813817824
34.7607 461
34.78082 444.004567195319
34.80093 479.011757228453
34.82104 450.969363825315
34.84116 466.965024703541
34.86127 477.961184032191
34.88138 502.016602595429
34.9015 457
34.92161 480.019288072686
34.94173 500.99829924062
34.96184 490.997366554327
34.98195 500.984157849475
35.00207 481.080736019327
35.02218 439.972957489164
35.04229 495.006450123898
35.06241 423.988537716558
35.08252 456.991413412046
35.10264 403.994762274266
35.12275 461.079345831888
35.14286 435.063517379189
35.16298 424.015144550934
35.18309 403.001590317449
35.2032 422
35.22332 433.005336065794
35.24343 428.966497837583
35.26354 393.93491155783
35.28366 382.969380192526
35.30377 403.002480300336
35.32389 388.995295331102
35.344 425
35.36411 407.964339791667
35.38423 342.011948351006
35.40434 404.056178939472
35.42445 374.061688247479
35.44457 393.939052602211
35.46468 416.012579485408
35.4848 403
35.50491 464.004411790521
35.52502 420.981526259141
35.54514 434.957269688703
35.56525 383.023052851025
35.58536 416.990570719088
35.60548 375.033060751284
35.62559 374.998941510304
35.64571 371.006332922886
35.66582 396.00995703269
35.68593 397.037583194805
35.70605 431.993430314148
35.72616 388.082368331913
35.74627 386.950053031454
35.76639 414.00730972745
35.7865 374
35.80661 401.014950146778
35.82673 418.037851552719
35.84684 429.911383923791
35.86696 360.041191010812
35.88707 398.947909679448
35.90718 392.022640768929
35.9273 374
35.94741 365.008488790605
35.96752 395.01354549859
35.98764 383.970862655937
36.00775 379.999937703046
36.02787 390.946878803738
36.04798 434.97767218608
36.06809 412.03093760558
36.08821 365.008194731744
36.10832 424.032281054949
36.12843 402.951462197887
36.14855 397.041721879609
36.16866 411.020986865315
36.18878 384.013587322243
36.20889 407.972102574444
36.229 453
36.24912 414.980025635233
36.26923 438.058649927004
36.28934 467.037571321657
36.30946 488.924860998843
36.32957 542.913921856079
36.34968 599.935787765789
36.3698 678
36.38991 753.018826467093
36.41003 804.205386111163
36.43014 1013.38296311936
36.45025 1188.39163917992
36.47037 1469.70593294698
36.49048 1535.99089118774
36.51059 1577.95494371317
36.53071 1639.97031912255
36.55082 1490.88733541481
36.57094 1412.66502461743
36.59105 1178.62575623343
36.61116 1115.2424137245
36.63128 910.16649575359
36.65139 831.030385113111
36.6715 725
36.69162 588.909350469477
36.71173 528.880688565562
36.73184 450.993650556024
36.75196 504.959249590464
36.77207 471.028336668536
36.79219 483.005350796728
36.8123 439
36.83241 431.996841839763
36.85253 422.01249045959
36.87264 446.029919184476
36.89275 439.043394557242
36.91287 419.039117994669
36.93298 399.994730412553
36.9531 431
36.97321 441.978668413822
36.99332 371.953780843269
37.01344 383.103446879201
37.03355 431.955012950483
37.05366 418.039308706514
37.07378 401.031900446563
37.09389 372.993510583997
37.11401 411.004836787245
37.13412 369.93918228516
37.15423 344.050585808507
37.17435 397.016889415234
37.19446 342.132804877234
37.21457 315.973869025335
37.23469 351.986880730854
37.2548 358
37.27491 359.992814578133
37.29503 328.95180494979
37.31514 317.029330455167
37.33526 333.029170684859
37.35537 292.046508229498
37.37548 293.977967588729
37.3956 318
37.41571 330.001927844975
37.43582 335.014935931519
37.45594 353.01014259988
37.47605 336.080075723286
37.49617 313.98980320616
37.51628 333.004319642069
37.53639 314.993204927573
37.55651 361.016709382645
37.57662 349.957041829135
37.59673 316.006117934337
37.61685 349.059801198369
37.63696 350.990995193296
37.65708 358.015243155571
37.67719 337.991121340079
37.6973 374
37.71742 336.008904680478
37.73753 391.035389146969
37.75764 356.917949810291
37.77776 345.987398416388
37.79787 348.016164755697
37.81798 333.998930053328
37.8381 345
37.85821 333.003084895446
37.87833 345.971274756419
37.89844 304.973202157921
37.91855 334.90088450055
37.93867 351.012018780106
37.95878 332.01636440454
37.97889 332.990149243581
37.99901 350.997098122307
38.01912 325.982551005285
38.03924 328.014073155189
38.05935 334.03295238771
38.07946 335.07737724877
38.09958 290.986679995681
38.11969 351.982069172324
38.1398 331
38.15992 308.984984253338
38.18003 305.029682268251
38.20015 335.033962442695
38.22026 330.993354492885
38.24037 353.955439230609
38.26049 369.004365716957
38.2806 347
38.30071 353.011703357163
38.32083 382.039698047992
38.34094 395.998002864006
38.36105 389.996542682471
38.38117 395.011277686673
38.40128 373.021947563098
38.4214 379
38.44151 424.993482750229
38.46162 369.977614153458
38.48174 387.984627577782
38.50185 359.941937989945
38.52196 413.02129628437
38.54208 342.033555183394
38.56219 371.988851195447
38.58231 347.981153542263
38.60242 323.985270742282
38.62253 316.001697345943
38.64265 336.115449356487
38.66276 385.954674720341
38.68287 366.071615854316
38.70299 318.01724626703
38.7231 320
38.74321 375.005555816662
38.76333 337.94119315975
38.78344 330.023208464476
38.80356 340.996594424635
38.82367 340.978578918276
38.84378 355.017118895951
38.8639 317
38.88401 323.996801271006
38.90412 310.021917929405
38.92424 355.022749219578
38.94435 314.137787525353
38.96447 296.945754833303
38.98458 358.955614977414
39.00469 358.015734356516
39.02481 333.001997130116
39.04492 357.012573810453
39.06503 346.981075631692
39.08515 350.042717658919
39.10526 366.992286100082
39.12538 368.975987796678
39.14549 406.990304647085
39.1656 388
39.18572 367.040543940268
39.20583 442.066109499405
39.22594 434.971506345694
39.24606 468.814327222334
39.26617 562.963162186645
39.28628 551.942791454294
39.3064 685
39.32651 750.046238548728
39.34663 891.202231746648
39.36674 1024.37213430842
39.38685 1251.51089985066
39.40697 1402.76005377758
39.42708 1531.00257204378
39.44719 1441.01776553476
39.46731 1454.95877441815
39.48742 1256.81564273249
39.50754 1139.7597356143
39.52765 1003.77365658481
39.54776 945.196689994627
39.56788 795.13857032751
39.58799 693.049830077136
39.6081 578
39.62822 486.926988904537
39.64833 421.905471107716
39.66845 369.939821294484
39.68856 372.97356866168
39.70867 380.993801275158
39.72879 372.016342961338
39.7489 335
39.76901 347.000287112506
39.78913 335.012483114835
39.80924 354.980340458837
39.82935 315.070938356454
39.84947 319.97142226196
39.86958 331.997174454608
39.8897 323
39.90981 301.996517221857
39.92992 311.013435769531
39.95004 324.037809389647
39.97015 344.969487515704
39.99026 346.004506644635
40.01038 356.96739059974
40.03049 379.014880093314
40.05061 345.025425443145
40.07072 456.056431602318
40.09083 432.978509819267
40.11095 466.077521210804
40.13106 482.921858194858
40.15117 564.838504262481
40.17129 658.97224871086
40.1914 695
40.21152 776.059741611096
40.23163 802.032590561776
40.25174 829.023155012348
40.27186 819.034449292703
40.29197 798.052683859883
40.31208 761.015329301475
40.3322 741
40.35231 629.959844713943
40.37242 596.965383690433
40.39254 538.894087986219
40.41265 496.135716493533
40.43277 429.086150651645
40.45288 384.050382843839
40.47299 349.988427647733
40.49311 391.990722606914
40.51322 312.94039876978
40.53333 314.03663559448
40.55345 318.949388193759
40.57356 295.994233204452
40.59368 324.973245408878
40.61379 325.011655982003
40.6339 306
40.65402 342.034654263386
40.67413 339.929255181518
40.69424 280.943410540252
40.71436 291.965830937501
40.73447 291.015197277321
40.75458 291.976537164222
40.7747 314
40.79481 275.994785368925
40.81493 301.02728491383
40.83504 299.012294449748
40.85515 312.02492266298
40.87527 279.038830059927
40.89538 281.976137999748
40.91549 307.991545306672
40.93561 303.987093769782
40.95572 289.029666399765
40.97584 344.053376999156
40.99595 315.859012922037
41.01606 285.948279546101
41.03618 325.019864432007
41.05629 257.016338675432
41.0764 297
41.09652 322.961999055156
41.11663 270.006550858875
41.13675 327.08226472975
41.15686 298.104624509012
41.17697 261.030839393341
41.19709 268.976086556149
41.2172 330
41.23731 318.980508933611
41.25743 294.020166401826
41.27754 327.018641663799
41.29765 302.066643146735
41.31777 294.997186022987
41.33788 299.986893869501
41.358 304
41.37811 261.991708892192
41.39822 284.034226703609
41.41834 297.974098172309
41.43845 280.978440191451
41.45856 312.953550830767
41.47868 305.02968276242
41.49879 284.993986434983
41.51891 307.995198222301
41.53902 273.993451928029
41.55913 302.027120437621
41.57925 281.894621137928
41.59936 270.884342409587
41.61947 353.961301389255
41.63959 313.017537658233
41.6597 329
41.67982 344.970785424192
41.69993 304.003279931562
41.72004 345.041654102162
41.74016 333.99198114644
41.76027 357.001680658228
41.78038 327.020193974307
41.8005 333
41.82061 326.989743193372
41.84072 309.000257060334
41.86084 322.009258876413
41.88095 314.00959060445
41.90107 317.00633144402
41.92118 293.041875031041
41.94129 267.987246168935
41.96141 319.00863001771
41.98152 284.956004157615
42.00163 271.02333888963
42.02175 297.044290401291
42.04186 305.96444147662
42.06198 323.011443616055
42.08209 296.999367521426
42.1022 327
42.12232 327.015329645766
42.14243 350.988250853027
42.16254 323.007693614692
42.18266 366.920417405442
42.20277 372.025609952254
42.22289 360.994638344369
42.243 403
42.26311 467.019511820922
42.28323 500.100227815754
42.30334 611.247875848789
42.32345 713.812864353573
42.34357 792.822369576926
42.36368 959.814571280636
42.38379 1082.99722784118
42.40391 1011.97401161366
42.42402 1043.08329207229
42.44414 1087.89100166869
42.46425 963.744785613318
42.48436 913.116845481005
42.50448 816.104804592768
42.52459 736.025342063694
42.5447 689
42.56482 593.913424599325
42.58493 512.838965484797
42.60505 413.946830377503
42.62516 442.038024384954
42.64527 357.108893009236
42.66539 338.000647619444
42.6855 323
42.70561 298.990071601358
42.72573 292.016129031279
42.74584 303.983654774341
42.76595 282.019451809235
42.78607 290.00360726653
42.80618 280.985524152518
42.8263 299
42.84641 245.998109288985
42.86652 291.020181357428
42.88664 258.923223006788
42.90675 252.950002210334
42.92686 282.939756336622
42.94698 289.032944555897
42.96709 244.00728245749
42.98721 268.014206400963
43.00732 272.987374936746
43.02743 261.00175305016
43.04755 268.990186385868
43.06766 251.0304058049
43.08777 250.983307376453
43.10789 266.990815126779
43.128 279
43.14812 266.985781192622
43.16823 258.997366390054
43.18834 261.006744376524
43.20846 258.029267809506
43.22857 242.997786685519
43.24868 262.976495844209
43.2688 273
43.28891 257.992682972694
43.30902 259.022736718439
43.32914 279.978705580358
43.34925 248.032027527677
43.36937 262.983114896443
43.38948 258.999341886805
43.40959 270.995023132922
43.42971 265.990210667574
43.44982 246.996728705
43.46993 260.022274029426
43.49005 270.031279797556
43.51016 274.046087884293
43.53028 239.012827980855
43.55039 250.997206911848
43.5705 243
43.59062 253.993574366489
43.61073 239.016857733484
43.63084 271.024838170967
43.65096 247.07357204072
43.67107 227.990214088481
43.69119 246.994756520337
43.7113 247
43.73141 260.999143433866
43.75153 239.966481697373
43.77164 240.057112332739
43.79175 272.983978362721
43.81187 248.045716225431
43.83198 242.974065468558
43.85209 278.99043826101
43.87221 263.98015015069
43.89232 230.99643372465
43.91244 251.030582929732
43.93255 245.967447397718
43.95266 236.015762669175
43.97278 237.97920632779
43.99289 262.997393568029
44.013 247
44.03312 242.993975377035
44.05323 238.017915172909
44.07335 259.015242210289
44.09346 238.072310412497
44.11357 214.988995567934
44.13369 253.972851672881
44.1538 287
44.17391 245.980254433171
44.19403 240.041174788208
44.21414 261.955005537088
44.23426 224.964264327493
44.25437 285.965710147181
44.27448 241.061118329832
44.2946 212
44.31471 239.026050295797
44.33482 271.969888407854
44.35494 212.981149206191
44.37505 256.942767320971
44.39516 231.056863183981
44.41528 234.974959471904
44.43539 256.99711487764
44.45551 250.99984964291
44.47562 255.992477806584
44.49573 243.009698914079
44.51585 266.029114709306
44.53596 253.046282855324
44.55607 249.950253360605
44.57619 284.008623992853
44.5963 228
44.61642 250.034650857209
44.63653 270.024592764015
44.65664 274.948633369838
44.67676 237.023740593879
44.69687 256.970367857686
44.71698 251.025280029823
44.7371 229
44.75721 249.013894551984
44.77732 271.016316453536
44.79744 279.998870693416
44.81755 277.983049056544
44.83767 285.017494746478
44.85778 263.004771439608
44.87789 271.005568925411
44.89801 247.00082520861
44.91812 265.989687750995
44.93823 234.00097870181
44.95835 270.049791537682
44.97846 259.011627429742
44.99858 276.975880470671
45.01869 287.003554651346
45.0388 269
45.05892 261.007574607579
45.07903 283.046632175159
45.09914 304.99877742682
45.11926 285.045009912476
45.13937 274.002599428381
45.15949 275.000239966529
45.1796 274
45.19971 277.997407059646
45.21983 265.989796304638
45.23994 269.011226265644
45.26005 272.987030103882
45.28017 282.977007176948
45.30028 290.015765094385
45.32039 266.00145024393
45.34051 294.019620345576
45.36062 318.001090840109
45.38074 307.9962338376
45.40085 310.964083648639
45.42096 291.97680490295
45.44108 325.987195073204
45.46119 315.995539837094
45.4813 344
45.50142 319.982276207849
45.52153 336.063026576134
45.54165 371.004744413458
45.56176 359.956443627249
45.58187 408.963519425981
45.60199 404.992233725239
45.6221 453
45.64221 478.011432069603
45.66233 535.162874685466
45.68244 655.142746194192
45.70256 682.906149587428
45.72267 770.870416764568
45.74278 827.959549019805
45.7629 835
45.78301 754.984995489226
45.80312 764.9682725484
45.82324 663.769852848744
45.84335 587.095700051277
45.86346 574.992909846817
45.88358 572.020777422465
45.90369 517.046720869542
45.92381 425.979443387125
45.94392 416.959504979425
45.96403 340.923736185449
45.98415 334.998535581022
46.00426 325.983171523795
46.02437 339.031652998929
46.04449 286.021543092046
46.0646 277
46.08472 274.976675561172
46.10483 252.015391971278
46.12494 289.048655536392
46.14506 283.030051581878
46.16517 281.977794138801
46.18528 293.014421896486
46.2054 257
46.22551 253.010704087498
46.24563 276.003975210965
46.26574 257.965443917239
46.28585 261.938587574479
46.30597 281.018532524951
46.32608 250.010733827604
46.34619 262.999283242103
46.36631 259.015969105769
46.38642 311.014179637472
46.40653 270.920299363035
46.42665 249.033617553795
46.44676 273.983490538928
46.46688 255.028703080209
46.48699 241.994461228333
46.5071 266
46.52722 260.976980857616
46.54733 231.960080461391
46.56744 210.960516862781
46.58756 206.9381803594
46.60767 252.967807046399
46.62779 247.997060821666
46.6479 267
46.66801 235.985516716748
46.68813 223.986107602927
46.70824 219.030569340121
46.72835 250.929014051649
46.74847 251.050352981468
46.76858 223.974524859554
46.78869 277.994005783668
46.80881 246.997699964634
46.82892 279.009561410254
46.84904 248.944272491497
46.86915 250.038977449271
46.88926 260.003380373782
46.90938 246.020863996639
46.92949 234.9947278752
46.9496 255
46.96972 242.991389840747
46.98983 249.016696480885
47.00995 261.044607968001
47.03006 278.986252312473
47.05017 272.019019930889
47.07029 257.010895274799
47.0904 236
47.11051 248.01266948139
47.13063 266.998120015799
47.15074 249.970974302594
47.17086 244.018445555196
47.19097 234.989866536335
47.21108 248.005971809512
47.2312 232
47.25131 268.016240094193
47.27142 275.993044316494
47.29154 262.960728984962
47.31165 247.994904790584
47.33176 262.976829907816
47.35188 258.018433689147
47.37199 244.99575992805
47.39211 264.001168981657
47.41222 248.994038125616
47.43233 255.996550427073
47.45245 251.052785583939
47.47256 279.027026572412
47.49267 233.03139138259
47.51279 251.991831495027
47.5329 253
47.55302 275.994270500999
47.57313 249.997839866831
47.59324 277.029433813337
47.61336 257.072586778405
47.63347 233.996655176717
47.65358 247.999676694543
47.6737 241
47.69381 273.002209569395
47.71393 257.018884901206
47.73404 284.962505560881
47.75415 229.052064899704
47.77427 264.936249900998
47.79438 270.026766723103
47.81449 241.003464862003
47.83461 263.016760926015
47.85472 273.971259550567
47.87483 239.014567343134
47.89495 281.027670156769
47.91506 252.03040635901
47.93518 269.983058410355
47.95529 264.008368440978
47.9754 256
47.99552 270.001628568724
48.01563 259.99564548832
48.03574 264.990252445184
48.05586 254.985004429066
48.07597 266.033080956106
48.09609 228.998302664906
48.1162 271
48.13631 247.980010038001
48.15643 238.057329380107
48.17654 281.977530394038
48.19665 231.034865223674
48.21677 267.962043413615
48.23688 253.021466755558
48.257 244
48.27711 223.98959197652
48.29722 216.010797428706
48.31734 238.038974366297
48.33745 243.986780153687
48.35756 242.967063536443
48.37768 266.991987829006
48.39779 257.003321578224
48.4179 260
48.43802 243.977204718267
48.45813 229.001535794929
48.47825 243.039587223525
48.49836 246.027261370838
48.51847 231.991320676485
48.53859 247.003350088392
48.5587 228
48.57881 257.00003121512
48.59893 235.017257601548
48.61904 267.974037394061
48.63916 218.020040193394
48.65927 256.969213511618
48.67938 230.036005582663
48.6995 225
48.71961 268.018723412636
48.73972 287.007244422613
48.75984 282.956543920096
48.77995 258.016759632462
48.80006 256.063596586274
48.82018 224.964326440788
48.84029 300.988446632967
48.86041 254.980825130126
48.88052 267.029022006477
48.90063 275.97732585355
48.92075 254.98883546813
48.94086 263.011433528256
48.96097 246.994788062275
48.98109 273.987772804373
49.0012 270
49.02132 230.977850994162
49.04143 233.016422404168
49.06154 243.028395135158
49.08166 255.998419524853
49.10177 245.01726422942
49.12188 245.984636985571
49.142 261
49.16211 247.999828278137
49.18223 261.005489458987
49.20234 251.995048697907
49.22245 265.947511622556
49.24257 282.983653516316
49.26268 284.010788129666
49.28279 266.009213992321
49.30291 259.004942896153
49.32302 268.987837252781
49.34313 245.999817220462
49.36325 276.08445408177
49.38336 287.025513885973
49.40348 270.000845321196
49.42359 291.984515110153
49.4437 298
49.46382 247.995704801737
49.48393 282.013754878708
49.50404 261.012336442875
49.52416 295.984570867644
49.54427 263.046839861389
49.56439 262.990707801364
49.5845 282
49.60461 289.002456403791
49.62473 297.017411734208
49.64484 297.950935855172
49.66495 273.955250554597
49.68507 322.958699482627
49.70518 319.990544209487
49.7253 347
49.74541 333.002313910684
49.76552 370.044067641431
49.78564 389.978270013962
49.80575 372.012952794873
49.82586 418.847665158251
49.84598 489.958175975131
49.86609 491.014178484685
49.8862 490
49.90632 620.126611903562
49.92643 708.108554157201
49.94655 794.258394910129
49.96666 919.709485386368
49.98677 1096.67278134344
50.00689 1341.87924072673
50.027 1588
50.04711 1902.15219356231
50.06723 2150.26763038665
50.08734 2263.11793799581
50.10746 2277.07106242112
50.12757 2173.2782275578
50.14768 1930.25769156121
50.1678 1682
50.18791 1454.91865084875
50.20802 1369.96905666328
50.22814 1347.93434769556
50.24825 1267.35970606749
50.26837 1060.37466135648
50.28848 839.13442022211
50.30859 744.078135464473
50.32871 542.938101886733
50.34882 515.971229674546
50.36893 433.869897387591
50.38905 400.074447802738
50.40916 434.064369753102
50.42927 355.053221943025
50.44939 385.984831253291
50.4695 377
50.48962 375.017926929815
50.50973 400.025894389063
50.52984 398.969062759516
50.54996 380.029791965744
50.57007 373.003502518516
50.59018 368.011604635682
50.6103 354
50.63041 356.003742565353
50.65053 353.966907910637
50.67064 331.012136301086
50.69075 350.035270812913
50.71087 306.036207864262
50.73098 311.005920491334
50.75109 291.996951112237
50.77121 320.004145040751
50.79132 297.978530846817
50.81143 295.004564668492
50.83155 292.985895336711
50.85166 286.014519833281
50.87178 283.99210262649
50.89189 293.001740123192
50.912 276
50.93212 270.006128013522
50.95223 270.967557628051
50.97234 246.017312506056
50.99246 287.925279504803
51.01257 285.062971430402
51.03269 243.001747241774
51.0528 269
51.07291 246.991504012661
51.09303 255.027220429397
51.11314 259.96628428439
51.13325 241.973739581483
51.15337 269.992940405217
51.17348 245.020176547246
51.1936 256
51.21371 270.980555294747
51.23382 212.992994299057
51.25394 249.002905952837
51.27405 199.100607821631
51.29416 204.943297661351
51.31428 224.995690127778
51.33439 227.988430783228
51.3545 261
51.37462 242.979484552797
51.39473 244.031344138069
51.41485 262.991647699096
51.43496 240.038735896653
51.45507 241.972601222592
51.47519 254.006001699466
51.4953 223
51.51541 215.001609492569
51.53553 216.994161277647
51.55564 213.012722031457
51.57576 229.965861871119
51.59587 235.013682691104
51.61598 219.013313231301
51.6361 219
51.65621 236.00283786109
51.67632 236.013436524154
51.69644 264.048468369193
51.71655 267.044654657535
51.73667 244.018769145361
51.75678 244.997850832739
51.77689 237.008484744071
51.79701 215.989595276504
51.81712 211.022646531055
51.83723 238.99841702941
51.85735 214.983301652902
51.87746 233.974339304452
51.89757 232.986482997284
51.91769 251.997626346011
51.9378 242
51.95792 244.978761607839
51.97803 210.99012541494
51.99814 240.065876455938
52.01826 249.023633917589
52.03837 235.00116042387
52.05848 251.976264692775
52.0786 256
52.09871 213.99445088385
52.11883 236.024413482008
52.13894 229.987143128704
52.15905 234.984005190253
52.17917 236.001865255346
52.19928 234.004389188352
52.21939 230.998058227795
52.23951 241.004863389789
52.25962 238.981048823262
52.27974 215.982848390492
52.29985 218.984285827521
52.31996 210.962564068978
52.34008 246.985065357373
52.36019 233.006337738763
52.3803 236
52.40042 229.991998884186
52.42053 229.012326230589
52.44064 244.033979452044
52.46076 247.044814650992
52.48087 224.976193653329
52.50099 260.999807725008
52.5211 217
52.54121 220.021087050238
52.56133 266.02816345182
52.58144 250.94992369039
52.60155 237.012611720252
52.62167 227.039272952795
52.64178 208.973740468615
52.6619 256
52.68201 218.986905599505
52.70212 231.02280903375
52.72224 248.043034167909
52.74235 270.974301463359
52.76246 261.04798509008
52.78258 238.012707204141
52.80269 237.996947969066
52.8228 243
52.84292 242.996024385622
52.86303 239.00113893605
52.88315 243.002418182768
52.90326 240.997358539158
52.92337 245.000427670208
52.94349 243.995593670134
52.9636 253
52.98371 228.99542838363
53.00383 246.040291225173
53.02394 256.970391426318
53.04406 233.012593706793
53.06417 256.939787590141
53.08428 277.022963001114
53.1044 243
53.12451 291.012035071575
53.14462 277.997909714421
53.16474 288.956713688805
53.18485 245.023978702101
53.20497 274.972460245139
53.22508 257.027894689002
53.24519 259.975779318774
53.26531 308.994579007622
53.28542 255.982831154455
53.30553 287.021171007115
53.32565 266.983313587446
53.34576 290.951188161318
53.36587 294.015692658254
53.38599 279.009143637101
53.4061 269
53.42622 285.000173442947
53.44633 271.998751499156
53.46644 287.018512647389
53.48656 288.971130285352
53.50667 309.002147012938
53.52678 283.026419552643
53.5469 271
53.56701 272.009475565109
53.58713 301.030161766341
53.60724 312.039850702401
53.62735 322.092556530389
53.64747 264.022432067986
53.66758 303.957267054927
53.68769 306.015278084246
53.70781 270.990549678037
53.72792 278.022666056726
53.74804 301.035615800297
53.76815 302.951464304808
53.78826 286.963972564391
53.80838 320.00183171174
53.82849 284.00973393071
53.8486 307
53.86872 323.975385918454
53.88883 284.98772094504
53.90894 307.013766073386
53.92906 288.020523036455
53.94917 295.997887898896
53.96929 290.993167787399
53.9894 317
54.00951 299.99343618015
54.02963 298.988333170019
54.04974 293.046637426583
54.06985 327.997802004224
54.08997 288.06274233225
54.11008 276.985846005575
54.1302 299
54.15031 301.99439074097
54.17042 294.012042035246
54.19054 299.914075341112
54.21065 250.921184993022
54.23076 339.927395228442
54.25088 302.023724252664
54.27099 321.99759241145
54.29111 301.000779353924
54.31122 324.998008647865
54.33133 307.036310650203
54.35145 363.047144231689
54.37156 328.073806636431
54.39167 313.030508066315
54.41179 286.003520043365
54.4319 305
54.45201 320.005103887238
54.47213 325.995891199686
54.49224 318.995425278228
54.51236 330.946745737297
54.53247 351.013228395271
54.55258 322.017985748877
54.5727 338
54.59281 375.004332656743
54.61292 365.004014533921
54.63304 396.076196107029
54.65315 425.936874471205
54.67327 458.927309886385
54.69338 511.962479927621
54.71349 539.978333360457
54.73361 617.051271318296
54.75372 708.047932749506
54.77383 729.059804915803
54.79395 802.183553401667
54.81406 852.928410038471
54.83417 873.008131248993
54.85429 839.027837122915
54.8744 782
54.89452 745.951803477329
54.91463 679.897459150689
54.93474 630.956928606708
54.95486 630.983268569281
54.97497 625.044557094633
54.99508 596.990903092648
55.0152 609
55.03531 505.968989918786
55.05543 496.952815751027
55.07554 418.855473213964
55.09565 397.936948703814
55.11577 439.948494856473
55.13588 440.037067662304
55.15599 415.978780772296
55.17611 482.997695560681
55.19622 431.020572775017
55.21634 516.042251318435
55.23645 474.05608475858
55.25656 564.93003066255
55.27668 520.025517547622
55.29679 549.988885638793
55.3169 524
55.33702 490.004497079668
55.35713 494.920409518663
55.37724 413.961081527037
55.39736 456.965351588895
55.41747 421.043567246717
55.43759 424.99841180959
55.4577 408
55.47781 396.000134830808
55.49793 404.014248465804
55.51804 390.893345655529
55.53815 326.07112817698
55.55827 333.008218018395
55.57838 300.027131104878
55.5985 304
55.61861 315.982664197882
55.63872 268.003812844806
55.65884 307.991433071174
55.67895 263.003766495382
55.69906 310.961464840115
55.71918 276.036277523375
55.73929 271.995282220463
55.75941 283.009699224143
55.77952 289.966667617356
55.79963 241.987127243232
55.81975 276.065526045809
55.83986 270.025546843439
55.85997 264.016532666929
55.88009 255.992443986783
55.9002 285
55.92031 279.00037029311
55.94043 285.98022789993
55.96054 254.960322906089
55.98066 270.904965820004
56.00077 302.045021366608
56.02088 241.016557286443
56.041 277
56.06111 256.989509541383
56.08122 253.994020622908
56.10134 244.012175969448
56.12145 260.993867351912
56.14157 252.983634980539
56.16168 283.977589011704
56.18179 271.023366018459
56.20191 231.003225811134
56.22202 271.021041281885
56.24213 251.957794278117
56.26225 246.042492470242
56.28236 266.990329787146
56.30248 255.009638317425
56.32259 258.99508767895
56.3427 261
56.36282 247.001457045858
56.38293 265.026978723846
56.40304 267.978393732535
56.42316 249.044634538676
56.44327 242.961557734824
56.46338 281.981916047027
56.4835 269
56.50361 258.997065786861
56.52373 258.01629970706
56.54384 266.972616481156
56.56395 251.935235581056
56.58407 297.00073600176
56.60418 244.047438428623
56.62429 234.997455755869
56.64441 240.007556216061
56.66452 267.03002440487
56.68464 278.962220167982
56.70475 253.008892040821
56.72486 278.990708727393
56.74498 262.992385399439
56.76509 290.999693436011
56.7852 258
56.80532 268.030417506843
56.82543 279.95325398507
56.84554 228.955149993103
56.86566 244.967300354375
56.88577 240.015193762131
56.90589 240.993885127191
56.926 254
56.94611 252.004382262387
56.96623 259.969790482636
56.98634 232.023899031503
57.00645 274.957842070057
57.02657 250.0386774002
57.04668 253.976452694466
57.0668 278
57.08691 271.984918935931
57.10702 243.001093967312
57.12714 276.075805430529
57.14725 290.031370066917
57.16736 269.017555898571
57.18748 275.994301121333
57.20759 266.011479966498
57.22771 258.016240537916
57.24782 305.009501447895
57.26793 270.952103988956
57.28805 270.034833763786
57.30816 277.011789789977
57.32827 267.994625376001
57.34839 278.002782420559
57.3685 254
57.38861 250.007169836872
57.40873 274.038175744859
57.42884 282.964526524976
57.44896 251.045738120486
57.46907 250.979016972914
57.48918 262.997342202146
57.5093 254
57.52941 246.004525953489
57.54952 261.00031206569
57.56964 241.955315496922
57.58975 229.015701547556
57.60987 232.968856405289
57.62998 260.981369873881
57.65009 259.008799413108
57.67021 249.008006438646
57.69032 277.007319378329
57.71043 257.972140669401
57.73055 255.003478069656
57.75066 250.021564281531
57.77078 240.002979138719
57.79089 242.000608955091
57.811 238
57.83112 243.999616170391
57.85123 231.972499313711
57.87134 226.040084769288
57.89146 256.974915804118
57.91157 249.002764007839
57.93168 259.996290924322
57.9518 253
57.97191 258.998647839069
57.99203 240.963919205215
58.01214 223.988957132014
58.03225 230.95944734854
58.05237 243.004067752266
58.07248 233.996315400283
58.09259 251.992619383782
58.11271 254.999984659865
58.13282 258.00329114492
58.15294 257.991609033183
58.17305 250.981392478371
58.19316 242.027291835427
58.21328 227.009465932282
58.23339 225.998142339764
58.2535 230
58.27362 238.017937255104
58.29373 260.021435852232
58.31385 258.968673034198
58.33396 242.035438855358
58.35407 232.991015835545
58.37419 243.001684784029
58.3943 231
58.41441 246.003066435397
58.43453 236.987691276292
58.45464 242.02969287627
58.47475 257.971652223665
58.49487 259.014421183077
58.51498 258.969857894397
58.5351 291
58.55521 232.977349410984
58.57532 231.017847117676
58.59544 240.995558820621
58.61555 232.014826392036
58.63566 239.954073858511
58.65578 260.002458671949
58.67589 244.000537941389
58.69601 260.003350118917
58.71612 246.983150045055
58.73623 244.019491987091
58.75635 268.06917207454
58.77646 273.074090153835
58.79657 217.047590082246
58.81669 220.99576751173
58.8368 228
58.85691 267.003100338596
58.87703 247.00182007498
58.89714 264.966349859604
58.91726 227.980919287743
58.93737 281.955615057068
58.95748 265.017169383455
58.9776 273
58.99771 260.978227712966
59.01782 226.021728593442
59.03794 282.039001754322
59.05805 257.018087246873
59.07817 284.972640888494
59.09828 274.014871205736
59.11839 264.010715492298
59.13851 245.00704691548
59.15862 281.015880739617
59.17873 264.972868661773
59.19885 259.984617811144
59.21896 244.039580763337
59.23908 240.971255794483
59.25919 277.996924498753
59.2793 259
59.29942 291.030757221291
59.31953 289.953287196408
59.33964 258.996399328008
59.35976 286.94168702335
59.37987 304.966642574052
59.39998 324.007677835992
59.4201 305
59.44021 332.999994125519
59.46033 289.919767783412
59.48044 273.070167105015
59.50055 326.941921550985
59.52067 309.03130736737
59.54078 318.963660817414
59.56089 358.987677374852
59.58101 363.999728862821
59.60112 369.007407880951
59.62124 380.037394633057
59.64135 400.025960489862
59.66146 407.953823296971
59.68158 437.989525417497
59.70169 435.990657722903
59.7218 496
59.74192 594.101489819853
59.76203 696.154791308447
59.78215 792.191806910301
59.80226 880.718978882314
59.82237 1050.80071995619
59.84249 1148.9357767027
59.8626 1321
59.88271 1447.06195981623
59.90283 1558.07860720184
59.92294 1524.79719827096
59.94305 1381.43321933112
59.96317 1221.16636241745
59.98328 1136.11477939981
60.0034 1001
60.02351 992.015445443002
60.04362 1009.98973209294
60.06374 966.870721147575
60.08385 883.272578467883
60.10396 766.195878581198
60.12408 699.048740694019
60.14419 633.052094965933
60.16431 506.94625470627
60.18442 435.946232562695
60.20453 389.960051366999
60.22465 368.90091810403
60.24476 322.034849701349
60.26487 332.000974119934
60.28499 304.016778231037
60.3051 296
60.32522 327.995298876201
60.34533 297.995696764415
60.36544 318.979066584817
60.38556 276.041181696722
60.40567 292.976726527792
60.42578 288.00558125899
60.4459 287
60.46601 269.998158603089
60.48612 276.996029859263
60.50624 258.973320426918
60.52635 266.931617409723
60.54647 290.005433439897
60.56658 266.015638907683
60.58669 266.002762081253
60.60681 251.997987531911
60.62692 261.00675057726
60.64703 252.969907781202
60.66715 233.982200602305
60.68726 245.944919697656
60.70738 264.013593884764
60.72749 235.002921307969
60.7476 257
60.76772 251.992574132125
60.78783 254.007209573459
60.80794 265.054102670545
60.82806 293.987745300732
60.84817 277.024021541598
60.86828 278.986905148777
60.8884 288
60.90851 266.982703842591
60.92863 244.016007253517
60.94874 274.026043018551
60.96885 251.103980981465
60.98897 228.971244319577
61.00908 268.981663960724
61.02919 254.008870955972
61.04931 260.012891101688
61.06942 286.010122055538
61.08954 281.998649500578
61.10965 284.974129215805
61.12976 267.99932248794
61.14988 281.999866376955
61.16999 270.995929962542
61.1901 288
61.21022 248.985598081267
61.23033 270.028421080632
61.25045 271.010457416411
61.27056 282.993876506343
61.29067 279.984482079925
61.31079 297.001386961115
61.3309 284
61.35101 312.999793893934
61.37113 278.960871918862
61.39124 282.024900594963
61.41135 287.992246016558
61.43147 290.001622386919
61.45158 286.00471878121
61.4717 294
61.49181 319.989285131501
61.51192 276.000021838462
61.53204 316.019192235972
61.55215 270.139777833362
61.57226 256.923758410216
61.59238 308.980635140672
61.61249 283.018892648405
61.63261 273.012184721015
61.65272 310.020931133474
61.67283 303.976448659094
61.69295 296.000256851474
61.71306 300.98736488756
61.73317 303.006766989764
61.75329 297.000081434165
61.7734 314
61.79352 348.00039052078
61.81363 322.98071358253
61.83374 338.042781926088
61.85386 338.05566626004
61.87397 302.0262729811
61.89408 311.97990880819
61.9142 314
61.93431 295.01874448164
61.95442 361.017493771194
61.97454 323.95766045879
61.99465 344.951609970101
62.01477 339.017125954629
62.03488 332.01245131471
62.05499 321.994751409923
62.07511 339.997127462239
62.09522 315.99449935687
62.11533 337.028407209927
62.13545 340.003237484966
62.15556 352.953101463246
62.17568 362.029547516493
62.19579 303.027150831662
62.2159 297
62.23602 363.022444089498
62.25613 322.902120160486
62.27624 289.035570005464
62.29636 333.946723149523
62.31647 320.048215723956
62.33659 296.005701803067
62.3567 294
62.37681 300.011460599664
62.39693 318.974183901243
62.41704 278.965956995632
62.43715 292.980783815707
62.45727 277.029363454583
62.47738 270.995052911535
62.49749 276.00162335498
62.51761 262.99209283114
62.53772 259.015801308493
62.55784 282.018739815927
62.57795 271.963266326931
62.59806 260.032173566871
62.61818 245.001347066893
62.63829 258.99079404608
62.6584 265
62.67852 253.014181704405
62.69863 281.005639149897
62.71875 256.956259551722
62.73886 259.992719089975
62.75897 259.98205815419
62.77909 274.004898140645
62.7992 246
62.81931 253.002580872722
62.83943 255.031108919809
62.85954 278.979160605589
62.87965 244.029264731004
62.89977 261.990097782948
62.91988 245.011612001542
62.94 261
62.96011 282.988879971311
62.98022 235.977456428926
63.00034 258.076033177141
63.02045 273.047873535342
63.04056 249.9709588021
63.06068 291.982655643587
63.08079 261.025459901483
63.10091 236.00963074124
63.12102 266.991815048705
63.14113 236.019977643785
63.16125 289.052247815302
63.18136 252.098034727745
63.20147 231.992225260258
63.22159 249.988937624028
63.2417 261
63.26182 253.015432361021
63.28193 281.00781988182
63.30204 262.98671923136
63.32216 273.99916705905
63.34227 266.974687263639
63.36238 290.020316305062
63.3825 237
63.40261 251.001733146231
63.42272 234.001995073408
63.44284 259.025082564851
63.46295 260.929581203289
63.48307 293.035974499135
63.50318 224.04224772845
63.52329 237.98570371969
63.54341 245.996750653869
63.56352 245.01832745349
63.58363 274.025270507316
63.60375 276.016772952961
63.62386 280.051303296178
63.64398 242.005502358252
63.66409 277.979243738935
63.6842 288
63.70432 253.979903252181
63.72443 252.998926103258
63.74454 255.051925045358
63.76466 300.920722547191
63.78477 309.035658570943
63.80489 282.000519826257
63.825 313
63.84511 347.017903528007
63.86523 370.985049379815
63.88534 362.097474769071
63.90545 444.911851574569
63.92557 411.06591954842
63.94568 411.957991890451
63.96579 476.963644309984
63.98591 512.984283206119
64.00602 452.981299910636
64.02614 467.944116955728
64.04625 394.891879004289
64.06636 394.039024604623
64.08648 354.000681068262
64.10659 394.987488094797
64.1267 380
64.14682 372.996352921131
64.16693 363.982825399916
64.18705 349.951907567707
64.20716 328.037593099743
64.22727 317.005721410941
64.24739 316.999418442098
64.2675 311
64.28761 288.995145233026
64.30773 288.987907043781
64.32784 268.964294991432
64.34796 261.007957611391
64.36807 258.993913254607
64.38818 262.009300388803
64.4083 249
64.42841 258.993428234088
64.44852 229.992439258917
64.46864 243.997425647371
64.48875 230.96094996039
64.50886 267.979309844061
64.52898 249.999927929557
64.54909 270.002368292483
64.56921 226.975151613099
64.58932 204.006623177927
64.60943 223.0170442856
64.62955 224.018885183364
64.64966 245.946327527571
64.66977 263.993584782903
64.68989 251.014446333094
64.71 226
64.73012 246.022286256913
64.75023 252.990172640304
64.77034 245.001772354399
64.79046 248.02372104673
64.81057 228.0062420278
64.83068 234.013409382504
64.8508 207
64.87091 233.014734804611
64.89102 240.988301953285
64.91114 233.034666160261
64.93125 259.009992957038
64.95137 227.028931874299
64.97148 228.011490277151
64.99159 205.000174800936
65.01171 231.010879725995
65.03182 227.981866523761
65.05193 214.000036589792
65.07205 226.030432296509
65.09216 233.978348506621
65.11228 249.98400579191
65.13239 253.009036034506
65.1525 229
65.17262 246.022497491258
65.19273 255.995302676727
65.21284 250.003825950455
65.23296 254.020906651022
65.25307 231.025174762319
65.27319 235.988119408673
65.2933 254
65.31341 239.011960008213
65.33353 277.978429068836
65.35364 216.934908465498
65.37375 236.944691360161
65.39387 231.021044384043
65.41398 228.989849867237
65.43409 241.996896815361
65.45421 236.994462289332
65.47432 227.996318683803
65.49444 234.033805215362
65.51455 258.064299686058
65.53466 267.042627125377
65.55478 234.012171394609
65.57489 243.000872557114
65.595 236
65.61512 273.993587215347
65.63523 233.991415157862
65.65535 272.059154375882
65.67546 257.04060982431
65.69557 261.958542384138
65.71569 297.984014138797
65.7358 306
65.75591 266.986119653142
65.77603 267.028339886521
65.79614 279.981992438463
65.81626 260.007322603751
65.83637 274.98670758592
65.85648 267.010803159879
65.8766 270
65.89671 282.990407748416
65.91682 248.994580360669
65.93694 274.02829982353
65.95705 258.060484583301
65.97716 245.007775483088
65.99728 236.025986071946
66.01739 208.999778240571
66.03751 235.010563999541
66.05762 228.974637454962
66.07773 221.057870102454
66.09785 278.043776088821
66.11796 248.056094012686
66.13807 249.983250173435
66.15819 251.003845965959
66.1783 240
66.19842 238.009776314864
66.21853 252.010451057031
66.23864 249.996201588033
66.25876 250.01063109235
66.27887 234.036801599725
66.29898 216.99502560072
66.3191 239
66.33921 247.003417157085
66.35933 253.997003460534
66.37944 245.996208815903
66.39955 245.042903478504
66.41967 225.983554579276
66.43978 253.003021842566
66.45989 218.011287711154
66.48001 229.01081953588
66.50012 244.013583024427
66.52023 256.006924740402
66.54035 255.001839814962
66.56046 258.997243711811
66.58058 255.006260924076
66.60069 240.016511777946
66.6208 208
66.64092 233.019662025905
66.66103 229.983161601994
66.68114 229.026673177394
66.70126 250.959345652303
66.72137 254.030344498685
66.74149 231.997977346226
66.7616 264
66.78171 266.982519204618
66.80183 229.002346565191
66.82194 263.034192852481
66.84205 251.010712400952
66.86217 260.013516485839
66.88228 239.992388966245
66.90239 267.998853040664
66.92251 238.990164612435
66.94262 253.031748913722
66.96274 272.988243122427
66.98285 250.963896985976
67.00296 251.003835140143
67.02308 243.998674473494
67.04319 246.00916949151
67.0633 234
67.08342 301.01344718235
67.10353 258.967330059316
67.12365 275.998250404159
67.14376 248.016395944398
67.16387 269.976482219422
67.18399 275.98541999696
67.2041 324
67.22421 308.97700065673
67.24433 265.973098608528
67.26444 272.015028138999
67.28456 270.994413216404
67.30467 283.974407603028
67.32478 306.963619105652
67.3449 335
67.36501 304.999689228781
67.38512 338.021969334136
67.40524 326.956515689926
67.42535 327.912498979724
67.44546 376.938248540678
67.46558 378.008977578379
67.48569 390.976568909718
67.50581 445.010696004083
67.52592 445.028676996172
67.54603 526.158949643318
67.56615 612.11472414028
67.58626 652.823039996079
67.60637 769.893564363989
67.62649 804.959066446901
67.6466 941
67.66672 993.031518745053
67.68683 1027.02809600861
67.70694 1015.92398589937
67.72706 966.096403952258
67.74717 906.145201389304
67.76728 783.110564968596
67.7874 726
67.80751 736.983286320415
67.82763 689.032473971893
67.84774 775.121801239698
67.86785 777.999658750541
67.88797 796.994346021336
67.90808 797.955439447556
67.92819 856.003053500823
67.94831 789.978114436966
67.96842 831.106887215674
67.98853 937.082680944812
68.00865 958.128568041887
68.02876 1068.73617405567
68.04888 1164.96245042439
68.06899 1189.96031571306
68.0891 1307
68.10922 1304.98913129908
68.12933 1308.97130522012
68.14944 1222.68429278501
68.16956 1090.99808404637
68.18967 1193.89680035771
68.20979 1181.00350436756
68.2299 1232
68.25001 1284.01173560603
68.27013 1267.91105406208
68.29024 1168.74017694858
68.31035 1052.1611600997
68.33047 1003.15947607077
68.35058 833.163510476377
68.3707 726
68.39081 673.977615930519
68.41092 634.974054142414
68.43104 616.956899863891
68.45115 586.921936103867
68.47126 551.099970762146
68.49138 495.042873060174
68.51149 476.001242135564
68.5316 452
68.55172 360.961703141779
68.57183 369.97650844727
68.59195 312.893432567186
68.61206 316.943805935683
68.63217 330.028252346184
68.65229 283.026985123661
68.6724 257
68.69251 292.006697404589
68.71263 270.956901405664
68.73274 268.060107082955
68.75286 299.016110940604
68.77297 267.001634705983
68.79308 294.999795725397
68.8132 259
68.83331 268.006434975207
68.85342 266.99575927615
68.87354 264.990278035251
68.89365 258.007795145789
68.91376 256.018921976947
68.93388 251.976892948732
68.95399 279.00721474268
68.97411 234.992015098746
68.99422 261.024745319678
69.01433 261.996216142614
69.03445 264.993248360325
69.05456 257.003152169192
69.07467 256.026679788355
69.09479 227.008339548868
69.1149 236
69.13502 250.989133715577
69.15513 221.965154949104
69.17524 223.040731618609
69.19536 244.979532924871
69.21547 240.016173697117
69.23558 237.987990754663
69.2557 248
69.27581 227.00449619236
69.29593 253.993115223125
69.31604 224.000267213171
69.33615 259.945688949807
69.35627 243.045570501286
69.37638 230.986713431034
69.39649 250.999504095546
69.41661 237.000367554972
69.43672 248.990153227495
69.45683 223.999619127449
69.47695 242.982762473235
69.49706 210.02769948314
69.51718 224.991272887864
69.53729 219.995595599899
69.5574 246
69.57752 248.000033283403
69.59763 247.980749864123
69.61774 233.012946868406
69.63786 248.026118825661
69.65797 222.976251100915
69.67809 264.001441659079
69.6982 216
69.71831 234.006902149882
69.73843 223.990577843708
69.75854 240.058801683191
69.77865 252.069259934687
69.79877 208.021122770262
69.81888 226.990840713716
69.839 220
69.85911 250.003035660071
69.87922 230.995114281879
69.89934 248.015199978561
69.91945 230.935586923392
69.93956 216.99391780935
69.95968 235.971318698439
69.97979 256.000694976514
69.9999 236
70.02002 227.007089081688
70.04013 240.010028954392
70.06025 239.004825075869
70.08036 237.046431415297
70.10047 212.979920528646
70.12059 249.99592812789
70.1407 227
70.16081 254.010151376747
70.18093 245.969316915717
70.20104 227.967813455492
70.22116 220.979473610819
70.24127 234.01043264683
70.26138 215.997216673684
70.2815 244
70.30161 246.993793698443
70.32172 221.958413992467
70.34184 200.077142659299
70.36195 259.998822696475
70.38207 209.020659772651
70.40218 252.966597480891
70.42229 235.021050865088
70.44241 215.010837007586
70.46252 251.003207768795
70.48263 220.974812792724
70.50275 234.03353528162
70.52286 226.043726078454
70.54297 212.982962350804
70.56309 234.998452725609
70.5832 218
70.60332 219.987212673126
70.62343 201.013665481559
70.64354 230.012796764446
70.66366 209.021413350435
70.68377 225.963178853419
70.70388 239.994959581035
70.724 237
70.74411 220.992779566878
70.76423 207.974533619865
70.78434 202.051369864549
70.80445 242.954005331851
70.82457 223.055205979602
70.84468 204.984540729631
70.86479 235.993199776021
70.88491 216.983006262416
70.90502 206.032890770955
70.92513 245.98363206613
70.94525 194.943949189649
70.96536 224.924297808402
70.98548 235.009667209099
71.00559 216.01296424232
71.0257 200
71.04582 220.002126949426
71.06593 211.02296128972
71.08604 245.022905738206
71.10616 221.062108078707
71.12627 204.014187452932
71.14639 206.986483828388
71.1665 245
71.18661 242.99291712989
71.20673 225.964432376792
71.22684 209.01507973921
71.24695 236.934646777814
71.26707 247.993855363645
71.28718 241.030501201821
71.3073 204
71.32741 220.010507505254
71.34752 234.01876448996
71.36764 241.93904988111
71.38775 204.958359921863
71.40786 260.958718628941
71.42798 234.012138937885
71.44809 254.995028247796
71.4682 233
71.48832 213.990051380138
71.50843 205.984699953372
71.52855 207.074840954247
71.54866 245.9807312521
71.56877 225.022601865806
71.58889 231.995631766878
71.609 231
71.62911 224.98916916428
71.64923 199.994173749011
71.66934 221.050964556735
71.68946 228.028994933968
71.70957 210.000671528868
71.72968 226.986852966575
71.7498 228
71.76991 230.996138127897
71.79002 216.996407988328
71.81014 228.026424322761
71.83025 233.003901558425
71.85037 231.99267434224
71.87048 239.997120863533
71.89059 234.005197094784
71.91071 234.010407946443
71.93082 248.971889232038
71.95093 202.998419614266
71.97105 243.036867986408
71.99116 212.061982952899
72.01127 212.97036424847
72.03139 232.992734223899
72.0515 242
72.07162 251.004407965213
72.09173 245.978340203004
72.11184 235.011165745055
72.13196 242.039506503608
72.15207 203.033079082387
72.17218 218.960905990754
72.1923 257
72.21241 260.989611684315
72.23253 241.012925778361
72.25264 258.960983403306
72.27275 212.042094141865
72.29287 237.963491614147
72.31298 238.999885091344
72.33309 245.001953955891
72.35321 229.994344829894
72.37332 231.007407717681
72.39344 234.993186933328
72.41355 230.007970834018
72.43366 241.977087120684
72.45378 246.998372180431
72.47389 246.003001887829
72.494 240
72.51412 243.993988127115
72.53423 230.993432591446
72.55434 238.011415659332
72.57446 239.983310076351
72.59457 248.013937992786
72.61469 231.997455271739
72.6348 255
72.65491 243.995792224533
72.67503 250.013487637346
72.69514 252.998549040407
72.71525 252.992908699617
72.73537 248.038285309606
72.75548 215.014033081378
72.7756 231
72.79571 245.991690016893
72.81582 217.996859739127
72.83594 255.112523880315
72.85605 286.047849573649
72.87616 235.07920730673
72.89628 242.951082514982
72.91639 288.997538873505
72.9365 260
72.95662 264.994384365726
72.97673 249.010912569098
72.99685 269.978889355731
73.01696 237.018491130325
73.03707 266.945090498195
73.05719 276.010367730397
73.0773 248
73.09741 265.014516214679
73.11753 285.006839583475
73.13764 279.994807043238
73.15776 281.012166467464
73.17787 276.973032904116
73.19798 302.003294224207
73.2181 285
73.23821 334.010881569696
73.25832 313.980121415534
73.27844 333.109912562549
73.29855 383.978519661893
73.31867 373.951077837218
73.33878 429.005003724502
73.35889 393.976293082724
73.37901 505.020934443635
73.39912 470.011650394481
73.41923 537.011051853411
73.43935 455.791063040505
73.45946 427.995774420421
73.47957 425.025161021573
73.49969 395.016699977588
73.5198 373
73.53992 373.989995854402
73.56003 366.035896075197
73.58014 398.978113166263
73.60026 353.037306832993
73.62037 383.938425572228
73.64048 391.032071378021
73.6606 347
73.68071 342.990389724557
73.70083 301.948249108814
73.72094 284.968474097222
73.74105 269.001970481752
73.76117 278.998344240265
73.78128 264.018466851521
73.80139 254.999438292227
73.82151 260.000998966704
73.84162 261.008786975908
73.86174 268.979420315231
73.88185 247.983493448101
73.90196 262.962562197748
73.92208 265.017587995319
73.94219 244.002491940369
73.9623 250
73.98242 225.980460675205
74.00253 223.00743958075
74.02264 233.041298885414
74.04276 252.00229582146
74.06287 240.988573324376
74.08299 255.010267571573
74.1031 215
74.12321 253.013304525416
74.14333 239.956628754508
74.16344 216.963209325099
74.18355 202.026768391771
74.20367 213.921420541829
74.22378 274.981196196884
74.2439 244
74.26401 233.003499055382
74.28412 250.027717310893
74.30424 261.937220533987
74.32435 206.082609874611
74.34446 219.922934832302
74.36458 243.010778019763
74.38469 210.012544397205
74.40481 217.016754271257
74.42492 238.977568494706
74.44503 195.990060243222
74.46515 232.070937834937
74.48526 236.969586317455
74.50537 256.02668857913
74.52549 213.007672768892
74.5456 234
74.56571 221.994173698452
74.58583 229.027425045157
74.60594 244.008383232603
74.62606 241.992593850998
74.64617 247.015090577847
74.66628 227.008118452732
74.6864 237
74.70651 239.998250084845
74.72662 237.001403508848
74.74674 235.97185921164
74.76685 220.982087513178
74.78697 251.950272042457
74.80708 255.0382263564
74.82719 214.995253675823
74.84731 260.007493384317
74.86742 222.954236300055
74.88753 213.041874870286
74.90765 251.044567334419
74.92776 245.007712312055
74.94787 247.021604382048
74.96799 226.996059379073
74.9881 255
75.00822 219.94441381265
