3.00117 20636
3.02128 20186
3.0414 20113
3.06151 19234
3.08162 18872
3.10174 18198
3.12185 17419
3.14197 17262
3.16208 16668
3.18219 16461
3.20231 15770
3.22242 15397
3.24253 14928
3.26265 14275
3.28276 14066
3.30288 13585
3.32299 13204
3.3431 13053
3.36322 12406
3.38333 12311
3.40344 11552
3.42356 11349
3.44367 11153
3.46379 10475
3.4839 10216
3.50401 9717
3.52413 9506
3.54424 9389
3.56435 8957
3.58447 8827
3.60458 8387
3.62469 8055
3.64481 7782
3.66492 7441
3.68504 7292
3.70515 6764
3.72526 6807
3.74538 6806
3.76549 6118
3.7856 6178
3.80572 5846
3.82583 5524
3.84595 5421
3.86606 5229
3.88617 5066
3.90629 4804
3.9264 4606
3.94651 4485
3.96663 4288
3.98674 4311
4.00686 3963
4.02697 3843
4.04708 3780
4.0672 3664
4.08731 3465
4.10742 3292
4.12754 3000
4.14765 3193
4.16776 2980
4.18788 2923
4.20799 2746
4.22811 2803
4.24822 2803
4.26833 2640
4.28845 2535
4.30856 2484
4.32867 2207
4.34879 2401
4.3689 2349
4.38902 2360
4.40913 2225
4.42924 2233
4.44936 2087
4.46947 2243
4.48958 2067
4.5097 2114
4.52981 1951
4.54992 2064
4.57004 1928
4.59015 1961
4.61027 1848
4.63038 1845
4.65049 1775
4.67061 1797
4.69072 1856
4.71083 1771
4.73095 1739
4.75106 1746
4.77118 1729
4.79129 1654
4.8114 1710
4.83152 1579
4.85163 1632
4.87174 1580
4.89186 1549
4.91197 1522
4.93209 1617
4.9522 1580
4.97231 1568
4.99243 1511
5.01254 1485
5.03265 1492
5.05277 1471
5.07288 1536
5.09299 1453
5.11311 1406
5.13322 1431
5.15334 1510
5.17345 1422
5.19356 1336
5.21368 1367
5.23379 1425
5.2539 1392
5.27402 1419
5.29413 1355
5.31425 1328
5.33436 1461
5.35447 1346
5.37459 1348
5.3947 1318
5.41481 1387
5.43493 1336
5.45504 1250
5.47516 1299
5.49527 1294
5.51538 1318
5.5355 1294
5.55561 1358
5.57572 1325
5.59584 1350
5.61595 1381
5.63606 1345
5.65618 1350
5.67629 1376
5.69641 1284
5.71652 1242
5.73663 1373
5.75675 1357
5.77686 1250
5.79697 1326
5.81709 1334
5.8372 1268
5.85732 1316
5.87743 1292
5.89754 1358
5.91766 1340
5.93777 1350
5.95788 1356
5.978 1318
5.99811 1374
6.01823 1303
6.03834 1260
6.05845 1268
6.07857 1287
6.09868 1277
6.11879 1247
6.13891 1199
6.15902 1253
6.17913 1250
6.19925 1224
6.21936 1183
6.23948 1173
6.25959 1138
6.2797 1079
6.29982 1072
6.31993 1073
6.34004 1086
6.36016 1060
6.38027 995
6.40039 1084
6.4205 1037
6.44061 1006
6.46073 966
6.48084 975
6.50095 972
6.52107 1009
6.54118 952
6.56129 968
6.58141 935
6.60152 945
6.62164 972
6.64175 897
6.66186 906
6.68198 867
6.70209 904
6.7222 937
6.74232 859
6.76243 896
6.78255 835
6.80266 907
6.82277 878
6.84289 910
6.863 845
6.88311 927
6.90323 828
6.92334 820
6.94346 844
6.96357 825
6.98368 780
7.0038 869
7.02391 794
7.04402 826
7.06414 810
7.08425 837
7.10436 812
7.12448 808
7.14459 776
7.16471 832
7.18482 781
7.20493 710
7.22505 737
7.24516 768
7.26527 756
7.28539 774
7.3055 739
7.32562 747
7.34573 713
7.36584 762
7.38596 699
7.40607 720
7.42618 700
7.4463 707
7.46641 717
7.48653 753
7.50664 744
7.52675 714
7.54687 759
7.56698 676
7.58709 732
7.60721 652
7.62732 721
7.64743 705
7.66755 685
7.68766 647
7.70778 720
7.72789 695
7.748 695
7.76812 651
7.78823 664
7.80834 672
7.82846 687
7.84857 699
7.86869 709
7.8888 690
7.90891 647
7.92903 643
7.94914 632
7.96925 650
7.98937 670
8.00948 660
8.0296 630
8.04971 660
8.06982 621
8.08994 666
8.11005 655
8.13016 666
8.15028 663
8.17039 643
8.1905 707
8.21062 665
8.23073 609
8.25085 703
8.27096 647
8.29107 651
8.31119 621
8.3313 669
8.35141 640
8.37153 603
8.39164 647
8.41176 610
8.43187 678
8.45198 619
8.4721 619
8.49221 613
8.51232 638
8.53244 636
8.55255 636
8.57266 657
8.59278 634
8.61289 611
8.63301 646
8.65312 572
8.67323 609
8.69335 683
8.71346 628
8.73357 599
8.75369 622
8.7738 609
8.79392 604
8.81403 604
8.83414 582
8.85426 631
8.87437 601
8.89448 601
8.9146 598
8.93471 608
8.95483 591
8.97494 579
8.99505 582
9.01517 563
9.03528 572
9.05539 585
9.07551 546
9.09562 626
9.11573 599
9.13585 590
9.15596 593
9.17608 570
9.19619 599
9.2163 531
9.23642 547
9.25653 595
9.27664 592
9.29676 582
9.31687 563
9.33699 554
9.3571 566
9.37721 597
9.39733 576
9.41744 570
9.43755 570
9.45767 541
9.47778 544
9.4979 521
9.51801 531
9.53812 575
9.55824 576
9.57835 533
9.59846 513
9.61858 583
9.63869 575
9.6588 553
9.67892 569
9.69903 575
9.71915 601
9.73926 543
9.75937 566
9.77949 546
9.7996 592
9.81971 552
9.83983 563
9.85994 579
9.88006 528
9.90017 574
9.92028 541
9.9404 616
9.96051 541
9.98062 560
10.00074 596
10.02085 574
10.04097 549
10.06108 540
10.08119 504
10.10131 553
10.12142 563
10.14153 548
10.16165 561
10.18176 574
10.20187 552
10.22199 569
10.2421 493
10.26222 548
10.28233 539
10.30244 540
10.32256 529
10.34267 547
10.36278 545
10.3829 533
10.40301 548
10.42313 572
10.44324 502
10.46335 577
10.48347 563
10.50358 550
10.52369 542
10.54381 551
10.56392 543
10.58403 543
10.60415 503
10.62426 507
10.64438 496
10.66449 544
10.6846 554
10.70472 541
10.72483 570
10.74494 519
10.76506 555
10.78517 522
10.80529 530
10.8254 562
10.84551 520
10.86563 518
10.88574 557
10.90585 522
10.92597 539
10.94608 525
10.9662 570
10.98631 499
11.00642 528
11.02654 535
11.04665 584
11.06676 526
11.08688 554
11.10699 555
11.1271 555
11.14722 529
11.16733 551
11.18745 516
11.20756 571
11.22767 574
11.24779 528
11.2679 584
11.28801 524
11.30813 582
11.32824 601
11.34836 571
11.36847 558
11.38858 538
11.4087 528
11.42881 558
11.44892 537
11.46904 573
11.48915 554
11.50927 568
11.52938 572
11.54949 549
11.56961 514
11.58972 580
11.60983 525
11.62995 581
11.65006 544
11.67017 565
11.69029 569
11.7104 575
11.73052 545
11.75063 559
11.77074 586
11.79086 582
11.81097 594
11.83108 624
11.8512 592
11.87131 533
11.89143 591
11.91154 604
11.93165 648
11.95177 542
11.97188 530
11.99199 588
12.01211 580
12.03222 563
12.05234 580
12.07245 593
12.09256 593
12.11268 591
12.13279 599
12.1529 579
12.17302 553
12.19313 590
12.21324 577
12.23336 548
12.25347 560
12.27359 575
12.2937 596
12.31381 583
12.33393 572
12.35404 563
12.37415 563
12.39427 548
12.41438 537
12.4345 547
12.45461 511
12.47472 528
12.49484 559
12.51495 534
12.53506 503
12.55518 550
12.57529 556
12.5954 525
12.61552 504
12.63563 486
12.65575 545
12.67586 452
12.69597 509
12.71609 533
12.7362 497
12.75631 528
12.77643 507
12.79654 494
12.81666 537
12.83677 493
12.85688 469
12.877 457
12.89711 489
12.91722 519
12.93734 525
12.95745 466
12.97757 459
12.99768 467
13.01779 486
13.03791 499
13.05802 537
13.07813 471
13.09825 520
13.11836 528
13.13847 507
13.15859 472
13.1787 479
13.19882 483
13.21893 500
13.23904 484
13.25916 447
13.27927 460
13.29938 467
13.3195 466
13.33961 504
13.35973 483
13.37984 504
13.39995 499
13.42007 449
13.44018 492
13.46029 517
13.48041 507
13.50052 460
13.52064 512
13.54075 512
13.56086 527
13.58098 528
13.60109 545
13.6212 478
13.64132 500
13.66143 520
13.68154 548
13.70166 492
13.72177 481
13.74189 493
13.762 513
13.78211 484
13.80223 493
13.82234 453
13.84245 460
13.86257 496
13.88268 468
13.9028 460
13.92291 491
13.94302 484
13.96314 455
13.98325 483
14.00336 506
14.02348 479
14.04359 473
14.06371 474
14.08382 462
14.10393 450
14.12405 465
14.14416 467
14.16427 494
14.18439 434
14.2045 479
14.22461 439
14.24473 418
14.26484 480
14.28496 489
14.30507 473
14.32518 496
14.3453 452
14.36541 475
14.38552 475
14.40564 460
14.42575 485
14.44587 409
14.46598 494
14.48609 473
14.50621 513
14.52632 516
14.54643 420
14.56655 399
14.58666 457
14.60677 473
14.62689 489
14.647 433
14.66712 467
14.68723 452
14.70734 469
14.72746 453
14.74757 472
14.76768 472
14.7878 461
14.80791 435
14.82803 481
14.84814 482
14.86825 489
14.88837 471
14.90848 453
14.92859 458
14.94871 483
14.96882 440
14.98894 465
15.00905 467
15.02916 485
15.04928 472
15.06939 490
15.0895 448
15.10962 454
15.12973 501
15.14984 498
15.16996 470
15.19007 456
15.21019 449
15.2303 455
15.25041 496
15.27053 428
15.29064 492
15.31075 457
15.33087 455
15.35098 481
15.3711 490
15.39121 459
15.41132 513
15.43144 475
15.45155 488
15.47166 454
15.49178 474
15.51189 456
15.53201 474
15.55212 455
15.57223 495
15.59235 553
15.61246 481
15.63257 473
15.65269 479
15.6728 476
15.69291 463
15.71303 499
15.73314 496
15.75326 471
15.77337 444
15.79348 448
15.8136 449
15.83371 493
15.85382 470
15.87394 446
15.89405 485
15.91417 506
15.93428 441
15.95439 491
15.97451 441
15.99462 470
16.01473 450
16.03485 491
16.05496 484
16.07508 506
16.09519 479
16.1153 471
16.13542 497
16.15553 482
16.17564 462
16.19576 470
16.21587 469
16.23598 468
16.2561 454
16.27621 474
16.29633 472
16.31644 486
16.33655 472
16.35667 448
16.37678 479
16.39689 452
16.41701 449
16.43712 445
16.45724 443
16.47735 455
16.49746 515
16.51758 450
16.53769 463
16.5578 492
16.57792 493
16.59803 483
16.61814 522
16.63826 433
16.65837 485
16.67849 498
16.6986 468
16.71871 479
16.73883 488
16.75894 491
16.77905 453
16.79917 474
16.81928 461
16.8394 427
16.85951 458
16.87962 490
16.89974 494
16.91985 477
16.93996 494
16.96008 465
16.98019 450
17.00031 433
17.02042 482
17.04053 510
17.06065 508
17.08076 485
17.10087 513
17.12099 472
17.1411 472
17.16121 461
17.18133 468
17.20144 487
17.22156 450
17.24167 493
17.26178 454
17.2819 505
17.30201 474
17.32212 475
17.34224 470
17.36235 525
17.38247 504
17.40258 461
17.42269 473
17.44281 481
17.46292 462
17.48303 485
17.50315 469
17.52326 484
17.54338 482
17.56349 533
17.5836 500
17.60372 471
17.62383 471
17.64394 529
17.66406 486
17.68417 518
17.70428 488
17.7244 487
17.74451 440
17.76463 507
17.78474 489
17.80485 474
17.82497 506
17.84508 448
17.86519 497
17.88531 482
17.90542 481
17.92554 469
17.94565 522
17.96576 534
17.98588 501
18.00599 479
18.0261 483
18.04622 465
18.06633 545
18.08645 509
18.10656 525
18.12667 494
18.14679 469
18.1669 523
18.18701 507
18.20713 528
18.22724 496
18.24735 524
18.26747 507
18.28758 547
18.3077 509
18.32781 472
18.34792 485
18.36804 525
18.38815 513
18.40826 561
18.42838 523
18.44849 489
18.46861 494
18.48872 517
18.50883 516
18.52895 498
18.54906 449
18.56917 522
18.58929 497
18.6094 517
18.62951 507
18.64963 522
18.66974 464
18.68986 549
18.70997 503
18.73008 522
18.7502 511
18.77031 497
18.79042 509
18.81054 509
18.83065 487
18.85077 541
18.87088 500
18.89099 545
18.91111 543
18.93122 521
18.95133 516
18.97145 515
18.99156 559
19.01168 495
19.03179 536
19.0519 523
19.07202 614
19.09213 530
19.11224 579
19.13236 588
19.15247 564
19.17258 616
19.1927 524
19.21281 574
19.23293 587
19.25304 580
19.27315 641
19.29327 640
19.31338 655
19.33349 653
19.35361 695
19.37372 713
19.39384 685
19.41395 707
19.43406 729
19.45418 715
19.47429 710
19.4944 754
19.51452 785
19.53463 816
19.55475 786
19.57486 823
19.59497 845
19.61509 867
19.6352 931
19.65531 915
19.67543 928
19.69554 979
19.71565 875
19.73577 927
19.75588 1003
19.776 956
19.79611 1008
19.81622 1034
19.83634 974
19.85645 1029
19.87656 944
19.89668 1000
19.91679 979
19.93691 1006
19.95702 999
19.97713 975
19.99725 965
20.01736 910
20.03747 867
20.05759 877
20.0777 887
20.09782 906
20.11793 860
20.13804 876
20.15816 886
20.17827 895
20.19838 854
20.2185 821
20.23861 824
20.25872 831
20.27884 814
20.29895 810
20.31907 851
20.33918 845
20.35929 802
20.37941 838
20.39952 861
20.41963 792
20.43975 800
20.45986 806
20.47998 799
20.50009 782
20.5202 814
20.54032 818
20.56043 790
20.58054 716
20.60066 779
20.62077 781
20.64088 776
20.661 784
20.68111 770
20.70123 798
20.72134 857
20.74145 896
20.76157 901
20.78168 952
20.80179 929
20.82191 929
20.84202 955
20.86214 865
20.88225 901
20.90236 873
20.92248 881
20.94259 767
20.9627 753
20.98282 759
21.00293 745
21.02305 726
21.04316 750
21.06327 745
21.08339 761
21.1035 756
21.12361 778
21.14373 737
21.16384 735
21.18395 752
21.20407 717
21.22418 728
21.2443 736
21.26441 781
21.28452 786
21.30464 767
21.32475 726
21.34486 707
21.36498 664
21.38509 723
21.40521 715
21.42532 682
21.44543 683
21.46555 700
21.48566 667
21.50577 721
21.52589 702
21.546 737
21.56612 729
21.58623 725
21.60634 666
21.62646 680
21.64657 711
21.66668 756
21.6868 750
21.70691 702
21.72702 699
21.74714 737
21.76725 751
21.78737 758
21.80748 780
21.82759 806
21.84771 816
21.86782 814
21.88793 830
21.90805 885
21.92816 804
21.94828 874
21.96839 823
21.9885 809
22.00862 715
22.02873 713
22.04884 707
22.06896 739
22.08907 627
22.10919 696
22.1293 709
22.14941 702
22.16953 651
22.18964 670
22.20975 688
22.22987 645
22.24998 666
22.27009 677
22.29021 636
22.31032 643
22.33044 669
22.35055 685
22.37066 628
22.39078 637
22.41089 687
22.431 619
22.45112 643
22.47123 635
22.49135 647
22.51146 672
22.53157 660
22.55169 653
22.5718 617
22.59191 691
22.61203 662
22.63214 617
22.65225 671
22.67237 680
22.69248 666
22.7126 675
22.73271 667
22.75282 682
22.77294 654
22.79305 717
22.81316 691
22.83328 703
22.85339 647
22.87351 670
22.89362 678
22.91373 682
22.93385 679
22.95396 649
22.97407 617
22.99419 686
23.0143 599
23.03442 649
23.05453 628
23.07464 664
23.09476 646
23.11487 632
23.13498 638
23.1551 660
23.17521 651
23.19532 682
23.21544 618
23.23555 648
23.25567 673
23.27578 643
23.29589 712
23.31601 683
23.33612 687
23.35623 683
23.37635 686
23.39646 697
23.41658 741
23.43669 715
23.4568 760
23.47692 764
23.49703 790
23.51714 790
23.53726 784
23.55737 806
23.57749 816
23.5976 809
23.61771 783
23.63783 774
23.65794 743
23.67805 790
23.69817 729
23.71828 713
23.73839 716
23.75851 615
23.77862 666
23.79874 682
23.81885 698
23.83896 636
23.85908 655
23.87919 681
23.8993 683
23.91942 670
23.93953 657
23.95965 630
23.97976 707
23.99987 678
24.01999 719
24.0401 661
24.06021 696
24.08033 661
24.10044 659
24.12056 677
24.14067 692
24.16078 683
24.1809 684
24.20101 674
24.22112 654
24.24124 719
24.26135 729
24.28146 721
24.30158 764
24.32169 749
24.34181 740
24.36192 754
24.38203 693
24.40215 719
24.42226 691
24.44237 701
24.46249 713
24.4826 684
24.50272 670
24.52283 668
24.54294 706
24.56306 638
24.58317 687
24.60328 699
24.6234 695
24.64351 717
24.66362 677
24.68374 663
24.70385 727
24.72397 701
24.74408 666
24.76419 690
24.78431 652
24.80442 682
24.82453 662
24.84465 666
24.86476 660
24.88488 631
24.90499 627
24.9251 716
24.94522 700
24.96533 694
24.98544 690
25.00556 705
25.02567 662
25.04579 694
25.0659 713
25.08601 622
25.10613 684
25.12624 735
25.14635 684
25.16647 683
25.18658 729
25.20669 743
25.22681 687
25.24692 687
25.26704 746
25.28715 689
25.30726 740
25.32738 657
25.34749 684
25.3676 720
25.38772 652
25.40783 704
25.42795 661
25.44806 634
25.46817 704
25.48829 652
25.5084 701
25.52851 698
25.54863 726
25.56874 720
25.58886 690
25.60897 678
25.62908 718
25.6492 715
25.66931 696
25.68942 632
25.70954 706
25.72965 706
25.74976 692
25.76988 707
25.78999 709
25.81011 698
25.83022 637
25.85033 634
25.87045 609
25.89056 681
25.91067 641
25.93079 646
25.9509 630
25.97102 627
25.99113 665
26.01124 655
26.03136 650
26.05147 663
26.07158 638
26.0917 640
26.11181 635
26.13193 590
26.15204 673
26.17215 691
26.19227 670
26.21238 637
26.23249 682
26.25261 660
26.27272 654
26.29283 686
26.31295 679
26.33306 764
26.35318 748
26.37329 785
26.3934 766
26.41352 778
26.43363 871
26.45374 942
26.47386 988
26.49397 1134
26.51409 1285
26.5342 1460
26.55431 1550
26.57443 1586
26.59454 1484
26.61465 1511
26.63477 1393
26.65488 1175
26.67499 1064
26.69511 910
26.71522 843
26.73534 761
26.75545 708
26.77556 706
26.79568 704
26.81579 730
26.8359 724
26.85602 667
26.87613 742
26.89625 684
26.91636 667
26.93647 666
26.95659 652
26.9767 611
26.99681 647
27.01693 687
27.03704 649
27.05716 707
27.07727 671
27.09738 732
27.1175 693
27.13761 636
27.15772 661
27.17784 671
27.19795 665
27.21806 639
27.23818 687
27.25829 712
27.27841 720
27.29852 757
27.31863 728
27.33875 751
27.35886 827
27.37897 747
27.39909 824
27.4192 870
27.43932 811
27.45943 823
27.47954 909
27.49966 837
27.51977 874
27.53988 845
27.56 868
27.58011 871
27.60023 900
27.62034 932
27.64045 959
27.66057 960
27.68068 960
27.70079 1032
27.72091 985
27.74102 948
27.76113 935
27.78125 868
27.80136 929
27.82148 918
27.84159 952
27.8617 902
27.88182 901
27.90193 861
27.92204 852
27.94216 874
27.96227 862
27.98239 809
28.0025 775
28.02261 697
28.04273 684
28.06284 681
28.08295 669
28.10307 651
28.12318 674
28.1433 631
28.16341 623
28.18352 618
28.20364 627
28.22375 645
28.24386 675
28.26398 620
28.28409 635
28.3042 663
28.32432 645
28.34443 630
28.36455 623
28.38466 634
28.40477 624
28.42489 599
28.445 610
28.46511 634
28.48523 619
28.50534 562
28.52546 567
28.54557 568
28.56568 573
28.5858 612
28.60591 623
28.62602 581
28.64614 566
28.66625 603
28.68636 566
28.70648 631
28.72659 570
28.74671 552
28.76682 580
28.78693 568
28.80705 606
28.82716 557
28.84727 571
28.86739 529
28.8875 543
28.90762 564
28.92773 575
28.94784 553
28.96796 602
28.98807 548
29.00818 521
29.0283 587
29.04841 549
29.06853 591
29.08864 543
29.10875 566
29.12887 592
29.14898 536
29.16909 581
29.18921 530
29.20932 584
29.22943 555
29.24955 558
29.26966 540
29.28978 589
29.30989 588
29.33 550
29.35012 601
29.37023 610
29.39034 583
29.41046 577
29.43057 618
29.45069 569
29.4708 616
29.49091 662
29.51103 613
29.53114 657
29.55125 649
29.57137 642
29.59148 682
29.6116 709
29.63171 723
29.65182 686
29.67194 706
29.69205 701
29.71216 759
29.73228 723
29.75239 717
29.7725 709
29.79262 702
29.81273 685
29.83285 735
29.85296 687
29.87307 682
29.89319 664
29.9133 687
29.93341 698
29.95353 703
29.97364 687
29.99376 686
30.01387 709
30.03398 698
30.0541 699
30.07421 734
30.09432 696
30.11444 749
30.13455 669
30.15467 749
30.17478 699
30.19489 716
30.21501 718
30.23512 651
30.25523 688
30.27535 730
30.29546 661
30.31557 631
30.33569 670
30.3558 654
30.37592 683
30.39603 681
30.41614 634
30.43626 645
30.45637 638
30.47648 663
30.4966 634
30.51671 576
30.53683 606
30.55694 574
30.57705 662
30.59717 651
30.61728 628
30.63739 632
30.65751 643
30.67762 618
30.69773 664
30.71785 632
30.73796 633
30.75808 605
30.77819 659
30.7983 650
30.81842 604
30.83853 618
30.85864 594
30.87876 599
30.89887 582
30.91899 547
30.9391 593
30.95921 604
30.97933 593
30.99944 534
31.01955 535
31.03967 548
31.05978 583
31.0799 551
31.10001 539
31.12012 604
31.14024 581
31.16035 554
31.18046 562
31.20058 533
31.22069 571
31.2408 569
31.26092 561
31.28103 526
31.30115 543
31.32126 567
31.34137 566
31.36149 586
31.3816 582
31.40171 564
31.42183 567
31.44194 582
31.46206 498
31.48217 584
31.50228 584
31.5224 528
31.54251 545
31.56262 540
31.58274 572
31.60285 619
31.62297 551
31.64308 560
31.66319 543
31.68331 530
31.70342 586
31.72353 562
31.74365 563
31.76376 565
31.78387 569
31.80399 557
31.8241 567
31.84422 548
31.86433 544
31.88444 562
31.90456 589
31.92467 582
31.94478 541
31.9649 534
31.98501 567
32.00513 500
32.02524 545
32.04535 557
32.06547 558
32.08558 523
32.10569 580
32.12581 556
32.14592 522
32.16604 583
32.18615 517
32.20626 535
32.22638 505
32.24649 537
32.2666 540
32.28672 543
32.30683 548
32.32694 542
32.34706 523
32.36717 554
32.38729 564
32.4074 561
32.42751 603
32.44763 562
32.46774 595
32.48785 576
32.50797 556
32.52808 526
32.5482 594
32.56831 562
32.58842 532
32.60854 574
32.62865 564
32.64876 568
32.66888 563
32.68899 573
32.7091 511
32.72922 573
32.74933 506
32.76945 563
32.78956 532
32.80967 532
32.82979 565
32.8499 555
32.87001 556
32.89013 561
32.91024 546
32.93036 537
32.95047 588
32.97058 550
32.9907 546
33.01081 555
33.03092 611
33.05104 593
33.07115 612
33.09127 600
33.11138 579
33.13149 533
33.15161 540
33.17172 560
33.19183 559
33.21195 542
33.23206 530
33.25217 547
33.27229 515
33.2924 489
33.31252 547
33.33263 559
33.35274 526
33.37286 535
33.39297 547
33.41308 578
33.4332 540
33.45331 560
33.47343 488
33.49354 507
33.51365 565
33.53377 540
33.55388 532
33.57399 524
33.59411 558
33.61422 540
33.63434 580
33.65445 537
33.67456 561
33.69468 552
33.71479 568
33.7349 557
33.75502 569
33.77513 533
33.79524 562
33.81536 556
33.83547 556
33.85559 577
33.8757 596
33.89581 572
33.91593 593
33.93604 552
33.95615 579
33.97627 584
33.99638 613
34.0165 602
34.03661 594
34.05672 599
34.07684 577
34.09695 549
34.11706 628
34.13718 624
34.15729 603
34.17741 627
34.19752 622
34.21763 613
34.23775 681
34.25786 680
34.27797 620
34.29809 681
34.3182 689
34.33831 628
34.35843 701
34.37854 663
34.39866 667
34.41877 689
34.43888 683
34.459 721
34.47911 696
34.49922 763
34.51934 751
34.53945 778
34.55957 712
34.57968 744
34.59979 767
34.61991 735
34.64002 762
34.66013 774
34.68025 727
34.70036 735
34.72047 804
34.74059 765
34.7607 771
34.78082 823
34.80093 856
34.82104 811
34.84116 780
34.86127 860
34.88138 849
34.9015 838
34.92161 860
34.94173 819
34.96184 800
34.98195 875
35.00207 839
35.02218 798
35.04229 866
35.06241 907
35.08252 834
35.10264 862
35.12275 883
35.14286 927
35.16298 907
35.18309 953
35.2032 865
35.22332 922
35.24343 909
35.26354 960
35.28366 924
35.30377 1010
35.32389 999
35.344 1018
35.36411 1101
35.38423 1071
35.40434 1085
35.42445 1088
35.44457 1043
35.46468 1087
35.4848 1085
35.50491 1069
35.52502 1090
35.54514 1004
35.56525 957
35.58536 935
35.60548 915
35.62559 865
35.64571 900
35.66582 837
35.68593 790
35.70605 831
35.72616 799
35.74627 767
35.76639 733
35.7865 777
35.80661 759
35.82673 759
35.84684 752
35.86696 731
35.88707 723
35.90718 729
35.9273 676
35.94741 728
35.96752 732
35.98764 712
36.00775 715
36.02787 665
36.04798 654
36.06809 688
36.08821 675
36.10832 663
36.12843 665
36.14855 686
36.16866 660
36.18878 658
36.20889 722
36.229 665
36.24912 666
36.26923 668
36.28934 639
36.30946 705
36.32957 722
36.34968 722
36.3698 666
36.38991 684
36.41003 731
36.43014 738
36.45025 761
36.47037 719
36.49048 699
36.51059 699
36.53071 726
36.55082 722
36.57094 719
36.59105 747
36.61116 698
36.63128 680
36.65139 696
36.6715 640
36.69162 626
36.71173 641
36.73184 675
36.75196 651
36.77207 660
36.79219 646
36.8123 643
36.83241 637
36.85253 649
36.87264 643
36.89275 636
36.91287 644
36.93298 654
36.9531 657
36.97321 712
36.99332 666
37.01344 635
37.03355 676
37.05366 668
37.07378 618
37.09389 639
37.11401 637
37.13412 684
37.15423 669
37.17435 642
37.19446 643
37.21457 685
37.23469 658
37.2548 678
37.27491 650
37.29503 654
37.31514 671
37.33526 685
37.35537 602
37.37548 652
37.3956 671
37.41571 657
37.43582 652
37.45594 658
37.47605 659
37.49617 613
37.51628 656
37.53639 629
37.55651 660
37.57662 659
37.59673 652
37.61685 693
37.63696 636
37.65708 625
37.67719 654
37.6973 604
37.71742 647
37.73753 688
37.75764 667
37.77776 601
37.79787 590
37.81798 632
37.8381 660
37.85821 652
37.87833 615
37.89844 626
37.91855 650
37.93867 607
37.95878 631
37.97889 640
37.99901 599
38.01912 648
38.03924 643
38.05935 578
38.07946 597
38.09958 602
38.11969 667
38.1398 650
38.15992 641
38.18003 619
38.20015 605
38.22026 584
38.24037 601
38.26049 628
38.2806 604
38.30071 622
38.32083 611
38.34094 610
38.36105 625
38.38117 665
38.40128 647
38.4214 626
38.44151 573
38.46162 626
38.48174 559
38.50185 599
38.52196 580
38.54208 610
38.56219 639
38.58231 608
38.60242 610
38.62253 600
38.64265 598
38.66276 575
38.68287 607
38.70299 626
38.7231 566
38.74321 597
38.76333 585
38.78344 563
38.80356 624
38.82367 589
38.84378 577
38.8639 650
38.88401 623
38.90412 604
38.92424 617
38.94435 602
38.96447 636
38.98458 611
39.00469 575
39.02481 561
39.04492 596
39.06503 620
39.08515 568
39.10526 585
39.12538 597
39.14549 585
39.1656 604
39.18572 592
39.20583 567
39.22594 564
39.24606 546
39.26617 647
39.28628 601
39.3064 588
39.32651 591
39.34663 625
39.36674 614
39.38685 608
39.40697 614
39.42708 604
39.44719 627
39.46731 624
39.48742 647
39.50754 643
39.52765 600
39.54776 583
39.56788 611
39.58799 574
39.6081 569
39.62822 564
39.64833 599
39.66845 591
39.68856 603
39.70867 577
39.72879 589
39.7489 581
39.76901 564
39.78913 583
39.80924 563
39.82935 589
39.84947 569
39.86958 589
39.8897 577
39.90981 575
39.92992 545
39.95004 536
39.97015 580
39.99026 524
40.01038 569
40.03049 606
40.05061 551
40.07072 566
40.09083 579
40.11095 595
40.13106 620
40.15117 595
40.17129 631
40.1914 640
40.21152 609
40.23163 584
40.25174 585
40.27186 590
40.29197 574
40.31208 597
40.3322 588
40.35231 631
40.37242 577
40.39254 587
40.41265 563
40.43277 566
40.45288 614
40.47299 606
40.49311 616
40.51322 578
40.53333 542
40.55345 598
40.57356 606
40.59368 567
40.61379 556
40.6339 544
40.65402 623
40.67413 605
40.69424 586
40.71436 591
40.73447 576
40.75458 546
40.7747 544
40.79481 573
40.81493 581
40.83504 587
40.85515 577
40.87527 559
40.89538 559
40.91549 588
40.93561 585
40.95572 600
40.97584 548
40.99595 515
41.01606 508
41.03618 573
41.05629 591
41.0764 548
41.09652 568
41.11663 517
41.13675 606
41.15686 557
41.17697 526
41.19709 526
41.2172 571
41.23731 552
41.25743 563
41.27754 568
41.29765 539
41.31777 570
41.33788 570
41.358 564
41.37811 520
41.39822 551
41.41834 550
41.43845 571
41.45856 575
41.47868 592
41.49879 537
41.51891 570
41.53902 583
41.55913 592
41.57925 546
41.59936 541
41.61947 530
41.63959 546
41.6597 554
41.67982 533
41.69993 551
41.72004 561
41.74016 546
41.76027 557
41.78038 564
41.8005 575
41.82061 540
41.84072 552
41.86084 577
41.88095 523
41.90107 573
41.92118 587
41.94129 569
41.96141 533
41.98152 535
42.00163 554
42.02175 559
42.04186 558
42.06198 597
42.08209 559
42.1022 536
42.12232 583
42.14243 546
42.16254 557
42.18266 574
42.20277 526
42.22289 588
42.243 590
42.26311 583
42.28323 604
42.30334 516
42.32345 567
42.34357 631
42.36368 629
42.38379 587
42.40391 610
42.42402 565
42.44414 590
42.46425 583
42.48436 591
42.50448 568
42.52459 607
42.5447 554
42.56482 547
42.58493 570
42.60505 554
42.62516 590
42.64527 553
42.66539 590
42.6855 568
42.70561 546
42.72573 556
42.74584 546
42.76595 536
42.78607 554
42.80618 586
42.8263 592
42.84641 574
42.86652 584
42.88664 537
42.90675 529
42.92686 543
42.94698 571
42.96709 575
42.98721 540
43.00732 601
43.02743 570
43.04755 560
43.06766 597
43.08777 565
43.10789 564
43.128 569
43.14812 547
43.16823 557
43.18834 577
43.20846 525
43.22857 565
43.24868 524
43.2688 546
43.28891 516
43.30902 526
43.32914 515
43.34925 529
43.36937 498
43.38948 539
43.40959 507
43.42971 547
43.44982 496
43.46993 517
43.49005 488
43.51016 553
43.53028 521
43.55039 555
43.5705 474
43.59062 505
43.61073 497
43.63084 550
43.65096 520
43.67107 500
43.69119 534
43.7113 533
43.73141 510
43.75153 489
43.77164 522
43.79175 542
43.81187 480
43.83198 533
43.85209 500
43.87221 537
43.89232 497
43.91244 487
43.93255 486
43.95266 510
43.97278 527
43.99289 540
44.013 521
44.03312 508
44.05323 503
44.07335 488
44.09346 569
44.11357 534
44.13369 488
44.1538 501
44.17391 570
44.19403 563
44.21414 511
44.23426 461
44.25437 524
44.27448 485
44.2946 576
44.31471 496
44.33482 531
44.35494 497
44.37505 555
44.39516 488
44.41528 489
44.43539 511
44.45551 512
44.47562 504
44.49573 517
44.51585 486
44.53596 491
44.55607 536
44.57619 507
44.5963 537
44.61642 556
44.63653 542
44.65664 517
44.67676 551
44.69687 483
44.71698 551
44.7371 536
44.75721 524
44.77732 570
44.79744 516
44.81755 559
44.83767 535
44.85778 500
44.87789 508
44.89801 517
44.91812 521
44.93823 494
44.95835 544
44.97846 507
44.99858 503
45.01869 511
45.0388 559
45.05892 499
45.07903 499
45.09914 496
45.11926 525
45.13937 542
45.15949 532
45.1796 506
45.19971 552
45.21983 501
45.23994 522
45.26005 496
45.28017 495
45.30028 507
45.32039 476
45.34051 526
45.36062 490
45.38074 529
45.40085 512
45.42096 504
45.44108 539
45.46119 509
45.4813 542
45.50142 501
45.52153 508
45.54165 530
45.56176 504
45.58187 529
45.60199 518
45.6221 559
45.64221 547
45.66233 526
45.68244 563
45.70256 564
45.72267 515
45.74278 511
45.7629 521
45.78301 558
45.80312 545
45.82324 550
45.84335 571
45.86346 519
45.88358 578
45.90369 536
45.92381 536
45.94392 529
45.96403 565
45.98415 530
46.00426 542
46.02437 536
46.04449 563
46.0646 466
46.08472 516
46.10483 503
46.12494 470
46.14506 513
46.16517 505
46.18528 485
46.2054 517
46.22551 493
46.24563 495
46.26574 496
46.28585 487
46.30597 507
46.32608 513
46.34619 500
46.36631 445
46.38642 513
46.40653 545
46.42665 487
46.44676 458
46.46688 514
46.48699 533
46.5071 509
46.52722 446
46.54733 501
46.56744 468
46.58756 538
46.60767 509
46.62779 473
46.6479 481
46.66801 498
46.68813 510
46.70824 512
46.72835 462
46.74847 494
46.76858 462
46.78869 508
46.80881 517
46.82892 507
46.84904 506
46.86915 453
46.88926 512
46.90938 533
46.92949 520
46.9496 465
46.96972 495
46.98983 486
47.00995 496
47.03006 499
47.05017 508
47.07029 541
47.0904 526
47.11051 497
47.13063 476
47.15074 518
47.17086 483
47.19097 472
47.21108 484
47.2312 499
47.25131 517
47.27142 469
47.29154 500
47.31165 465
47.33176 513
47.35188 502
47.37199 478
47.39211 496
47.41222 522
47.43233 476
47.45245 475
47.47256 515
47.49267 488
47.51279 502
47.5329 521
47.55302 506
47.57313 473
47.59324 464
47.61336 461
47.63347 511
47.65358 516
47.6737 518
47.69381 502
47.71393 480
47.73404 525
47.75415 510
47.77427 460
47.79438 494
47.81449 476
47.83461 528
47.85472 482
47.87483 484
47.89495 469
47.91506 489
47.93518 490
47.95529 518
47.9754 453
47.99552 531
48.01563 548
48.03574 504
48.05586 457
48.07597 535
48.09609 497
48.1162 500
48.13631 532
48.15643 509
48.17654 525
48.19665 470
48.21677 503
48.23688 470
48.257 480
48.27711 468
48.29722 505
48.31734 507
48.33745 496
48.35756 478
48.37768 498
48.39779 521
48.4179 508
48.43802 512
48.45813 483
48.47825 507
48.49836 486
48.51847 511
48.53859 494
48.5587 503
48.57881 474
48.59893 491
48.61904 458
48.63916 440
48.65927 489
48.67938 520
48.6995 488
48.71961 477
48.73972 516
48.75984 515
48.77995 490
48.80006 535
48.82018 493
48.84029 534
48.86041 534
48.88052 471
48.90063 502
48.92075 505
48.94086 510
48.96097 545
48.98109 479
49.0012 555
49.02132 530
49.04143 507
49.06154 500
49.08166 490
49.10177 523
49.12188 497
49.142 501
49.16211 534
49.18223 502
49.20234 523
49.22245 530
49.24257 541
49.26268 516
49.28279 502
49.30291 499
49.32302 540
49.34313 447
49.36325 517
49.38336 507
49.40348 487
49.42359 492
49.4437 536
49.46382 476
49.48393 477
49.50404 503
49.52416 509
49.54427 518
49.56439 532
49.5845 509
49.60461 544
49.62473 512
49.64484 520
49.66495 534
49.68507 507
49.70518 519
49.7253 509
49.74541 510
49.76552 527
49.78564 533
49.80575 536
49.82586 513
49.84598 559
49.86609 509
49.8862 494
49.90632 500
49.92643 546
49.94655 558
49.96666 562
49.98677 577
50.00689 524
50.027 582
50.04711 572
50.06723 619
50.08734 594
50.10746 527
50.12757 552
50.14768 528
50.1678 519
50.18791 534
50.20802 483
50.22814 505
50.24825 506
50.26837 505
50.28848 496
50.30859 523
50.32871 457
50.34882 506
50.36893 507
50.38905 505
50.40916 503
50.42927 468
50.44939 511
50.4695 487
50.48962 466
50.50973 529
50.52984 500
50.54996 524
50.57007 499
50.59018 494
50.6103 466
50.63041 529
50.65053 466
50.67064 516
50.69075 519
50.71087 521
50.73098 468
50.75109 532
50.77121 521
50.79132 488
50.81143 532
50.83155 475
50.85166 522
50.87178 517
50.89189 529
50.912 505
50.93212 494
50.95223 499
50.97234 529
50.99246 503
51.01257 531
51.03269 520
51.0528 512
51.07291 483
51.09303 497
51.11314 495
51.13325 496
51.15337 516
51.17348 501
51.1936 471
51.21371 511
51.23382 551
51.25394 520
51.27405 486
51.29416 490
51.31428 491
51.33439 474
51.3545 502
51.37462 512
51.39473 511
51.41485 498
51.43496 498
51.45507 495
51.47519 495
51.4953 506
51.51541 495
51.53553 448
51.55564 482
51.57576 489
51.59587 462
51.61598 485
51.6361 482
51.65621 493
51.67632 464
51.69644 483
51.71655 519
51.73667 495
51.75678 468
51.77689 460
51.79701 473
51.81712 456
51.83723 437
51.85735 471
51.87746 490
51.89757 511
51.91769 478
51.9378 503
51.95792 489
51.97803 492
51.99814 470
52.01826 496
52.03837 484
52.05848 481
52.0786 466
52.09871 507
52.11883 489
52.13894 518
52.15905 525
52.17917 456
52.19928 509
52.21939 514
52.23951 473
52.25962 482
52.27974 454
52.29985 497
52.31996 445
52.34008 493
52.36019 479
52.3803 482
52.40042 530
52.42053 476
52.44064 482
52.46076 482
52.48087 493
52.50099 514
52.5211 498
52.54121 506
52.56133 469
52.58144 535
52.60155 481
52.62167 515
52.64178 463
52.6619 508
52.68201 514
52.70212 472
52.72224 477
52.74235 524
52.76246 517
52.78258 515
52.80269 481
52.8228 499
52.84292 540
52.86303 499
52.88315 535
52.90326 523
52.92337 519
52.94349 514
52.9636 498
52.98371 553
53.00383 542
53.02394 537
53.04406 551
53.06417 580
53.08428 558
53.1044 571
53.12451 557
53.14462 573
53.16474 537
53.18485 556
53.20497 560
53.22508 558
53.24519 562
53.26531 531
53.28542 598
53.30553 546
53.32565 591
53.34576 542
53.36587 575
53.38599 540
53.4061 530
53.42622 548
53.44633 544
53.46644 556
53.48656 568
53.50667 612
53.52678 539
53.5469 577
53.56701 577
53.58713 616
53.60724 553
53.62735 537
53.64747 544
53.66758 543
53.68769 557
53.70781 582
53.72792 546
53.74804 573
53.76815 538
53.78826 513
53.80838 534
53.82849 566
53.8486 560
53.86872 540
53.88883 572
53.90894 605
53.92906 542
53.94917 587
53.96929 577
53.9894 551
54.00951 526
54.02963 572
54.04974 533
54.06985 576
54.08997 535
54.11008 560
54.1302 549
54.15031 548
54.17042 536
54.19054 527
54.21065 601
54.23076 544
54.25088 557
54.27099 593
54.29111 573
54.31122 553
54.33133 585
54.35145 583
54.37156 562
54.39167 527
54.41179 547
54.4319 564
54.45201 530
54.47213 547
54.49224 555
54.51236 515
54.53247 533
54.55258 584
54.5727 539
54.59281 553
54.61292 531
54.63304 582
54.65315 544
54.67327 599
54.69338 551
54.71349 544
54.73361 556
54.75372 578
54.77383 593
54.79395 572
54.81406 609
54.83417 566
54.85429 582
54.8744 539
54.89452 554
54.91463 577
54.93474 524
54.95486 606
54.97497 568
54.99508 505
55.0152 518
55.03531 528
55.05543 545
55.07554 607
55.09565 551
55.11577 543
55.13588 529
55.15599 508
55.17611 528
55.19622 511
55.21634 534
55.23645 516
55.25656 536
55.27668 589
55.29679 571
55.3169 540
55.33702 571
55.35713 585
55.37724 516
55.39736 546
55.41747 528
55.43759 526
55.4577 537
55.47781 507
55.49793 553
55.51804 520
55.53815 526
55.55827 508
55.57838 508
55.5985 533
55.61861 500
55.63872 539
55.65884 515
55.67895 531
55.69906 531
55.71918 537
55.73929 530
55.75941 512
55.77952 550
55.79963 510
55.81975 511
55.83986 570
55.85997 505
55.88009 540
55.9002 515
55.92031 507
55.94043 527
55.96054 550
55.98066 523
56.00077 520
56.02088 526
56.041 525
56.06111 521
56.08122 521
56.10134 523
56.12145 546
56.14157 504
56.16168 523
56.18179 518
56.20191 532
56.22202 569
56.24213 536
56.26225 520
56.28236 530
56.30248 531
56.32259 499
56.3427 543
56.36282 570
56.38293 564
56.40304 527
56.42316 521
56.44327 515
56.46338 554
56.4835 528
56.50361 564
56.52373 564
56.54384 526
56.56395 593
56.58407 545
56.60418 525
56.62429 528
56.64441 567
56.66452 537
56.68464 566
56.70475 519
56.72486 572
56.74498 529
56.76509 557
56.7852 548
56.80532 578
56.82543 558
56.84554 530
56.86566 555
56.88577 587
56.90589 564
56.926 539
56.94611 564
56.96623 552
56.98634 590
57.00645 543
57.02657 519
57.04668 526
57.0668 567
57.08691 558
57.10702 530
57.12714 540
57.14725 533
57.16736 497
57.18748 510
57.20759 537
57.22771 533
57.24782 552
57.26793 531
57.28805 537
57.30816 504
57.32827 509
57.34839 488
57.3685 505
57.38861 472
57.40873 506
57.42884 484
57.44896 527
57.46907 479
57.48918 510
57.5093 511
57.52941 516
57.54952 511
57.56964 505
57.58975 498
57.60987 512
57.62998 521
57.65009 489
57.67021 484
57.69032 514
57.71043 512
57.73055 496
57.75066 502
57.77078 530
57.79089 469
57.811 485
57.83112 480
57.85123 517
57.87134 492
57.89146 487
57.91157 504
57.93168 500
57.9518 505
57.97191 508
57.99203 496
58.01214 519
58.03225 461
58.05237 471
58.07248 518
58.09259 461
58.11271 484
58.13282 458
58.15294 476
58.17305 493
58.19316 523
58.21328 489
58.23339 458
58.2535 525
58.27362 427
58.29373 472
58.31385 479
58.33396 514
58.35407 470
58.37419 485
58.3943 435
58.41441 515
58.43453 458
58.45464 492
58.47475 526
58.49487 442
58.51498 494
58.5351 484
58.55521 442
58.57532 462
58.59544 489
58.61555 483
58.63566 474
58.65578 495
58.67589 485
58.69601 479
58.71612 478
58.73623 465
58.75635 486
58.77646 477
58.79657 515
58.81669 503
58.8368 476
58.85691 475
58.87703 497
58.89714 508
58.91726 482
58.93737 534
58.95748 504
58.9776 499
58.99771 479
59.01782 560
59.03794 472
59.05805 502
59.07817 488
59.09828 494
59.11839 506
59.13851 498
59.15862 516
59.17873 478
59.19885 465
59.21896 515
59.23908 444
59.25919 480
59.2793 538
59.29942 553
59.31953 502
59.33964 471
59.35976 526
59.37987 511
59.39998 473
59.4201 498
59.44021 496
59.46033 503
59.48044 517
59.50055 512
59.52067 512
59.54078 469
59.56089 517
59.58101 519
59.60112 492
59.62124 454
59.64135 501
59.66146 515
59.68158 508
59.70169 459
59.7218 551
59.74192 500
59.76203 532
59.78215 529
59.80226 592
59.82237 573
59.84249 570
59.8626 521
59.88271 569
59.90283 505
59.92294 517
59.94305 525
59.96317 546
59.98328 538
60.0034 553
60.02351 550
60.04362 553
60.06374 528
60.08385 551
60.10396 535
60.12408 504
60.14419 556
60.16431 537
60.18442 530
60.20453 543
60.22465 527
60.24476 511
60.26487 506
60.28499 507
60.3051 508
60.32522 531
60.34533 573
60.36544 507
60.38556 516
60.40567 516
60.42578 603
60.4459 517
60.46601 533
60.48612 514
60.50624 525
60.52635 524
60.54647 524
60.56658 541
60.58669 493
60.60681 574
60.62692 548
60.64703 491
60.66715 598
60.68726 548
60.70738 537
60.72749 591
60.7476 518
60.76772 527
60.78783 572
60.80794 571
60.82806 515
60.84817 568
60.86828 527
60.8884 501
60.90851 547
60.92863 504
60.94874 541
60.96885 571
60.98897 534
61.00908 559
61.02919 536
61.04931 569
61.06942 554
61.08954 538
61.10965 575
61.12976 534
61.14988 588
61.16999 585
61.1901 528
61.21022 590
61.23033 555
61.25045 571
61.27056 606
61.29067 581
61.31079 554
61.3309 547
61.35101 596
61.37113 552
61.39124 563
61.41135 566
61.43147 566
61.45158 599
61.4717 560
61.49181 585
61.51192 558
61.53204 631
61.55215 574
61.57226 541
61.59238 606
61.61249 621
61.63261 616
61.65272 564
61.67283 596
61.69295 609
61.71306 555
61.73317 601
61.75329 561
61.7734 570
61.79352 624
61.81363 609
61.83374 622
61.85386 611
61.87397 611
61.89408 596
61.9142 624
61.93431 592
61.95442 611
61.97454 608
61.99465 599
62.01477 579
62.03488 583
62.05499 590
62.07511 583
62.09522 634
62.11533 624
62.13545 643
62.15556 593
62.17568 624
62.19579 667
62.2159 613
62.23602 618
62.25613 595
62.27624 647
62.29636 589
62.31647 631
62.33659 634
62.3567 622
62.37681 613
62.39693 612
62.41704 617
62.43715 631
62.45727 623
62.47738 583
62.49749 605
62.51761 639
62.53772 603
62.55784 564
62.57795 632
62.59806 617
62.61818 600
62.63829 594
62.6584 588
62.67852 600
62.69863 559
62.71875 580
62.73886 580
62.75897 608
62.77909 579
62.7992 563
62.81931 591
62.83943 569
62.85954 566
62.87965 558
62.89977 548
62.91988 579
62.94 531
62.96011 533
62.98022 545
63.00034 505
63.02045 516
63.04056 562
63.06068 516
63.08079 530
63.10091 512
63.12102 528
63.14113 526
63.16125 494
63.18136 502
63.20147 498
63.22159 510
63.2417 463
63.26182 516
63.28193 479
63.30204 500
63.32216 513
63.34227 497
63.36238 509
63.3825 519
63.40261 529
63.42272 473
63.44284 486
63.46295 509
63.48307 494
63.50318 496
63.52329 508
63.54341 542
63.56352 520
63.58363 492
63.60375 496
63.62386 519
63.64398 499
63.66409 518
63.6842 496
63.70432 516
63.72443 472
63.74454 527
63.76466 535
63.78477 536
63.80489 492
63.825 515
63.84511 515
63.86523 538
63.88534 492
63.90545 511
63.92557 509
63.94568 484
63.96579 522
63.98591 542
64.00602 477
64.02614 475
64.04625 515
64.06636 497
64.08648 486
64.10659 543
64.1267 463
64.14682 482
64.16693 533
64.18705 540
64.20716 526
64.22727 486
64.24739 466
64.2675 499
64.28761 491
64.30773 444
64.32784 487
64.34796 478
64.36807 475
64.38818 452
64.4083 483
64.42841 492
64.44852 473
64.46864 470
64.48875 478
64.50886 461
64.52898 489
64.54909 489
64.56921 479
64.58932 519
64.60943 435
64.62955 499
64.64966 490
64.66977 479
64.68989 499
64.71 475
64.73012 470
64.75023 457
64.77034 494
64.79046 489
64.81057 508
64.83068 541
64.8508 460
64.87091 483
64.89102 484
64.91114 475
64.93125 486
64.95137 504
64.97148 487
64.99159 486
65.01171 491
65.03182 425
65.05193 462
65.07205 495
65.09216 487
65.11228 472
65.13239 460
65.1525 485
65.17262 454
65.19273 465
65.21284 468
65.23296 510
65.25307 518
65.27319 498
65.2933 445
65.31341 420
65.33353 470
65.35364 466
65.37375 465
65.39387 451
65.41398 488
65.43409 484
65.45421 482
65.47432 451
65.49444 460
65.51455 497
65.53466 481
65.55478 463
65.57489 473
65.595 483
65.61512 431
65.63523 438
65.65535 501
65.67546 465
65.69557 485
65.71569 477
65.7358 458
65.75591 427
65.77603 475
65.79614 463
65.81626 465
65.83637 471
65.85648 531
65.8766 445
65.89671 531
65.91682 462
65.93694 451
65.95705 472
65.97716 476
65.99728 501
66.01739 507
66.03751 492
66.05762 464
66.07773 467
66.09785 465
66.11796 462
66.13807 468
66.15819 503
66.1783 445
66.19842 413
66.21853 478
66.23864 416
66.25876 469
66.27887 471
66.29898 462
66.3191 467
66.33921 455
66.35933 471
66.37944 456
66.39955 492
66.41967 427
66.43978 479
66.45989 495
66.48001 473
66.50012 479
66.52023 482
66.54035 458
66.56046 424
66.58058 462
66.60069 478
66.6208 451
66.64092 467
66.66103 399
66.68114 473
66.70126 473
66.72137 456
66.74149 462
66.7616 488
66.78171 471
66.80183 433
66.82194 489
66.84205 455
66.86217 467
66.88228 480
66.90239 429
66.92251 435
66.94262 451
66.96274 453
66.98285 388
67.00296 415
67.02308 451
67.04319 463
67.0633 491
67.08342 462
67.10353 430
67.12365 478
67.14376 451
67.16387 475
67.18399 482
67.2041 435
67.22421 473
67.24433 490
67.26444 477
67.28456 440
67.30467 424
67.32478 476
67.3449 446
67.36501 436
67.38512 462
67.40524 479
67.42535 457
67.44546 448
67.46558 446
67.48569 452
67.50581 454
67.52592 499
67.54603 502
67.56615 481
67.58626 507
67.60637 459
67.62649 505
67.6466 519
67.66672 478
67.68683 478
67.70694 478
67.72706 475
67.74717 494
67.76728 486
67.7874 483
67.80751 485
67.82763 485
67.84774 516
67.86785 497
67.88797 442
67.90808 503
67.92819 495
67.94831 511
67.96842 488
67.98853 502
68.00865 495
68.02876 512
68.04888 472
68.06899 519
68.0891 471
68.10922 513
68.12933 506
68.14944 471
68.16956 506
68.18967 528
68.20979 511
68.2299 506
68.25001 487
68.27013 445
68.29024 492
68.31035 499
68.33047 442
68.35058 496
68.3707 484
68.39081 473
68.41092 498
68.43104 450
68.45115 460
68.47126 468
68.49138 469
68.51149 441
68.5316 488
68.55172 463
68.57183 476
68.59195 486
68.61206 481
68.63217 479
68.65229 457
68.6724 460
68.69251 450
68.71263 451
68.73274 426
68.75286 454
68.77297 509
68.79308 478
68.8132 459
68.83331 443
68.85342 433
68.87354 431
68.89365 449
68.91376 472
68.93388 481
68.95399 463
68.97411 455
68.99422 450
69.01433 457
69.03445 469
69.05456 462
69.07467 426
69.09479 480
69.1149 472
69.13502 467
69.15513 443
69.17524 505
69.19536 451
69.21547 468
69.23558 430
69.2557 451
69.27581 450
69.29593 462
69.31604 466
69.33615 460
69.35627 497
69.37638 493
69.39649 478
69.41661 483
69.43672 468
69.45683 463
69.47695 451
69.49706 454
69.51718 406
69.53729 474
69.5574 465
69.57752 431
69.59763 463
69.61774 448
69.63786 494
69.65797 440
69.67809 456
69.6982 460
69.71831 476
69.73843 487
69.75854 438
69.77865 462
69.79877 477
69.81888 435
69.839 444
69.85911 488
69.87922 468
69.89934 448
69.91945 490
69.93956 452
69.95968 469
69.97979 460
69.9999 441
70.02002 475
70.04013 444
70.06025 455
70.08036 515
70.10047 460
70.12059 478
70.1407 451
70.16081 436
70.18093 434
70.20104 461
70.22116 478
70.24127 454
70.26138 460
70.2815 477
70.30161 442
70.32172 428
70.34184 448
70.36195 461
70.38207 434
70.40218 467
70.42229 458
70.44241 494
70.46252 469
70.48263 415
70.50275 470
70.52286 469
70.54297 445
70.56309 493
70.5832 437
70.60332 458
70.62343 477
70.64354 437
70.66366 472
70.68377 449
70.70388 480
70.724 436
70.74411 433
70.76423 473
70.78434 479
70.80445 446
70.82457 400
70.84468 458
70.86479 463
70.88491 471
70.90502 429
70.92513 435
70.94525 460
70.96536 472
70.98548 435
71.00559 465
71.0257 454
71.04582 479
71.06593 452
71.08604 480
71.10616 464
71.12627 483
71.14639 436
71.1665 437
71.18661 442
71.20673 487
71.22684 451
71.24695 463
71.26707 465
71.28718 496
71.3073 478
71.32741 458
71.34752 451
71.36764 439
71.38775 477
71.40786 460
71.42798 450
71.44809 469
71.4682 473
71.48832 436
71.50843 494
71.52855 413
71.54866 453
71.56877 482
71.58889 462
71.609 440
71.62911 490
71.64923 434
71.66934 452
71.68946 466
71.70957 480
71.72968 448
71.7498 462
71.76991 460
71.79002 453
71.81014 465
71.83025 488
71.85037 457
71.87048 461
71.89059 466
71.91071 474
71.93082 456
71.95093 474
71.97105 493
71.99116 482
72.01127 457
72.03139 482
72.0515 501
72.07162 478
72.09173 483
72.11184 470
72.13196 472
72.15207 464
72.17218 499
72.1923 453
72.21241 472
72.23253 456
72.25264 469
72.27275 448
72.29287 520
72.31298 469
72.33309 464
72.35321 466
72.37332 477
72.39344 460
72.41355 485
72.43366 445
72.45378 459
72.47389 451
72.494 471
72.51412 482
72.53423 465
72.55434 466
72.57446 442
72.59457 483
72.61469 452
72.6348 460
72.65491 487
72.67503 494
72.69514 525
72.71525 474
72.73537 488
72.75548 487
72.7756 457
72.79571 470
72.81582 503
72.83594 465
72.85605 500
72.87616 491
72.89628 480
72.91639 491
72.9365 462
72.95662 500
72.97673 505
72.99685 471
73.01696 462
73.03707 502
73.05719 454
73.0773 492
73.09741 458
73.11753 473
73.13764 487
73.15776 491
73.17787 445
73.19798 490
73.2181 476
73.23821 486
73.25832 478
73.27844 491
73.29855 504
73.31867 470
73.33878 475
73.35889 479
73.37901 461
73.39912 518
73.41923 446
73.43935 503
73.45946 447
73.47957 456
73.49969 494
73.5198 455
73.53992 465
73.56003 472
73.58014 453
73.60026 455
73.62037 473
73.64048 454
73.6606 475
73.68071 471
73.70083 493
73.72094 500
73.74105 444
73.76117 481
73.78128 501
73.80139 470
73.82151 489
73.84162 491
73.86174 459
73.88185 480
73.90196 473
73.92208 439
73.94219 447
73.9623 465
73.98242 483
74.00253 483
74.02264 457
74.04276 457
74.06287 456
74.08299 490
74.1031 507
74.12321 443
74.14333 436
74.16344 486
74.18355 487
74.20367 463
74.22378 487
74.2439 439
74.26401 479
74.28412 478
74.30424 455
74.32435 435
74.34446 454
74.36458 454
74.38469 460
74.40481 434
74.42492 472
74.44503 464
74.46515 434
74.48526 474
74.50537 455
74.52549 487
74.5456 467
74.56571 461
74.58583 459
74.60594 470
74.62606 481
74.64617 513
74.66628 434
74.6864 436
74.70651 445
74.72662 502
74.74674 433
74.76685 454
74.78697 463
74.80708 467
74.82719 475
74.84731 449
74.86742 446
74.88753 468
74.90765 465
74.92776 467
74.94787 481
74.96799 442
74.9881 459
75.00822 404
