3.00117 20902
3.02128 20132
3.0414 19268
3.06151 19421
3.08162 18337
3.10174 18215
3.12185 17459
3.14197 17125
3.16208 16742
3.18219 16134
3.20231 15896
3.22242 15091
3.24253 14586
3.26265 14338
3.28276 13462
3.30288 13294
3.32299 13028
3.3431 12570
3.36322 12187
3.38333 11715
3.40344 11389
3.42356 10845
3.44367 10470
3.46379 10235
3.4839 9707
3.50401 9768
3.52413 9038
3.54424 8784
3.56435 8643
3.58447 8195
3.60458 8079
3.62469 7524
3.64481 7404
3.66492 7163
3.68504 6752
3.70515 6624
3.72526 6291
3.74538 6129
3.76549 6116
3.7856 5403
3.80572 5472
3.82583 5158
3.84595 4860
3.86606 4753
3.88617 4533
3.90629 4410
3.9264 4117
3.94651 4051
3.96663 3887
3.98674 3689
4.00686 3683
4.02697 3315
4.04708 3169
4.0672 3038
4.08731 2936
4.10742 2923
4.12754 2780
4.14765 2574
4.16776 2572
4.18788 2454
4.20799 2395
4.22811 2250
4.24822 2041
4.26833 2179
4.28845 2124
4.30856 2014
4.32867 1850
4.34879 1789
4.3689 1851
4.38902 1801
4.40913 1743
4.42924 1723
4.44936 1650
4.46947 1597
4.48958 1555
4.5097 1606
4.52981 1501
4.54992 1365
4.57004 1404
4.59015 1485
4.61027 1327
4.63038 1302
4.65049 1245
4.67061 1345
4.69072 1276
4.71083 1227
4.73095 1224
4.75106 1200
4.77118 1175
4.79129 1186
4.8114 1108
4.83152 1104
4.85163 1094
4.87174 1077
4.89186 1095
4.91197 960
4.93209 988
4.9522 925
4.97231 943
4.99243 963
5.01254 818
5.03265 903
5.05277 875
5.07288 851
5.09299 850
5.11311 805
5.13322 818
5.15334 814
5.17345 757
5.19356 757
5.21368 764
5.23379 761
5.2539 735
5.27402 758
5.29413 771
5.31425 635
5.33436 652
5.35447 654
5.37459 649
5.3947 672
5.41481 604
5.43493 604
5.45504 643
5.47516 582
5.49527 624
5.51538 619
5.5355 566
5.55561 598
5.57572 590
5.59584 593
5.61595 532
5.63606 454
5.65618 537
5.67629 534
5.69641 513
5.71652 500
5.73663 480
5.75675 514
5.77686 522
5.79697 502
5.81709 479
5.8372 515
5.85732 468
5.87743 503
5.89754 529
5.91766 481
5.93777 424
5.95788 471
5.978 440
5.99811 505
6.01823 464
6.03834 474
6.05845 452
6.07857 462
6.09868 437
6.11879 452
6.13891 423
6.15902 436
6.17913 494
6.19925 438
6.21936 429
6.23948 445
6.25959 442
6.2797 433
6.29982 437
6.31993 450
6.34004 474
6.36016 400
6.38027 482
6.40039 404
6.4205 420
6.44061 458
6.46073 423
6.48084 424
6.50095 426
6.52107 385
6.54118 380
6.56129 417
6.58141 409
6.60152 423
6.62164 416
6.64175 382
6.66186 414
6.68198 419
6.70209 403
6.7222 462
6.74232 416
6.76243 375
6.78255 439
6.80266 429
6.82277 395
6.84289 372
6.863 422
6.88311 401
6.90323 405
6.92334 375
6.94346 401
6.96357 450
6.98368 404
7.0038 370
7.02391 381
7.04402 417
7.06414 353
7.08425 423
7.10436 407
7.12448 413
7.14459 394
7.16471 393
7.18482 372
7.20493 370
7.22505 381
7.24516 391
7.26527 377
7.28539 357
7.3055 430
7.32562 375
7.34573 380
7.36584 408
7.38596 398
7.40607 424
7.42618 406
7.4463 360
7.46641 396
7.48653 388
7.50664 417
7.52675 356
7.54687 416
7.56698 423
7.58709 352
7.60721 363
7.62732 428
7.64743 391
7.66755 405
7.68766 390
7.70778 402
7.72789 432
7.748 399
7.76812 409
7.78823 399
7.80834 374
7.82846 374
7.84857 406
7.86869 391
7.8888 396
7.90891 370
7.92903 401
7.94914 339
7.96925 417
7.98937 432
8.00948 378
8.0296 407
8.04971 368
8.06982 415
8.08994 370
8.11005 385
8.13016 423
8.15028 419
8.17039 422
8.1905 381
8.21062 402
8.23073 381
8.25085 380
8.27096 388
8.29107 395
8.31119 405
8.3313 394
8.35141 403
8.37153 391
8.39164 399
8.41176 373
8.43187 398
8.45198 406
8.4721 401
8.49221 406
8.51232 392
8.53244 383
8.55255 431
8.57266 402
8.59278 395
8.61289 412
8.63301 424
8.65312 394
8.67323 422
8.69335 408
8.71346 380
8.73357 425
8.75369 426
8.7738 435
8.79392 408
8.81403 389
8.83414 397
8.85426 434
8.87437 397
8.89448 394
8.9146 408
8.93471 436
8.95483 428
8.97494 413
8.99505 355
9.01517 415
9.03528 360
9.05539 403
9.07551 396
9.09562 440
9.11573 360
9.13585 395
9.15596 395
9.17608 426
9.19619 393
9.2163 397
9.23642 444
9.25653 425
9.27664 361
9.29676 386
9.31687 410
9.33699 364
9.3571 414
9.37721 412
9.39733 424
9.41744 391
9.43755 426
9.45767 377
9.47778 373
9.4979 402
9.51801 383
9.53812 401
9.55824 372
9.57835 406
9.59846 362
9.61858 384
9.63869 428
9.6588 387
9.67892 389
9.69903 379
9.71915 388
9.73926 416
9.75937 417
9.77949 381
9.7996 411
9.81971 386
9.83983 406
9.85994 376
9.88006 411
9.90017 367
9.92028 426
9.9404 406
9.96051 378
9.98062 380
10.00074 362
10.02085 389
10.04097 378
10.06108 428
10.08119 370
10.10131 415
10.12142 372
10.14153 398
10.16165 385
10.18176 432
10.20187 372
10.22199 381
10.2421 400
10.26222 396
10.28233 394
10.30244 360
10.32256 407
10.34267 429
10.36278 353
10.3829 387
10.40301 364
10.42313 382
10.44324 397
10.46335 397
10.48347 403
10.50358 447
10.52369 382
10.54381 392
10.56392 406
10.58403 410
10.60415 398
10.62426 394
10.64438 383
10.66449 381
10.6846 380
10.70472 365
10.72483 364
10.74494 399
10.76506 411
10.78517 373
10.80529 393
10.8254 388
10.84551 433
10.86563 418
10.88574 381
10.90585 378
10.92597 442
10.94608 363
10.9662 400
10.98631 374
11.00642 362
11.02654 430
11.04665 400
11.06676 391
11.08688 402
11.10699 382
11.1271 381
11.14722 409
11.16733 389
11.18745 377
11.20756 377
11.22767 430
11.24779 458
11.2679 429
11.28801 440
11.30813 380
11.32824 423
11.34836 384
11.36847 445
11.38858 419
11.4087 409
11.42881 435
11.44892 401
11.46904 407
11.48915 413
11.50927 401
11.52938 417
11.54949 428
11.56961 418
11.58972 390
11.60983 442
11.62995 441
11.65006 392
11.67017 427
11.69029 455
11.7104 480
11.73052 438
11.75063 464
11.77074 487
11.79086 445
11.81097 497
11.83108 496
11.8512 511
11.87131 516
11.89143 463
11.91154 525
11.93165 532
11.95177 559
11.97188 519
11.99199 566
12.01211 585
12.03222 582
12.05234 611
12.07245 665
12.09256 605
12.11268 681
12.13279 731
12.1529 735
12.17302 759
12.19313 802
12.21324 804
12.23336 836
12.25347 819
12.27359 857
12.2937 865
12.31381 875
12.33393 870
12.35404 824
12.37415 798
12.39427 730
12.41438 736
12.4345 766
12.45461 733
12.47472 621
12.49484 657
12.51495 647
12.53506 612
12.55518 572
12.57529 548
12.5954 597
12.61552 516
12.63563 455
12.65575 532
12.67586 525
12.69597 490
12.71609 446
12.7362 424
12.75631 468
12.77643 442
12.79654 401
12.81666 410
12.83677 462
12.85688 424
12.877 420
12.89711 400
12.91722 385
12.93734 386
12.95745 404
12.97757 395
12.99768 427
13.01779 408
13.03791 438
13.05802 370
13.07813 369
13.09825 364
13.11836 386
13.13847 377
13.15859 347
13.1787 398
13.19882 404
13.21893 391
13.23904 395
13.25916 414
13.27927 408
13.29938 357
13.3195 363
13.33961 347
13.35973 392
13.37984 392
13.39995 350
13.42007 352
13.44018 387
13.46029 357
13.48041 340
13.50052 362
13.52064 357
13.54075 371
13.56086 329
13.58098 378
13.60109 359
13.6212 374
13.64132 383
13.66143 365
13.68154 335
13.70166 412
13.72177 356
13.74189 383
13.762 370
13.78211 367
13.80223 349
13.82234 354
13.84245 377
13.86257 337
13.88268 354
13.9028 381
13.92291 377
13.94302 361
13.96314 346
13.98325 350
14.00336 374
14.02348 334
14.04359 351
14.06371 314
14.08382 342
14.10393 367
14.12405 415
14.14416 370
14.16427 347
14.18439 375
14.2045 354
14.22461 346
14.24473 374
14.26484 316
14.28496 389
14.30507 373
14.32518 392
14.3453 387
14.36541 346
14.38552 353
14.40564 349
14.42575 336
14.44587 349
14.46598 356
14.48609 311
14.50621 328
14.52632 351
14.54643 362
14.56655 354
14.58666 354
14.60677 362
14.62689 358
14.647 329
14.66712 385
14.68723 345
14.70734 389
14.72746 339
14.74757 367
14.76768 328
14.7878 368
14.80791 371
14.82803 365
14.84814 359
14.86825 350
14.88837 381
14.90848 330
14.92859 339
14.94871 357
14.96882 350
14.98894 339
15.00905 365
15.02916 338
15.04928 361
15.06939 373
15.0895 364
15.10962 335
15.12973 399
15.14984 363
15.16996 361
15.19007 374
15.21019 365
15.2303 349
15.25041 342
15.27053 384
15.29064 357
15.31075 364
15.33087 383
15.35098 391
15.3711 356
15.39121 362
15.41132 349
15.43144 348
15.45155 385
15.47166 376
15.49178 321
15.51189 327
15.53201 334
15.55212 355
15.57223 388
15.59235 333
15.61246 363
15.63257 349
15.65269 389
15.6728 351
15.69291 347
15.71303 399
15.73314 389
15.75326 312
15.77337 334
15.79348 381
15.8136 352
15.83371 352
15.85382 320
15.87394 332
15.89405 327
15.91417 353
15.93428 363
15.95439 347
15.97451 350
15.99462 382
16.01473 340
16.03485 351
16.05496 314
16.07508 349
16.09519 358
16.1153 370
16.13542 372
16.15553 334
16.17564 319
16.19576 354
16.21587 356
16.23598 323
16.2561 343
16.27621 322
16.29633 378
16.31644 327
16.33655 359
16.35667 361
16.37678 355
16.39689 356
16.41701 359
16.43712 354
16.45724 345
16.47735 360
16.49746 349
16.51758 343
16.53769 354
16.5578 340
16.57792 359
16.59803 356
16.61814 312
16.63826 363
16.65837 348
16.67849 327
16.6986 380
16.71871 391
16.73883 358
16.75894 340
16.77905 370
16.79917 334
16.81928 369
16.8394 368
16.85951 385
16.87962 342
16.89974 338
16.91985 351
16.93996 369
16.96008 390
16.98019 370
17.00031 378
17.02042 366
17.04053 368
17.06065 361
17.08076 352
17.10087 367
17.12099 356
17.1411 352
17.16121 360
17.18133 376
17.20144 405
17.22156 371
17.24167 353
17.26178 385
17.2819 387
17.30201 323
17.32212 371
17.34224 343
17.36235 353
17.38247 340
17.40258 338
17.42269 382
17.44281 373
17.46292 376
17.48303 410
17.50315 380
17.52326 380
17.54338 401
17.56349 377
17.5836 372
17.60372 371
17.62383 354
17.64394 386
17.66406 402
17.68417 387
17.70428 359
17.7244 405
17.74451 392
17.76463 382
17.78474 417
17.80485 428
17.82497 415
17.84508 393
17.86519 386
17.88531 397
17.90542 409
17.92554 392
17.94565 471
17.96576 413
17.98588 436
18.00599 489
18.0261 486
18.04622 469
18.06633 513
18.08645 496
18.10656 555
18.12667 559
18.14679 625
18.1669 680
18.18701 770
18.20713 913
18.22724 1009
18.24735 1134
18.26747 1165
18.28758 1249
18.3077 1248
18.32781 1115
18.34792 957
18.36804 899
18.38815 771
18.40826 744
18.42838 593
18.44849 556
18.46861 489
18.48872 484
18.50883 464
18.52895 432
18.54906 426
18.56917 404
18.58929 434
18.6094 452
18.62951 381
18.64963 422
18.66974 425
18.68986 396
18.70997 388
18.73008 374
18.7502 401
18.77031 427
18.79042 386
18.81054 437
18.83065 400
18.85077 409
18.87088 353
18.89099 366
18.91111 381
18.93122 351
18.95133 402
18.97145 400
18.99156 395
19.01168 385
19.03179 399
19.0519 353
19.07202 366
19.09213 438
19.11224 344
19.13236 406
19.15247 383
19.17258 382
19.1927 388
19.21281 399
19.23293 373
19.25304 400
19.27315 386
19.29327 430
19.31338 392
19.33349 399
19.35361 425
19.37372 427
19.39384 372
19.41395 401
19.43406 414
19.45418 373
19.47429 422
19.4944 420
19.51452 417
19.53463 442
19.55475 397
19.57486 455
19.59497 461
19.61509 428
19.6352 484
19.65531 503
19.67543 514
19.69554 509
19.71565 566
19.73577 583
19.75588 613
19.776 657
19.79611 645
19.81622 707
19.83634 728
19.85645 730
19.87656 686
19.89668 747
19.91679 745
19.93691 732
19.95702 726
19.97713 717
19.99725 674
20.01736 736
20.03747 661
20.05759 693
20.0777 705
20.09782 743
20.11793 742
20.13804 794
20.15816 775
20.17827 877
20.19838 911
20.2185 899
20.23861 955
20.25872 913
20.27884 996
20.29895 869
20.31907 924
20.33918 914
20.35929 870
20.37941 863
20.39952 885
20.41963 875
20.43975 885
20.45986 844
20.47998 856
20.50009 904
20.5202 874
20.54032 846
20.56043 842
20.58054 833
20.60066 860
20.62077 896
20.64088 898
20.661 974
20.68111 1104
20.70123 1315
20.72134 1771
20.74145 2155
20.76157 2677
20.78168 3453
20.80179 3863
20.82191 4194
20.84202 3826
20.86214 3406
20.88225 2852
20.90236 2080
20.92248 1567
20.94259 1132
20.9627 950
20.98282 809
21.00293 769
21.02305 759
21.04316 760
21.06327 733
21.08339 678
21.1035 745
21.12361 737
21.14373 693
21.16384 746
21.18395 707
21.20407 703
21.22418 745
21.2443 682
21.26441 664
21.28452 736
21.30464 721
21.32475 738
21.34486 754
21.36498 771
21.38509 779
21.40521 829
21.42532 771
21.44543 753
21.46555 811
21.48566 803
21.50577 797
21.52589 835
21.546 785
21.56612 808
21.58623 773
21.60634 768
21.62646 735
21.64657 643
21.66668 695
21.6868 638
21.70691 640
21.72702 606
21.74714 649
21.76725 639
21.78737 627
21.80748 578
21.82759 566
21.84771 582
21.86782 583
21.88793 575
21.90805 623
21.92816 523
21.94828 530
21.96839 579
21.9885 550
22.00862 536
22.02873 593
22.04884 561
22.06896 561
22.08907 554
22.10919 544
22.1293 524
22.14941 519
22.16953 478
22.18964 523
22.20975 509
22.22987 534
22.24998 537
22.27009 523
22.29021 520
22.31032 535
22.33044 529
22.35055 528
22.37066 518
22.39078 506
22.41089 456
22.431 504
22.45112 441
22.47123 469
22.49135 443
22.51146 500
22.53157 483
22.55169 504
22.5718 512
22.59191 541
22.61203 500
22.63214 503
22.65225 494
22.67237 502
22.69248 493
22.7126 521
22.73271 495
22.75282 436
22.77294 501
22.79305 441
22.81316 440
22.83328 428
22.85339 486
22.87351 481
22.89362 430
22.91373 447
22.93385 472
22.95396 454
22.97407 487
22.99419 440
23.0143 479
23.03442 431
23.05453 483
23.07464 440
23.09476 471
23.11487 430
23.13498 467
23.1551 433
23.17521 465
23.19532 483
23.21544 460
23.23555 421
23.25567 408
23.27578 443
23.29589 451
23.31601 469
23.33612 430
23.35623 414
23.37635 426
23.39646 448
23.41658 433
23.43669 412
23.4568 415
23.47692 427
23.49703 483
23.51714 455
23.53726 412
23.55737 443
23.57749 482
23.5976 464
23.61771 462
23.63783 448
23.65794 442
23.67805 434
23.69817 425
23.71828 467
23.73839 453
23.75851 454
23.77862 515
23.79874 423
23.81885 494
23.83896 458
23.85908 502
23.87919 516
23.8993 486
23.91942 484
23.93953 480
23.95965 514
23.97976 525
23.99987 559
24.01999 567
24.0401 556
24.06021 548
24.08033 642
24.10044 599
24.12056 575
24.14067 560
24.16078 527
24.1809 530
24.20101 531
24.22112 544
24.24124 531
24.26135 454
24.28146 496
24.30158 461
24.32169 485
24.34181 483
24.36192 540
24.38203 553
24.40215 509
24.42226 522
24.44237 547
24.46249 510
24.4826 539
24.50272 561
24.52283 571
24.54294 600
24.56306 569
24.58317 604
24.60328 579
24.6234 642
24.64351 650
24.66362 647
24.68374 633
24.70385 663
24.72397 714
24.74408 668
24.76419 745
24.78431 774
24.80442 757
24.82453 770
24.84465 779
24.86476 847
24.88488 764
24.90499 759
24.9251 734
24.94522 718
24.96533 748
24.98544 697
25.00556 663
25.02567 667
25.04579 635
25.0659 616
25.08601 622
25.10613 670
25.12624 590
25.14635 619
25.16647 560
25.18658 636
25.20669 612
25.22681 615
25.24692 643
25.26704 584
25.28715 564
25.30726 620
25.32738 563
25.34749 606
25.3676 523
25.38772 524
25.40783 486
25.42795 496
25.44806 519
25.46817 526
25.48829 511
25.5084 516
25.52851 512
25.54863 458
25.56874 500
25.58886 496
25.60897 502
25.62908 511
25.6492 513
25.66931 568
25.68942 559
25.70954 534
25.72965 567
25.74976 535
25.76988 492
25.78999 533
25.81011 568
25.83022 553
25.85033 559
25.87045 539
25.89056 572
25.91067 591
25.93079 543
25.9509 567
25.97102 580
25.99113 580
26.01124 641
26.03136 594
26.05147 603
26.07158 616
26.0917 570
26.11181 652
26.13193 699
26.15204 630
26.17215 694
26.19227 723
26.21238 798
26.23249 754
26.25261 844
26.27272 887
26.29283 960
26.31295 931
26.33306 1059
26.35318 1176
26.37329 1322
26.3934 1498
26.41352 1936
26.43363 2332
26.45374 2905
26.47386 4112
26.49397 5573
26.51409 7804
26.5342 10828
26.55431 13595
26.57443 15832
26.59454 16932
26.61465 16473
26.63477 14806
26.65488 11633
26.67499 8620
26.69511 6336
26.71522 4276
26.73534 2808
26.75545 1829
26.77556 1438
26.79568 1235
26.81579 1137
26.8359 952
26.85602 1035
26.87613 930
26.89625 939
26.91636 834
26.93647 804
26.95659 717
26.9767 709
26.99681 671
27.01693 633
27.03704 568
27.05716 632
27.07727 675
27.09738 630
27.1175 577
27.13761 523
27.15772 563
27.17784 500
27.19795 516
27.21806 542
27.23818 508
27.25829 539
27.27841 575
27.29852 555
27.31863 524
27.33875 539
27.35886 485
27.37897 547
27.39909 543
27.4192 563
27.43932 526
27.45943 519
27.47954 525
27.49966 496
27.51977 490
27.53988 480
27.56 461
27.58011 464
27.60023 473
27.62034 468
27.64045 467
27.66057 455
27.68068 499
27.70079 464
27.72091 467
27.74102 526
27.76113 508
27.78125 463
27.80136 505
27.82148 499
27.84159 510
27.8617 461
27.88182 493
27.90193 509
27.92204 519
27.94216 490
27.96227 455
27.98239 450
28.0025 480
28.02261 449
28.04273 459
28.06284 443
28.08295 498
28.10307 408
28.12318 389
28.1433 472
28.16341 433
28.18352 445
28.20364 457
28.22375 422
28.24386 426
28.26398 393
28.28409 407
28.3042 403
28.32432 394
28.34443 422
28.36455 432
28.38466 476
28.40477 399
28.42489 412
28.445 449
28.46511 427
28.48523 420
28.50534 418
28.52546 419
28.54557 417
28.56568 451
28.5858 410
28.60591 434
28.62602 412
28.64614 420
28.66625 441
28.68636 422
28.70648 408
28.72659 402
28.74671 428
28.76682 406
28.78693 449
28.80705 411
28.82716 417
28.84727 426
28.86739 356
28.8875 423
28.90762 411
28.92773 381
28.94784 436
28.96796 369
28.98807 394
29.00818 373
29.0283 365
29.04841 429
29.06853 400
29.08864 364
29.10875 410
29.12887 402
29.14898 377
29.16909 406
29.18921 407
29.20932 419
29.22943 413
29.24955 397
29.26966 395
29.28978 407
29.30989 423
29.33 385
29.35012 436
29.37023 418
29.39034 393
29.41046 426
29.43057 416
29.45069 408
29.4708 371
29.49091 408
29.51103 393
29.53114 386
29.55125 435
29.57137 411
29.59148 381
29.6116 425
29.63171 388
29.65182 376
29.67194 406
29.69205 377
29.71216 405
29.73228 388
29.75239 378
29.7725 394
29.79262 411
29.81273 414
29.83285 386
29.85296 405
29.87307 400
29.89319 402
29.9133 384
29.93341 388
29.95353 363
29.97364 369
29.99376 395
30.01387 413
30.03398 370
30.0541 422
30.07421 363
30.09432 407
30.11444 420
30.13455 372
30.15467 417
30.17478 398
30.19489 429
30.21501 385
30.23512 389
30.25523 398
30.27535 394
30.29546 425
30.31557 408
30.33569 410
30.3558 407
30.37592 396
30.39603 399
30.41614 364
30.43626 408
30.45637 376
30.47648 396
30.4966 369
30.51671 392
30.53683 361
30.55694 376
30.57705 401
30.59717 389
30.61728 421
30.63739 387
30.65751 394
30.67762 377
30.69773 376
30.71785 400
30.73796 413
30.75808 406
30.77819 402
30.7983 396
30.81842 356
30.83853 406
30.85864 367
30.87876 401
30.89887 368
30.91899 371
30.9391 365
30.95921 386
30.97933 347
30.99944 395
31.01955 381
31.03967 364
31.05978 374
31.0799 387
31.10001 362
31.12012 373
31.14024 382
31.16035 403
31.18046 364
31.20058 362
31.22069 356
31.2408 371
31.26092 367
31.28103 412
31.30115 371
31.32126 362
31.34137 388
31.36149 361
31.3816 376
31.40171 367
31.42183 367
31.44194 382
31.46206 376
31.48217 385
31.50228 342
31.5224 373
31.54251 368
31.56262 367
31.58274 403
31.60285 387
31.62297 374
31.64308 363
31.66319 386
31.68331 365
31.70342 382
31.72353 379
31.74365 364
31.76376 381
31.78387 343
31.80399 439
31.8241 387
31.84422 364
31.86433 333
31.88444 360
31.90456 369
31.92467 364
31.94478 370
31.9649 393
31.98501 336
32.00513 408
32.02524 381
32.04535 354
32.06547 391
32.08558 411
32.10569 376
32.12581 402
32.14592 332
32.16604 392
32.18615 440
32.20626 359
32.22638 369
32.24649 340
32.2666 406
32.28672 368
32.30683 395
32.32694 405
32.34706 370
32.36717 365
32.38729 437
32.4074 373
32.42751 369
32.44763 388
32.46774 401
32.48785 385
32.50797 370
32.52808 410
32.5482 354
32.56831 410
32.58842 399
32.60854 350
32.62865 391
32.64876 380
32.66888 379
32.68899 387
32.7091 389
32.72922 410
32.74933 438
32.76945 408
32.78956 413
32.80967 405
32.82979 429
32.8499 384
32.87001 460
32.89013 467
32.91024 442
32.93036 481
32.95047 480
32.97058 522
32.9907 545
33.01081 570
33.03092 610
33.05104 645
33.07115 637
33.09127 605
33.11138 607
33.13149 657
33.15161 573
33.17172 579
33.19183 533
33.21195 538
33.23206 457
33.25217 461
33.27229 474
33.2924 434
33.31252 484
33.33263 414
33.35274 491
33.37286 444
33.39297 442
33.41308 450
33.4332 449
33.45331 405
33.47343 441
33.49354 404
33.51365 432
33.53377 459
33.55388 412
33.57399 448
33.59411 454
33.61422 450
33.63434 470
33.65445 464
33.67456 463
33.69468 438
33.71479 428
33.7349 447
33.75502 498
33.77513 442
33.79524 415
33.81536 482
33.83547 459
33.85559 392
33.8757 434
33.89581 440
33.91593 428
33.93604 419
33.95615 432
33.97627 414
33.99638 429
34.0165 435
34.03661 443
34.05672 378
34.07684 394
34.09695 419
34.11706 396
34.13718 418
34.15729 382
34.17741 421
34.19752 361
34.21763 396
34.23775 407
34.25786 389
34.27797 404
34.29809 427
34.3182 381
34.33831 397
34.35843 391
34.37854 400
34.39866 424
34.41877 425
34.43888 422
34.459 422
34.47911 396
34.49922 409
34.51934 424
34.53945 436
34.55957 402
34.57968 426
34.59979 432
34.61991 434
34.64002 435
34.66013 420
34.68025 479
34.70036 485
34.72047 467
34.74059 458
34.7607 483
34.78082 558
34.80093 535
34.82104 558
34.84116 557
34.86127 571
34.88138 591
34.9015 617
34.92161 605
34.94173 555
34.96184 635
34.98195 541
35.00207 594
35.02218 554
35.04229 587
35.06241 532
35.08252 562
35.10264 566
35.12275 522
35.14286 514
35.16298 492
35.18309 516
35.2032 540
35.22332 526
35.24343 519
35.26354 533
35.28366 550
35.30377 544
35.32389 546
35.344 562
35.36411 583
35.38423 625
35.40434 594
35.42445 577
35.44457 629
35.46468 655
35.4848 647
35.50491 656
35.52502 701
35.54514 662
35.56525 697
35.58536 718
35.60548 704
35.62559 677
35.64571 688
35.66582 631
35.68593 669
35.70605 615
35.72616 638
35.74627 601
35.76639 639
35.7865 651
35.80661 611
35.82673 606
35.84684 609
35.86696 674
35.88707 594
35.90718 632
35.9273 566
35.94741 622
35.96752 604
35.98764 596
36.00775 584
36.02787 574
36.04798 583
36.06809 561
36.08821 520
36.10832 503
36.12843 537
36.14855 557
36.16866 549
36.18878 579
36.20889 492
36.229 578
36.24912 574
36.26923 573
36.28934 619
36.30946 577
36.32957 675
36.34968 710
36.3698 828
36.38991 927
36.41003 1071
36.43014 1133
36.45025 1420
36.47037 1437
36.49048 1548
36.51059 1555
36.53071 1385
36.55082 1369
36.57094 1135
36.59105 1014
36.61116 961
36.63128 843
36.65139 748
36.6715 620
36.69162 540
36.71173 541
36.73184 550
36.75196 527
36.77207 506
36.79219 554
36.8123 524
36.83241 544
36.85253 506
36.87264 497
36.89275 506
36.91287 527
36.93298 507
36.9531 518
36.97321 518
36.99332 542
37.01344 537
37.03355 494
37.05366 540
37.07378 545
37.09389 560
37.11401 545
37.13412 569
37.15423 543
37.17435 553
37.19446 564
37.21457 553
37.23469 577
37.2548 555
37.27491 544
37.29503 596
37.31514 578
37.33526 572
37.35537 555
37.37548 587
37.3956 564
37.41571 591
37.43582 593
37.45594 664
37.47605 598
37.49617 636
37.51628 608
37.53639 576
37.55651 615
37.57662 643
37.59673 607
37.61685 595
37.63696 642
37.65708 618
37.67719 591
37.6973 566
37.71742 545
37.73753 551
37.75764 579
37.77776 587
37.79787 516
37.81798 500
37.8381 476
37.85821 533
37.87833 540
37.89844 454
37.91855 533
37.93867 449
37.95878 491
37.97889 493
37.99901 504
38.01912 518
38.03924 486
38.05935 512
38.07946 480
38.09958 527
38.11969 529
38.1398 503
38.15992 540
38.18003 504
38.20015 596
38.22026 533
38.24037 587
38.26049 577
38.2806 568
38.30071 620
38.32083 643
38.34094 606
38.36105 635
38.38117 701
38.40128 670
38.4214 630
38.44151 625
38.46162 623
38.48174 604
38.50185 614
38.52196 544
38.54208 573
38.56219 540
38.58231 526
38.60242 521
38.62253 524
38.64265 502
38.66276 509
38.68287 484
38.70299 540
38.7231 484
38.74321 490
38.76333 475
38.78344 472
38.80356 487
38.82367 488
38.84378 442
38.8639 463
38.88401 490
38.90412 461
38.92424 479
38.94435 483
38.96447 518
38.98458 506
39.00469 527
39.02481 502
39.04492 502
39.06503 583
39.08515 529
39.10526 550
39.12538 542
39.14549 566
39.1656 552
39.18572 558
39.20583 565
39.22594 595
39.24606 682
39.26617 678
39.28628 786
39.3064 777
39.32651 966
39.34663 1132
39.36674 1268
39.38685 1330
39.40697 1397
39.42708 1433
39.44719 1367
39.46731 1175
39.48742 1100
39.50754 1009
39.52765 828
39.54776 754
39.56788 685
39.58799 608
39.6081 531
39.62822 503
39.64833 485
39.66845 484
39.68856 471
39.70867 466
39.72879 435
39.7489 449
39.76901 429
39.78913 483
39.80924 461
39.82935 460
39.84947 417
39.86958 463
39.8897 445
39.90981 455
39.92992 425
39.95004 457
39.97015 481
39.99026 456
40.01038 479
40.03049 512
40.05061 483
40.07072 539
40.09083 571
40.11095 621
40.13106 594
40.15117 687
40.17129 780
40.1914 818
40.21152 834
40.23163 938
40.25174 870
40.27186 810
40.29197 812
40.31208 739
40.3322 693
40.35231 632
40.37242 640
40.39254 542
40.41265 483
40.43277 455
40.45288 517
40.47299 464
40.49311 434
40.51322 463
40.53333 483
40.55345 444
40.57356 464
40.59368 455
40.61379 437
40.6339 436
40.65402 479
40.67413 506
40.69424 478
40.71436 507
40.73447 475
40.75458 497
40.7747 477
40.79481 474
40.81493 494
40.83504 524
40.85515 489
40.87527 495
40.89538 437
40.91549 498
40.93561 477
40.95572 450
40.97584 502
40.99595 422
41.01606 419
41.03618 456
41.05629 443
41.0764 458
41.09652 467
41.11663 457
41.13675 462
41.15686 446
41.17697 454
41.19709 447
41.2172 443
41.23731 439
41.25743 436
41.27754 439
41.29765 433
41.31777 409
41.33788 425
41.358 414
41.37811 447
41.39822 407
41.41834 425
41.43845 433
41.45856 456
41.47868 423
41.49879 431
41.51891 429
41.53902 448
41.55913 446
41.57925 435
41.59936 435
41.61947 424
41.63959 463
41.6597 452
41.67982 458
41.69993 409
41.72004 397
41.74016 429
41.76027 415
41.78038 469
41.8005 451
41.82061 447
41.84072 453
41.86084 440
41.88095 439
41.90107 423
41.92118 453
41.94129 504
41.96141 426
41.98152 469
42.00163 407
42.02175 435
42.04186 443
42.06198 392
42.08209 440
42.1022 466
42.12232 438
42.14243 416
42.16254 482
42.18266 450
42.20277 487
42.22289 500
42.243 516
42.26311 549
42.28323 601
42.30334 726
42.32345 802
42.34357 952
42.36368 1009
42.38379 1111
42.40391 1106
42.42402 970
42.44414 944
42.46425 789
42.48436 807
42.50448 733
42.52459 682
42.5447 610
42.56482 513
42.58493 456
42.60505 441
42.62516 365
42.64527 365
42.66539 397
42.6855 387
42.70561 399
42.72573 392
42.74584 386
42.76595 372
42.78607 400
42.80618 383
42.8263 347
42.84641 360
42.86652 351
42.88664 345
42.90675 358
42.92686 328
42.94698 341
42.96709 384
42.98721 405
43.00732 360
43.02743 358
43.04755 377
43.06766 346
43.08777 354
43.10789 393
43.128 346
43.14812 385
43.16823 345
43.18834 391
43.20846 357
43.22857 410
43.24868 405
43.2688 360
43.28891 352
43.30902 400
43.32914 352
43.34925 348
43.36937 359
43.38948 406
43.40959 377
43.42971 382
43.44982 401
43.46993 329
43.49005 396
43.51016 339
43.53028 399
43.55039 407
43.5705 353
43.59062 384
43.61073 380
43.63084 361
43.65096 372
43.67107 378
43.69119 394
43.7113 380
43.73141 360
43.75153 380
43.77164 433
43.79175 373
43.81187 382
43.83198 396
43.85209 377
43.87221 414
43.89232 420
43.91244 381
43.93255 408
43.95266 391
43.97278 385
43.99289 375
44.013 397
44.03312 394
44.05323 477
44.07335 412
44.09346 403
44.11357 386
44.13369 426
44.1538 409
44.17391 436
44.19403 452
44.21414 430
44.23426 423
44.25437 386
44.27448 385
44.2946 381
44.31471 405
44.33482 416
44.35494 383
44.37505 398
44.39516 374
44.41528 399
44.43539 376
44.45551 381
44.47562 391
44.49573 406
44.51585 367
44.53596 376
44.55607 375
44.57619 364
44.5963 373
44.61642 378
44.63653 359
44.65664 392
44.67676 374
44.69687 397
44.71698 357
44.7371 340
44.75721 343
44.77732 401
44.79744 366
44.81755 405
44.83767 373
44.85778 383
44.87789 369
44.89801 357
44.91812 393
44.93823 365
44.95835 382
44.97846 362
44.99858 390
45.01869 398
45.0388 396
45.05892 394
45.07903 397
45.09914 404
45.11926 399
45.13937 413
45.15949 395
45.1796 394
45.19971 430
45.21983 405
45.23994 422
45.26005 401
45.28017 456
45.30028 388
45.32039 476
45.34051 454
45.36062 487
45.38074 451
45.40085 486
45.42096 480
45.44108 491
45.46119 513
45.4813 458
45.50142 530
45.52153 475
45.54165 493
45.56176 469
45.58187 529
45.60199 529
45.6221 576
45.64221 632
45.66233 697
45.68244 735
45.70256 850
45.72267 797
45.74278 866
45.7629 866
45.78301 798
45.80312 719
45.82324 652
45.84335 625
45.86346 570
45.88358 616
45.90369 551
45.92381 474
45.94392 420
45.96403 423
45.98415 392
46.00426 407
46.02437 393
46.04449 400
46.0646 396
46.08472 394
46.10483 384
46.12494 388
46.14506 391
46.16517 406
46.18528 361
46.2054 391
46.22551 375
46.24563 380
46.26574 407
46.28585 385
46.30597 378
46.32608 392
46.34619 375
46.36631 359
46.38642 386
46.40653 380
46.42665 368
46.44676 401
46.46688 440
46.48699 390
46.5071 371
46.52722 372
46.54733 416
46.56744 387
46.58756 363
46.60767 403
46.62779 399
46.6479 372
46.66801 372
46.68813 372
46.70824 364
46.72835 351
46.74847 368
46.76858 367
46.78869 417
46.80881 369
46.82892 379
46.84904 401
46.86915 392
46.88926 379
46.90938 388
46.92949 370
46.9496 353
46.96972 367
46.98983 399
47.00995 389
47.03006 380
47.05017 419
47.07029 375
47.0904 384
47.11051 408
47.13063 380
47.15074 392
47.17086 371
47.19097 404
47.21108 390
47.2312 382
47.25131 400
47.27142 360
47.29154 399
47.31165 424
47.33176 409
47.35188 404
47.37199 371
47.39211 367
47.41222 388
47.43233 420
47.45245 419
47.47256 398
47.49267 396
47.51279 383
47.5329 359
47.55302 366
47.57313 406
47.59324 350
47.61336 357
47.63347 383
47.65358 369
47.6737 380
47.69381 401
47.71393 372
47.73404 408
47.75415 406
47.77427 378
47.79438 347
47.81449 390
47.83461 425
47.85472 394
47.87483 388
47.89495 370
47.91506 396
47.93518 424
47.95529 373
47.9754 418
47.99552 409
48.01563 387
48.03574 382
48.05586 422
48.07597 401
48.09609 352
48.1162 393
48.13631 374
48.15643 380
48.17654 369
48.19665 396
48.21677 367
48.23688 388
48.257 360
48.27711 365
48.29722 392
48.31734 361
48.33745 379
48.35756 347
48.37768 432
48.39779 358
48.4179 381
48.43802 365
48.45813 371
48.47825 374
48.49836 376
48.51847 366
48.53859 375
48.5587 348
48.57881 385
48.59893 381
48.61904 396
48.63916 356
48.65927 340
48.67938 385
48.6995 356
48.71961 365
48.73972 364
48.75984 359
48.77995 377
48.80006 347
48.82018 362
48.84029 378
48.86041 328
48.88052 402
48.90063 384
48.92075 402
48.94086 402
48.96097 347
48.98109 364
49.0012 350
49.02132 378
49.04143 360
49.06154 381
49.08166 386
49.10177 387
49.12188 421
49.142 416
49.16211 356
49.18223 412
49.20234 397
49.22245 419
49.24257 448
49.26268 392
49.28279 453
49.30291 423
49.32302 450
49.34313 481
49.36325 437
49.38336 435
49.40348 474
49.42359 489
49.4437 467
49.46382 450
49.48393 445
49.50404 486
49.52416 428
49.54427 422
49.56439 404
49.5845 381
49.60461 409
49.62473 416
49.64484 387
49.66495 402
49.68507 406
49.70518 452
49.7253 422
49.74541 465
49.76552 460
49.78564 493
49.80575 477
49.82586 527
49.84598 527
49.86609 572
49.8862 590
49.90632 680
49.92643 711
49.94655 827
49.96666 1014
49.98677 1149
50.00689 1384
50.027 1597
50.04711 1840
50.06723 1914
50.08734 1963
50.10746 1810
50.12757 1623
50.14768 1370
50.1678 1252
50.18791 1264
50.20802 1201
50.22814 1181
50.24825 1008
50.26837 858
50.28848 708
50.30859 576
50.32871 509
50.34882 479
50.36893 463
50.38905 424
50.40916 465
50.42927 448
50.44939 441
50.4695 459
50.48962 468
50.50973 437
50.52984 431
50.54996 469
50.57007 487
50.59018 453
50.6103 406
50.63041 441
50.65053 436
50.67064 440
50.69075 451
50.71087 413
50.73098 450
50.75109 405
50.77121 406
50.79132 384
50.81143 377
50.83155 394
50.85166 410
50.87178 367
50.89189 399
50.912 383
50.93212 388
50.95223 394
50.97234 395
50.99246 405
51.01257 387
51.03269 379
51.0528 372
51.07291 365
51.09303 380
51.11314 367
51.13325 365
51.15337 344
51.17348 376
51.1936 395
51.21371 396
51.23382 370
51.25394 350
51.27405 391
51.29416 385
51.31428 384
51.33439 387
51.3545 384
51.37462 365
51.39473 384
51.41485 383
51.43496 365
51.45507 367
51.47519 369
51.4953 353
51.51541 352
51.53553 353
51.55564 379
51.57576 332
51.59587 374
51.61598 348
51.6361 356
51.65621 377
51.67632 360
51.69644 370
51.71655 371
51.73667 370
51.75678 372
51.77689 377
51.79701 374
51.81712 390
51.83723 367
51.85735 382
51.87746 350
51.89757 341
51.91769 383
51.9378 404
51.95792 353
51.97803 377
51.99814 386
52.01826 399
52.03837 410
52.05848 383
52.0786 391
52.09871 381
52.11883 430
52.13894 425
52.15905 421
52.17917 406
52.19928 407
52.21939 375
52.23951 385
52.25962 361
52.27974 378
52.29985 355
52.31996 399
52.34008 391
52.36019 408
52.3803 352
52.40042 400
52.42053 394
52.44064 339
52.46076 381
52.48087 360
52.50099 396
52.5211 344
52.54121 364
52.56133 355
52.58144 380
52.60155 401
52.62167 377
52.64178 352
52.6619 377
52.68201 353
52.70212 358
52.72224 363
52.74235 369
52.76246 367
52.78258 324
52.80269 374
52.8228 372
52.84292 402
52.86303 326
52.88315 349
52.90326 329
52.92337 356
52.94349 346
52.9636 411
52.98371 340
53.00383 382
53.02394 368
53.04406 379
53.06417 325
53.08428 363
53.1044 371
53.12451 353
53.14462 368
53.16474 369
53.18485 370
53.20497 359
53.22508 373
53.24519 380
53.26531 400
53.28542 380
53.30553 357
53.32565 386
53.34576 399
53.36587 414
53.38599 382
53.4061 350
53.42622 414
53.44633 403
53.46644 358
53.48656 414
53.50667 393
53.52678 376
53.5469 390
53.56701 415
53.58713 379
53.60724 446
53.62735 407
53.64747 411
53.66758 457
53.68769 421
53.70781 463
53.72792 408
53.74804 446
53.76815 462
53.78826 489
53.80838 474
53.82849 481
53.8486 496
53.86872 496
53.88883 495
53.90894 561
53.92906 508
53.94917 574
53.96929 559
53.9894 545
54.00951 504
54.02963 524
54.04974 535
54.06985 517
54.08997 577
54.11008 549
54.1302 538
54.15031 577
54.17042 578
54.19054 469
54.21065 524
54.23076 600
54.25088 535
54.27099 529
54.29111 559
54.31122 573
54.33133 576
54.35145 489
54.37156 483
54.39167 493
54.41179 511
54.4319 560
54.45201 502
54.47213 518
54.49224 472
54.51236 549
54.53247 507
54.55258 529
54.5727 486
54.59281 527
54.61292 533
54.63304 526
54.65315 543
54.67327 585
54.69338 625
54.71349 619
54.73361 745
54.75372 794
54.77383 916
54.79395 892
54.81406 921
54.83417 840
54.85429 855
54.8744 777
54.89452 749
54.91463 711
54.93474 751
54.95486 689
54.97497 699
54.99508 652
55.0152 591
55.03531 557
55.05543 555
55.07554 530
55.09565 523
55.11577 534
55.13588 532
55.15599 557
55.17611 631
55.19622 616
55.21634 636
55.23645 653
55.25656 616
55.27668 643
55.29679 621
55.3169 647
55.33702 574
55.35713 551
55.37724 508
55.39736 531
55.41747 569
55.43759 552
55.4577 506
55.47781 500
55.49793 476
55.51804 445
55.53815 466
55.55827 416
55.57838 434
55.5985 441
55.61861 443
55.63872 464
55.65884 430
55.67895 384
55.69906 404
55.71918 409
55.73929 419
55.75941 413
55.77952 425
55.79963 401
55.81975 419
55.83986 410
55.85997 399
55.88009 396
55.9002 441
55.92031 367
55.94043 394
55.96054 379
55.98066 363
56.00077 428
56.02088 426
56.041 411
56.06111 411
56.08122 397
56.10134 381
56.12145 420
56.14157 404
56.16168 413
56.18179 411
56.20191 398
56.22202 348
56.24213 408
56.26225 416
56.28236 392
56.30248 379
56.32259 387
56.3427 360
56.36282 408
56.38293 379
56.40304 358
56.42316 379
56.44327 384
56.46338 364
56.4835 391
56.50361 371
56.52373 372
56.54384 384
56.56395 375
56.58407 376
56.60418 399
56.62429 402
56.64441 385
56.66452 393
56.68464 367
56.70475 366
56.72486 393
56.74498 384
56.76509 370
56.7852 373
56.80532 430
56.82543 406
56.84554 382
56.86566 365
56.88577 373
56.90589 380
56.926 347
56.94611 403
56.96623 398
56.98634 393
57.00645 363
57.02657 383
57.04668 376
57.0668 401
57.08691 358
57.10702 403
57.12714 399
57.14725 377
57.16736 412
57.18748 408
57.20759 386
57.22771 386
57.24782 398
57.26793 402
57.28805 410
57.30816 379
57.32827 383
57.34839 430
57.3685 374
57.38861 348
57.40873 382
57.42884 381
57.44896 388
57.46907 351
57.48918 356
57.5093 397
57.52941 390
57.54952 422
57.56964 331
57.58975 405
57.60987 383
57.62998 373
57.65009 390
57.67021 385
57.69032 376
57.71043 331
57.73055 399
57.75066 373
57.77078 350
57.79089 392
57.811 348
57.83112 370
57.85123 362
57.87134 391
57.89146 362
57.91157 369
57.93168 378
57.9518 401
57.97191 401
57.99203 402
58.01214 382
58.03225 380
58.05237 392
58.07248 360
58.09259 356
58.11271 377
58.13282 361
58.15294 376
58.17305 398
58.19316 364
58.21328 376
58.23339 350
58.2535 368
58.27362 353
58.29373 423
58.31385 367
58.33396 359
58.35407 366
58.37419 347
58.3943 383
58.41441 388
58.43453 373
58.45464 361
58.47475 379
58.49487 401
58.51498 340
58.5351 380
58.55521 365
58.57532 400
58.59544 352
58.61555 361
58.63566 378
58.65578 354
58.67589 355
58.69601 349
58.71612 349
58.73623 351
58.75635 376
58.77646 392
58.79657 381
58.81669 348
58.8368 388
58.85691 389
58.87703 342
58.89714 387
58.91726 365
58.93737 352
58.95748 362
58.9776 354
58.99771 367
59.01782 370
59.03794 370
59.05805 363
59.07817 361
59.09828 337
59.11839 366
59.13851 381
59.15862 373
59.17873 366
59.19885 375
59.21896 355
59.23908 380
59.25919 364
59.2793 390
59.29942 394
59.31953 416
59.33964 400
59.35976 378
59.37987 383
59.39998 364
59.4201 402
59.44021 399
59.46033 414
59.48044 419
59.50055 399
59.52067 421
59.54078 405
59.56089 424
59.58101 432
59.60112 429
59.62124 459
59.64135 493
59.66146 465
59.68158 510
59.70169 525
59.7218 607
59.74192 640
59.76203 706
59.78215 807
59.80226 955
59.82237 1109
59.84249 1151
59.8626 1312
59.88271 1426
59.90283 1393
59.92294 1317
59.94305 1085
59.96317 970
59.98328 957
60.0034 890
60.02351 918
60.04362 916
60.06374 909
60.08385 820
60.10396 682
60.12408 622
60.14419 553
60.16431 489
60.18442 428
60.20453 455
60.22465 424
60.24476 376
60.26487 425
60.28499 384
60.3051 406
60.32522 427
60.34533 409
60.36544 363
60.38556 391
60.40567 374
60.42578 402
60.4459 373
60.46601 378
60.48612 380
60.50624 368
60.52635 378
60.54647 378
60.56658 398
60.58669 414
60.60681 369
60.62692 352
60.64703 398
60.66715 392
60.68726 386
60.70738 385
60.72749 359
60.7476 331
60.76772 356
60.78783 375
60.80794 390
60.82806 373
60.84817 356
60.86828 352
60.8884 349
60.90851 385
60.92863 342
60.94874 362
60.96885 379
60.98897 351
61.00908 359
61.02919 356
61.04931 384
61.06942 355
61.08954 353
61.10965 365
61.12976 391
61.14988 343
61.16999 346
61.1901 347
61.21022 343
61.23033 335
61.25045 336
61.27056 350
61.29067 334
61.31079 350
61.3309 333
61.35101 359
61.37113 403
61.39124 366
61.41135 346
61.43147 383
61.45158 359
61.4717 370
61.49181 399
61.51192 397
61.53204 368
61.55215 385
61.57226 366
61.59238 371
61.61249 389
61.63261 373
61.65272 375
61.67283 361
61.69295 379
61.71306 380
61.73317 426
61.75329 387
61.7734 356
61.79352 400
61.81363 392
61.83374 392
61.85386 360
61.87397 443
61.89408 431
61.9142 403
61.93431 410
61.95442 413
61.97454 411
61.99465 416
62.01477 445
62.03488 463
62.05499 441
62.07511 442
62.09522 463
62.11533 491
62.13545 512
62.15556 521
62.17568 507
62.19579 511
62.2159 513
62.23602 506
62.25613 559
62.27624 515
62.29636 532
62.31647 558
62.33659 561
62.3567 510
62.37681 505
62.39693 553
62.41704 543
62.43715 490
62.45727 508
62.47738 467
62.49749 501
62.51761 474
62.53772 472
62.55784 444
62.57795 440
62.59806 410
62.61818 412
62.63829 412
62.6584 415
62.67852 379
62.69863 413
62.71875 400
62.73886 378
62.75897 426
62.77909 418
62.7992 417
62.81931 407
62.83943 385
62.85954 363
62.87965 398
62.89977 386
62.91988 395
62.94 381
62.96011 344
62.98022 389
63.00034 328
63.02045 369
63.04056 361
63.06068 364
63.08079 377
63.10091 364
63.12102 370
63.14113 376
63.16125 367
63.18136 360
63.20147 365
63.22159 382
63.2417 351
63.26182 404
63.28193 414
63.30204 373
63.32216 393
63.34227 379
63.36238 372
63.3825 372
63.40261 385
63.42272 361
63.44284 370
63.46295 369
63.48307 401
63.50318 385
63.52329 406
63.54341 394
63.56352 384
63.58363 386
63.60375 384
63.62386 408
63.64398 433
63.66409 421
63.6842 439
63.70432 443
63.72443 431
63.74454 466
63.76466 449
63.78477 463
63.80489 495
63.825 483
63.84511 549
63.86523 528
63.88534 547
63.90545 578
63.92557 642
63.94568 573
63.96579 602
63.98591 567
64.00602 561
64.02614 544
64.04625 498
64.06636 484
64.08648 475
64.10659 484
64.1267 505
64.14682 470
64.16693 467
64.18705 446
64.20716 465
64.22727 417
64.24739 402
64.2675 395
64.28761 397
64.30773 409
64.32784 381
64.34796 384
64.36807 407
64.38818 388
64.4083 398
64.42841 413
64.44852 364
64.46864 406
64.48875 350
64.50886 387
64.52898 399
64.54909 357
64.56921 365
64.58932 391
64.60943 356
64.62955 370
64.64966 353
64.66977 335
64.68989 348
64.71 389
64.73012 388
64.75023 357
64.77034 339
64.79046 365
64.81057 377
64.83068 329
64.8508 357
64.87091 349
64.89102 344
64.91114 347
64.93125 369
64.95137 369
64.97148 378
64.99159 344
65.01171 397
65.03182 323
65.05193 345
65.07205 333
65.09216 333
65.11228 339
65.13239 365
65.1525 334
65.17262 371
65.19273 355
65.21284 373
65.23296 355
65.25307 347
65.27319 373
65.2933 338
65.31341 345
65.33353 362
65.35364 329
65.37375 348
65.39387 338
65.41398 347
65.43409 349
65.45421 354
65.47432 361
65.49444 334
65.51455 355
65.53466 387
65.55478 379
65.57489 405
65.595 356
65.61512 377
65.63523 366
65.65535 417
65.67546 420
65.69557 375
65.71569 399
65.7358 418
65.75591 386
65.77603 386
65.79614 355
65.81626 342
65.83637 383
65.85648 379
65.8766 391
65.89671 376
65.91682 365
65.93694 395
65.95705 370
65.97716 366
65.99728 339
66.01739 398
66.03751 382
66.05762 356
66.07773 348
66.09785 384
66.11796 394
66.13807 377
66.15819 357
66.1783 355
66.19842 354
66.21853 348
66.23864 372
66.25876 377
66.27887 390
66.29898 341
66.3191 373
66.33921 310
66.35933 335
66.37944 343
66.39955 340
66.41967 392
66.43978 334
66.45989 374
66.48001 378
66.50012 365
66.52023 352
66.54035 327
66.56046 328
66.58058 360
66.60069 390
66.6208 344
66.64092 368
66.66103 364
66.68114 345
66.70126 329
66.72137 352
66.74149 357
66.7616 371
66.78171 355
66.80183 362
66.82194 359
66.84205 368
66.86217 332
66.88228 349
66.90239 303
66.92251 349
66.94262 355
66.96274 359
66.98285 341
67.00296 368
67.02308 387
67.04319 375
67.0633 337
67.08342 356
67.10353 366
67.12365 385
67.14376 350
67.16387 378
67.18399 354
67.2041 367
67.22421 363
67.24433 383
67.26444 380
67.28456 404
67.30467 418
67.32478 404
67.3449 388
67.36501 388
67.38512 380
67.40524 457
67.42535 431
67.44546 409
67.46558 460
67.48569 466
67.50581 461
67.52592 508
67.54603 599
67.56615 620
67.58626 688
67.60637 751
67.62649 862
67.6466 821
67.66672 912
67.68683 942
67.70694 878
67.72706 802
67.74717 740
67.76728 627
67.7874 677
67.80751 620
67.82763 680
67.84774 744
67.86785 764
67.88797 792
67.90808 748
67.92819 770
67.94831 768
67.96842 816
67.98853 807
68.00865 932
68.02876 1007
68.04888 1183
68.06899 1105
68.0891 1155
68.10922 1044
68.12933 1097
68.14944 989
68.16956 958
68.18967 960
68.20979 1067
68.2299 1101
68.25001 1095
68.27013 1042
68.29024 984
68.31035 852
68.33047 744
68.35058 702
68.3707 652
68.39081 607
68.41092 561
68.43104 591
68.45115 562
68.47126 492
68.49138 498
68.51149 468
68.5316 424
68.55172 380
68.57183 387
68.59195 357
68.61206 415
68.63217 386
68.65229 363
68.6724 384
68.69251 385
68.71263 342
68.73274 409
68.75286 374
68.77297 366
68.79308 363
68.8132 364
68.83331 339
68.85342 344
68.87354 356
68.89365 390
68.91376 349
68.93388 386
68.95399 368
68.97411 390
68.99422 328
69.01433 376
69.03445 342
69.05456 357
69.07467 358
69.09479 371
69.1149 319
69.13502 335
69.15513 360
69.17524 360
69.19536 341
69.21547 355
69.23558 340
69.2557 362
69.27581 367
69.29593 354
69.31604 338
69.33615 343
69.35627 359
69.37638 323
69.39649 358
69.41661 359
69.43672 317
69.45683 332
69.47695 311
69.49706 342
69.51718 322
69.53729 326
69.5574 343
69.57752 331
69.59763 354
69.61774 317
69.63786 341
69.65797 346
69.67809 330
69.6982 335
69.71831 343
69.73843 361
69.75854 336
69.77865 312
69.79877 333
69.81888 324
69.839 316
69.85911 336
69.87922 321
69.89934 304
69.91945 353
69.93956 305
69.95968 356
69.97979 354
69.9999 344
70.02002 339
70.04013 339
70.06025 331
70.08036 352
70.10047 300
70.12059 379
70.1407 329
70.16081 351
70.18093 333
70.20104 338
70.22116 329
70.24127 345
70.26138 333
70.2815 379
70.30161 352
70.32172 341
70.34184 364
70.36195 372
70.38207 346
70.40218 348
70.42229 344
70.44241 335
70.46252 340
70.48263 318
70.50275 329
70.52286 328
70.54297 316
70.56309 340
70.5832 328
70.60332 332
70.62343 336
70.64354 361
70.66366 305
70.68377 311
70.70388 331
70.724 352
70.74411 325
70.76423 311
70.78434 348
70.80445 312
70.82457 330
70.84468 320
70.86479 335
70.88491 356
70.90502 334
70.92513 330
70.94525 293
70.96536 339
70.98548 349
71.00559 322
71.0257 346
71.04582 317
71.06593 333
71.08604 316
71.10616 371
71.12627 323
71.14639 321
71.1665 317
71.18661 320
71.20673 356
71.22684 359
71.24695 316
71.26707 306
71.28718 325
71.3073 339
71.32741 346
71.34752 364
71.36764 344
71.38775 309
71.40786 337
71.42798 347
71.44809 320
71.4682 329
71.48832 319
71.50843 326
71.52855 369
71.54866 333
71.56877 328
71.58889 335
71.609 334
71.62911 346
71.64923 299
71.66934 377
71.68946 330
71.70957 361
71.72968 339
71.7498 350
71.76991 347
71.79002 341
71.81014 354
71.83025 355
71.85037 351
71.87048 382
71.89059 323
71.91071 367
71.93082 362
71.95093 351
71.97105 338
71.99116 324
72.01127 358
72.03139 356
72.0515 376
72.07162 363
72.09173 356
72.11184 359
72.13196 348
72.15207 353
72.17218 345
72.1923 363
72.21241 345
72.23253 352
72.25264 347
72.27275 340
72.29287 371
72.31298 353
72.33309 324
72.35321 344
72.37332 343
72.39344 344
72.41355 361
72.43366 335
72.45378 324
72.47389 319
72.494 363
72.51412 332
72.53423 332
72.55434 358
72.57446 341
72.59457 333
72.61469 362
72.6348 349
72.65491 321
72.67503 296
72.69514 339
72.71525 324
72.73537 352
72.75548 339
72.7756 323
72.79571 341
72.81582 339
72.83594 290
72.85605 332
72.87616 339
72.89628 302
72.91639 308
72.9365 312
72.95662 341
72.97673 357
72.99685 357
73.01696 326
73.03707 309
73.05719 328
73.0773 335
73.09741 335
73.11753 338
73.13764 311
73.15776 350
73.17787 356
73.19798 365
73.2181 403
73.23821 418
73.25832 396
73.27844 406
73.29855 437
73.31867 457
73.33878 517
73.35889 537
73.37901 531
73.39912 527
73.41923 541
73.43935 478
73.45946 469
73.47957 446
73.49969 488
73.5198 425
73.53992 415
73.56003 421
73.58014 404
73.60026 401
73.62037 461
73.64048 426
73.6606 419
73.68071 389
73.70083 379
73.72094 340
73.74105 323
73.76117 349
73.78128 348
73.80139 345
73.82151 346
73.84162 329
73.86174 345
73.88185 307
73.90196 369
73.92208 322
73.94219 343
73.9623 328
73.98242 311
74.00253 340
74.02264 321
74.04276 343
74.06287 313
74.08299 325
74.1031 324
74.12321 293
74.14333 356
74.16344 323
74.18355 350
74.20367 329
74.22378 314
74.2439 309
74.26401 313
74.28412 331
74.30424 310
74.32435 332
74.34446 316
74.36458 332
74.38469 329
74.40481 319
74.42492 304
74.44503 327
74.46515 313
74.48526 328
74.50537 317
74.52549 291
74.5456 317
74.56571 295
74.58583 316
74.60594 334
74.62606 327
74.64617 355
74.66628 294
74.6864 313
74.70651 328
74.72662 287
74.74674 316
74.76685 306
74.78697 336
74.80708 348
74.82719 311
74.84731 342
74.86742 334
74.88753 331
74.90765 300
74.92776 323
74.94787 337
74.96799 321
74.9881 309
75.00822 329
