3.00117 21045
3.02128 21061
3.0414 19660
3.06151 19880
3.08162 19049
3.10174 18450
3.12185 17869
3.14197 17279
3.16208 17161
3.18219 16478
3.20231 16259
3.22242 15829
3.24253 15014
3.26265 14705
3.28276 14328
3.30288 13616
3.32299 13471
3.3431 13122
3.36322 12415
3.38333 12064
3.40344 11857
3.42356 11681
3.44367 10719
3.46379 10634
3.4839 10005
3.50401 9933
3.52413 9949
3.54424 8938
3.56435 8843
3.58447 8433
3.60458 8342
3.62469 8135
3.64481 7543
3.66492 7584
3.68504 7078
3.70515 6918
3.72526 6835
3.74538 6162
3.76549 6044
3.7856 5673
3.80572 5675
3.82583 5667
3.84595 5079
3.86606 4988
3.88617 4663
3.90629 4671
3.9264 4307
3.94651 4139
3.96663 3941
3.98674 3908
4.00686 3768
4.02697 3665
4.04708 3176
4.0672 3292
4.08731 3062
4.10742 2985
4.12754 2800
4.14765 2605
4.16776 2674
4.18788 2539
4.20799 2329
4.22811 2308
4.24822 1987
4.26833 2179
4.28845 2134
4.30856 1959
4.32867 1987
4.34879 1799
4.3689 1787
4.38902 1818
4.40913 1786
4.42924 1748
4.44936 1561
4.46947 1632
4.48958 1511
4.5097 1459
4.52981 1486
4.54992 1369
4.57004 1395
4.59015 1385
4.61027 1287
4.63038 1336
4.65049 1274
4.67061 1283
4.69072 1271
4.71083 1183
4.73095 1234
4.75106 1100
4.77118 1093
4.79129 1103
4.8114 1069
4.83152 1031
4.85163 960
4.87174 942
4.89186 959
4.91197 956
4.93209 927
4.9522 914
4.97231 892
4.99243 890
5.01254 942
5.03265 877
5.05277 800
5.07288 798
5.09299 841
5.11311 815
5.13322 748
5.15334 802
5.17345 769
5.19356 683
5.21368 735
5.23379 679
5.2539 656
5.27402 651
5.29413 649
5.31425 653
5.33436 646
5.35447 603
5.37459 598
5.3947 566
5.41481 590
5.43493 559
5.45504 622
5.47516 566
5.49527 522
5.51538 501
5.5355 516
5.55561 530
5.57572 528
5.59584 447
5.61595 551
5.63606 452
5.65618 519
5.67629 456
5.69641 462
5.71652 483
5.73663 464
5.75675 400
5.77686 397
5.79697 430
5.81709 445
5.8372 418
5.85732 451
5.87743 465
5.89754 434
5.91766 417
5.93777 412
5.95788 405
5.978 422
5.99811 400
6.01823 392
6.03834 408
6.05845 382
6.07857 415
6.09868 388
6.11879 340
6.13891 357
6.15902 383
6.17913 364
6.19925 357
6.21936 381
6.23948 336
6.25959 375
6.2797 363
6.29982 340
6.31993 386
6.34004 351
6.36016 402
6.38027 356
6.40039 370
6.4205 379
6.44061 324
6.46073 335
6.48084 367
6.50095 360
6.52107 306
6.54118 301
6.56129 366
6.58141 330
6.60152 324
6.62164 303
6.64175 354
6.66186 355
6.68198 332
6.70209 323
6.7222 350
6.74232 378
6.76243 340
6.78255 335
6.80266 335
6.82277 366
6.84289 342
6.863 335
6.88311 341
6.90323 329
6.92334 333
6.94346 312
6.96357 334
6.98368 357
7.0038 347
7.02391 313
7.04402 324
7.06414 331
7.08425 329
7.10436 317
7.12448 356
7.14459 364
7.16471 367
7.18482 324
7.20493 323
7.22505 343
7.24516 309
7.26527 336
7.28539 350
7.3055 315
7.32562 360
7.34573 319
7.36584 359
7.38596 342
7.40607 365
7.42618 346
7.4463 350
7.46641 313
7.48653 355
7.50664 332
7.52675 348
7.54687 350
7.56698 325
7.58709 302
7.60721 375
7.62732 348
7.64743 301
7.66755 330
7.68766 344
7.70778 320
7.72789 322
7.748 358
7.76812 304
7.78823 312
7.80834 345
7.82846 375
7.84857 312
7.86869 336
7.8888 322
7.90891 321
7.92903 367
7.94914 315
7.96925 345
7.98937 338
8.00948 356
8.0296 323
8.04971 348
8.06982 356
8.08994 344
8.11005 328
8.13016 339
8.15028 343
8.17039 347
8.1905 307
8.21062 311
8.23073 378
8.25085 329
8.27096 357
8.29107 379
8.31119 372
8.3313 383
8.35141 318
8.37153 339
8.39164 342
8.41176 348
8.43187 386
8.45198 373
8.4721 392
8.49221 374
8.51232 382
8.53244 361
8.55255 370
8.57266 373
8.59278 367
8.61289 380
8.63301 367
8.65312 355
8.67323 392
8.69335 385
8.71346 382
8.73357 433
8.75369 415
8.7738 407
8.79392 440
8.81403 439
8.83414 469
8.85426 431
8.87437 421
8.89448 414
8.9146 448
8.93471 410
8.95483 404
8.97494 431
8.99505 383
9.01517 378
9.03528 369
9.05539 380
9.07551 399
9.09562 329
9.11573 385
9.13585 357
9.15596 352
9.17608 371
9.19619 369
9.2163 386
9.23642 369
9.25653 307
9.27664 355
9.29676 322
9.31687 331
9.33699 325
9.3571 349
9.37721 341
9.39733 349
9.41744 354
9.43755 345
9.45767 368
9.47778 331
9.4979 336
9.51801 379
9.53812 381
9.55824 359
9.57835 352
9.59846 335
9.61858 319
9.63869 369
9.6588 357
9.67892 344
9.69903 329
9.71915 378
9.73926 348
9.75937 331
9.77949 323
9.7996 339
9.81971 324
9.83983 341
9.85994 333
9.88006 355
9.90017 353
9.92028 344
9.9404 353
9.96051 371
9.98062 338
10.00074 318
10.02085 363
10.04097 314
10.06108 328
10.08119 315
10.10131 314
10.12142 350
10.14153 381
10.16165 356
10.18176 351
10.20187 372
10.22199 340
10.2421 359
10.26222 363
10.28233 325
10.30244 308
10.32256 350
10.34267 364
10.36278 338
10.3829 356
10.40301 342
10.42313 326
10.44324 332
10.46335 352
10.48347 354
10.50358 345
10.52369 332
10.54381 356
10.56392 359
10.58403 307
10.60415 332
10.62426 321
10.64438 319
10.66449 359
10.6846 293
10.70472 348
10.72483 337
10.74494 343
10.76506 358
10.78517 343
10.80529 371
10.8254 355
10.84551 345
10.86563 345
10.88574 350
10.90585 347
10.92597 332
10.94608 305
10.9662 354
10.98631 368
11.00642 327
11.02654 331
11.04665 324
11.06676 383
11.08688 343
11.10699 359
11.1271 309
11.14722 360
11.16733 323
11.18745 343
11.20756 344
11.22767 310
11.24779 343
11.2679 315
11.28801 362
11.30813 345
11.32824 366
11.34836 345
11.36847 343
11.38858 308
11.4087 351
11.42881 362
11.44892 314
11.46904 327
11.48915 358
11.50927 318
11.52938 315
11.54949 380
11.56961 359
11.58972 329
11.60983 358
11.62995 387
11.65006 348
11.67017 361
11.69029 365
11.7104 370
11.73052 335
11.75063 349
11.77074 324
11.79086 346
11.81097 374
11.83108 336
11.8512 359
11.87131 408
11.89143 395
11.91154 385
11.93165 356
11.95177 344
11.97188 399
11.99199 376
12.01211 341
12.03222 377
12.05234 395
12.07245 388
12.09256 397
12.11268 396
12.13279 388
12.1529 419
12.17302 420
12.19313 436
12.21324 429
12.23336 466
12.25347 441
12.27359 503
12.2937 468
12.31381 416
12.33393 451
12.35404 429
12.37415 422
12.39427 424
12.41438 443
12.4345 416
12.45461 431
12.47472 451
12.49484 375
12.51495 368
12.53506 406
12.55518 363
12.57529 377
12.5954 378
12.61552 369
12.63563 371
12.65575 327
12.67586 320
12.69597 353
12.71609 377
12.7362 325
12.75631 334
12.77643 354
12.79654 331
12.81666 384
12.83677 352
12.85688 316
12.877 326
12.89711 298
12.91722 340
12.93734 327
12.95745 354
12.97757 317
12.99768 317
13.01779 314
13.03791 327
13.05802 339
13.07813 323
13.09825 355
13.11836 324
13.13847 346
13.15859 345
13.1787 323
13.19882 341
13.21893 318
13.23904 321
13.25916 360
13.27927 334
13.29938 318
13.3195 324
13.33961 278
13.35973 334
13.37984 316
13.39995 297
13.42007 323
13.44018 325
13.46029 322
13.48041 331
13.50052 335
13.52064 355
13.54075 317
13.56086 326
13.58098 323
13.60109 326
13.6212 330
13.64132 314
13.66143 292
13.68154 327
13.70166 292
13.72177 328
13.74189 282
13.762 315
13.78211 328
13.80223 334
13.82234 339
13.84245 304
13.86257 321
13.88268 332
13.9028 342
13.92291 288
13.94302 343
13.96314 297
13.98325 301
14.00336 281
14.02348 334
14.04359 265
14.06371 353
14.08382 314
14.10393 325
14.12405 320
14.14416 305
14.16427 311
14.18439 274
14.2045 314
14.22461 313
14.24473 269
14.26484 317
14.28496 275
14.30507 301
14.32518 298
14.3453 298
14.36541 315
14.38552 303
14.40564 312
14.42575 294
14.44587 339
14.46598 304
14.48609 290
14.50621 307
14.52632 328
14.54643 276
14.56655 303
14.58666 311
14.60677 309
14.62689 292
14.647 318
14.66712 261
14.68723 304
14.70734 335
14.72746 309
14.74757 286
14.76768 308
14.7878 324
14.80791 320
14.82803 319
14.84814 315
14.86825 269
14.88837 327
14.90848 327
14.92859 342
14.94871 313
14.96882 336
14.98894 330
15.00905 319
15.02916 319
15.04928 291
15.06939 274
15.0895 305
15.10962 305
15.12973 307
15.14984 301
15.16996 307
15.19007 298
15.21019 329
15.2303 309
15.25041 293
15.27053 307
15.29064 299
15.31075 305
15.33087 303
15.35098 312
15.3711 302
15.39121 297
15.41132 323
15.43144 321
15.45155 338
15.47166 298
15.49178 315
15.51189 320
15.53201 267
15.55212 341
15.57223 299
15.59235 303
15.61246 313
15.63257 308
15.65269 311
15.6728 314
15.69291 365
15.71303 314
15.73314 291
15.75326 320
15.77337 294
15.79348 294
15.8136 286
15.83371 312
15.85382 300
15.87394 291
15.89405 314
15.91417 306
15.93428 276
15.95439 298
15.97451 308
15.99462 266
16.01473 315
16.03485 299
16.05496 316
16.07508 302
16.09519 330
16.1153 264
16.13542 320
16.15553 255
16.17564 293
16.19576 300
16.21587 282
16.23598 331
16.2561 312
16.27621 293
16.29633 306
16.31644 325
16.33655 307
16.35667 289
16.37678 277
16.39689 322
16.41701 292
16.43712 296
16.45724 324
16.47735 252
16.49746 302
16.51758 304
16.53769 283
16.5578 308
16.57792 284
16.59803 284
16.61814 276
16.63826 308
16.65837 305
16.67849 319
16.6986 303
16.71871 297
16.73883 331
16.75894 338
16.77905 298
16.79917 298
16.81928 336
16.8394 327
16.85951 292
16.87962 312
16.89974 295
16.91985 290
16.93996 305
16.96008 297
16.98019 291
17.00031 319
17.02042 302
17.04053 319
17.06065 299
17.08076 318
17.10087 330
17.12099 295
17.1411 295
17.16121 302
17.18133 312
17.20144 312
17.22156 303
17.24167 312
17.26178 323
17.2819 314
17.30201 344
17.32212 337
17.34224 308
17.36235 313
17.38247 292
17.40258 321
17.42269 296
17.44281 285
17.46292 320
17.48303 291
17.50315 329
17.52326 316
17.54338 309
17.56349 312
17.5836 348
17.60372 331
17.62383 310
17.64394 359
17.66406 343
17.68417 353
17.70428 346
17.7244 304
17.74451 326
17.76463 381
17.78474 346
17.80485 329
17.82497 325
17.84508 319
17.86519 316
17.88531 322
17.90542 337
17.92554 296
17.94565 308
17.96576 302
17.98588 294
18.00599 350
18.0261 287
18.04622 316
18.06633 311
18.08645 302
18.10656 336
18.12667 295
18.14679 326
18.1669 332
18.18701 352
18.20713 289
18.22724 312
18.24735 320
18.26747 291
18.28758 294
18.3077 347
18.32781 363
18.34792 340
18.36804 338
18.38815 300
18.40826 328
18.42838 271
18.44849 290
18.46861 373
18.48872 342
18.50883 318
18.52895 283
18.54906 316
18.56917 298
18.58929 335
18.6094 338
18.62951 353
18.64963 344
18.66974 277
18.68986 308
18.70997 308
18.73008 317
18.7502 322
18.77031 305
18.79042 347
18.81054 310
18.83065 335
18.85077 337
18.87088 312
18.89099 343
18.91111 308
18.93122 355
18.95133 298
18.97145 311
18.99156 290
19.01168 322
19.03179 318
19.0519 297
19.07202 312
19.09213 322
19.11224 345
19.13236 305
19.15247 322
19.17258 318
19.1927 345
19.21281 301
19.23293 350
19.25304 326
19.27315 328
19.29327 365
19.31338 355
19.33349 352
19.35361 331
19.37372 347
19.39384 331
19.41395 320
19.43406 321
19.45418 384
19.47429 333
19.4944 361
19.51452 338
19.53463 344
19.55475 369
19.57486 379
19.59497 389
19.61509 413
19.6352 426
19.65531 446
19.67543 476
19.69554 522
19.71565 510
19.73577 615
19.75588 576
19.776 599
19.79611 607
19.81622 660
19.83634 648
19.85645 682
19.87656 674
19.89668 637
19.91679 595
19.93691 560
19.95702 576
19.97713 518
19.99725 530
20.01736 482
20.03747 473
20.05759 487
20.0777 483
20.09782 473
20.11793 499
20.13804 538
20.15816 475
20.17827 518
20.19838 512
20.2185 497
20.23861 504
20.25872 518
20.27884 491
20.29895 538
20.31907 507
20.33918 519
20.35929 513
20.37941 493
20.39952 498
20.41963 518
20.43975 567
20.45986 541
20.47998 537
20.50009 539
20.5202 573
20.54032 581
20.56043 610
20.58054 725
20.60066 709
20.62077 746
20.64088 805
20.661 998
20.68111 1154
20.70123 1402
20.72134 1781
20.74145 2255
20.76157 2988
20.78168 3602
20.80179 4284
20.82191 4780
20.84202 4633
20.86214 4240
20.88225 3621
20.90236 2696
20.92248 1881
20.94259 1418
20.9627 1040
20.98282 821
21.00293 713
21.02305 685
21.04316 622
21.06327 593
21.08339 575
21.1035 583
21.12361 573
21.14373 535
21.16384 511
21.18395 530
21.20407 509
21.22418 547
21.2443 477
21.26441 492
21.28452 504
21.30464 493
21.32475 508
21.34486 484
21.36498 509
21.38509 464
21.40521 518
21.42532 497
21.44543 452
21.46555 461
21.48566 423
21.50577 523
21.52589 480
21.546 463
21.56612 508
21.58623 478
21.60634 433
21.62646 467
21.64657 460
21.66668 461
21.6868 467
21.70691 432
21.72702 426
21.74714 454
21.76725 409
21.78737 455
21.80748 399
21.82759 429
21.84771 467
21.86782 386
21.88793 408
21.90805 414
21.92816 426
21.94828 422
21.96839 404
21.9885 410
22.00862 437
22.02873 390
22.04884 407
22.06896 436
22.08907 445
22.10919 429
22.1293 436
22.14941 444
22.16953 431
22.18964 434
22.20975 417
22.22987 414
22.24998 450
22.27009 437
22.29021 407
22.31032 378
22.33044 413
22.35055 383
22.37066 398
22.39078 426
22.41089 358
22.431 438
22.45112 351
22.47123 399
22.49135 413
22.51146 397
22.53157 416
22.55169 397
22.5718 362
22.59191 377
22.61203 419
22.63214 395
22.65225 410
22.67237 414
22.69248 423
22.7126 404
22.73271 442
22.75282 431
22.77294 406
22.79305 427
22.81316 410
22.83328 400
22.85339 443
22.87351 428
22.89362 413
22.91373 457
22.93385 425
22.95396 418
22.97407 415
22.99419 432
23.0143 434
23.03442 413
23.05453 402
23.07464 399
23.09476 389
23.11487 399
23.13498 416
23.1551 378
23.17521 362
23.19532 393
23.21544 369
23.23555 371
23.25567 396
23.27578 372
23.29589 376
23.31601 342
23.33612 395
23.35623 386
23.37635 368
23.39646 386
23.41658 386
23.43669 394
23.4568 368
23.47692 384
23.49703 382
23.51714 372
23.53726 379
23.55737 398
23.57749 414
23.5976 403
23.61771 426
23.63783 430
23.65794 415
23.67805 372
23.69817 420
23.71828 419
23.73839 388
23.75851 449
23.77862 421
23.79874 447
23.81885 473
23.83896 473
23.85908 445
23.87919 444
23.8993 516
23.91942 446
23.93953 427
23.95965 477
23.97976 547
23.99987 537
24.01999 501
24.0401 517
24.06021 550
24.08033 539
24.10044 499
24.12056 505
24.14067 481
24.16078 458
24.1809 486
24.20101 479
24.22112 423
24.24124 372
24.26135 432
24.28146 397
24.30158 453
24.32169 420
24.34181 392
24.36192 413
24.38203 395
24.40215 420
24.42226 395
24.44237 455
24.46249 426
24.4826 386
24.50272 414
24.52283 376
24.54294 402
24.56306 418
24.58317 445
24.60328 454
24.6234 422
24.64351 406
24.66362 415
24.68374 437
24.70385 429
24.72397 413
24.74408 444
24.76419 464
24.78431 426
24.80442 459
24.82453 461
24.84465 468
24.86476 429
24.88488 484
24.90499 480
24.9251 427
24.94522 474
24.96533 481
24.98544 426
25.00556 459
25.02567 440
25.04579 441
25.0659 376
25.08601 444
25.10613 469
25.12624 443
25.14635 487
25.16647 443
25.18658 461
25.20669 452
25.22681 454
25.24692 446
25.26704 494
25.28715 457
25.30726 473
25.32738 466
25.34749 481
25.3676 429
25.38772 460
25.40783 447
25.42795 485
25.44806 505
25.46817 474
25.48829 530
25.5084 498
25.52851 517
25.54863 519
25.56874 508
25.58886 471
25.60897 481
25.62908 491
25.6492 499
25.66931 487
25.68942 479
25.70954 491
25.72965 548
25.74976 531
25.76988 567
25.78999 585
25.81011 568
25.83022 599
25.85033 524
25.87045 630
25.89056 582
25.91067 605
25.93079 583
25.9509 572
25.97102 564
25.99113 634
26.01124 619
26.03136 611
26.05147 617
26.07158 687
26.0917 734
26.11181 691
26.13193 708
26.15204 792
26.17215 811
26.19227 881
26.21238 897
26.23249 981
26.25261 979
26.27272 1177
26.29283 1221
26.31295 1305
26.33306 1376
26.35318 1639
26.37329 1880
26.3934 2179
26.41352 2711
26.43363 3421
26.45374 4322
26.47386 5732
26.49397 7533
26.51409 10148
26.5342 13160
26.55431 15935
26.57443 19209
26.59454 20767
26.61465 20681
26.63477 19102
26.65488 16314
26.67499 12728
26.69511 9451
26.71522 6702
26.73534 4536
26.75545 3044
26.77556 2073
26.79568 1752
26.81579 1519
26.8359 1352
26.85602 1248
26.87613 1138
26.89625 1071
26.91636 935
26.93647 947
26.95659 861
26.9767 743
26.99681 772
27.01693 722
27.03704 658
27.05716 600
27.07727 612
27.09738 598
27.1175 636
27.13761 539
27.15772 571
27.17784 564
27.19795 572
27.21806 528
27.23818 560
27.25829 507
27.27841 555
27.29852 541
27.31863 593
27.33875 527
27.35886 552
27.37897 537
27.39909 563
27.4192 534
27.43932 515
27.45943 531
27.47954 521
27.49966 514
27.51977 487
27.53988 503
27.56 504
27.58011 476
27.60023 463
27.62034 461
27.64045 483
27.66057 506
27.68068 463
27.70079 454
27.72091 475
27.74102 498
27.76113 439
27.78125 496
27.80136 461
27.82148 482
27.84159 472
27.8617 518
27.88182 445
27.90193 459
27.92204 450
27.94216 467
27.96227 486
27.98239 403
28.0025 469
28.02261 440
28.04273 396
28.06284 412
28.08295 416
28.10307 377
28.12318 406
28.1433 373
28.16341 374
28.18352 378
28.20364 369
28.22375 393
28.24386 413
28.26398 365
28.28409 426
28.3042 416
28.32432 410
28.34443 397
28.36455 407
28.38466 392
28.40477 391
28.42489 400
28.445 397
28.46511 385
28.48523 373
28.50534 345
28.52546 388
28.54557 344
28.56568 385
28.5858 356
28.60591 388
28.62602 387
28.64614 385
28.66625 376
28.68636 343
28.70648 385
28.72659 393
28.74671 341
28.76682 370
28.78693 339
28.80705 419
28.82716 371
28.84727 389
28.86739 371
28.8875 368
28.90762 377
28.92773 371
28.94784 358
28.96796 334
28.98807 340
29.00818 360
29.0283 317
29.04841 354
29.06853 362
29.08864 347
29.10875 370
29.12887 326
29.14898 362
29.16909 383
29.18921 362
29.20932 325
29.22943 391
29.24955 358
29.26966 329
29.28978 350
29.30989 386
29.33 379
29.35012 373
29.37023 383
29.39034 311
29.41046 355
29.43057 338
29.45069 358
29.4708 379
29.49091 338
29.51103 362
29.53114 369
29.55125 355
29.57137 388
29.59148 348
29.6116 387
29.63171 349
29.65182 368
29.67194 392
29.69205 350
29.71216 404
29.73228 374
29.75239 382
29.7725 399
29.79262 430
29.81273 420
29.83285 410
29.85296 453
29.87307 454
29.89319 376
29.9133 401
29.93341 424
29.95353 370
29.97364 351
29.99376 374
30.01387 402
30.03398 327
30.0541 369
30.07421 344
30.09432 395
30.11444 394
30.13455 423
30.15467 385
30.17478 419
30.19489 384
30.21501 360
30.23512 359
30.25523 378
30.27535 344
30.29546 350
30.31557 343
30.33569 359
30.3558 308
30.37592 358
30.39603 346
30.41614 348
30.43626 322
30.45637 309
30.47648 359
30.4966 349
30.51671 356
30.53683 346
30.55694 310
30.57705 327
30.59717 328
30.61728 323
30.63739 337
30.65751 350
30.67762 325
30.69773 341
30.71785 342
30.73796 347
30.75808 327
30.77819 330
30.7983 386
30.81842 354
30.83853 345
30.85864 346
30.87876 334
30.89887 341
30.91899 370
30.9391 362
30.95921 328
30.97933 348
30.99944 333
31.01955 321
31.03967 378
31.05978 343
31.0799 354
31.10001 361
31.12012 307
31.14024 344
31.16035 365
31.18046 378
31.20058 344
31.22069 384
31.2408 420
31.26092 358
31.28103 389
31.30115 372
31.32126 369
31.34137 320
31.36149 353
31.3816 308
31.40171 330
31.42183 362
31.44194 337
31.46206 332
31.48217 328
31.50228 358
31.5224 326
31.54251 337
31.56262 368
31.58274 369
31.60285 346
31.62297 331
31.64308 328
31.66319 342
31.68331 340
31.70342 316
31.72353 328
31.74365 327
31.76376 324
31.78387 324
31.80399 289
31.8241 298
31.84422 351
31.86433 361
31.88444 351
31.90456 327
31.92467 309
31.94478 340
31.9649 342
31.98501 339
32.00513 356
32.02524 370
32.04535 339
32.06547 354
32.08558 347
32.10569 318
32.12581 344
32.14592 349
32.16604 330
32.18615 362
32.20626 336
32.22638 319
32.24649 340
32.2666 310
32.28672 324
32.30683 341
32.32694 336
32.34706 328
32.36717 355
32.38729 326
32.4074 361
32.42751 363
32.44763 333
32.46774 362
32.48785 363
32.50797 353
32.52808 318
32.5482 322
32.56831 352
32.58842 378
32.60854 331
32.62865 330
32.64876 351
32.66888 342
32.68899 331
32.7091 315
32.72922 340
32.74933 374
32.76945 379
32.78956 369
32.80967 339
32.82979 389
32.8499 375
32.87001 393
32.89013 435
32.91024 426
32.93036 510
32.95047 491
32.97058 592
32.9907 559
33.01081 590
33.03092 643
33.05104 697
33.07115 684
33.09127 639
33.11138 648
33.13149 568
33.15161 531
33.17172 507
33.19183 455
33.21195 471
33.23206 452
33.25217 404
33.27229 406
33.2924 387
33.31252 404
33.33263 364
33.35274 421
33.37286 344
33.39297 377
33.41308 370
33.4332 360
33.45331 366
33.47343 323
33.49354 379
33.51365 312
33.53377 328
33.55388 345
33.57399 353
33.59411 342
33.61422 311
33.63434 333
33.65445 331
33.67456 330
33.69468 309
33.71479 349
33.7349 348
33.75502 312
33.77513 302
33.79524 347
33.81536 349
33.83547 327
33.85559 346
33.8757 290
33.89581 329
33.91593 319
33.93604 299
33.95615 299
33.97627 340
33.99638 304
34.0165 330
34.03661 287
34.05672 326
34.07684 309
34.09695 313
34.11706 341
34.13718 321
34.15729 314
34.17741 300
34.19752 287
34.21763 308
34.23775 312
34.25786 309
34.27797 327
34.29809 333
34.3182 306
34.33831 364
34.35843 323
34.37854 324
34.39866 331
34.41877 350
34.43888 405
34.459 366
34.47911 366
34.49922 360
34.51934 409
34.53945 393
34.55957 409
34.57968 402
34.59979 400
34.61991 456
34.64002 396
34.66013 414
34.68025 445
34.70036 424
34.72047 414
34.74059 441
34.7607 428
34.78082 468
34.80093 480
34.82104 497
34.84116 516
34.86127 534
34.88138 556
34.9015 546
34.92161 585
34.94173 550
34.96184 558
34.98195 568
35.00207 555
35.02218 558
35.04229 567
35.06241 465
35.08252 466
35.10264 472
35.12275 454
35.14286 445
35.16298 433
35.18309 467
35.2032 472
35.22332 402
35.24343 425
35.26354 426
35.28366 431
35.30377 444
35.32389 446
35.344 462
35.36411 482
35.38423 485
35.40434 513
35.42445 514
35.44457 567
35.46468 544
35.4848 596
35.50491 545
35.52502 622
35.54514 643
35.56525 597
35.58536 603
35.60548 623
35.62559 564
35.64571 510
35.66582 519
35.68593 532
35.70605 505
35.72616 494
35.74627 456
35.76639 442
35.7865 462
35.80661 412
35.82673 444
35.84684 450
35.86696 451
35.88707 478
35.90718 446
35.9273 429
35.94741 429
35.96752 422
35.98764 451
36.00775 472
36.02787 408
36.04798 374
36.06809 403
36.08821 440
36.10832 432
36.12843 411
36.14855 377
36.16866 412
36.18878 437
36.20889 426
36.229 482
36.24912 449
36.26923 471
36.28934 555
36.30946 617
36.32957 619
36.34968 713
36.3698 790
36.38991 924
36.41003 1067
36.43014 1191
36.45025 1341
36.47037 1529
36.49048 1537
36.51059 1660
36.53071 1473
36.55082 1318
36.57094 1216
36.59105 1092
36.61116 940
36.63128 823
36.65139 649
36.6715 574
36.69162 463
36.71173 450
36.73184 437
36.75196 392
36.77207 395
36.79219 433
36.8123 421
36.83241 418
36.85253 394
36.87264 343
36.89275 374
36.91287 367
36.93298 363
36.9531 401
36.97321 348
36.99332 371
37.01344 392
37.03355 369
37.05366 356
37.07378 379
37.09389 360
37.11401 355
37.13412 363
37.15423 345
37.17435 377
37.19446 387
37.21457 359
37.23469 354
37.2548 396
37.27491 347
37.29503 371
37.31514 335
37.33526 323
37.35537 373
37.37548 344
37.3956 385
37.41571 341
37.43582 350
37.45594 335
37.47605 351
37.49617 389
37.51628 358
37.53639 412
37.55651 360
37.57662 367
37.59673 331
37.61685 384
37.63696 372
37.65708 380
37.67719 385
37.6973 382
37.71742 360
37.73753 380
37.75764 411
37.77776 390
37.79787 341
37.81798 381
37.8381 359
37.85821 365
37.87833 315
37.89844 367
37.91855 356
37.93867 346
37.95878 321
37.97889 356
37.99901 320
38.01912 335
38.03924 330
38.05935 338
38.07946 351
38.09958 336
38.11969 378
38.1398 333
38.15992 356
38.18003 314
38.20015 361
38.22026 361
38.24037 347
38.26049 364
38.2806 377
38.30071 391
38.32083 358
38.34094 343
38.36105 352
38.38117 355
38.40128 383
38.4214 376
38.44151 349
38.46162 351
38.48174 349
38.50185 373
38.52196 356
38.54208 346
38.56219 345
38.58231 335
38.60242 329
38.62253 362
38.64265 336
38.66276 313
38.68287 341
38.70299 328
38.7231 341
38.74321 323
38.76333 332
38.78344 331
38.80356 357
38.82367 312
38.84378 322
38.8639 339
38.88401 353
38.90412 337
38.92424 368
38.94435 322
38.96447 336
38.98458 370
39.00469 355
39.02481 367
39.04492 363
39.06503 388
39.08515 349
39.10526 385
39.12538 422
39.14549 432
39.1656 427
39.18572 477
39.20583 492
39.22594 500
39.24606 627
39.26617 601
39.28628 679
39.3064 828
39.32651 906
39.34663 1071
39.36674 1249
39.38685 1331
39.40697 1423
39.42708 1446
39.44719 1412
39.46731 1253
39.48742 1111
39.50754 1021
39.52765 948
39.54776 840
39.56788 633
39.58799 593
39.6081 523
39.62822 428
39.64833 433
39.66845 396
39.68856 383
39.70867 376
39.72879 369
39.7489 342
39.76901 343
39.78913 336
39.80924 376
39.82935 360
39.84947 323
39.86958 374
39.8897 360
39.90981 343
39.92992 389
39.95004 410
39.97015 413
39.99026 393
40.01038 383
40.03049 410
40.05061 441
40.07072 467
40.09083 478
40.11095 521
40.13106 558
40.15117 664
40.17129 716
40.1914 788
40.21152 819
40.23163 828
40.25174 850
40.27186 891
40.29197 801
40.31208 723
40.3322 686
40.35231 616
40.37242 587
40.39254 525
40.41265 478
40.43277 421
40.45288 416
40.47299 379
40.49311 338
40.51322 377
40.53333 342
40.55345 366
40.57356 406
40.59368 331
40.61379 356
40.6339 344
40.65402 368
40.67413 410
40.69424 376
40.71436 383
40.73447 349
40.75458 389
40.7747 406
40.79481 406
40.81493 404
40.83504 402
40.85515 373
40.87527 389
40.89538 380
40.91549 400
40.93561 358
40.95572 333
40.97584 374
40.99595 366
41.01606 369
41.03618 324
41.05629 366
41.0764 342
41.09652 353
41.11663 352
41.13675 375
41.15686 324
41.17697 351
41.19709 365
41.2172 306
41.23731 337
41.25743 330
41.27754 357
41.29765 316
41.31777 337
41.33788 341
41.358 345
41.37811 334
41.39822 326
41.41834 371
41.43845 338
41.45856 292
41.47868 320
41.49879 340
41.51891 300
41.53902 305
41.55913 308
41.57925 317
41.59936 347
41.61947 338
41.63959 333
41.6597 347
41.67982 293
41.69993 329
41.72004 308
41.74016 308
41.76027 349
41.78038 351
41.8005 338
41.82061 315
41.84072 289
41.86084 330
41.88095 323
41.90107 343
41.92118 350
41.94129 303
41.96141 345
41.98152 348
42.00163 357
42.02175 353
42.04186 346
42.06198 343
42.08209 365
42.1022 354
42.12232 324
42.14243 386
42.16254 390
42.18266 436
42.20277 444
42.22289 475
42.243 472
42.26311 587
42.28323 713
42.30334 776
42.32345 887
42.34357 919
42.36368 1024
42.38379 1127
42.40391 1165
42.42402 1118
42.44414 998
42.46425 905
42.48436 847
42.50448 786
42.52459 716
42.5447 660
42.56482 563
42.58493 504
42.60505 396
42.62516 355
42.64527 358
42.66539 327
42.6855 350
42.70561 324
42.72573 339
42.74584 337
42.76595 306
42.78607 301
42.80618 310
42.8263 323
42.84641 299
42.86652 304
42.88664 306
42.90675 308
42.92686 301
42.94698 299
42.96709 269
42.98721 282
43.00732 298
43.02743 332
43.04755 293
43.06766 299
43.08777 299
43.10789 290
43.128 320
43.14812 267
43.16823 318
43.18834 274
43.20846 278
43.22857 266
43.24868 297
43.2688 269
43.28891 294
43.30902 272
43.32914 301
43.34925 274
43.36937 290
43.38948 267
43.40959 298
43.42971 300
43.44982 323
43.46993 280
43.49005 301
43.51016 317
43.53028 292
43.55039 324
43.5705 287
43.59062 289
43.61073 328
43.63084 284
43.65096 302
43.67107 301
43.69119 267
43.7113 294
43.73141 298
43.75153 286
43.77164 287
43.79175 318
43.81187 304
43.83198 270
43.85209 275
43.87221 300
43.89232 278
43.91244 261
43.93255 316
43.95266 284
43.97278 297
43.99289 323
44.013 312
44.03312 318
44.05323 259
44.07335 321
44.09346 316
44.11357 297
44.13369 296
44.1538 282
44.17391 277
44.19403 305
44.21414 263
44.23426 316
44.25437 299
44.27448 283
44.2946 305
44.31471 296
44.33482 290
44.35494 278
44.37505 277
44.39516 290
44.41528 295
44.43539 280
44.45551 247
44.47562 296
44.49573 290
44.51585 296
44.53596 279
44.55607 284
44.57619 282
44.5963 281
44.61642 304
44.63653 293
44.65664 278
44.67676 280
44.69687 262
44.71698 313
44.7371 279
44.75721 293
44.77732 305
44.79744 313
44.81755 270
44.83767 267
44.85778 265
44.87789 254
44.89801 311
44.91812 321
44.93823 276
44.95835 301
44.97846 282
44.99858 281
45.01869 318
45.0388 289
45.05892 293
45.07903 286
45.09914 266
45.11926 282
45.13937 337
45.15949 301
45.1796 296
45.19971 328
45.21983 335
45.23994 319
45.26005 361
45.28017 310
45.30028 319
45.32039 328
45.34051 326
45.36062 327
45.38074 347
45.40085 355
45.42096 365
45.44108 355
45.46119 397
45.4813 360
45.50142 375
45.52153 368
45.54165 413
45.56176 414
45.58187 448
45.60199 498
45.6221 521
45.64221 610
45.66233 617
45.68244 686
45.70256 790
45.72267 807
45.74278 814
45.7629 763
45.78301 791
45.80312 738
45.82324 571
45.84335 564
45.86346 552
45.88358 564
45.90369 498
45.92381 447
45.94392 380
45.96403 389
45.98415 335
46.00426 320
46.02437 333
46.04449 303
46.0646 294
46.08472 323
46.10483 322
46.12494 296
46.14506 290
46.16517 298
46.18528 294
46.2054 292
46.22551 281
46.24563 293
46.26574 282
46.28585 281
46.30597 313
46.32608 262
46.34619 295
46.36631 281
46.38642 278
46.40653 283
46.42665 302
46.44676 321
46.46688 262
46.48699 324
46.5071 295
46.52722 287
46.54733 280
46.56744 252
46.58756 285
46.60767 287
46.62779 294
46.6479 256
46.66801 282
46.68813 300
46.70824 301
46.72835 325
46.74847 307
46.76858 288
46.78869 281
46.80881 270
46.82892 261
46.84904 300
46.86915 296
46.88926 261
46.90938 260
46.92949 298
46.9496 264
46.96972 291
46.98983 265
47.00995 312
47.03006 260
47.05017 303
47.07029 269
47.0904 302
47.11051 286
47.13063 265
47.15074 250
47.17086 276
47.19097 282
47.21108 247
47.2312 280
47.25131 303
47.27142 262
47.29154 247
47.31165 291
47.33176 292
47.35188 268
47.37199 273
47.39211 281
47.41222 282
47.43233 276
47.45245 283
47.47256 257
47.49267 268
47.51279 271
47.5329 298
47.55302 279
47.57313 284
47.59324 281
47.61336 274
47.63347 275
47.65358 285
47.6737 295
47.69381 289
47.71393 288
47.73404 257
47.75415 286
47.77427 292
47.79438 276
47.81449 288
47.83461 273
47.85472 257
47.87483 277
47.89495 304
47.91506 290
47.93518 283
47.95529 286
47.9754 274
47.99552 305
48.01563 282
48.03574 271
48.05586 267
48.07597 274
48.09609 273
48.1162 307
48.13631 263
48.15643 269
48.17654 297
48.19665 257
48.21677 282
48.23688 275
48.257 279
48.27711 311
48.29722 258
48.31734 308
48.33745 290
48.35756 292
48.37768 281
48.39779 296
48.4179 328
48.43802 307
48.45813 293
48.47825 263
48.49836 302
48.51847 299
48.53859 276
48.5587 304
48.57881 283
48.59893 300
48.61904 272
48.63916 288
48.65927 274
48.67938 303
48.6995 302
48.71961 299
48.73972 291
48.75984 280
48.77995 327
48.80006 310
48.82018 279
48.84029 324
48.86041 272
48.88052 292
48.90063 280
48.92075 302
48.94086 323
48.96097 297
48.98109 316
49.0012 301
49.02132 319
49.04143 316
49.06154 349
49.08166 341
49.10177 351
49.12188 335
49.142 336
49.16211 355
49.18223 323
49.20234 356
49.22245 342
49.24257 332
49.26268 399
49.28279 365
49.30291 389
49.32302 387
49.34313 421
49.36325 364
49.38336 402
49.40348 364
49.42359 368
49.4437 352
49.46382 370
49.48393 376
49.50404 369
49.52416 332
49.54427 349
49.56439 352
49.5845 349
49.60461 335
49.62473 369
49.64484 352
49.66495 382
49.68507 368
49.70518 372
49.7253 412
49.74541 406
49.76552 477
49.78564 467
49.80575 511
49.82586 546
49.84598 505
49.86609 600
49.8862 635
49.90632 756
49.92643 868
49.94655 973
49.96666 1126
49.98677 1284
50.00689 1486
50.027 1744
50.04711 2010
50.06723 2141
50.08734 2165
50.10746 2132
50.12757 1874
50.14768 1624
50.1678 1499
50.18791 1414
50.20802 1367
50.22814 1210
50.24825 1069
50.26837 882
50.28848 676
50.30859 540
50.32871 465
50.34882 418
50.36893 437
50.38905 371
50.40916 385
50.42927 369
50.44939 365
50.4695 367
50.48962 361
50.50973 377
50.52984 359
50.54996 374
50.57007 322
50.59018 392
50.6103 331
50.63041 324
50.65053 344
50.67064 318
50.69075 351
50.71087 329
50.73098 314
50.75109 289
50.77121 327
50.79132 283
50.81143 310
50.83155 281
50.85166 298
50.87178 299
50.89189 286
50.912 295
50.93212 304
50.95223 307
50.97234 274
50.99246 304
51.01257 277
51.03269 300
51.0528 265
51.07291 278
51.09303 265
51.11314 303
51.13325 269
51.15337 269
51.17348 278
51.1936 294
51.21371 284
51.23382 271
51.25394 263
51.27405 254
51.29416 262
51.31428 275
51.33439 297
51.3545 276
51.37462 282
51.39473 295
51.41485 287
51.43496 281
51.45507 276
51.47519 267
51.4953 266
51.51541 287
51.53553 285
51.55564 270
51.57576 279
51.59587 251
51.61598 246
51.6361 245
51.65621 267
51.67632 244
51.69644 257
51.71655 269
51.73667 256
51.75678 293
51.77689 256
51.79701 258
51.81712 267
51.83723 279
51.85735 287
51.87746 276
51.89757 260
51.91769 273
51.9378 276
51.95792 277
51.97803 270
51.99814 269
52.01826 277
52.03837 284
52.05848 273
52.0786 288
52.09871 296
52.11883 263
52.13894 259
52.15905 278
52.17917 263
52.19928 298
52.21939 276
52.23951 278
52.25962 285
52.27974 264
52.29985 255
52.31996 295
52.34008 274
52.36019 287
52.3803 263
52.40042 254
52.42053 277
52.44064 250
52.46076 273
52.48087 277
52.50099 268
52.5211 261
52.54121 272
52.56133 291
52.58144 282
52.60155 277
52.62167 271
52.64178 278
52.6619 291
52.68201 258
52.70212 282
52.72224 258
52.74235 290
52.76246 289
52.78258 244
52.80269 274
52.8228 289
52.84292 256
52.86303 278
52.88315 253
52.90326 289
52.92337 251
52.94349 289
52.9636 301
52.98371 288
53.00383 268
53.02394 271
53.04406 280
53.06417 269
53.08428 286
53.1044 290
53.12451 281
53.14462 281
53.16474 234
53.18485 284
53.20497 282
53.22508 331
53.24519 287
53.26531 290
53.28542 293
53.30553 259
53.32565 239
53.34576 296
53.36587 297
53.38599 275
53.4061 296
53.42622 311
53.44633 326
53.46644 313
53.48656 304
53.50667 279
53.52678 292
53.5469 297
53.56701 348
53.58713 328
53.60724 373
53.62735 325
53.64747 307
53.66758 347
53.68769 320
53.70781 361
53.72792 362
53.74804 353
53.76815 379
53.78826 359
53.80838 388
53.82849 392
53.8486 408
53.86872 405
53.88883 395
53.90894 437
53.92906 433
53.94917 431
53.96929 415
53.9894 404
54.00951 384
54.02963 385
54.04974 388
54.06985 381
54.08997 361
54.11008 373
54.1302 385
54.15031 346
54.17042 355
54.19054 343
54.21065 347
54.23076 343
54.25088 333
54.27099 347
54.29111 384
54.31122 357
54.33133 342
54.35145 340
54.37156 352
54.39167 403
54.41179 348
54.4319 378
54.45201 367
54.47213 336
54.49224 350
54.51236 388
54.53247 377
54.55258 431
54.5727 381
54.59281 405
54.61292 440
54.63304 444
54.65315 489
54.67327 489
54.69338 551
54.71349 580
54.73361 629
54.75372 721
54.77383 799
54.79395 829
54.81406 885
54.83417 793
54.85429 737
54.8744 734
54.89452 636
54.91463 632
54.93474 567
54.95486 573
54.97497 600
54.99508 554
55.0152 510
55.03531 490
55.05543 420
55.07554 409
55.09565 361
55.11577 403
55.13588 433
55.15599 445
55.17611 470
55.19622 480
55.21634 543
55.23645 537
55.25656 537
55.27668 507
55.29679 523
55.3169 478
55.33702 496
55.35713 433
55.37724 442
55.39736 423
55.41747 437
55.43759 433
55.4577 405
55.47781 399
55.49793 378
55.51804 315
55.53815 333
55.55827 320
55.57838 311
55.5985 309
55.61861 327
55.63872 317
55.65884 341
55.67895 312
55.69906 306
55.71918 287
55.73929 343
55.75941 320
55.77952 314
55.79963 336
55.81975 330
55.83986 314
55.85997 304
55.88009 285
55.9002 313
55.92031 300
55.94043 291
55.96054 291
55.98066 284
56.00077 274
56.02088 272
56.041 277
56.06111 307
56.08122 307
56.10134 289
56.12145 264
56.14157 309
56.16168 306
56.18179 286
56.20191 282
56.22202 258
56.24213 272
56.26225 320
56.28236 297
56.30248 279
56.32259 259
56.3427 290
56.36282 252
56.38293 275
56.40304 293
56.42316 292
56.44327 290
56.46338 253
56.4835 276
56.50361 316
56.52373 284
56.54384 299
56.56395 291
56.58407 278
56.60418 302
56.62429 292
56.64441 273
56.66452 274
56.68464 288
56.70475 293
56.72486 246
56.74498 294
56.76509 281
56.7852 298
56.80532 272
56.82543 275
56.84554 284
56.86566 276
56.88577 272
56.90589 274
56.926 251
56.94611 260
56.96623 313
56.98634 296
57.00645 295
57.02657 281
57.04668 279
57.0668 287
57.08691 273
57.10702 311
57.12714 296
57.14725 306
57.16736 320
57.18748 326
57.20759 342
57.22771 302
57.24782 311
57.26793 294
57.28805 285
57.30816 295
57.32827 286
57.34839 299
57.3685 293
57.38861 333
57.40873 305
57.42884 299
57.44896 311
57.46907 308
57.48918 297
57.5093 265
57.52941 268
57.54952 300
57.56964 306
57.58975 291
57.60987 281
57.62998 274
57.65009 276
57.67021 292
57.69032 274
57.71043 283
57.73055 305
57.75066 297
57.77078 271
57.79089 277
57.811 276
57.83112 260
57.85123 270
57.87134 260
57.89146 263
57.91157 256
57.93168 261
57.9518 268
57.97191 291
57.99203 263
58.01214 271
58.03225 298
58.05237 269
58.07248 280
58.09259 277
58.11271 255
58.13282 266
58.15294 248
58.17305 262
58.19316 263
58.21328 258
58.23339 248
58.2535 271
58.27362 246
58.29373 246
58.31385 255
58.33396 264
58.35407 249
58.37419 246
58.3943 266
58.41441 270
58.43453 257
58.45464 261
58.47475 287
58.49487 274
58.51498 273
58.5351 278
58.55521 263
58.57532 247
58.59544 273
58.61555 279
58.63566 272
58.65578 302
58.67589 308
58.69601 275
58.71612 233
58.73623 262
58.75635 270
58.77646 264
58.79657 307
58.81669 263
58.8368 257
58.85691 260
58.87703 277
58.89714 256
58.91726 257
58.93737 269
58.95748 279
58.9776 290
58.99771 277
59.01782 276
59.03794 265
59.05805 261
59.07817 295
59.09828 303
59.11839 256
59.13851 297
59.15862 307
59.17873 294
59.19885 301
59.21896 295
59.23908 308
59.25919 297
59.2793 304
59.29942 322
59.31953 291
59.33964 295
59.35976 287
59.37987 326
59.39998 299
59.4201 328
59.44021 350
59.46033 341
59.48044 327
59.50055 340
59.52067 335
59.54078 354
59.56089 358
59.58101 369
59.60112 405
59.62124 447
59.64135 455
59.66146 456
59.68158 489
59.70169 564
59.7218 632
59.74192 670
59.76203 769
59.78215 870
59.80226 1038
59.82237 1133
59.84249 1287
59.8626 1381
59.88271 1390
59.90283 1317
59.92294 1333
59.94305 1209
59.96317 1030
59.98328 931
60.0034 928
60.02351 857
60.04362 866
60.06374 875
60.08385 760
60.10396 665
60.12408 574
60.14419 451
60.16431 416
60.18442 331
60.20453 359
60.22465 319
60.24476 330
60.26487 313
60.28499 329
60.3051 327
60.32522 299
60.34533 296
60.36544 314
60.38556 280
60.40567 334
60.42578 313
60.4459 281
60.46601 275
60.48612 300
60.50624 275
60.52635 297
60.54647 272
60.56658 307
60.58669 276
60.60681 291
60.62692 295
60.64703 282
60.66715 262
60.68726 258
60.70738 282
60.72749 295
60.7476 251
60.76772 301
60.78783 276
60.80794 291
60.82806 272
60.84817 277
60.86828 272
60.8884 295
60.90851 266
60.92863 289
60.94874 267
60.96885 274
60.98897 268
61.00908 251
61.02919 286
61.04931 286
61.06942 278
61.08954 276
61.10965 256
61.12976 273
61.14988 254
61.16999 292
61.1901 279
61.21022 260
61.23033 269
61.25045 298
61.27056 277
61.29067 284
61.31079 272
61.3309 250
61.35101 290
61.37113 314
61.39124 270
61.41135 251
61.43147 279
61.45158 285
61.4717 301
61.49181 273
61.51192 283
61.53204 317
61.55215 307
61.57226 309
61.59238 302
61.61249 315
61.63261 316
61.65272 319
61.67283 320
61.69295 332
61.71306 288
61.73317 290
61.75329 350
61.7734 335
61.79352 339
61.81363 377
61.83374 336
61.85386 323
61.87397 324
61.89408 328
61.9142 323
61.93431 313
61.95442 316
61.97454 328
61.99465 300
62.01477 318
62.03488 302
62.05499 327
62.07511 315
62.09522 329
62.11533 332
62.13545 339
62.15556 371
62.17568 361
62.19579 351
62.2159 351
62.23602 344
62.25613 374
62.27624 375
62.29636 365
62.31647 390
62.33659 328
62.3567 381
62.37681 327
62.39693 333
62.41704 304
62.43715 284
62.45727 352
62.47738 325
62.49749 321
62.51761 303
62.53772 301
62.55784 301
62.57795 299
62.59806 269
62.61818 267
62.63829 269
62.6584 298
62.67852 259
62.69863 284
62.71875 340
62.73886 306
62.75897 275
62.77909 273
62.7992 284
62.81931 263
62.83943 267
62.85954 263
62.87965 264
62.89977 289
62.91988 259
62.94 251
62.96011 277
62.98022 249
63.00034 287
63.02045 251
63.04056 255
63.06068 263
63.08079 316
63.10091 278
63.12102 295
63.14113 269
63.16125 298
63.18136 272
63.20147 285
63.22159 254
63.2417 265
63.26182 275
63.28193 279
63.30204 276
63.32216 232
63.34227 270
63.36238 276
63.3825 265
63.40261 279
63.42272 270
63.44284 291
63.46295 274
63.48307 294
63.50318 259
63.52329 293
63.54341 302
63.56352 285
63.58363 275
63.60375 315
63.62386 284
63.64398 286
63.66409 312
63.6842 318
63.70432 301
63.72443 339
63.74454 319
63.76466 365
63.78477 394
63.80489 408
63.825 379
63.84511 383
63.86523 430
63.88534 415
63.90545 468
63.92557 493
63.94568 522
63.96579 528
63.98591 492
64.00602 496
64.02614 473
64.04625 421
64.06636 413
64.08648 389
64.10659 395
64.1267 403
64.14682 384
64.16693 357
64.18705 376
64.20716 330
64.22727 320
64.24739 316
64.2675 283
64.28761 253
64.30773 288
64.32784 270
64.34796 259
64.36807 290
64.38818 251
64.4083 280
64.42841 275
64.44852 265
64.46864 275
64.48875 288
64.50886 265
64.52898 288
64.54909 244
64.56921 225
64.58932 254
64.60943 226
64.62955 241
64.64966 247
64.66977 227
64.68989 254
64.71 243
64.73012 223
64.75023 257
64.77034 243
64.79046 243
64.81057 244
64.83068 255
64.8508 250
64.87091 275
64.89102 258
64.91114 262
64.93125 251
64.95137 220
64.97148 246
64.99159 245
65.01171 256
65.03182 248
65.05193 256
65.07205 240
65.09216 229
65.11228 266
65.13239 243
65.1525 250
65.17262 264
65.19273 240
65.21284 231
65.23296 252
65.25307 240
65.27319 257
65.2933 256
65.31341 259
65.33353 256
65.35364 218
65.37375 235
65.39387 240
65.41398 249
65.43409 249
65.45421 242
65.47432 246
65.49444 238
65.51455 244
65.53466 269
65.55478 260
65.57489 230
65.595 287
65.61512 264
65.63523 285
65.65535 277
65.67546 292
65.69557 286
65.71569 303
65.7358 313
65.75591 296
65.77603 278
65.79614 290
65.81626 290
65.83637 244
65.85648 283
65.8766 273
65.89671 269
65.91682 273
65.93694 247
65.95705 258
65.97716 268
65.99728 251
66.01739 263
66.03751 241
66.05762 257
66.07773 276
66.09785 218
66.11796 275
66.13807 244
66.15819 257
66.1783 273
66.19842 255
66.21853 251
66.23864 246
66.25876 239
66.27887 278
66.29898 243
66.3191 230
66.33921 258
66.35933 264
66.37944 239
66.39955 258
66.41967 253
66.43978 264
66.45989 263
66.48001 237
66.50012 236
66.52023 248
66.54035 252
66.56046 259
66.58058 246
66.60069 267
66.6208 213
66.64092 270
66.66103 252
66.68114 256
66.70126 266
66.72137 247
66.74149 253
66.7616 263
66.78171 257
66.80183 273
66.82194 243
66.84205 258
66.86217 295
66.88228 223
66.90239 235
66.92251 225
66.94262 264
66.96274 254
66.98285 248
67.00296 250
67.02308 266
67.04319 285
67.0633 246
67.08342 265
67.10353 281
67.12365 301
67.14376 262
67.16387 287
67.18399 330
67.2041 285
67.22421 277
67.24433 259
67.26444 308
67.28456 303
67.30467 295
67.32478 306
67.3449 307
67.36501 305
67.38512 339
67.40524 388
67.42535 363
67.44546 373
67.46558 407
67.48569 448
67.50581 467
67.52592 506
67.54603 492
67.56615 652
67.58626 708
67.60637 751
67.62649 837
67.6466 853
67.66672 866
67.68683 843
67.70694 839
67.72706 783
67.74717 769
67.76728 714
67.7874 714
67.80751 686
67.82763 672
67.84774 707
67.86785 740
67.88797 794
67.90808 780
67.92819 810
67.94831 828
67.96842 874
67.98853 879
68.00865 943
68.02876 1009
68.04888 1103
68.06899 1177
68.0891 1178
68.10922 1166
68.12933 1066
68.14944 1055
68.16956 1051
68.18967 1024
68.20979 993
68.2299 1069
68.25001 1043
68.27013 1070
68.29024 936
68.31035 851
68.33047 770
68.35058 657
68.3707 587
68.39081 588
68.41092 561
68.43104 528
68.45115 542
68.47126 517
68.49138 417
68.51149 398
68.5316 377
68.55172 353
68.57183 318
68.59195 317
68.61206 278
68.63217 303
68.65229 296
68.6724 249
68.69251 303
68.71263 279
68.73274 301
68.75286 283
68.77297 263
68.79308 274
68.8132 286
68.83331 263
68.85342 261
68.87354 236
68.89365 244
68.91376 254
68.93388 265
68.95399 252
68.97411 279
68.99422 253
69.01433 274
69.03445 283
69.05456 274
69.07467 237
69.09479 238
69.1149 212
69.13502 240
69.15513 227
69.17524 246
69.19536 261
69.21547 249
69.23558 248
69.2557 250
69.27581 261
69.29593 242
69.31604 214
69.33615 264
69.35627 255
69.37638 251
69.39649 258
69.41661 257
69.43672 253
69.45683 248
69.47695 248
69.49706 239
69.51718 276
69.53729 245
69.5574 250
69.57752 256
69.59763 275
69.61774 234
69.63786 232
69.65797 258
69.67809 269
69.6982 268
69.71831 235
69.73843 256
69.75854 255
69.77865 278
69.79877 230
69.81888 256
69.839 228
69.85911 266
69.87922 264
69.89934 237
69.91945 227
69.93956 226
69.95968 251
69.97979 243
69.9999 241
70.02002 235
70.04013 227
70.06025 255
70.08036 250
70.10047 247
70.12059 265
70.1407 258
70.16081 256
70.18093 265
70.20104 228
70.22116 252
70.24127 240
70.26138 245
70.2815 237
70.30161 223
70.32172 260
70.34184 253
70.36195 232
70.38207 235
70.40218 242
70.42229 244
70.44241 264
70.46252 243
70.48263 249
70.50275 235
70.52286 234
70.54297 247
70.56309 236
70.5832 255
70.60332 251
70.62343 240
70.64354 231
70.66366 253
70.68377 247
70.70388 257
70.724 217
70.74411 230
70.76423 241
70.78434 212
70.80445 247
70.82457 237
70.84468 248
70.86479 223
70.88491 249
70.90502 250
70.92513 247
70.94525 226
70.96536 203
70.98548 225
71.00559 233
71.0257 227
71.04582 222
71.06593 226
71.08604 241
71.10616 218
71.12627 199
71.14639 240
71.1665 234
71.18661 240
71.20673 211
71.22684 228
71.24695 227
71.26707 200
71.28718 244
71.3073 230
71.32741 232
71.34752 223
71.36764 220
71.38775 227
71.40786 192
71.42798 228
71.44809 213
71.4682 229
71.48832 213
71.50843 273
71.52855 223
71.54866 231
71.56877 232
71.58889 246
71.609 261
71.62911 243
71.64923 261
71.66934 248
71.68946 238
71.70957 274
71.72968 225
71.7498 261
71.76991 216
71.79002 238
71.81014 231
71.83025 244
71.85037 248
71.87048 236
71.89059 234
71.91071 245
71.93082 259
71.95093 238
71.97105 234
71.99116 248
72.01127 263
72.03139 218
72.0515 264
72.07162 240
72.09173 245
72.11184 248
72.13196 233
72.15207 234
72.17218 234
72.1923 256
72.21241 243
72.23253 239
72.25264 240
72.27275 211
72.29287 244
72.31298 214
72.33309 230
72.35321 237
72.37332 234
72.39344 241
72.41355 231
72.43366 221
72.45378 239
72.47389 219
72.494 259
72.51412 234
72.53423 256
72.55434 245
72.57446 233
72.59457 240
72.61469 228
72.6348 221
72.65491 270
72.67503 238
72.69514 226
72.71525 257
72.73537 220
72.75548 234
72.7756 228
72.79571 241
72.81582 239
72.83594 253
72.85605 239
72.87616 265
72.89628 240
72.91639 251
72.9365 281
72.95662 248
72.97673 230
72.99685 236
73.01696 257
73.03707 241
73.05719 282
73.0773 303
73.09741 253
73.11753 258
73.13764 258
73.15776 289
73.17787 310
73.19798 309
73.2181 347
73.23821 323
73.25832 363
73.27844 374
73.29855 354
73.31867 420
73.33878 422
73.35889 441
73.37901 434
73.39912 447
73.41923 406
73.43935 429
73.45946 368
73.47957 402
73.49969 332
73.5198 343
73.53992 324
73.56003 329
73.58014 349
73.60026 321
73.62037 332
73.64048 290
73.6606 301
73.68071 303
73.70083 266
73.72094 262
73.74105 277
73.76117 275
73.78128 230
73.80139 242
73.82151 249
73.84162 216
73.86174 251
73.88185 235
73.90196 232
73.92208 215
73.94219 230
73.9623 251
73.98242 243
74.00253 225
74.02264 216
74.04276 237
74.06287 237
74.08299 239
74.1031 226
74.12321 230
74.14333 235
74.16344 229
74.18355 244
74.20367 236
74.22378 222
74.2439 219
74.26401 243
74.28412 224
74.30424 220
74.32435 234
74.34446 238
74.36458 253
74.38469 244
74.40481 222
74.42492 233
74.44503 243
74.46515 246
74.48526 238
74.50537 233
74.52549 225
74.5456 234
74.56571 254
74.58583 228
74.60594 233
74.62606 223
74.64617 242
74.66628 215
74.6864 244
74.70651 226
74.72662 247
74.74674 237
74.76685 249
74.78697 232
74.80708 237
74.82719 214
74.84731 228
74.86742 223
74.88753 204
74.90765 233
74.92776 226
74.94787 213
74.96799 223
74.9881 239
75.00822 243
