3.00117 22130
3.02128 21371
3.0414 20534
3.06151 20109
3.08162 19543
3.10174 18887
3.12185 18377
3.14197 17994
3.16208 17853
3.18219 16795
3.20231 16379
3.22242 15977
3.24253 15249
3.26265 14993
3.28276 14489
3.30288 14300
3.32299 13642
3.3431 13210
3.36322 12782
3.38333 12282
3.40344 11949
3.42356 11649
3.44367 11263
3.46379 10982
3.4839 10260
3.50401 10275
3.52413 9981
3.54424 9322
3.56435 9061
3.58447 8606
3.60458 8597
3.62469 8138
3.64481 7896
3.66492 7611
3.68504 7246
3.70515 7078
3.72526 6676
3.74538 6437
3.76549 6303
3.7856 5832
3.80572 5867
3.82583 5657
3.84595 5144
3.86606 5030
3.88617 4730
3.90629 4540
3.9264 4446
3.94651 4119
3.96663 4050
3.98674 3892
4.00686 3725
4.02697 3645
4.04708 3351
4.0672 3397
4.08731 3045
4.10742 2959
4.12754 2978
4.14765 2626
4.16776 2616
4.18788 2457
4.20799 2377
4.22811 2302
4.24822 2015
4.26833 2114
4.28845 1849
4.30856 1911
4.32867 1894
4.34879 1630
4.3689 1717
4.38902 1562
4.40913 1622
4.42924 1661
4.44936 1377
4.46947 1438
4.48958 1396
4.5097 1348
4.52981 1390
4.54992 1273
4.57004 1243
4.59015 1209
4.61027 1250
4.63038 1194
4.65049 1079
4.67061 1137
4.69072 1062
4.71083 1061
4.73095 1056
4.75106 966
4.77118 932
4.79129 974
4.8114 903
4.83152 900
4.85163 820
4.87174 887
4.89186 921
4.91197 832
4.93209 832
4.9522 780
4.97231 806
4.99243 782
5.01254 741
5.03265 729
5.05277 672
5.07288 703
5.09299 684
5.11311 687
5.13322 660
5.15334 599
5.17345 581
5.19356 611
5.21368 610
5.23379 614
5.2539 545
5.27402 595
5.29413 555
5.31425 471
5.33436 473
5.35447 418
5.37459 448
5.3947 501
5.41481 467
5.43493 422
5.45504 484
5.47516 423
5.49527 431
5.51538 441
5.5355 377
5.55561 364
5.57572 370
5.59584 399
5.61595 367
5.63606 351
5.65618 371
5.67629 343
5.69641 355
5.71652 357
5.73663 324
5.75675 326
5.77686 327
5.79697 324
5.81709 315
5.8372 293
5.85732 307
5.87743 306
5.89754 302
5.91766 301
5.93777 304
5.95788 320
5.978 264
5.99811 325
6.01823 281
6.03834 288
6.05845 278
6.07857 282
6.09868 272
6.11879 274
6.13891 239
6.15902 273
6.17913 308
6.19925 281
6.21936 248
6.23948 263
6.25959 230
6.2797 231
6.29982 252
6.31993 274
6.34004 264
6.36016 253
6.38027 239
6.40039 233
6.4205 253
6.44061 261
6.46073 216
6.48084 233
6.50095 214
6.52107 238
6.54118 233
6.56129 230
6.58141 239
6.60152 237
6.62164 214
6.64175 237
6.66186 232
6.68198 243
6.70209 263
6.7222 230
6.74232 234
6.76243 233
6.78255 245
6.80266 226
6.82277 251
6.84289 262
6.863 248
6.88311 265
6.90323 205
6.92334 237
6.94346 248
6.96357 255
6.98368 218
7.0038 240
7.02391 235
7.04402 241
7.06414 232
7.08425 232
7.10436 248
7.12448 247
7.14459 270
7.16471 261
7.18482 247
7.20493 225
7.22505 243
7.24516 241
7.26527 220
7.28539 258
7.3055 254
7.32562 240
7.34573 246
7.36584 238
7.38596 253
7.40607 235
7.42618 261
7.4463 224
7.46641 226
7.48653 219
7.50664 226
7.52675 270
7.54687 248
7.56698 254
7.58709 255
7.60721 221
7.62732 219
7.64743 217
7.66755 227
7.68766 243
7.70778 231
7.72789 225
7.748 244
7.76812 273
7.78823 228
7.80834 252
7.82846 266
7.84857 230
7.86869 221
7.8888 239
7.90891 245
7.92903 243
7.94914 216
7.96925 258
7.98937 216
8.00948 241
8.0296 229
8.04971 270
8.06982 239
8.08994 252
8.11005 236
8.13016 275
8.15028 225
8.17039 240
8.1905 256
8.21062 256
8.23073 278
8.25085 262
8.27096 229
8.29107 234
8.31119 281
8.3313 278
8.35141 294
8.37153 228
8.39164 220
8.41176 274
8.43187 251
8.45198 250
8.4721 252
8.49221 259
8.51232 259
8.53244 249
8.55255 259
8.57266 262
8.59278 227
8.61289 256
8.63301 261
8.65312 246
8.67323 253
8.69335 284
8.71346 262
8.73357 274
8.75369 270
8.7738 278
8.79392 267
8.81403 259
8.83414 268
8.85426 263
8.87437 283
8.89448 307
8.9146 288
8.93471 237
8.95483 255
8.97494 229
8.99505 265
9.01517 253
9.03528 273
9.05539 259
9.07551 236
9.09562 245
9.11573 256
9.13585 258
9.15596 218
9.17608 259
9.19619 229
9.2163 265
9.23642 264
9.25653 260
9.27664 242
9.29676 271
9.31687 254
9.33699 268
9.3571 236
9.37721 281
9.39733 271
9.41744 246
9.43755 268
9.45767 262
9.47778 254
9.4979 263
9.51801 259
9.53812 260
9.55824 255
9.57835 271
9.59846 286
9.61858 255
9.63869 266
9.6588 295
9.67892 237
9.69903 225
9.71915 236
9.73926 265
9.75937 240
9.77949 263
9.7996 251
9.81971 285
9.83983 250
9.85994 213
9.88006 285
9.90017 256
9.92028 253
9.9404 259
9.96051 241
9.98062 268
10.00074 269
10.02085 249
10.04097 290
10.06108 269
10.08119 271
10.10131 265
10.12142 257
10.14153 276
10.16165 262
10.18176 287
10.20187 290
10.22199 276
10.2421 317
10.26222 256
10.28233 286
10.30244 264
10.32256 274
10.34267 240
10.36278 248
10.3829 261
10.40301 243
10.42313 239
10.44324 276
10.46335 258
10.48347 275
10.50358 255
10.52369 264
10.54381 245
10.56392 274
10.58403 238
10.60415 290
10.62426 254
10.64438 271
10.66449 259
10.6846 281
10.70472 289
10.72483 254
10.74494 276
10.76506 246
10.78517 246
10.80529 277
10.8254 255
10.84551 284
10.86563 253
10.88574 279
10.90585 255
10.92597 278
10.94608 280
10.9662 268
10.98631 256
11.00642 273
11.02654 272
11.04665 246
11.06676 262
11.08688 279
11.10699 277
11.1271 280
11.14722 260
11.16733 286
11.18745 269
11.20756 261
11.22767 272
11.24779 296
11.2679 267
11.28801 291
11.30813 302
11.32824 292
11.34836 281
11.36847 270
11.38858 259
11.4087 273
11.42881 265
11.44892 265
11.46904 296
11.48915 271
11.50927 273
11.52938 269
11.54949 290
11.56961 278
11.58972 240
11.60983 280
11.62995 263
11.65006 267
11.67017 267
11.69029 266
11.7104 264
11.73052 271
11.75063 287
11.77074 258
11.79086 263
11.81097 288
11.83108 312
11.8512 277
11.87131 275
11.89143 269
11.91154 290
11.93165 292
11.95177 328
11.97188 264
11.99199 295
12.01211 314
12.03222 292
12.05234 312
12.07245 282
12.09256 319
12.11268 324
12.13279 339
12.1529 326
12.17302 351
12.19313 342
12.21324 386
12.23336 335
12.25347 371
12.27359 417
12.2937 424
12.31381 412
12.33393 500
12.35404 536
12.37415 575
12.39427 568
12.41438 517
12.4345 504
12.45461 448
12.47472 416
12.49484 368
12.51495 347
12.53506 321
12.55518 305
12.57529 297
12.5954 301
12.61552 288
12.63563 302
12.65575 275
12.67586 309
12.69597 272
12.71609 266
12.7362 305
12.75631 280
12.77643 271
12.79654 256
12.81666 259
12.83677 260
12.85688 259
12.877 289
12.89711 302
12.91722 238
12.93734 244
12.95745 252
12.97757 235
12.99768 248
13.01779 278
13.03791 255
13.05802 260
13.07813 289
13.09825 252
13.11836 234
13.13847 258
13.15859 226
13.1787 220
13.19882 264
13.21893 227
13.23904 219
13.25916 252
13.27927 224
13.29938 249
13.3195 244
13.33961 233
13.35973 259
13.37984 256
13.39995 230
13.42007 238
13.44018 257
13.46029 211
13.48041 226
13.50052 233
13.52064 223
13.54075 252
13.56086 254
13.58098 231
13.60109 242
13.6212 268
13.64132 261
13.66143 239
13.68154 248
13.70166 264
13.72177 245
13.74189 261
13.762 240
13.78211 220
13.80223 243
13.82234 210
13.84245 224
13.86257 226
13.88268 248
13.9028 253
13.92291 223
13.94302 248
13.96314 228
13.98325 224
14.00336 230
14.02348 207
14.04359 244
14.06371 222
14.08382 223
14.10393 241
14.12405 225
14.14416 234
14.16427 213
14.18439 230
14.2045 221
14.22461 232
14.24473 216
14.26484 259
14.28496 226
14.30507 237
14.32518 244
14.3453 224
14.36541 238
14.38552 231
14.40564 219
14.42575 225
14.44587 205
14.46598 210
14.48609 215
14.50621 228
14.52632 256
14.54643 238
14.56655 253
14.58666 229
14.60677 193
14.62689 229
14.647 221
14.66712 234
14.68723 212
14.70734 190
14.72746 207
14.74757 220
14.76768 228
14.7878 231
14.80791 238
14.82803 218
14.84814 223
14.86825 218
14.88837 207
14.90848 223
14.92859 223
14.94871 228
14.96882 226
14.98894 235
15.00905 218
15.02916 225
15.04928 243
15.06939 243
15.0895 212
15.10962 211
15.12973 223
15.14984 223
15.16996 204
15.19007 216
15.21019 208
15.2303 218
15.25041 225
15.27053 191
15.29064 212
15.31075 198
15.33087 241
15.35098 225
15.3711 212
15.39121 198
15.41132 204
15.43144 222
15.45155 189
15.47166 238
15.49178 212
15.51189 197
15.53201 214
15.55212 191
15.57223 222
15.59235 215
15.61246 207
15.63257 218
15.65269 222
15.6728 193
15.69291 207
15.71303 196
15.73314 220
15.75326 201
15.77337 185
15.79348 194
15.8136 194
15.83371 205
15.85382 204
15.87394 209
15.89405 213
15.91417 235
15.93428 203
15.95439 200
15.97451 196
15.99462 191
16.01473 190
16.03485 226
16.05496 215
16.07508 180
16.09519 210
16.1153 219
16.13542 238
16.15553 190
16.17564 176
16.19576 193
16.21587 214
16.23598 222
16.2561 197
16.27621 221
16.29633 201
16.31644 211
16.33655 196
16.35667 199
16.37678 203
16.39689 196
16.41701 196
16.43712 194
16.45724 202
16.47735 189
16.49746 217
16.51758 176
16.53769 187
16.5578 193
16.57792 218
16.59803 195
16.61814 178
16.63826 186
16.65837 153
16.67849 204
16.6986 194
16.71871 191
16.73883 206
16.75894 195
16.77905 209
16.79917 204
16.81928 191
16.8394 204
16.85951 206
16.87962 199
16.89974 190
16.91985 197
16.93996 188
16.96008 206
16.98019 211
17.00031 224
17.02042 219
17.04053 232
17.06065 214
17.08076 196
17.10087 171
17.12099 187
17.1411 192
17.16121 236
17.18133 212
17.20144 206
17.22156 188
17.24167 187
17.26178 220
17.2819 224
17.30201 216
17.32212 211
17.34224 192
17.36235 201
17.38247 198
17.40258 193
17.42269 189
17.44281 213
17.46292 217
17.48303 195
17.50315 219
17.52326 209
17.54338 207
17.56349 201
17.5836 191
17.60372 217
17.62383 211
17.64394 191
17.66406 170
17.68417 211
17.70428 177
17.7244 199
17.74451 185
17.76463 206
17.78474 173
17.80485 192
17.82497 218
17.84508 227
17.86519 204
17.88531 186
17.90542 204
17.92554 201
17.94565 210
17.96576 189
17.98588 190
18.00599 203
18.0261 231
18.04622 203
18.06633 197
18.08645 222
18.10656 182
18.12667 197
18.14679 176
18.1669 206
18.18701 206
18.20713 191
18.22724 191
18.24735 193
18.26747 195
18.28758 231
18.3077 203
18.32781 209
18.34792 209
18.36804 202
18.38815 204
18.40826 183
18.42838 219
18.44849 216
18.46861 215
18.48872 207
18.50883 186
18.52895 193
18.54906 237
18.56917 195
18.58929 160
18.6094 214
18.62951 201
18.64963 188
18.66974 184
18.68986 195
18.70997 201
18.73008 217
18.7502 244
18.77031 224
18.79042 206
18.81054 214
18.83065 242
18.85077 230
18.87088 207
18.89099 217
18.91111 217
18.93122 184
18.95133 226
18.97145 203
18.99156 245
19.01168 194
19.03179 187
19.0519 228
19.07202 212
19.09213 209
19.11224 195
19.13236 218
19.15247 226
19.17258 217
19.1927 206
19.21281 229
19.23293 207
19.25304 214
19.27315 186
19.29327 216
19.31338 175
19.33349 217
19.35361 197
19.37372 198
19.39384 216
19.41395 214
19.43406 220
19.45418 217
19.47429 199
19.4944 212
19.51452 210
19.53463 194
19.55475 218
19.57486 191
19.59497 212
19.61509 226
19.6352 223
19.65531 254
19.67543 215
19.69554 256
19.71565 254
19.73577 249
19.75588 273
19.776 255
19.79611 295
19.81622 304
19.83634 347
19.85645 354
19.87656 378
19.89668 354
19.91679 394
19.93691 374
19.95702 411
19.97713 353
19.99725 386
20.01736 385
20.03747 373
20.05759 354
20.0777 398
20.09782 380
20.11793 357
20.13804 359
20.15816 386
20.17827 412
20.19838 385
20.2185 398
20.23861 366
20.25872 367
20.27884 397
20.29895 392
20.31907 420
20.33918 384
20.35929 395
20.37941 412
20.39952 444
20.41963 412
20.43975 467
20.45986 408
20.47998 447
20.50009 444
20.5202 403
20.54032 460
20.56043 454
20.58054 440
20.60066 509
20.62077 515
20.64088 480
20.661 532
20.68111 601
20.70123 667
20.72134 863
20.74145 1022
20.76157 1292
20.78168 1913
20.80179 2866
20.82191 4329
20.84202 6050
20.86214 8014
20.88225 9244
20.90236 8751
20.92248 7134
20.94259 5130
20.9627 3441
20.98282 1942
21.00293 1139
21.02305 762
21.04316 614
21.06327 571
21.08339 540
21.1035 547
21.12361 517
21.14373 486
21.16384 456
21.18395 430
21.20407 442
21.22418 412
21.2443 413
21.26441 413
21.28452 431
21.30464 375
21.32475 422
21.34486 388
21.36498 366
21.38509 368
21.40521 407
21.42532 383
21.44543 366
21.46555 382
21.48566 355
21.50577 370
21.52589 334
21.546 343
21.56612 381
21.58623 326
21.60634 337
21.62646 320
21.64657 303
21.66668 327
21.6868 352
21.70691 320
21.72702 351
21.74714 301
21.76725 327
21.78737 312
21.80748 314
21.82759 281
21.84771 312
21.86782 298
21.88793 300
21.90805 291
21.92816 309
21.94828 317
21.96839 312
21.9885 286
22.00862 300
22.02873 303
22.04884 287
22.06896 297
22.08907 316
22.10919 335
22.1293 299
22.14941 277
22.16953 269
22.18964 299
22.20975 269
22.22987 276
22.24998 285
22.27009 271
22.29021 327
22.31032 292
22.33044 300
22.35055 297
22.37066 259
22.39078 273
22.41089 259
22.431 272
22.45112 247
22.47123 277
22.49135 290
22.51146 280
22.53157 246
22.55169 257
22.5718 272
22.59191 268
22.61203 255
22.63214 272
22.65225 256
22.67237 276
22.69248 250
22.7126 262
22.73271 275
22.75282 257
22.77294 284
22.79305 245
22.81316 288
22.83328 272
22.85339 265
22.87351 275
22.89362 255
22.91373 253
22.93385 253
22.95396 246
22.97407 255
22.99419 255
23.0143 271
23.03442 248
23.05453 261
23.07464 257
23.09476 291
23.11487 301
23.13498 266
23.1551 252
23.17521 268
23.19532 265
23.21544 240
23.23555 268
23.25567 254
23.27578 273
23.29589 239
23.31601 256
23.33612 237
23.35623 206
23.37635 254
23.39646 259
23.41658 261
23.43669 239
23.4568 251
23.47692 254
23.49703 239
23.51714 261
23.53726 278
23.55737 248
23.57749 252
23.5976 233
23.61771 235
23.63783 267
23.65794 236
23.67805 269
23.69817 271
23.71828 260
23.73839 264
23.75851 267
23.77862 267
23.79874 256
23.81885 240
23.83896 285
23.85908 275
23.87919 275
23.8993 298
23.91942 265
23.93953 301
23.95965 321
23.97976 316
23.99987 343
24.01999 329
24.0401 358
24.06021 376
24.08033 376
24.10044 323
24.12056 304
24.14067 296
24.16078 300
24.1809 346
24.20101 313
24.22112 349
24.24124 308
24.26135 304
24.28146 285
24.30158 281
24.32169 277
24.34181 278
24.36192 283
24.38203 337
24.40215 303
24.42226 271
24.44237 283
24.46249 306
24.4826 315
24.50272 290
24.52283 279
24.54294 268
24.56306 267
24.58317 283
24.60328 317
24.6234 292
24.64351 285
24.66362 282
24.68374 303
24.70385 306
24.72397 310
24.74408 337
24.76419 361
24.78431 357
24.80442 387
24.82453 414
24.84465 437
24.86476 442
24.88488 456
24.90499 461
24.9251 466
24.94522 435
24.96533 412
24.98544 386
25.00556 351
25.02567 323
25.04579 333
25.0659 331
25.08601 331
25.10613 324
25.12624 359
25.14635 308
25.16647 312
25.18658 343
25.20669 330
25.22681 305
25.24692 309
25.26704 279
25.28715 347
25.30726 335
25.32738 321
25.34749 336
25.3676 322
25.38772 322
25.40783 298
25.42795 309
25.44806 313
25.46817 298
25.48829 315
25.5084 292
25.52851 294
25.54863 291
25.56874 300
25.58886 297
25.60897 293
25.62908 272
25.6492 313
25.66931 311
25.68942 320
25.70954 344
25.72965 416
25.74976 391
25.76988 469
25.78999 436
25.81011 462
25.83022 463
25.85033 474
25.87045 431
25.89056 474
25.91067 419
25.93079 494
25.9509 470
25.97102 466
25.99113 460
26.01124 545
26.03136 514
26.05147 552
26.07158 525
26.0917 529
26.11181 555
26.13193 596
26.15204 582
26.17215 609
26.19227 627
26.21238 707
26.23249 711
26.25261 785
26.27272 822
26.29283 895
26.31295 979
26.33306 1005
26.35318 1102
26.37329 1116
26.3934 1245
26.41352 1374
26.43363 1492
26.45374 1879
26.47386 2305
26.49397 3032
26.51409 4186
26.5342 5905
26.55431 8882
26.57443 13291
26.59454 19901
26.61465 27392
26.63477 36095
26.65488 41195
26.67499 39017
26.69511 31480
26.71522 24328
26.73534 19001
26.75545 12644
26.77556 6851
26.79568 3601
26.81579 2297
26.8359 1806
26.85602 1596
26.87613 1378
26.89625 1294
26.91636 1178
26.93647 1141
26.95659 981
26.9767 895
26.99681 815
27.01693 703
27.03704 634
27.05716 639
27.07727 556
27.09738 578
27.1175 545
27.13761 482
27.15772 461
27.17784 474
27.19795 463
27.21806 434
27.23818 453
27.25829 431
27.27841 483
27.29852 425
27.31863 389
27.33875 417
27.35886 398
27.37897 436
27.39909 373
27.4192 434
27.43932 409
27.45943 395
27.47954 384
27.49966 401
27.51977 382
27.53988 387
27.56 401
27.58011 373
27.60023 376
27.62034 337
27.64045 369
27.66057 372
27.68068 327
27.70079 370
27.72091 321
27.74102 334
27.76113 339
27.78125 368
27.80136 364
27.82148 357
27.84159 333
27.8617 313
27.88182 341
27.90193 312
27.92204 317
27.94216 350
27.96227 315
27.98239 347
28.0025 317
28.02261 318
28.04273 333
28.06284 301
28.08295 273
28.10307 284
28.12318 283
28.1433 304
28.16341 301
28.18352 333
28.20364 284
28.22375 290
28.24386 297
28.26398 300
28.28409 308
28.3042 283
28.32432 284
28.34443 293
28.36455 303
28.38466 252
28.40477 273
28.42489 279
28.445 312
28.46511 265
28.48523 299
28.50534 276
28.52546 267
28.54557 303
28.56568 288
28.5858 326
28.60591 282
28.62602 250
28.64614 300
28.66625 278
28.68636 315
28.70648 255
28.72659 281
28.74671 259
28.76682 244
28.78693 290
28.80705 265
28.82716 259
28.84727 281
28.86739 285
28.8875 245
28.90762 283
28.92773 252
28.94784 257
28.96796 275
28.98807 269
29.00818 282
29.0283 267
29.04841 293
29.06853 264
29.08864 298
29.10875 261
29.12887 270
29.14898 268
29.16909 231
29.18921 250
29.20932 262
29.22943 288
29.24955 268
29.26966 257
29.28978 279
29.30989 263
29.33 265
29.35012 283
29.37023 258
29.39034 258
29.41046 250
29.43057 260
29.45069 251
29.4708 241
29.49091 251
29.51103 258
29.53114 280
29.55125 240
29.57137 248
29.59148 272
29.6116 240
29.63171 258
29.65182 245
29.67194 230
29.69205 242
29.71216 261
29.73228 240
29.75239 252
29.7725 247
29.79262 235
29.81273 248
29.83285 241
29.85296 264
29.87307 242
29.89319 220
29.9133 231
29.93341 261
29.95353 248
29.97364 255
29.99376 252
30.01387 272
30.03398 251
30.0541 227
30.07421 236
30.09432 258
30.11444 253
30.13455 250
30.15467 238
30.17478 248
30.19489 243
30.21501 242
30.23512 288
30.25523 251
30.27535 245
30.29546 244
30.31557 236
30.33569 234
30.3558 223
30.37592 245
30.39603 230
30.41614 230
30.43626 234
30.45637 259
30.47648 235
30.4966 244
30.51671 234
30.53683 243
30.55694 240
30.57705 243
30.59717 241
30.61728 252
30.63739 248
30.65751 270
30.67762 226
30.69773 222
30.71785 233
30.73796 240
30.75808 233
30.77819 247
30.7983 243
30.81842 223
30.83853 240
30.85864 220
30.87876 225
30.89887 212
30.91899 243
30.9391 211
30.95921 261
30.97933 234
30.99944 243
31.01955 240
31.03967 219
31.05978 197
31.0799 227
31.10001 260
31.12012 176
31.14024 243
31.16035 206
31.18046 233
31.20058 255
31.22069 238
31.2408 221
31.26092 257
31.28103 233
31.30115 230
31.32126 194
31.34137 235
31.36149 231
31.3816 237
31.40171 207
31.42183 220
31.44194 235
31.46206 249
31.48217 225
31.50228 216
31.5224 234
31.54251 236
31.56262 220
31.58274 197
31.60285 238
31.62297 206
31.64308 205
31.66319 213
31.68331 222
31.70342 209
31.72353 196
31.74365 224
31.76376 229
31.78387 222
31.80399 211
31.8241 193
31.84422 258
31.86433 237
31.88444 240
31.90456 198
31.92467 200
31.94478 229
31.9649 241
31.98501 219
32.00513 232
32.02524 219
32.04535 221
32.06547 215
32.08558 230
32.10569 208
32.12581 230
32.14592 256
32.16604 230
32.18615 200
32.20626 226
32.22638 213
32.24649 221
32.2666 221
32.28672 190
32.30683 211
32.32694 241
32.34706 199
32.36717 192
32.38729 216
32.4074 183
32.42751 234
32.44763 196
32.46774 214
32.48785 234
32.50797 229
32.52808 222
32.5482 230
32.56831 196
32.58842 243
32.60854 231
32.62865 217
32.64876 232
32.66888 240
32.68899 238
32.7091 229
32.72922 216
32.74933 233
32.76945 255
32.78956 249
32.80967 228
32.82979 214
32.8499 234
32.87001 263
32.89013 232
32.91024 217
32.93036 251
32.95047 255
32.97058 261
32.9907 246
33.01081 257
33.03092 272
33.05104 271
33.07115 270
33.09127 301
33.11138 330
33.13149 298
33.15161 301
33.17172 339
33.19183 323
33.21195 330
33.23206 308
33.25217 322
33.27229 284
33.2924 310
33.31252 304
33.33263 302
33.35274 264
33.37286 274
33.39297 256
33.41308 250
33.4332 259
33.45331 244
33.47343 231
33.49354 241
33.51365 230
33.53377 206
33.55388 252
33.57399 223
33.59411 220
33.61422 225
33.63434 219
33.65445 239
33.67456 217
33.69468 208
33.71479 226
33.7349 237
33.75502 222
33.77513 204
33.79524 226
33.81536 199
33.83547 198
33.85559 209
33.8757 188
33.89581 218
33.91593 197
33.93604 202
33.95615 216
33.97627 230
33.99638 189
34.0165 212
34.03661 181
34.05672 216
34.07684 222
34.09695 173
34.11706 203
34.13718 217
34.15729 181
34.17741 184
34.19752 194
34.21763 203
34.23775 192
34.25786 179
34.27797 187
34.29809 211
34.3182 192
34.33831 199
34.35843 181
34.37854 195
34.39866 207
34.41877 216
34.43888 201
34.459 194
34.47911 195
34.49922 218
34.51934 194
34.53945 207
34.55957 212
34.57968 214
34.59979 235
34.61991 238
34.64002 233
34.66013 238
34.68025 231
34.70036 257
34.72047 224
34.74059 283
34.7607 244
34.78082 222
34.80093 244
34.82104 246
34.84116 253
34.86127 282
34.88138 265
34.9015 271
34.92161 297
34.94173 274
34.96184 321
34.98195 259
35.00207 263
35.02218 306
35.04229 282
35.06241 256
35.08252 252
35.10264 290
35.12275 275
35.14286 302
35.16298 255
35.18309 251
35.2032 278
35.22332 263
35.24343 260
35.26354 239
35.28366 265
35.30377 262
35.32389 255
35.344 251
35.36411 261
35.38423 295
35.40434 300
35.42445 281
35.44457 292
35.46468 272
35.4848 288
35.50491 312
35.52502 322
35.54514 342
35.56525 319
35.58536 316
35.60548 348
35.62559 364
35.64571 374
35.66582 374
35.68593 349
35.70605 341
35.72616 348
35.74627 314
35.76639 370
35.7865 319
35.80661 345
35.82673 344
35.84684 308
35.86696 298
35.88707 310
35.90718 304
35.9273 347
35.94741 313
35.96752 340
35.98764 311
36.00775 328
36.02787 340
36.04798 328
36.06809 323
36.08821 317
36.10832 310
36.12843 289
36.14855 274
36.16866 285
36.18878 297
36.20889 295
36.229 290
36.24912 304
36.26923 301
36.28934 327
36.30946 385
36.32957 383
36.34968 415
36.3698 457
36.38991 475
36.41003 605
36.43014 727
36.45025 1005
36.47037 1252
36.49048 1715
36.51059 2134
36.53071 2659
36.55082 2816
36.57094 2598
36.59105 2237
36.61116 1711
36.63128 1628
36.65139 1529
36.6715 1246
36.69162 808
36.71173 547
36.73184 412
36.75196 337
36.77207 333
36.79219 313
36.8123 294
36.83241 276
36.85253 288
36.87264 302
36.89275 272
36.91287 269
36.93298 252
36.9531 279
36.97321 284
36.99332 268
37.01344 233
37.03355 276
37.05366 246
37.07378 251
37.09389 272
37.11401 248
37.13412 248
37.15423 236
37.17435 239
37.19446 258
37.21457 254
37.23469 259
37.2548 258
37.27491 234
37.29503 230
37.31514 247
37.33526 265
37.35537 217
37.37548 239
37.3956 219
37.41571 221
37.43582 231
37.45594 229
37.47605 227
37.49617 228
37.51628 228
37.53639 262
37.55651 280
37.57662 237
37.59673 230
37.61685 226
37.63696 235
37.65708 227
37.67719 238
37.6973 276
37.71742 245
37.73753 247
37.75764 231
37.77776 259
37.79787 236
37.81798 270
37.8381 228
37.85821 206
37.87833 226
37.89844 235
37.91855 214
37.93867 253
37.95878 251
37.97889 240
37.99901 232
38.01912 238
38.03924 253
38.05935 257
38.07946 217
38.09958 278
38.11969 264
38.1398 243
38.15992 247
38.18003 254
38.20015 259
38.22026 298
38.24037 279
38.26049 244
38.2806 246
38.30071 268
38.32083 258
38.34094 263
38.36105 281
38.38117 275
38.40128 275
38.4214 303
38.44151 302
38.46162 285
38.48174 313
38.50185 259
38.52196 305
38.54208 289
38.56219 278
38.58231 258
38.60242 286
38.62253 271
38.64265 262
38.66276 271
38.68287 237
38.70299 253
38.7231 270
38.74321 273
38.76333 222
38.78344 245
38.80356 246
38.82367 267
38.84378 242
38.8639 273
38.88401 244
38.90412 256
38.92424 233
38.94435 250
38.96447 243
38.98458 208
39.00469 253
39.02481 267
39.04492 271
39.06503 292
39.08515 260
39.10526 260
39.12538 271
39.14549 317
39.1656 292
39.18572 308
39.20583 343
39.22594 317
39.24606 368
39.26617 374
39.28628 410
39.3064 516
39.32651 606
39.34663 671
39.36674 925
39.38685 1146
39.40697 1497
39.42708 1988
39.44719 2287
39.46731 2526
39.48742 2549
39.50754 2013
39.52765 1587
39.54776 1457
39.56788 1443
39.58799 1250
39.6081 982
39.62822 641
39.64833 457
39.66845 338
39.68856 328
39.70867 269
39.72879 300
39.7489 268
39.76901 283
39.78913 261
39.80924 236
39.82935 271
39.84947 272
39.86958 243
39.8897 234
39.90981 242
39.92992 245
39.95004 234
39.97015 259
39.99026 235
40.01038 267
40.03049 285
40.05061 269
40.07072 314
40.09083 290
40.11095 308
40.13106 351
40.15117 388
40.17129 485
40.1914 537
40.21152 733
40.23163 816
40.25174 1073
40.27186 1278
40.29197 1370
40.31208 1329
40.3322 1081
40.35231 900
40.37242 818
40.39254 808
40.41265 700
40.43277 584
40.45288 438
40.47299 346
40.49311 300
40.51322 269
40.53333 263
40.55345 268
40.57356 254
40.59368 236
40.61379 234
40.6339 221
40.65402 235
40.67413 210
40.69424 253
40.71436 231
40.73447 231
40.75458 216
40.7747 235
40.79481 235
40.81493 254
40.83504 242
40.85515 242
40.87527 242
40.89538 259
40.91549 239
40.93561 262
40.95572 230
40.97584 233
40.99595 232
41.01606 252
41.03618 248
41.05629 267
41.0764 221
41.09652 257
41.11663 261
41.13675 218
41.15686 235
41.17697 263
41.19709 238
41.2172 237
41.23731 248
41.25743 224
41.27754 213
41.29765 225
41.31777 217
41.33788 212
41.358 232
41.37811 195
41.39822 240
41.41834 228
41.43845 235
41.45856 212
41.47868 222
41.49879 229
41.51891 206
41.53902 240
41.55913 220
41.57925 233
41.59936 208
41.61947 222
41.63959 232
41.6597 226
41.67982 228
41.69993 221
41.72004 221
41.74016 244
41.76027 217
41.78038 210
41.8005 224
41.82061 228
41.84072 217
41.86084 223
41.88095 207
41.90107 207
41.92118 229
41.94129 227
41.96141 225
41.98152 230
42.00163 217
42.02175 228
42.04186 217
42.06198 256
42.08209 227
42.1022 238
42.12232 242
42.14243 264
42.16254 258
42.18266 275
42.20277 273
42.22289 310
42.243 322
42.26311 329
42.28323 368
42.30334 420
42.32345 499
42.34357 645
42.36368 870
42.38379 1072
42.40391 1427
42.42402 1706
42.44414 1900
42.46425 1924
42.48436 1646
42.50448 1224
42.52459 1105
42.5447 1036
42.56482 1048
42.58493 925
42.60505 662
42.62516 465
42.64527 362
42.66539 307
42.6855 264
42.70561 281
42.72573 248
42.74584 235
42.76595 232
42.78607 228
42.80618 215
42.8263 223
42.84641 188
42.86652 223
42.88664 223
42.90675 195
42.92686 219
42.94698 231
42.96709 199
42.98721 195
43.00732 207
43.02743 194
43.04755 194
43.06766 208
43.08777 183
43.10789 203
43.128 198
43.14812 204
43.16823 204
43.18834 199
43.20846 197
43.22857 196
43.24868 193
43.2688 210
43.28891 208
43.30902 185
43.32914 218
43.34925 190
43.36937 203
43.38948 208
43.40959 194
43.42971 203
43.44982 198
43.46993 193
43.49005 210
43.51016 196
43.53028 191
43.55039 198
43.5705 192
43.59062 198
43.61073 228
43.63084 210
43.65096 211
43.67107 193
43.69119 185
43.7113 204
43.73141 226
43.75153 216
43.77164 210
43.79175 222
43.81187 185
43.83198 203
43.85209 198
43.87221 195
43.89232 202
43.91244 191
43.93255 187
43.95266 194
43.97278 202
43.99289 214
44.013 187
44.03312 203
44.05323 199
44.07335 206
44.09346 217
44.11357 202
44.13369 202
44.1538 185
44.17391 193
44.19403 214
44.21414 205
44.23426 195
44.25437 195
44.27448 210
44.2946 201
44.31471 200
44.33482 193
44.35494 192
44.37505 192
44.39516 222
44.41528 185
44.43539 178
44.45551 185
44.47562 173
44.49573 170
44.51585 217
44.53596 177
44.55607 214
44.57619 220
44.5963 197
44.61642 196
44.63653 200
44.65664 199
44.67676 171
44.69687 188
44.71698 197
44.7371 206
44.75721 208
44.77732 192
44.79744 183
44.81755 221
44.83767 179
44.85778 183
44.87789 201
44.89801 201
44.91812 194
44.93823 217
44.95835 192
44.97846 208
44.99858 194
45.01869 212
45.0388 216
45.05892 222
45.07903 193
45.09914 216
45.11926 208
45.13937 208
45.15949 202
45.1796 215
45.19971 195
45.21983 217
45.23994 177
45.26005 203
45.28017 208
45.30028 188
45.32039 249
45.34051 202
45.36062 219
45.38074 210
45.40085 218
45.42096 233
45.44108 220
45.46119 214
45.4813 236
45.50142 241
45.52153 256
45.54165 278
45.56176 282
45.58187 292
45.60199 305
45.6221 342
45.64221 408
45.66233 470
45.68244 510
45.70256 593
45.72267 774
45.74278 954
45.7629 1136
45.78301 1275
45.80312 1294
45.82324 1147
45.84335 884
45.86346 745
45.88358 697
45.90369 737
45.92381 726
45.94392 565
45.96403 457
45.98415 319
46.00426 274
46.02437 247
46.04449 249
46.0646 238
46.08472 200
46.10483 251
46.12494 214
46.14506 196
46.16517 222
46.18528 200
46.2054 199
46.22551 200
46.24563 224
46.26574 198
46.28585 217
46.30597 211
46.32608 187
46.34619 201
46.36631 202
46.38642 208
46.40653 210
46.42665 216
46.44676 222
46.46688 204
46.48699 219
46.5071 184
46.52722 199
46.54733 192
46.56744 191
46.58756 188
46.60767 192
46.62779 200
46.6479 191
46.66801 197
46.68813 183
46.70824 185
46.72835 203
46.74847 190
46.76858 198
46.78869 179
46.80881 177
46.82892 210
46.84904 203
46.86915 178
46.88926 192
46.90938 195
46.92949 204
46.9496 179
46.96972 192
46.98983 174
47.00995 210
47.03006 198
47.05017 206
47.07029 189
47.0904 203
47.11051 180
47.13063 194
47.15074 195
47.17086 184
47.19097 171
47.21108 192
47.2312 199
47.25131 198
47.27142 194
47.29154 188
47.31165 186
47.33176 189
47.35188 207
47.37199 191
47.39211 195
47.41222 184
47.43233 203
47.45245 169
47.47256 209
47.49267 181
47.51279 183
47.5329 196
47.55302 197
47.57313 191
47.59324 215
47.61336 178
47.63347 191
47.65358 196
47.6737 188
47.69381 176
47.71393 179
47.73404 166
47.75415 179
47.77427 174
47.79438 197
47.81449 159
47.83461 184
47.85472 209
47.87483 169
47.89495 202
47.91506 209
47.93518 200
47.95529 182
47.9754 211
47.99552 188
48.01563 195
48.03574 179
48.05586 192
48.07597 182
48.09609 193
48.1162 183
48.13631 214
48.15643 212
48.17654 166
48.19665 184
48.21677 206
48.23688 204
48.257 201
48.27711 165
48.29722 162
48.31734 205
48.33745 197
48.35756 191
48.37768 192
48.39779 218
48.4179 176
48.43802 185
48.45813 186
48.47825 178
48.49836 197
48.51847 181
48.53859 203
48.5587 188
48.57881 210
48.59893 212
48.61904 183
48.63916 204
48.65927 189
48.67938 209
48.6995 191
48.71961 175
48.73972 188
48.75984 198
48.77995 220
48.80006 213
48.82018 222
48.84029 216
48.86041 193
48.88052 191
48.90063 212
48.92075 184
48.94086 193
48.96097 221
48.98109 203
49.0012 195
49.02132 206
49.04143 206
49.06154 190
49.08166 195
49.10177 208
49.12188 214
49.142 207
49.16211 211
49.18223 213
49.20234 206
49.22245 204
49.24257 211
49.26268 208
49.28279 219
49.30291 214
49.32302 206
49.34313 217
49.36325 206
49.38336 239
49.40348 231
49.42359 249
49.4437 242
49.46382 269
49.48393 239
49.50404 273
49.52416 279
49.54427 250
49.56439 236
49.5845 270
49.60461 241
49.62473 223
49.64484 290
49.66495 256
49.68507 250
49.70518 240
49.7253 286
49.74541 293
49.76552 295
49.78564 322
49.80575 283
49.82586 341
49.84598 359
49.86609 379
49.8862 446
49.90632 495
49.92643 513
49.94655 608
49.96666 769
49.98677 867
50.00689 1144
50.027 1410
50.04711 1972
50.06723 2442
50.08734 3098
50.10746 3729
50.12757 4109
50.14768 4179
50.1678 3499
50.18791 2554
50.20802 2096
50.22814 2117
50.24825 2161
50.26837 2217
50.28848 2032
50.30859 1502
50.32871 914
50.34882 617
50.36893 436
50.38905 428
50.40916 365
50.42927 329
50.44939 323
50.4695 305
50.48962 284
50.50973 263
50.52984 286
50.54996 282
50.57007 304
50.59018 318
50.6103 304
50.63041 311
50.65053 284
50.67064 302
50.69075 239
50.71087 256
50.73098 254
50.75109 251
50.77121 259
50.79132 238
50.81143 222
50.83155 194
50.85166 200
50.87178 238
50.89189 198
50.912 216
50.93212 213
50.95223 229
50.97234 181
50.99246 207
51.01257 224
51.03269 199
51.0528 213
51.07291 212
51.09303 214
51.11314 220
51.13325 217
51.15337 181
51.17348 224
51.1936 211
51.21371 182
51.23382 211
51.25394 173
51.27405 206
51.29416 201
51.31428 193
51.33439 196
51.3545 187
51.37462 190
51.39473 209
51.41485 192
51.43496 187
51.45507 164
51.47519 207
51.4953 182
51.51541 199
51.53553 187
51.55564 179
51.57576 176
51.59587 201
51.61598 180
51.6361 178
51.65621 189
51.67632 191
51.69644 173
51.71655 175
51.73667 196
51.75678 179
51.77689 201
51.79701 173
51.81712 186
51.83723 176
51.85735 192
51.87746 170
51.89757 169
51.91769 188
51.9378 177
51.95792 167
51.97803 176
51.99814 195
52.01826 174
52.03837 195
52.05848 192
52.0786 188
52.09871 164
52.11883 182
52.13894 166
52.15905 176
52.17917 188
52.19928 165
52.21939 173
52.23951 170
52.25962 171
52.27974 168
52.29985 184
52.31996 194
52.34008 177
52.36019 181
52.3803 179
52.40042 187
52.42053 174
52.44064 205
52.46076 194
52.48087 186
52.50099 184
52.5211 180
52.54121 180
52.56133 182
52.58144 189
52.60155 193
52.62167 164
52.64178 181
52.6619 164
52.68201 155
52.70212 180
52.72224 167
52.74235 180
52.76246 152
52.78258 191
52.80269 187
52.8228 213
52.84292 170
52.86303 215
52.88315 175
52.90326 202
52.92337 205
52.94349 194
52.9636 191
52.98371 182
53.00383 183
53.02394 193
53.04406 225
53.06417 162
53.08428 181
53.1044 185
53.12451 199
53.14462 193
53.16474 176
53.18485 177
53.20497 192
53.22508 220
53.24519 165
53.26531 186
53.28542 194
53.30553 184
53.32565 182
53.34576 193
53.36587 180
53.38599 168
53.4061 207
53.42622 176
53.44633 203
53.46644 207
53.48656 204
53.50667 190
53.52678 210
53.5469 195
53.56701 215
53.58713 194
53.60724 188
53.62735 217
53.64747 199
53.66758 191
53.68769 217
53.70781 179
53.72792 213
53.74804 244
53.76815 224
53.78826 239
53.80838 211
53.82849 213
53.8486 225
53.86872 239
53.88883 234
53.90894 260
53.92906 243
53.94917 220
53.96929 227
53.9894 244
54.00951 263
54.02963 233
54.04974 228
54.06985 249
54.08997 246
54.11008 246
54.1302 251
54.15031 255
54.17042 252
54.19054 245
54.21065 238
54.23076 234
54.25088 263
54.27099 248
54.29111 247
54.31122 262
54.33133 276
54.35145 251
54.37156 241
54.39167 211
54.41179 240
54.4319 246
54.45201 271
54.47213 240
54.49224 278
54.51236 262
54.53247 267
54.55258 258
54.5727 266
54.59281 306
54.61292 272
54.63304 293
54.65315 324
54.67327 377
54.69338 362
54.71349 390
54.73361 437
54.75372 557
54.77383 621
54.79395 837
54.81406 993
54.83417 1191
54.85429 1320
54.8744 1339
54.89452 1177
54.91463 913
54.93474 750
54.95486 722
54.97497 757
54.99508 859
55.0152 742
55.03531 721
55.05543 639
55.07554 492
55.09565 359
55.11577 374
55.13588 341
55.15599 348
55.17611 341
55.19622 352
55.21634 438
55.23645 468
55.25656 546
55.27668 591
55.29679 672
55.3169 690
55.33702 680
55.35713 550
55.37724 446
55.39736 440
55.41747 447
55.43759 430
55.4577 452
55.47781 437
55.49793 437
55.51804 321
55.53815 273
55.55827 269
55.57838 274
55.5985 239
55.61861 240
55.63872 203
55.65884 232
55.67895 200
55.69906 210
55.71918 234
55.73929 227
55.75941 203
55.77952 225
55.79963 201
55.81975 186
55.83986 211
55.85997 221
55.88009 193
55.9002 187
55.92031 205
55.94043 201
55.96054 195
55.98066 198
56.00077 189
56.02088 212
56.041 213
56.06111 209
56.08122 200
56.10134 184
56.12145 193
56.14157 199
56.16168 182
56.18179 205
56.20191 191
56.22202 165
56.24213 184
56.26225 203
56.28236 187
56.30248 176
56.32259 181
56.3427 190
56.36282 195
56.38293 203
56.40304 166
56.42316 181
56.44327 193
56.46338 188
56.4835 203
56.50361 201
56.52373 180
56.54384 197
56.56395 193
56.58407 194
56.60418 188
56.62429 206
56.64441 172
56.66452 210
56.68464 208
56.70475 200
56.72486 165
56.74498 184
56.76509 213
56.7852 176
56.80532 187
56.82543 171
56.84554 183
56.86566 186
56.88577 206
56.90589 175
56.926 183
56.94611 201
56.96623 208
56.98634 203
57.00645 182
57.02657 198
57.04668 211
57.0668 215
57.08691 213
57.10702 183
57.12714 233
57.14725 206
57.16736 214
57.18748 215
57.20759 230
57.22771 244
57.24782 224
57.26793 213
57.28805 191
57.30816 194
57.32827 220
57.34839 225
57.3685 225
57.38861 214
57.40873 224
57.42884 212
57.44896 192
57.46907 198
57.48918 188
57.5093 194
57.52941 208
57.54952 185
57.56964 194
57.58975 204
57.60987 177
57.62998 200
57.65009 171
57.67021 189
57.69032 195
57.71043 180
57.73055 194
57.75066 192
57.77078 184
57.79089 190
57.811 184
57.83112 177
57.85123 162
57.87134 189
57.89146 208
57.91157 187
57.93168 173
57.9518 190
57.97191 157
57.99203 177
58.01214 200
58.03225 180
58.05237 171
58.07248 168
58.09259 200
58.11271 193
58.13282 180
58.15294 192
58.17305 192
58.19316 203
58.21328 182
58.23339 194
58.2535 152
58.27362 189
58.29373 186
58.31385 187
58.33396 183
58.35407 188
58.37419 195
58.3943 179
58.41441 194
58.43453 172
58.45464 163
58.47475 162
58.49487 188
58.51498 170
58.5351 194
58.55521 186
58.57532 183
58.59544 186
58.61555 157
58.63566 170
58.65578 221
58.67589 173
58.69601 191
58.71612 176
58.73623 179
58.75635 205
58.77646 211
58.79657 178
58.81669 170
58.8368 157
58.85691 203
58.87703 162
58.89714 158
58.91726 186
58.93737 190
58.95748 192
58.9776 187
58.99771 186
59.01782 203
59.03794 177
59.05805 168
59.07817 190
59.09828 213
59.11839 193
59.13851 181
59.15862 171
59.17873 191
59.19885 176
59.21896 168
59.23908 183
59.25919 199
59.2793 189
59.29942 220
59.31953 191
59.33964 199
59.35976 195
59.37987 216
59.39998 223
59.4201 221
59.44021 213
59.46033 207
59.48044 238
59.50055 219
59.52067 213
59.54078 237
59.56089 246
59.58101 222
59.60112 286
59.62124 288
59.64135 300
59.66146 306
59.68158 359
59.70169 382
59.7218 431
59.74192 477
59.76203 525
59.78215 604
59.80226 715
59.82237 866
59.84249 1055
59.8626 1460
59.88271 1853
59.90283 2141
59.92294 2389
59.94305 2589
59.96317 2522
59.98328 2114
60.0034 1641
60.02351 1289
60.04362 1278
60.06374 1271
60.08385 1376
60.10396 1456
60.12408 1340
60.14419 1114
60.16431 822
60.18442 585
60.20453 415
60.22465 335
60.24476 337
60.26487 263
60.28499 288
60.3051 253
60.32522 250
60.34533 252
60.36544 217
60.38556 236
60.40567 231
60.42578 220
60.4459 198
60.46601 224
60.48612 196
60.50624 198
60.52635 207
60.54647 202
60.56658 199
60.58669 188
60.60681 184
60.62692 205
60.64703 165
60.66715 207
60.68726 199
60.70738 186
60.72749 164
60.7476 190
60.76772 203
60.78783 168
60.80794 193
60.82806 180
60.84817 191
60.86828 195
60.8884 191
60.90851 202
60.92863 173
60.94874 200
60.96885 174
60.98897 167
61.00908 182
61.02919 194
61.04931 174
61.06942 188
61.08954 165
61.10965 164
61.12976 186
61.14988 183
61.16999 176
61.1901 196
61.21022 182
61.23033 191
61.25045 189
61.27056 165
61.29067 165
61.31079 190
61.3309 189
61.35101 175
61.37113 172
61.39124 186
61.41135 187
61.43147 212
61.45158 173
61.4717 201
61.49181 186
61.51192 180
61.53204 162
61.55215 192
61.57226 212
61.59238 206
61.61249 170
61.63261 200
61.65272 161
61.67283 201
61.69295 203
61.71306 179
61.73317 185
61.75329 193
61.7734 209
61.79352 204
61.81363 188
61.83374 205
61.85386 203
61.87397 190
61.89408 187
61.9142 212
61.93431 198
61.95442 227
61.97454 188
61.99465 219
62.01477 199
62.03488 202
62.05499 229
62.07511 224
62.09522 210
62.11533 231
62.13545 226
62.15556 247
62.17568 233
62.19579 231
62.2159 234
62.23602 223
62.25613 247
62.27624 248
62.29636 277
62.31647 218
62.33659 228
62.3567 253
62.37681 244
62.39693 259
62.41704 270
62.43715 241
62.45727 224
62.47738 253
62.49749 234
62.51761 191
62.53772 249
62.55784 225
62.57795 213
62.59806 209
62.61818 213
62.63829 199
62.6584 197
62.67852 207
62.69863 221
62.71875 216
62.73886 209
62.75897 217
62.77909 194
62.7992 213
62.81931 182
62.83943 207
62.85954 198
62.87965 194
62.89977 180
62.91988 185
62.94 177
62.96011 196
62.98022 189
63.00034 193
63.02045 180
63.04056 197
63.06068 193
63.08079 178
63.10091 177
63.12102 195
63.14113 178
63.16125 174
63.18136 206
63.20147 207
63.22159 190
63.2417 194
63.26182 168
63.28193 231
63.30204 187
63.32216 193
63.34227 160
63.36238 199
63.3825 208
63.40261 207
63.42272 202
63.44284 191
63.46295 177
63.48307 194
63.50318 177
63.52329 179
63.54341 191
63.56352 187
63.58363 196
63.60375 202
63.62386 198
63.64398 202
63.66409 183
63.6842 230
63.70432 188
63.72443 215
63.74454 209
63.76466 232
63.78477 243
63.80489 218
63.825 255
63.84511 261
63.86523 279
63.88534 325
63.90545 324
63.92557 410
63.94568 440
63.96579 484
63.98591 548
64.00602 602
64.02614 645
64.04625 582
64.06636 534
64.08648 437
64.10659 374
64.1267 369
64.14682 347
64.16693 341
64.18705 428
64.20716 410
64.22727 404
64.24739 311
64.2675 255
64.28761 242
64.30773 244
64.32784 211
64.34796 210
64.36807 207
64.38818 203
64.4083 197
64.42841 183
64.44852 187
64.46864 188
64.48875 190
64.50886 184
64.52898 177
64.54909 193
64.56921 178
64.58932 151
64.60943 168
64.62955 162
64.64966 202
64.66977 195
64.68989 188
64.71 175
64.73012 200
64.75023 190
64.77034 177
64.79046 189
64.81057 170
64.83068 178
64.8508 180
64.87091 183
64.89102 168
64.91114 171
64.93125 182
64.95137 195
64.97148 198
64.99159 168
65.01171 173
65.03182 168
65.05193 181
65.07205 165
65.09216 166
65.11228 197
65.13239 172
65.1525 163
65.17262 177
65.19273 162
65.21284 176
65.23296 179
65.25307 199
65.27319 180
65.2933 187
65.31341 200
65.33353 174
65.35364 152
65.37375 177
65.39387 177
65.41398 185
65.43409 194
65.45421 178
65.47432 174
65.49444 185
65.51455 183
65.53466 183
65.55478 172
65.57489 199
65.595 178
65.61512 219
65.63523 213
65.65535 218
65.67546 249
65.69557 251
65.71569 248
65.7358 266
65.75591 273
65.77603 271
65.79614 285
65.81626 223
65.83637 231
65.85648 213
65.8766 198
65.89671 231
65.91682 219
65.93694 223
65.95705 204
65.97716 229
65.99728 225
66.01739 224
66.03751 188
66.05762 193
66.07773 168
66.09785 201
66.11796 188
66.13807 196
66.15819 187
66.1783 188
66.19842 156
66.21853 173
66.23864 190
66.25876 192
66.27887 171
66.29898 181
66.3191 174
66.33921 162
66.35933 199
66.37944 179
66.39955 186
66.41967 176
66.43978 178
66.45989 186
66.48001 172
66.50012 183
66.52023 197
66.54035 182
66.56046 166
66.58058 197
66.60069 181
66.6208 164
66.64092 185
66.66103 156
66.68114 184
66.70126 167
66.72137 186
66.74149 176
66.7616 181
66.78171 178
66.80183 178
66.82194 175
66.84205 204
66.86217 181
66.88228 185
66.90239 185
66.92251 185
66.94262 175
66.96274 194
66.98285 177
67.00296 197
67.02308 191
67.04319 200
67.0633 194
67.08342 195
67.10353 188
67.12365 215
67.14376 187
67.16387 189
67.18399 217
67.2041 210
67.22421 202
67.24433 203
67.26444 247
67.28456 219
67.30467 215
67.32478 237
67.3449 243
67.36501 244
67.38512 234
67.40524 269
67.42535 261
67.44546 278
67.46558 289
67.48569 309
67.50581 350
67.52592 376
67.54603 454
67.56615 474
67.58626 574
67.60637 608
67.62649 799
67.6466 995
67.66672 1099
67.68683 1310
67.70694 1477
67.72706 1576
67.74717 1493
67.76728 1272
67.7874 999
67.80751 858
67.82763 797
67.84774 832
67.86785 872
67.88797 1024
67.90808 1012
67.92819 1011
67.94831 1053
67.96842 957
67.98853 964
68.00865 986
68.02876 1058
68.04888 1236
68.06899 1424
68.0891 1695
68.10922 1874
68.12933 2025
68.14944 2029
68.16956 1730
68.18967 1451
68.20979 1325
68.2299 1538
68.25001 1592
68.27013 1811
68.29024 1947
68.31035 1984
68.33047 1810
68.35058 1463
68.3707 1129
68.39081 854
68.41092 798
68.43104 738
68.45115 758
68.47126 771
68.49138 703
68.51149 684
68.5316 528
68.55172 436
68.57183 380
68.59195 329
68.61206 352
68.63217 276
68.65229 275
68.6724 243
68.69251 232
68.71263 229
68.73274 222
68.75286 221
68.77297 212
68.79308 220
68.8132 211
68.83331 196
68.85342 194
68.87354 198
68.89365 226
68.91376 206
68.93388 187
68.95399 197
68.97411 197
68.99422 173
69.01433 186
69.03445 194
69.05456 195
69.07467 201
69.09479 189
69.1149 171
69.13502 166
69.15513 190
69.17524 170
69.19536 191
69.21547 175
69.23558 204
69.2557 166
69.27581 157
69.29593 169
69.31604 184
69.33615 164
69.35627 193
69.37638 177
69.39649 169
69.41661 161
69.43672 146
69.45683 173
69.47695 198
69.49706 176
69.51718 173
69.53729 198
69.5574 192
69.57752 168
69.59763 184
69.61774 180
69.63786 177
69.65797 204
69.67809 168
69.6982 189
69.71831 180
69.73843 181
69.75854 188
69.77865 194
69.79877 182
69.81888 174
69.839 179
69.85911 173
69.87922 189
69.89934 165
69.91945 179
69.93956 169
69.95968 166
69.97979 188
69.9999 156
70.02002 160
70.04013 146
70.06025 163
70.08036 174
70.10047 170
70.12059 187
70.1407 163
70.16081 178
70.18093 172
70.20104 175
70.22116 167
70.24127 157
70.26138 167
70.2815 174
70.30161 167
70.32172 154
70.34184 163
70.36195 171
70.38207 151
70.40218 145
70.42229 170
70.44241 177
70.46252 176
70.48263 182
70.50275 173
70.52286 167
70.54297 173
70.56309 170
70.5832 177
70.60332 155
70.62343 163
70.64354 158
70.66366 152
70.68377 141
70.70388 167
70.724 171
70.74411 160
70.76423 155
70.78434 171
70.80445 168
70.82457 177
70.84468 181
70.86479 174
70.88491 163
70.90502 154
70.92513 159
70.94525 154
70.96536 141
70.98548 165
71.00559 163
71.0257 173
71.04582 169
71.06593 166
71.08604 187
71.10616 147
71.12627 160
71.14639 167
71.1665 146
71.18661 148
71.20673 180
71.22684 169
71.24695 162
71.26707 155
71.28718 165
71.3073 169
71.32741 149
71.34752 170
71.36764 170
71.38775 149
71.40786 152
71.42798 165
71.44809 173
71.4682 152
71.48832 165
71.50843 156
71.52855 156
71.54866 161
71.56877 178
71.58889 175
71.609 180
71.62911 163
71.64923 170
71.66934 159
71.68946 166
71.70957 190
71.72968 186
71.7498 177
71.76991 150
71.79002 174
71.81014 181
71.83025 172
71.85037 175
71.87048 166
71.89059 158
71.91071 159
71.93082 180
71.95093 154
71.97105 180
71.99116 167
72.01127 186
72.03139 183
72.0515 193
72.07162 182
72.09173 179
72.11184 177
72.13196 176
72.15207 171
72.17218 162
72.1923 169
72.21241 183
72.23253 147
72.25264 165
72.27275 190
72.29287 183
72.31298 171
72.33309 183
72.35321 185
72.37332 186
72.39344 151
72.41355 167
72.43366 164
72.45378 184
72.47389 137
72.494 168
72.51412 186
72.53423 177
72.55434 193
72.57446 177
72.59457 181
72.61469 166
72.6348 164
72.65491 188
72.67503 176
72.69514 165
72.71525 174
72.73537 187
72.75548 152
72.7756 137
72.79571 173
72.81582 183
72.83594 184
72.85605 151
72.87616 167
72.89628 159
72.91639 189
72.9365 180
72.95662 173
72.97673 156
72.99685 152
73.01696 172
73.03707 172
73.05719 185
73.0773 167
73.09741 188
73.11753 173
73.13764 198
73.15776 214
73.17787 211
73.19798 225
73.2181 217
73.23821 239
73.25832 233
73.27844 261
73.29855 265
73.31867 347
73.33878 384
73.35889 409
73.37901 459
73.39912 543
73.41923 616
73.43935 634
73.45946 637
73.47957 569
73.49969 489
73.5198 385
73.53992 368
73.56003 337
73.58014 326
73.60026 342
73.62037 366
73.64048 425
73.6606 428
73.68071 378
73.70083 382
73.72094 309
73.74105 260
73.76117 214
73.78128 213
73.80139 200
73.82151 205
73.84162 203
73.86174 178
73.88185 161
73.90196 184
73.92208 156
73.94219 174
73.9623 172
73.98242 181
74.00253 175
74.02264 175
74.04276 175
74.06287 162
74.08299 176
74.1031 161
74.12321 169
74.14333 178
74.16344 144
74.18355 146
74.20367 161
74.22378 177
74.2439 172
74.26401 190
74.28412 158
74.30424 192
74.32435 156
74.34446 162
74.36458 150
74.38469 157
74.40481 158
74.42492 168
74.44503 163
74.46515 169
74.48526 170
74.50537 184
74.52549 164
74.5456 168
74.56571 162
74.58583 156
74.60594 179
74.62606 153
74.64617 169
74.66628 175
74.6864 166
74.70651 171
74.72662 170
74.74674 165
74.76685 169
74.78697 158
74.80708 174
74.82719 169
74.84731 180
74.86742 177
74.88753 168
74.90765 159
74.92776 187
74.94787 165
74.96799 160
74.9881 167
75.00822 176
