3.00117 20060
3.02128 19853
3.0414 19143
3.06151 18483
3.08162 18070
3.10174 17299
3.12185 17077
3.14197 16371
3.16208 16116
3.18219 15427
3.20231 14898
3.22242 14668
3.24253 13978
3.26265 13658
3.28276 13333
3.30288 12929
3.32299 12426
3.3431 11578
3.36322 11712
3.38333 11202
3.40344 10690
3.42356 10568
3.44367 9873
3.46379 9772
3.4839 9347
3.50401 9374
3.52413 8881
3.54424 8179
3.56435 8188
3.58447 7885
3.60458 7740
3.62469 7469
3.64481 6852
3.66492 6653
3.68504 6381
3.70515 6135
3.72526 6174
3.74538 5499
3.76549 5446
3.7856 5273
3.80572 5077
3.82583 4916
3.84595 4614
3.86606 4380
3.88617 4202
3.90629 4042
3.9264 3902
3.94651 3513
3.96663 3520
3.98674 3515
4.00686 3160
4.02697 3212
4.04708 2835
4.0672 2716
4.08731 2741
4.10742 2580
4.12754 2479
4.14765 2202
4.16776 2194
4.18788 2248
4.20799 2035
4.22811 2058
4.24822 1793
4.26833 1824
4.28845 1872
4.30856 1789
4.32867 1740
4.34879 1616
4.3689 1513
4.38902 1604
4.40913 1507
4.42924 1542
4.44936 1244
4.46947 1375
4.48958 1344
4.5097 1315
4.52981 1256
4.54992 1146
4.57004 1196
4.59015 1162
4.61027 1146
4.63038 1158
4.65049 1015
4.67061 1042
4.69072 1059
4.71083 1032
4.73095 989
4.75106 902
4.77118 965
4.79129 896
4.8114 869
4.83152 889
4.85163 844
4.87174 808
4.89186 788
4.91197 807
4.93209 755
4.9522 743
4.97231 697
4.99243 734
5.01254 742
5.03265 687
5.05277 676
5.07288 646
5.09299 646
5.11311 657
5.13322 634
5.15334 589
5.17345 585
5.19356 564
5.21368 604
5.23379 499
5.2539 541
5.27402 520
5.29413 490
5.31425 538
5.33436 459
5.35447 473
5.37459 449
5.3947 454
5.41481 478
5.43493 441
5.45504 423
5.47516 406
5.49527 406
5.51538 412
5.5355 410
5.55561 403
5.57572 396
5.59584 321
5.61595 339
5.63606 389
5.65618 343
5.67629 340
5.69641 343
5.71652 340
5.73663 329
5.75675 279
5.77686 303
5.79697 333
5.81709 310
5.8372 300
5.85732 293
5.87743 274
5.89754 268
5.91766 289
5.93777 308
5.95788 318
5.978 262
5.99811 295
6.01823 265
6.03834 243
6.05845 264
6.07857 254
6.09868 237
6.11879 268
6.13891 266
6.15902 262
6.17913 254
6.19925 274
6.21936 255
6.23948 216
6.25959 269
6.2797 236
6.29982 262
6.31993 226
6.34004 265
6.36016 239
6.38027 228
6.40039 244
6.4205 193
6.44061 217
6.46073 246
6.48084 226
6.50095 245
6.52107 219
6.54118 225
6.56129 249
6.58141 218
6.60152 246
6.62164 249
6.64175 215
6.66186 211
6.68198 212
6.70209 206
6.7222 196
6.74232 219
6.76243 225
6.78255 247
6.80266 238
6.82277 211
6.84289 223
6.863 233
6.88311 205
6.90323 214
6.92334 226
6.94346 196
6.96357 235
6.98368 218
7.0038 218
7.02391 243
7.04402 208
7.06414 244
7.08425 231
7.10436 204
7.12448 255
7.14459 207
7.16471 222
7.18482 193
7.20493 210
7.22505 251
7.24516 213
7.26527 221
7.28539 234
7.3055 235
7.32562 232
7.34573 235
7.36584 232
7.38596 240
7.40607 216
7.42618 212
7.4463 216
7.46641 263
7.48653 205
7.50664 207
7.52675 252
7.54687 226
7.56698 208
7.58709 225
7.60721 221
7.62732 250
7.64743 242
7.66755 254
7.68766 252
7.70778 252
7.72789 218
7.748 251
7.76812 219
7.78823 249
7.80834 256
7.82846 228
7.84857 227
7.86869 239
7.8888 233
7.90891 243
7.92903 237
7.94914 223
7.96925 208
7.98937 258
8.00948 256
8.0296 263
8.04971 238
8.06982 225
8.08994 237
8.11005 231
8.13016 262
8.15028 220
8.17039 225
8.1905 233
8.21062 266
8.23073 267
8.25085 254
8.27096 255
8.29107 260
8.31119 254
8.3313 210
8.35141 241
8.37153 257
8.39164 237
8.41176 223
8.43187 236
8.45198 270
8.4721 263
8.49221 220
8.51232 276
8.53244 226
8.55255 233
8.57266 248
8.59278 248
8.61289 264
8.63301 240
8.65312 263
8.67323 244
8.69335 263
8.71346 244
8.73357 278
8.75369 276
8.7738 257
8.79392 259
8.81403 267
8.83414 240
8.85426 248
8.87437 258
8.89448 249
8.9146 237
8.93471 263
8.95483 258
8.97494 251
8.99505 258
9.01517 276
9.03528 250
9.05539 273
9.07551 285
9.09562 245
9.11573 258
9.13585 239
9.15596 238
9.17608 277
9.19619 265
9.2163 272
9.23642 215
9.25653 252
9.27664 251
9.29676 236
9.31687 258
9.33699 269
9.3571 264
9.37721 257
9.39733 216
9.41744 260
9.43755 263
9.45767 244
9.47778 231
9.4979 258
9.51801 268
9.53812 244
9.55824 249
9.57835 239
9.59846 241
9.61858 244
9.63869 249
9.6588 240
9.67892 273
9.69903 242
9.71915 271
9.73926 232
9.75937 258
9.77949 260
9.7996 260
9.81971 263
9.83983 251
9.85994 229
9.88006 236
9.90017 251
9.92028 262
9.9404 278
9.96051 259
9.98062 238
10.00074 273
10.02085 271
10.04097 275
10.06108 249
10.08119 232
10.10131 248
10.12142 271
10.14153 248
10.16165 248
10.18176 268
10.20187 271
10.22199 254
10.2421 252
10.26222 284
10.28233 257
10.30244 268
10.32256 263
10.34267 267
10.36278 247
10.3829 266
10.40301 249
10.42313 268
10.44324 249
10.46335 223
10.48347 273
10.50358 249
10.52369 236
10.54381 250
10.56392 266
10.58403 232
10.60415 245
10.62426 272
10.64438 259
10.66449 248
10.6846 251
10.70472 262
10.72483 258
10.74494 273
10.76506 247
10.78517 235
10.80529 213
10.8254 251
10.84551 264
10.86563 228
10.88574 237
10.90585 253
10.92597 252
10.94608 248
10.9662 275
10.98631 261
11.00642 299
11.02654 291
11.04665 256
11.06676 266
11.08688 281
11.10699 258
11.1271 269
11.14722 253
11.16733 250
11.18745 250
11.20756 261
11.22767 279
11.24779 279
11.2679 257
11.28801 291
11.30813 255
11.32824 291
11.34836 256
11.36847 246
11.38858 266
11.4087 267
11.42881 279
11.44892 283
11.46904 241
11.48915 285
11.50927 260
11.52938 248
11.54949 245
11.56961 267
11.58972 284
11.60983 298
11.62995 287
11.65006 282
11.67017 290
11.69029 292
11.7104 285
11.73052 276
11.75063 265
11.77074 277
11.79086 297
11.81097 293
11.83108 286
11.8512 260
11.87131 269
11.89143 249
11.91154 278
11.93165 318
11.95177 323
11.97188 282
11.99199 335
12.01211 327
12.03222 323
12.05234 330
12.07245 360
12.09256 360
12.11268 347
12.13279 367
12.1529 385
12.17302 391
12.19313 408
12.21324 397
12.23336 387
12.25347 415
12.27359 413
12.2937 431
12.31381 388
12.33393 418
12.35404 416
12.37415 360
12.39427 400
12.41438 391
12.4345 344
12.45461 357
12.47472 352
12.49484 361
12.51495 369
12.53506 354
12.55518 358
12.57529 328
12.5954 277
12.61552 302
12.63563 299
12.65575 302
12.67586 314
12.69597 285
12.71609 271
12.7362 320
12.75631 248
12.77643 274
12.79654 271
12.81666 273
12.83677 246
12.85688 268
12.877 264
12.89711 222
12.91722 256
12.93734 267
12.95745 223
12.97757 206
12.99768 250
13.01779 238
13.03791 268
13.05802 269
13.07813 239
13.09825 253
13.11836 230
13.13847 262
13.15859 269
13.1787 261
13.19882 237
13.21893 244
13.23904 248
13.25916 259
13.27927 244
13.29938 253
13.3195 232
13.33961 248
13.35973 236
13.37984 246
13.39995 245
13.42007 232
13.44018 249
13.46029 197
13.48041 245
13.50052 257
13.52064 231
13.54075 223
13.56086 231
13.58098 207
13.60109 240
13.6212 186
13.64132 231
13.66143 248
13.68154 223
13.70166 237
13.72177 236
13.74189 198
13.762 231
13.78211 230
13.80223 223
13.82234 210
13.84245 221
13.86257 223
13.88268 231
13.9028 245
13.92291 207
13.94302 204
13.96314 196
13.98325 201
14.00336 221
14.02348 224
14.04359 212
14.06371 210
14.08382 235
14.10393 211
14.12405 196
14.14416 242
14.16427 199
14.18439 172
14.2045 225
14.22461 230
14.24473 235
14.26484 215
14.28496 224
14.30507 229
14.32518 221
14.3453 234
14.36541 206
14.38552 211
14.40564 208
14.42575 213
14.44587 201
14.46598 212
14.48609 214
14.50621 223
14.52632 228
14.54643 222
14.56655 223
14.58666 210
14.60677 218
14.62689 221
14.647 198
14.66712 253
14.68723 213
14.70734 224
14.72746 210
14.74757 208
14.76768 204
14.7878 203
14.80791 197
14.82803 195
14.84814 208
14.86825 207
14.88837 207
14.90848 222
14.92859 146
14.94871 194
14.96882 216
14.98894 226
15.00905 246
15.02916 195
15.04928 206
15.06939 199
15.0895 210
15.10962 213
15.12973 210
15.14984 169
15.16996 204
15.19007 204
15.21019 182
15.2303 196
15.25041 220
15.27053 192
15.29064 192
15.31075 200
15.33087 197
15.35098 212
15.3711 191
15.39121 200
15.41132 220
15.43144 197
15.45155 162
15.47166 204
15.49178 217
15.51189 212
15.53201 208
15.55212 207
15.57223 197
15.59235 186
15.61246 219
15.63257 181
15.65269 232
15.6728 197
15.69291 223
15.71303 214
15.73314 214
15.75326 191
15.77337 198
15.79348 178
15.8136 202
15.83371 202
15.85382 179
15.87394 198
15.89405 202
15.91417 182
15.93428 196
15.95439 169
15.97451 188
15.99462 208
16.01473 189
16.03485 228
16.05496 193
16.07508 240
16.09519 200
16.1153 215
16.13542 198
16.15553 218
16.17564 211
16.19576 207
16.21587 212
16.23598 188
16.2561 213
16.27621 191
16.29633 184
16.31644 213
16.33655 204
16.35667 182
16.37678 189
16.39689 194
16.41701 196
16.43712 189
16.45724 203
16.47735 206
16.49746 210
16.51758 185
16.53769 221
16.5578 166
16.57792 204
16.59803 190
16.61814 215
16.63826 199
16.65837 191
16.67849 224
16.6986 224
16.71871 189
16.73883 230
16.75894 192
16.77905 188
16.79917 214
16.81928 227
16.8394 207
16.85951 223
16.87962 191
16.89974 173
16.91985 223
16.93996 204
16.96008 214
16.98019 197
17.00031 192
17.02042 235
17.04053 200
17.06065 205
17.08076 172
17.10087 177
17.12099 183
17.1411 184
17.16121 204
17.18133 185
17.20144 186
17.22156 212
17.24167 222
17.26178 189
17.2819 196
17.30201 187
17.32212 191
17.34224 198
17.36235 184
17.38247 237
17.40258 197
17.42269 191
17.44281 185
17.46292 216
17.48303 211
17.50315 188
17.52326 196
17.54338 177
17.56349 209
17.5836 205
17.60372 186
17.62383 197
17.64394 218
17.66406 204
17.68417 211
17.70428 213
17.7244 221
17.74451 197
17.76463 197
17.78474 219
17.80485 219
17.82497 198
17.84508 214
17.86519 208
17.88531 177
17.90542 208
17.92554 187
17.94565 216
17.96576 192
17.98588 193
18.00599 211
18.0261 184
18.04622 215
18.06633 205
18.08645 207
18.10656 208
18.12667 202
18.14679 207
18.1669 234
18.18701 231
18.20713 217
18.22724 238
18.24735 240
18.26747 274
18.28758 295
18.3077 266
18.32781 243
18.34792 239
18.36804 226
18.38815 261
18.40826 241
18.42838 239
18.44849 255
18.46861 213
18.48872 256
18.50883 218
18.52895 207
18.54906 200
18.56917 224
18.58929 214
18.6094 202
18.62951 205
18.64963 212
18.66974 197
18.68986 216
18.70997 197
18.73008 215
18.7502 214
18.77031 207
18.79042 213
18.81054 239
18.83065 209
18.85077 210
18.87088 218
18.89099 194
18.91111 215
18.93122 179
18.95133 197
18.97145 215
18.99156 215
19.01168 225
19.03179 217
19.0519 201
19.07202 208
19.09213 224
19.11224 214
19.13236 208
19.15247 214
19.17258 184
19.1927 188
19.21281 223
19.23293 202
19.25304 218
19.27315 190
19.29327 214
19.31338 169
19.33349 221
19.35361 216
19.37372 191
19.39384 205
19.41395 182
19.43406 190
19.45418 221
19.47429 230
19.4944 219
19.51452 194
19.53463 202
19.55475 216
19.57486 194
19.59497 200
19.61509 222
19.6352 232
19.65531 233
19.67543 238
19.69554 244
19.71565 246
19.73577 254
19.75588 259
19.776 294
19.79611 315
19.81622 296
19.83634 330
19.85645 345
19.87656 379
19.89668 342
19.91679 372
19.93691 381
19.95702 345
19.97713 358
19.99725 354
20.01736 359
20.03747 349
20.05759 353
20.0777 354
20.09782 339
20.11793 361
20.13804 333
20.15816 364
20.17827 409
20.19838 350
20.2185 379
20.23861 398
20.25872 363
20.27884 390
20.29895 430
20.31907 408
20.33918 404
20.35929 393
20.37941 423
20.39952 390
20.41963 456
20.43975 453
20.45986 355
20.47998 443
20.50009 457
20.5202 472
20.54032 461
20.56043 507
20.58054 459
20.60066 502
20.62077 547
20.64088 571
20.661 678
20.68111 783
20.70123 977
20.72134 1248
20.74145 1661
20.76157 2503
20.78168 3698
20.80179 5227
20.82191 6910
20.84202 8333
20.86214 8788
20.88225 8268
20.90236 6455
20.92248 4699
20.94259 2860
20.9627 1706
20.98282 991
21.00293 696
21.02305 629
21.04316 572
21.06327 529
21.08339 489
21.1035 471
21.12361 487
21.14373 435
21.16384 441
21.18395 354
21.20407 394
21.22418 410
21.2443 374
21.26441 362
21.28452 359
21.30464 348
21.32475 343
21.34486 371
21.36498 340
21.38509 353
21.40521 343
21.42532 330
21.44543 320
21.46555 335
21.48566 336
21.50577 321
21.52589 281
21.546 325
21.56612 298
21.58623 303
21.60634 312
21.62646 328
21.64657 310
21.66668 294
21.6868 323
21.70691 288
21.72702 294
21.74714 304
21.76725 285
21.78737 298
21.80748 301
21.82759 282
21.84771 267
21.86782 284
21.88793 289
21.90805 309
21.92816 313
21.94828 324
21.96839 269
21.9885 261
22.00862 294
22.02873 308
22.04884 291
22.06896 287
22.08907 292
22.10919 294
22.1293 278
22.14941 260
22.16953 261
22.18964 274
22.20975 303
22.22987 253
22.24998 298
22.27009 278
22.29021 298
22.31032 254
22.33044 275
22.35055 251
22.37066 241
22.39078 237
22.41089 274
22.431 279
22.45112 300
22.47123 237
22.49135 252
22.51146 236
22.53157 277
22.55169 258
22.5718 272
22.59191 238
22.61203 248
22.63214 268
22.65225 268
22.67237 270
22.69248 256
22.7126 262
22.73271 300
22.75282 239
22.77294 257
22.79305 263
22.81316 238
22.83328 250
22.85339 243
22.87351 252
22.89362 303
22.91373 247
22.93385 235
22.95396 257
22.97407 265
22.99419 237
23.0143 260
23.03442 256
23.05453 238
23.07464 263
23.09476 221
23.11487 247
23.13498 249
23.1551 272
23.17521 254
23.19532 281
23.21544 252
23.23555 239
23.25567 226
23.27578 187
23.29589 269
23.31601 257
23.33612 250
23.35623 246
23.37635 237
23.39646 259
23.41658 263
23.43669 272
23.4568 229
23.47692 222
23.49703 254
23.51714 251
23.53726 251
23.55737 251
23.57749 253
23.5976 261
23.61771 246
23.63783 243
23.65794 236
23.67805 232
23.69817 279
23.71828 249
23.73839 257
23.75851 243
23.77862 230
23.79874 260
23.81885 246
23.83896 271
23.85908 274
23.87919 248
23.8993 267
23.91942 289
23.93953 316
23.95965 305
23.97976 322
23.99987 349
24.01999 356
24.0401 352
24.06021 329
24.08033 304
24.10044 302
24.12056 286
24.14067 298
24.16078 261
24.1809 290
24.20101 271
24.22112 256
24.24124 261
24.26135 261
24.28146 322
24.30158 265
24.32169 260
24.34181 272
24.36192 286
24.38203 292
24.40215 261
24.42226 255
24.44237 259
24.46249 239
24.4826 274
24.50272 275
24.52283 271
24.54294 327
24.56306 265
24.58317 306
24.60328 303
24.6234 296
24.64351 307
24.66362 327
24.68374 296
24.70385 298
24.72397 320
24.74408 328
24.76419 337
24.78431 368
24.80442 365
24.82453 374
24.84465 370
24.86476 362
24.88488 348
24.90499 324
24.9251 370
24.94522 373
24.96533 338
24.98544 340
25.00556 319
25.02567 328
25.04579 350
25.0659 339
25.08601 328
25.10613 367
25.12624 318
25.14635 343
25.16647 341
25.18658 315
25.20669 280
25.22681 325
25.24692 308
25.26704 269
25.28715 276
25.30726 307
25.32738 275
25.34749 301
25.3676 309
25.38772 294
25.40783 279
25.42795 257
25.44806 250
25.46817 235
25.48829 290
25.5084 240
25.52851 289
25.54863 278
25.56874 283
25.58886 282
25.60897 286
25.62908 283
25.6492 323
25.66931 333
25.68942 340
25.70954 380
25.72965 428
25.74976 440
25.76988 424
25.78999 405
25.81011 441
25.83022 461
25.85033 473
25.87045 438
25.89056 469
25.91067 500
25.93079 490
25.9509 505
25.97102 491
25.99113 467
26.01124 493
26.03136 493
26.05147 537
26.07158 511
26.0917 543
26.11181 540
26.13193 561
26.15204 636
26.17215 622
26.19227 730
26.21238 730
26.23249 805
26.25261 850
26.27272 955
26.29283 963
26.31295 1047
26.33306 1088
26.35318 1228
26.37329 1374
26.3934 1594
26.41352 1862
26.43363 2264
26.45374 2984
26.47386 3901
26.49397 5344
26.51409 7835
26.5342 11130
26.55431 15856
26.57443 22440
26.59454 29956
26.61465 36910
26.63477 39593
26.65488 36907
26.67499 29648
26.69511 22642
26.71522 17297
26.73534 11250
26.75545 6106
26.77556 3176
26.79568 2154
26.81579 1794
26.8359 1467
26.85602 1452
26.87613 1347
26.89625 1158
26.91636 1108
26.93647 973
26.95659 925
26.9767 800
26.99681 703
27.01693 602
27.03704 633
27.05716 555
27.07727 486
27.09738 475
27.1175 524
27.13761 479
27.15772 433
27.17784 488
27.19795 488
27.21806 449
27.23818 421
27.25829 427
27.27841 417
27.29852 393
27.31863 410
27.33875 399
27.35886 385
27.37897 441
27.39909 408
27.4192 383
27.43932 428
27.45943 401
27.47954 404
27.49966 366
27.51977 376
27.53988 342
27.56 346
27.58011 329
27.60023 340
27.62034 346
27.64045 316
27.66057 342
27.68068 330
27.70079 307
27.72091 345
27.74102 343
27.76113 335
27.78125 319
27.80136 333
27.82148 324
27.84159 324
27.8617 322
27.88182 284
27.90193 291
27.92204 308
27.94216 332
27.96227 324
27.98239 313
28.0025 282
28.02261 303
28.04273 268
28.06284 274
28.08295 308
28.10307 313
28.12318 275
28.1433 264
28.16341 268
28.18352 298
28.20364 251
28.22375 330
28.24386 281
28.26398 263
28.28409 292
28.3042 283
28.32432 284
28.34443 279
28.36455 299
28.38466 282
28.40477 230
28.42489 258
28.445 279
28.46511 293
28.48523 285
28.50534 250
28.52546 250
28.54557 271
28.56568 273
28.5858 307
28.60591 264
28.62602 253
28.64614 264
28.66625 285
28.68636 285
28.70648 284
28.72659 276
28.74671 262
28.76682 281
28.78693 252
28.80705 242
28.82716 273
28.84727 254
28.86739 243
28.8875 240
28.90762 245
28.92773 238
28.94784 229
28.96796 263
28.98807 292
29.00818 275
29.0283 252
29.04841 239
29.06853 238
29.08864 244
29.10875 241
29.12887 248
29.14898 260
29.16909 261
29.18921 250
29.20932 265
29.22943 223
29.24955 271
29.26966 221
29.28978 235
29.30989 239
29.33 228
29.35012 273
29.37023 241
29.39034 253
29.41046 217
29.43057 228
29.45069 239
29.4708 259
29.49091 228
29.51103 260
29.53114 236
29.55125 252
29.57137 268
29.59148 254
29.6116 224
29.63171 247
29.65182 234
29.67194 250
29.69205 233
29.71216 259
29.73228 245
29.75239 237
29.7725 253
29.79262 261
29.81273 258
29.83285 273
29.85296 257
29.87307 230
29.89319 246
29.9133 217
29.93341 220
29.95353 234
29.97364 240
29.99376 210
30.01387 232
30.03398 212
30.0541 230
30.07421 207
30.09432 232
30.11444 234
30.13455 233
30.15467 255
30.17478 232
30.19489 236
30.21501 256
30.23512 207
30.25523 251
30.27535 262
30.29546 221
30.31557 245
30.33569 262
30.3558 220
30.37592 256
30.39603 254
30.41614 217
30.43626 201
30.45637 246
30.47648 227
30.4966 229
30.51671 195
30.53683 230
30.55694 228
30.57705 229
30.59717 199
30.61728 232
30.63739 210
30.65751 231
30.67762 237
30.69773 247
30.71785 214
30.73796 226
30.75808 214
30.77819 218
30.7983 214
30.81842 253
30.83853 211
30.85864 234
30.87876 207
30.89887 229
30.91899 199
30.9391 229
30.95921 210
30.97933 207
30.99944 208
31.01955 225
31.03967 209
31.05978 226
31.0799 231
31.10001 216
31.12012 208
31.14024 209
31.16035 222
31.18046 201
31.20058 221
31.22069 201
31.2408 255
31.26092 192
31.28103 217
31.30115 198
31.32126 222
31.34137 202
31.36149 209
31.3816 231
31.40171 189
31.42183 209
31.44194 226
31.46206 213
31.48217 212
31.50228 215
31.5224 199
31.54251 217
31.56262 225
31.58274 215
31.60285 173
31.62297 206
31.64308 195
31.66319 209
31.68331 216
31.70342 210
31.72353 203
31.74365 211
31.76376 204
31.78387 189
31.80399 230
31.8241 218
31.84422 209
31.86433 211
31.88444 210
31.90456 195
31.92467 202
31.94478 186
31.9649 223
31.98501 217
32.00513 201
32.02524 191
32.04535 201
32.06547 214
32.08558 241
32.10569 205
32.12581 211
32.14592 210
32.16604 208
32.18615 192
32.20626 195
32.22638 194
32.24649 228
32.2666 204
32.28672 232
32.30683 217
32.32694 220
32.34706 211
32.36717 212
32.38729 224
32.4074 204
32.42751 212
32.44763 214
32.46774 223
32.48785 235
32.50797 219
32.52808 211
32.5482 182
32.56831 237
32.58842 191
32.60854 221
32.62865 218
32.64876 232
32.66888 236
32.68899 227
32.7091 206
32.72922 234
32.74933 228
32.76945 222
32.78956 243
32.80967 271
32.82979 207
32.8499 247
32.87001 262
32.89013 242
32.91024 232
32.93036 263
32.95047 262
32.97058 231
32.9907 252
33.01081 241
33.03092 256
33.05104 306
33.07115 287
33.09127 279
33.11138 285
33.13149 268
33.15161 264
33.17172 282
33.19183 277
33.21195 261
33.23206 246
33.25217 259
33.27229 247
33.2924 253
33.31252 250
33.33263 229
33.35274 245
33.37286 216
33.39297 225
33.41308 235
33.4332 214
33.45331 225
33.47343 226
33.49354 197
33.51365 205
33.53377 207
33.55388 205
33.57399 202
33.59411 211
33.61422 188
33.63434 217
33.65445 199
33.67456 185
33.69468 186
33.71479 202
33.7349 196
33.75502 195
33.77513 197
33.79524 193
33.81536 203
33.83547 216
33.85559 195
33.8757 199
33.89581 193
33.91593 203
33.93604 192
33.95615 183
33.97627 182
33.99638 181
34.0165 177
34.03661 176
34.05672 214
34.07684 179
34.09695 184
34.11706 170
34.13718 182
34.15729 175
34.17741 196
34.19752 172
34.21763 187
34.23775 183
34.25786 203
34.27797 215
34.29809 201
34.3182 187
34.33831 189
34.35843 207
34.37854 201
34.39866 179
34.41877 180
34.43888 176
34.459 189
34.47911 191
34.49922 194
34.51934 171
34.53945 211
34.55957 189
34.57968 207
34.59979 224
34.61991 181
34.64002 189
34.66013 219
34.68025 210
34.70036 192
34.72047 223
34.74059 195
34.7607 195
34.78082 236
34.80093 201
34.82104 239
34.84116 248
34.86127 231
34.88138 233
34.9015 266
34.92161 262
34.94173 248
34.96184 267
34.98195 283
35.00207 266
35.02218 271
35.04229 246
35.06241 262
35.08252 259
35.10264 268
35.12275 246
35.14286 236
35.16298 245
35.18309 254
35.2032 236
35.22332 228
35.24343 272
35.26354 241
35.28366 262
35.30377 275
35.32389 285
35.344 267
35.36411 256
35.38423 243
35.40434 287
35.42445 291
35.44457 285
35.46468 271
35.4848 294
35.50491 289
35.52502 323
35.54514 328
35.56525 341
35.58536 295
35.60548 352
35.62559 326
35.64571 354
35.66582 346
35.68593 358
35.70605 337
35.72616 302
35.74627 329
35.76639 311
35.7865 337
35.80661 313
35.82673 290
35.84684 307
35.86696 306
35.88707 291
35.90718 318
35.9273 326
35.94741 328
35.96752 299
35.98764 293
36.00775 287
36.02787 283
36.04798 305
36.06809 285
36.08821 266
36.10832 299
36.12843 275
36.14855 263
36.16866 305
36.18878 301
36.20889 299
36.229 285
36.24912 306
36.26923 367
36.28934 338
36.30946 403
36.32957 466
36.34968 464
36.3698 599
36.38991 686
36.41003 835
36.43014 1052
36.45025 1319
36.47037 1755
36.49048 2056
36.51059 2625
36.53071 2740
36.55082 2528
36.57094 2219
36.59105 1667
36.61116 1458
36.63128 1397
36.65139 1176
36.6715 800
36.69162 490
36.71173 382
36.73184 362
36.75196 295
36.77207 297
36.79219 295
36.8123 259
36.83241 266
36.85253 259
36.87264 248
36.89275 232
36.91287 257
36.93298 247
36.9531 248
36.97321 245
36.99332 236
37.01344 232
37.03355 233
37.05366 222
37.07378 233
37.09389 255
37.11401 210
37.13412 241
37.15423 225
37.17435 227
37.19446 214
37.21457 219
37.23469 206
37.2548 221
37.27491 210
37.29503 211
37.31514 240
37.33526 226
37.35537 233
37.37548 236
37.3956 215
37.41571 219
37.43582 209
37.45594 214
37.47605 227
37.49617 208
37.51628 247
37.53639 236
37.55651 233
37.57662 231
37.59673 250
37.61685 217
37.63696 224
37.65708 253
37.67719 250
37.6973 231
37.71742 236
37.73753 233
37.75764 211
37.77776 237
37.79787 223
37.81798 256
37.8381 230
37.85821 213
37.87833 224
37.89844 268
37.91855 241
37.93867 227
37.95878 220
37.97889 239
37.99901 222
38.01912 238
38.03924 237
38.05935 223
38.07946 238
38.09958 222
38.11969 248
38.1398 248
38.15992 224
38.18003 267
38.20015 266
38.22026 283
38.24037 242
38.26049 266
38.2806 274
38.30071 254
38.32083 274
38.34094 271
38.36105 287
38.38117 245
38.40128 272
38.4214 282
38.44151 297
38.46162 275
38.48174 283
38.50185 286
38.52196 295
38.54208 276
38.56219 286
38.58231 249
38.60242 246
38.62253 254
38.64265 278
38.66276 247
38.68287 229
38.70299 249
38.7231 252
38.74321 234
38.76333 265
38.78344 277
38.80356 215
38.82367 247
38.84378 261
38.8639 256
38.88401 247
38.90412 273
38.92424 270
38.94435 249
38.96447 260
38.98458 242
39.00469 254
39.02481 237
39.04492 254
39.06503 293
39.08515 291
39.10526 272
39.12538 276
39.14549 294
39.1656 320
39.18572 335
39.20583 344
39.22594 354
39.24606 446
39.26617 467
39.28628 532
39.3064 617
39.32651 721
39.34663 921
39.36674 1243
39.38685 1544
39.40697 1922
39.42708 2235
39.44719 2537
39.46731 2460
39.48742 2184
39.50754 1618
39.52765 1369
39.54776 1354
39.56788 1264
39.58799 1040
39.6081 705
39.62822 420
39.64833 328
39.66845 292
39.68856 288
39.70867 295
39.72879 250
39.7489 285
39.76901 231
39.78913 244
39.80924 268
39.82935 236
39.84947 237
39.86958 223
39.8897 243
39.90981 242
39.92992 235
39.95004 238
39.97015 264
39.99026 251
40.01038 296
40.03049 290
40.05061 287
40.07072 315
40.09083 324
40.11095 385
40.13106 413
40.15117 475
40.17129 559
40.1914 707
40.21152 836
40.23163 1020
40.25174 1214
40.27186 1379
40.29197 1285
40.31208 1133
40.3322 879
40.35231 817
40.37242 721
40.39254 707
40.41265 587
40.43277 465
40.45288 320
40.47299 273
40.49311 279
40.51322 255
40.53333 228
40.55345 241
40.57356 199
40.59368 229
40.61379 239
40.6339 246
40.65402 215
40.67413 218
40.69424 224
40.71436 233
40.73447 247
40.75458 231
40.7747 241
40.79481 242
40.81493 236
40.83504 251
40.85515 236
40.87527 226
40.89538 235
40.91549 260
40.93561 223
40.95572 219
40.97584 215
40.99595 241
41.01606 266
41.03618 227
41.05629 229
41.0764 229
41.09652 232
41.11663 206
41.13675 257
41.15686 247
41.17697 231
41.19709 218
41.2172 226
41.23731 221
41.25743 214
41.27754 199
41.29765 188
41.31777 220
41.33788 212
41.358 204
41.37811 208
41.39822 206
41.41834 246
41.43845 208
41.45856 221
41.47868 198
41.49879 181
41.51891 213
41.53902 206
41.55913 192
41.57925 188
41.59936 197
41.61947 190
41.63959 180
41.6597 208
41.67982 183
41.69993 192
41.72004 177
41.74016 228
41.76027 183
41.78038 175
41.8005 221
41.82061 208
41.84072 185
41.86084 179
41.88095 205
41.90107 191
41.92118 200
41.94129 199
41.96141 197
41.98152 207
42.00163 226
42.02175 232
42.04186 221
42.06198 244
42.08209 215
42.1022 224
42.12232 232
42.14243 263
42.16254 263
42.18266 308
42.20277 302
42.22289 325
42.243 352
42.26311 436
42.28323 468
42.30334 539
42.32345 703
42.34357 908
42.36368 1072
42.38379 1378
42.40391 1686
42.42402 1837
42.44414 1749
42.46425 1594
42.48436 1226
42.50448 1082
42.52459 1050
42.5447 1027
42.56482 908
42.58493 649
42.60505 457
42.62516 367
42.64527 286
42.66539 271
42.6855 247
42.70561 232
42.72573 188
42.74584 216
42.76595 227
42.78607 226
42.80618 213
42.8263 193
42.84641 205
42.86652 209
42.88664 188
42.90675 183
42.92686 207
42.94698 212
42.96709 228
42.98721 208
43.00732 189
43.02743 224
43.04755 217
43.06766 160
43.08777 180
43.10789 181
43.128 206
43.14812 166
43.16823 174
43.18834 165
43.20846 184
43.22857 169
43.24868 190
43.2688 176
43.28891 185
43.30902 201
43.32914 185
43.34925 165
43.36937 200
43.38948 192
43.40959 178
43.42971 203
43.44982 201
43.46993 170
43.49005 159
43.51016 171
43.53028 181
43.55039 177
43.5705 176
43.59062 197
43.61073 211
43.63084 190
43.65096 191
43.67107 164
43.69119 196
43.7113 186
43.73141 175
43.75153 165
43.77164 187
43.79175 193
43.81187 192
43.83198 194
43.85209 181
43.87221 168
43.89232 195
43.91244 182
43.93255 185
43.95266 197
43.97278 167
43.99289 193
44.013 195
44.03312 178
44.05323 186
44.07335 200
44.09346 185
44.11357 179
44.13369 207
44.1538 209
44.17391 225
44.19403 196
44.21414 200
44.23426 182
44.25437 188
44.27448 193
44.2946 195
44.31471 182
44.33482 177
44.35494 200
44.37505 166
44.39516 186
44.41528 159
44.43539 193
44.45551 174
44.47562 184
44.49573 161
44.51585 179
44.53596 178
44.55607 197
44.57619 188
44.5963 178
44.61642 202
44.63653 181
44.65664 197
44.67676 185
44.69687 200
44.71698 181
44.7371 197
44.75721 180
44.77732 192
44.79744 184
44.81755 194
44.83767 178
44.85778 175
44.87789 201
44.89801 172
44.91812 196
44.93823 194
44.95835 184
44.97846 190
44.99858 175
45.01869 194
45.0388 205
45.05892 205
45.07903 195
45.09914 170
45.11926 197
45.13937 187
45.15949 204
45.1796 211
45.19971 217
45.21983 167
45.23994 209
45.26005 192
45.28017 200
45.30028 220
45.32039 223
45.34051 208
45.36062 196
45.38074 207
45.40085 226
45.42096 210
45.44108 235
45.46119 207
45.4813 204
45.50142 236
45.52153 245
45.54165 265
45.56176 249
45.58187 319
45.60199 374
45.6221 397
45.64221 473
45.66233 520
45.68244 630
45.70256 819
45.72267 986
45.74278 1058
45.7629 1195
45.78301 1194
45.80312 1103
45.82324 939
45.84335 739
45.86346 679
45.88358 760
45.90369 685
45.92381 645
45.94392 446
45.96403 336
45.98415 281
46.00426 251
46.02437 218
46.04449 205
46.0646 223
46.08472 197
46.10483 217
46.12494 184
46.14506 196
46.16517 174
46.18528 194
46.2054 170
46.22551 169
46.24563 210
46.26574 173
46.28585 175
46.30597 204
46.32608 189
46.34619 192
46.36631 197
46.38642 206
46.40653 170
46.42665 191
46.44676 189
46.46688 188
46.48699 172
46.5071 178
46.52722 157
46.54733 206
46.56744 163
46.58756 169
46.60767 182
46.62779 184
46.6479 185
46.66801 177
46.68813 161
46.70824 162
46.72835 181
46.74847 183
46.76858 162
46.78869 179
46.80881 188
46.82892 183
46.84904 168
46.86915 186
46.88926 182
46.90938 174
46.92949 173
46.9496 180
46.96972 158
46.98983 198
47.00995 177
47.03006 178
47.05017 184
47.07029 176
47.0904 194
47.11051 171
47.13063 176
47.15074 173
47.17086 177
47.19097 170
47.21108 170
47.2312 175
47.25131 172
47.27142 197
47.29154 153
47.31165 170
47.33176 173
47.35188 174
47.37199 207
47.39211 147
47.41222 202
47.43233 179
47.45245 171
47.47256 161
47.49267 170
47.51279 166
47.5329 170
47.55302 155
47.57313 173
47.59324 176
47.61336 176
47.63347 152
47.65358 187
47.6737 170
47.69381 173
47.71393 173
47.73404 202
47.75415 195
47.77427 195
47.79438 185
47.81449 203
47.83461 191
47.85472 180
47.87483 180
47.89495 195
47.91506 177
47.93518 187
47.95529 182
47.9754 194
47.99552 175
48.01563 180
48.03574 169
48.05586 170
48.07597 166
48.09609 186
48.1162 175
48.13631 174
48.15643 166
48.17654 171
48.19665 163
48.21677 176
48.23688 181
48.257 175
48.27711 164
48.29722 180
48.31734 182
48.33745 191
48.35756 188
48.37768 215
48.39779 181
48.4179 151
48.43802 166
48.45813 190
48.47825 195
48.49836 185
48.51847 183
48.53859 180
48.5587 193
48.57881 178
48.59893 183
48.61904 183
48.63916 170
48.65927 202
48.67938 201
48.6995 201
48.71961 202
48.73972 193
48.75984 179
48.77995 194
48.80006 183
48.82018 201
48.84029 187
48.86041 194
48.88052 176
48.90063 167
48.92075 190
48.94086 184
48.96097 173
48.98109 201
49.0012 193
49.02132 197
49.04143 203
49.06154 178
49.08166 187
49.10177 199
49.12188 174
49.142 208
49.16211 200
49.18223 230
49.20234 197
49.22245 209
49.24257 203
49.26268 236
49.28279 233
49.30291 198
49.32302 198
49.34313 206
49.36325 207
49.38336 197
49.40348 193
49.42359 258
49.4437 274
49.46382 246
49.48393 217
49.50404 220
49.52416 262
49.54427 222
49.56439 222
49.5845 257
49.60461 248
49.62473 245
49.64484 229
49.66495 294
49.68507 246
49.70518 280
49.7253 272
49.74541 310
49.76552 299
49.78564 307
49.80575 357
49.82586 356
49.84598 414
49.86609 444
49.8862 546
49.90632 557
49.92643 656
49.94655 786
49.96666 1020
49.98677 1238
50.00689 1548
50.027 1872
50.04711 2352
50.06723 2835
50.08734 3491
50.10746 3938
50.12757 3949
50.14768 3540
50.1678 2827
50.18791 2182
50.20802 1977
50.22814 2077
50.24825 2079
50.26837 1930
50.28848 1454
50.30859 973
50.32871 615
50.34882 478
50.36893 375
50.38905 341
50.40916 331
50.42927 307
50.44939 272
50.4695 290
50.48962 265
50.50973 261
50.52984 290
50.54996 289
50.57007 299
50.59018 293
50.6103 303
50.63041 293
50.65053 267
50.67064 239
50.69075 241
50.71087 227
50.73098 240
50.75109 242
50.77121 226
50.79132 183
50.81143 215
50.83155 211
50.85166 208
50.87178 209
50.89189 189
50.912 206
50.93212 207
50.95223 192
50.97234 197
50.99246 187
51.01257 223
51.03269 188
51.0528 206
51.07291 173
51.09303 161
51.11314 193
51.13325 185
51.15337 170
51.17348 187
51.1936 193
51.21371 169
51.23382 188
51.25394 177
51.27405 155
51.29416 193
51.31428 201
51.33439 177
51.3545 175
51.37462 157
51.39473 165
51.41485 155
51.43496 177
51.45507 163
51.47519 169
51.4953 166
51.51541 182
51.53553 176
51.55564 189
51.57576 179
51.59587 177
51.61598 179
51.6361 199
51.65621 161
51.67632 153
51.69644 168
51.71655 152
51.73667 175
51.75678 169
51.77689 168
51.79701 178
51.81712 162
51.83723 193
51.85735 153
51.87746 181
51.89757 169
51.91769 158
51.9378 178
51.95792 175
51.97803 170
51.99814 142
52.01826 172
52.03837 172
52.05848 186
52.0786 190
52.09871 163
52.11883 168
52.13894 177
52.15905 142
52.17917 170
52.19928 176
52.21939 162
52.23951 173
52.25962 210
52.27974 191
52.29985 180
52.31996 153
52.34008 153
52.36019 187
52.3803 141
52.40042 159
52.42053 164
52.44064 175
52.46076 152
52.48087 152
52.50099 171
52.5211 172
52.54121 172
52.56133 185
52.58144 162
52.60155 161
52.62167 164
52.64178 172
52.6619 153
52.68201 182
52.70212 187
52.72224 169
52.74235 155
52.76246 170
52.78258 178
52.80269 176
52.8228 165
52.84292 181
52.86303 185
52.88315 159
52.90326 154
52.92337 169
52.94349 163
52.9636 171
52.98371 161
53.00383 178
53.02394 185
53.04406 175
53.06417 166
53.08428 164
53.1044 173
53.12451 198
53.14462 175
53.16474 173
53.18485 149
53.20497 167
53.22508 171
53.24519 165
53.26531 199
53.28542 167
53.30553 185
53.32565 186
53.34576 188
53.36587 194
53.38599 177
53.4061 198
53.42622 169
53.44633 177
53.46644 172
53.48656 188
53.50667 182
53.52678 202
53.5469 160
53.56701 197
53.58713 217
53.60724 194
53.62735 193
53.64747 218
53.66758 205
53.68769 184
53.70781 195
53.72792 215
53.74804 183
53.76815 188
53.78826 208
53.80838 231
53.82849 204
53.8486 226
53.86872 193
53.88883 238
53.90894 224
53.92906 225
53.94917 213
53.96929 220
53.9894 248
54.00951 234
54.02963 252
54.04974 230
54.06985 226
54.08997 243
54.11008 234
54.1302 217
54.15031 213
54.17042 226
54.19054 255
54.21065 254
54.23076 241
54.25088 224
54.27099 242
54.29111 228
54.31122 243
54.33133 269
54.35145 237
54.37156 235
54.39167 262
54.41179 239
54.4319 236
54.45201 233
54.47213 227
54.49224 238
54.51236 248
54.53247 258
54.55258 276
54.5727 272
54.59281 282
54.61292 326
54.63304 314
54.65315 333
54.67327 357
54.69338 432
54.71349 483
54.73361 567
54.75372 711
54.77383 827
54.79395 1024
54.81406 1087
54.83417 1257
54.85429 1314
54.8744 1149
54.89452 986
54.91463 809
54.93474 710
54.95486 679
54.97497 749
54.99508 793
55.0152 704
55.03531 600
55.05543 468
55.07554 411
55.09565 318
55.11577 324
55.13588 340
55.15599 340
55.17611 379
55.19622 393
55.21634 436
55.23645 465
55.25656 530
55.27668 599
55.29679 624
55.3169 666
55.33702 606
55.35713 497
55.37724 426
55.39736 409
55.41747 397
55.43759 410
55.4577 448
55.47781 424
55.49793 318
55.51804 257
55.53815 264
55.55827 226
55.57838 227
55.5985 205
55.61861 234
55.63872 221
55.65884 215
55.67895 196
55.69906 181
55.71918 194
55.73929 203
55.75941 175
55.77952 200
55.79963 201
55.81975 178
55.83986 207
55.85997 186
55.88009 194
55.9002 196
55.92031 210
55.94043 181
55.96054 185
55.98066 179
56.00077 178
56.02088 212
56.041 181
56.06111 187
56.08122 199
56.10134 172
56.12145 186
56.14157 179
56.16168 172
56.18179 187
56.20191 193
56.22202 181
56.24213 169
56.26225 188
56.28236 199
56.30248 165
56.32259 188
56.3427 168
56.36282 197
56.38293 193
56.40304 174
56.42316 171
56.44327 203
56.46338 200
56.4835 195
56.50361 188
56.52373 179
56.54384 189
56.56395 189
56.58407 166
56.60418 189
56.62429 172
56.64441 174
56.66452 193
56.68464 186
56.70475 176
56.72486 181
56.74498 192
56.76509 162
56.7852 165
56.80532 186
56.82543 188
56.84554 185
56.86566 169
56.88577 163
56.90589 188
56.926 176
56.94611 171
56.96623 187
56.98634 183
57.00645 167
57.02657 196
57.04668 204
57.0668 200
57.08691 187
57.10702 196
57.12714 196
57.14725 195
57.16736 217
57.18748 267
57.20759 251
57.22771 208
57.24782 230
57.26793 193
57.28805 205
57.30816 188
57.32827 194
57.34839 195
57.3685 220
57.38861 212
57.40873 194
57.42884 193
57.44896 180
57.46907 185
57.48918 164
57.5093 180
57.52941 173
57.54952 180
57.56964 195
57.58975 166
57.60987 167
57.62998 182
57.65009 191
57.67021 182
57.69032 148
57.71043 164
57.73055 183
57.75066 188
57.77078 176
57.79089 180
57.811 161
57.83112 185
57.85123 180
57.87134 167
57.89146 170
57.91157 173
57.93168 169
57.9518 166
57.97191 157
57.99203 188
58.01214 161
58.03225 188
58.05237 150
58.07248 170
58.09259 196
58.11271 163
58.13282 168
58.15294 199
58.17305 167
58.19316 161
58.21328 177
58.23339 163
58.2535 179
58.27362 182
58.29373 185
58.31385 190
58.33396 181
58.35407 178
58.37419 161
58.3943 171
58.41441 182
58.43453 194
58.45464 200
58.47475 188
58.49487 173
58.51498 172
58.5351 197
58.55521 165
58.57532 194
58.59544 175
58.61555 170
58.63566 171
58.65578 193
58.67589 162
58.69601 154
58.71612 182
58.73623 158
58.75635 176
58.77646 202
58.79657 178
58.81669 175
58.8368 161
58.85691 174
58.87703 193
58.89714 151
58.91726 165
58.93737 182
58.95748 159
58.9776 164
58.99771 189
59.01782 172
59.03794 183
59.05805 168
59.07817 169
59.09828 168
59.11839 196
59.13851 190
59.15862 179
59.17873 186
59.19885 186
59.21896 197
59.23908 190
59.25919 198
59.2793 187
59.29942 170
59.31953 199
59.33964 200
59.35976 210
59.37987 176
59.39998 189
59.4201 205
59.44021 219
59.46033 204
59.48044 202
59.50055 221
59.52067 231
59.54078 250
59.56089 241
59.58101 278
59.60112 318
59.62124 287
59.64135 323
59.66146 340
59.68158 406
59.70169 422
59.7218 508
59.74192 568
59.76203 687
59.78215 842
59.80226 978
59.82237 1163
59.84249 1423
59.8626 1761
59.88271 2038
59.90283 2447
59.92294 2631
59.94305 2500
59.96317 2180
59.98328 1657
60.0034 1337
60.02351 1216
60.04362 1186
60.06374 1266
60.08385 1338
60.10396 1239
60.12408 1055
60.14419 820
60.16431 549
60.18442 416
60.20453 343
60.22465 287
60.24476 287
60.26487 239
60.28499 223
60.3051 251
60.32522 215
60.34533 213
60.36544 194
60.38556 217
60.40567 195
60.42578 219
60.4459 187
60.46601 202
60.48612 193
60.50624 181
60.52635 192
60.54647 174
60.56658 197
60.58669 180
60.60681 183
60.62692 193
60.64703 181
60.66715 188
60.68726 183
60.70738 179
60.72749 178
60.7476 166
60.76772 161
60.78783 173
60.80794 189
60.82806 182
60.84817 176
60.86828 192
60.8884 165
60.90851 173
60.92863 162
60.94874 180
60.96885 161
60.98897 175
61.00908 183
61.02919 176
61.04931 147
61.06942 178
61.08954 181
61.10965 165
61.12976 170
61.14988 178
61.16999 150
61.1901 175
61.21022 181
61.23033 190
61.25045 176
61.27056 157
61.29067 151
61.31079 157
61.3309 188
61.35101 173
61.37113 165
61.39124 163
61.41135 172
61.43147 181
61.45158 157
61.4717 158
61.49181 186
61.51192 154
61.53204 153
61.55215 164
61.57226 169
61.59238 180
61.61249 189
61.63261 169
61.65272 167
61.67283 178
61.69295 167
61.71306 184
61.73317 165
61.75329 183
61.7734 169
61.79352 189
61.81363 175
61.83374 172
61.85386 176
61.87397 190
61.89408 186
61.9142 189
61.93431 195
61.95442 186
61.97454 186
61.99465 201
62.01477 186
62.03488 182
62.05499 217
62.07511 212
62.09522 224
62.11533 224
62.13545 224
62.15556 216
62.17568 212
62.19579 224
62.2159 257
62.23602 230
62.25613 234
62.27624 224
62.29636 269
62.31647 214
62.33659 248
62.3567 237
62.37681 226
62.39693 224
62.41704 232
62.43715 230
62.45727 201
62.47738 240
62.49749 213
62.51761 227
62.53772 210
62.55784 234
62.57795 229
62.59806 205
62.61818 204
62.63829 204
62.6584 181
62.67852 182
62.69863 188
62.71875 170
62.73886 188
62.75897 204
62.77909 190
62.7992 186
62.81931 166
62.83943 180
62.85954 192
62.87965 165
62.89977 189
62.91988 172
62.94 183
62.96011 157
62.98022 180
63.00034 177
63.02045 168
63.04056 152
63.06068 183
63.08079 175
63.10091 152
63.12102 186
63.14113 180
63.16125 177
63.18136 167
63.20147 183
63.22159 158
63.2417 214
63.26182 185
63.28193 184
63.30204 198
63.32216 160
63.34227 171
63.36238 194
63.3825 172
63.40261 206
63.42272 185
63.44284 183
63.46295 179
63.48307 174
63.50318 185
63.52329 154
63.54341 173
63.56352 179
63.58363 191
63.60375 185
63.62386 195
63.64398 209
63.66409 190
63.6842 188
63.70432 196
63.72443 188
63.74454 243
63.76466 227
63.78477 223
63.80489 240
63.825 266
63.84511 272
63.86523 315
63.88534 321
63.90545 385
63.92557 398
63.94568 517
63.96579 543
63.98591 622
64.00602 637
64.02614 582
64.04625 554
64.06636 464
64.08648 384
64.10659 342
64.1267 336
64.14682 367
64.16693 369
64.18705 399
64.20716 372
64.22727 345
64.24739 277
64.2675 244
64.28761 228
64.30773 209
64.32784 195
64.34796 189
64.36807 186
64.38818 183
64.4083 153
64.42841 181
64.44852 195
64.46864 205
64.48875 172
64.50886 186
64.52898 181
64.54909 161
64.56921 162
64.58932 158
64.60943 177
64.62955 152
64.64966 169
64.66977 157
64.68989 143
64.71 172
64.73012 168
64.75023 152
64.77034 144
64.79046 146
64.81057 198
64.83068 165
64.8508 169
64.87091 173
64.89102 195
64.91114 165
64.93125 159
64.95137 153
64.97148 166
64.99159 142
65.01171 171
65.03182 166
65.05193 153
65.07205 133
65.09216 147
65.11228 174
65.13239 164
65.1525 147
65.17262 168
65.19273 163
65.21284 161
65.23296 192
65.25307 165
65.27319 171
65.2933 158
65.31341 175
65.33353 163
65.35364 175
65.37375 151
65.39387 170
65.41398 161
65.43409 182
65.45421 183
65.47432 170
65.49444 170
65.51455 176
65.53466 185
65.55478 177
65.57489 171
65.595 217
65.61512 217
65.63523 217
65.65535 220
65.67546 242
65.69557 226
65.71569 249
65.7358 251
65.75591 280
65.77603 275
65.79614 246
65.81626 219
65.83637 205
65.85648 189
65.8766 208
65.89671 215
65.91682 238
65.93694 199
65.95705 220
65.97716 204
65.99728 204
66.01739 189
66.03751 192
66.05762 167
66.07773 193
66.09785 174
66.11796 174
66.13807 188
66.15819 172
66.1783 163
66.19842 184
66.21853 193
66.23864 178
66.25876 171
66.27887 144
66.29898 180
66.3191 185
66.33921 165
66.35933 171
66.37944 173
66.39955 161
66.41967 159
66.43978 187
66.45989 183
66.48001 166
66.50012 168
66.52023 179
66.54035 188
66.56046 178
66.58058 199
66.60069 179
66.6208 185
66.64092 181
66.66103 185
66.68114 157
66.70126 184
66.72137 163
66.74149 173
66.7616 181
66.78171 193
66.80183 194
66.82194 173
66.84205 181
66.86217 162
66.88228 146
66.90239 156
66.92251 181
66.94262 170
66.96274 173
66.98285 182
67.00296 163
67.02308 194
67.04319 185
67.0633 173
67.08342 137
67.10353 158
67.12365 186
67.14376 168
67.16387 170
67.18399 230
67.2041 201
67.22421 210
67.24433 180
67.26444 201
67.28456 221
67.30467 235
67.32478 226
67.3449 237
67.36501 256
67.38512 268
67.40524 304
67.42535 301
67.44546 286
67.46558 319
67.48569 371
67.50581 429
67.52592 437
67.54603 558
67.56615 598
67.58626 675
67.60637 764
67.62649 926
67.6466 1131
67.66672 1304
67.68683 1429
67.70694 1570
67.72706 1467
67.74717 1379
67.76728 1106
67.7874 957
67.80751 801
67.82763 841
67.84774 895
67.86785 964
67.88797 1105
67.90808 1120
67.92819 1066
67.94831 1047
67.96842 950
67.98853 1057
68.00865 1080
68.02876 1261
68.04888 1394
68.06899 1667
68.0891 1821
68.10922 1957
68.12933 2043
68.14944 1886
68.16956 1617
68.18967 1461
68.20979 1459
68.2299 1520
68.25001 1700
68.27013 1854
68.29024 1937
68.31035 1793
68.33047 1605
68.35058 1293
68.3707 937
68.39081 773
68.41092 734
68.43104 701
68.45115 780
68.47126 735
68.49138 651
68.51149 608
68.5316 544
68.55172 384
68.57183 283
68.59195 292
68.61206 253
68.63217 256
68.65229 229
68.6724 225
68.69251 239
68.71263 204
68.73274 200
68.75286 198
68.77297 207
68.79308 193
68.8132 192
68.83331 192
68.85342 185
68.87354 171
68.89365 200
68.91376 199
68.93388 181
68.95399 167
68.97411 177
68.99422 189
69.01433 194
69.03445 201
69.05456 182
69.07467 187
69.09479 185
69.1149 167
69.13502 159
69.15513 172
69.17524 168
69.19536 166
69.21547 164
69.23558 162
69.2557 183
69.27581 154
69.29593 161
69.31604 180
69.33615 179
69.35627 167
69.37638 177
69.39649 163
69.41661 161
69.43672 178
69.45683 164
69.47695 187
69.49706 149
69.51718 172
69.53729 154
69.5574 172
69.57752 170
69.59763 173
69.61774 158
69.63786 165
69.65797 150
69.67809 166
69.6982 162
69.71831 148
69.73843 162
69.75854 164
69.77865 165
69.79877 170
69.81888 157
69.839 157
69.85911 163
69.87922 162
69.89934 185
69.91945 152
69.93956 177
69.95968 155
69.97979 158
69.9999 163
70.02002 177
70.04013 153
70.06025 153
70.08036 153
70.10047 155
70.12059 171
70.1407 167
70.16081 145
70.18093 160
70.20104 158
70.22116 144
70.24127 180
70.26138 171
70.2815 157
70.30161 148
70.32172 153
70.34184 158
70.36195 148
70.38207 142
70.40218 161
70.42229 156
70.44241 144
70.46252 163
70.48263 160
70.50275 161
70.52286 162
70.54297 135
70.56309 165
70.5832 161
70.60332 174
70.62343 156
70.64354 166
70.66366 153
70.68377 157
70.70388 168
70.724 147
70.74411 149
70.76423 155
70.78434 153
70.80445 173
70.82457 163
70.84468 146
70.86479 165
70.88491 169
70.90502 156
70.92513 172
70.94525 168
70.96536 153
70.98548 172
71.00559 153
71.0257 178
71.04582 146
71.06593 154
71.08604 145
71.10616 163
71.12627 165
71.14639 188
71.1665 156
71.18661 160
71.20673 168
71.22684 141
71.24695 153
71.26707 150
71.28718 151
71.3073 164
71.32741 149
71.34752 168
71.36764 169
71.38775 174
71.40786 174
71.42798 158
71.44809 159
71.4682 179
71.48832 135
71.50843 176
71.52855 152
71.54866 173
71.56877 163
71.58889 165
71.609 154
71.62911 147
71.64923 168
71.66934 146
71.68946 165
71.70957 140
71.72968 163
71.7498 169
71.76991 154
71.79002 161
71.81014 171
71.83025 144
71.85037 168
71.87048 158
71.89059 162
71.91071 172
71.93082 178
71.95093 169
71.97105 178
71.99116 162
72.01127 175
72.03139 156
72.0515 183
72.07162 156
72.09173 171
72.11184 159
72.13196 153
72.15207 145
72.17218 156
72.1923 169
72.21241 162
72.23253 158
72.25264 150
72.27275 165
72.29287 142
72.31298 153
72.33309 166
72.35321 194
72.37332 174
72.39344 170
72.41355 166
72.43366 149
72.45378 161
72.47389 162
72.494 144
72.51412 151
72.53423 142
72.55434 148
72.57446 151
72.59457 137
72.61469 153
72.6348 136
72.65491 142
72.67503 169
72.69514 176
72.71525 170
72.73537 160
72.75548 179
72.7756 162
72.79571 158
72.81582 167
72.83594 162
72.85605 160
72.87616 159
72.89628 141
72.91639 163
72.9365 156
72.95662 166
72.97673 168
72.99685 156
73.01696 142
73.03707 174
73.05719 194
73.0773 169
73.09741 194
73.11753 184
73.13764 179
73.15776 193
73.17787 206
73.19798 206
73.2181 212
73.23821 236
73.25832 274
73.27844 272
73.29855 303
73.31867 368
73.33878 390
73.35889 434
73.37901 549
73.39912 551
73.41923 591
73.43935 668
73.45946 606
73.47957 519
73.49969 429
73.5198 345
73.53992 307
73.56003 303
73.58014 352
73.60026 372
73.62037 369
73.64048 375
73.6606 362
73.68071 332
73.70083 339
73.72094 248
73.74105 231
73.76117 198
73.78128 194
73.80139 173
73.82151 195
73.84162 189
73.86174 163
73.88185 183
73.90196 175
73.92208 161
73.94219 163
73.9623 168
73.98242 150
74.00253 153
74.02264 156
74.04276 157
74.06287 165
74.08299 155
74.1031 150
74.12321 166
74.14333 162
74.16344 161
74.18355 160
74.20367 164
74.22378 163
74.2439 153
74.26401 156
74.28412 147
74.30424 137
74.32435 149
74.34446 143
74.36458 154
74.38469 162
74.40481 154
74.42492 163
74.44503 136
74.46515 151
74.48526 154
74.50537 141
74.52549 136
74.5456 155
74.56571 160
74.58583 143
74.60594 152
74.62606 162
74.64617 159
74.66628 167
74.6864 173
74.70651 168
74.72662 139
74.74674 141
74.76685 158
74.78697 160
74.80708 141
74.82719 147
74.84731 164
74.86742 157
74.88753 129
74.90765 149
74.92776 149
74.94787 148
74.96799 159
74.9881 158
75.00822 163
