3.00117 19521
3.02128 18795
3.0414 18088
3.06151 17789
3.08162 17328
3.10174 17033
3.12185 16348
3.14197 15545
3.16208 15334
3.18219 14867
3.20231 14901
3.22242 14033
3.24253 13429
3.26265 13470
3.28276 12642
3.30288 12735
3.32299 12012
3.3431 11778
3.36322 11136
3.38333 10732
3.40344 10841
3.42356 10276
3.44367 9890
3.46379 9505
3.4839 8991
3.50401 9028
3.52413 8341
3.54424 8435
3.56435 7988
3.58447 7647
3.60458 7474
3.62469 7057
3.64481 6763
3.66492 6438
3.68504 6175
3.70515 6222
3.72526 5654
3.74538 5561
3.76549 5422
3.7856 5070
3.80572 4977
3.82583 4521
3.84595 4431
3.86606 4262
3.88617 4163
3.90629 4101
3.9264 3677
3.94651 3520
3.96663 3596
3.98674 3287
4.00686 3122
4.02697 2943
4.04708 2821
4.0672 2779
4.08731 2588
4.10742 2565
4.12754 2270
4.14765 2287
4.16776 2327
4.18788 2142
4.20799 1978
4.22811 1738
4.24822 1742
4.26833 1933
4.28845 1738
4.30856 1723
4.32867 1548
4.34879 1499
4.3689 1523
4.38902 1498
4.40913 1422
4.42924 1332
4.44936 1317
4.46947 1274
4.48958 1303
4.5097 1285
4.52981 1158
4.54992 1138
4.57004 1164
4.59015 1081
4.61027 1148
4.63038 1079
4.65049 988
4.67061 973
4.69072 987
4.71083 918
4.73095 886
4.75106 969
4.77118 890
4.79129 895
4.8114 791
4.83152 807
4.85163 795
4.87174 811
4.89186 788
4.91197 773
4.93209 691
4.9522 675
4.97231 690
4.99243 653
5.01254 659
5.03265 619
5.05277 625
5.07288 613
5.09299 635
5.11311 539
5.13322 580
5.15334 498
5.17345 533
5.19356 527
5.21368 493
5.23379 488
5.2539 471
5.27402 466
5.29413 513
5.31425 426
5.33436 455
5.35447 419
5.37459 427
5.3947 393
5.41481 397
5.43493 397
5.45504 393
5.47516 370
5.49527 377
5.51538 337
5.5355 312
5.55561 329
5.57572 307
5.59584 311
5.61595 306
5.63606 311
5.65618 310
5.67629 316
5.69641 268
5.71652 241
5.73663 268
5.75675 281
5.77686 257
5.79697 260
5.81709 221
5.8372 232
5.85732 262
5.87743 233
5.89754 214
5.91766 217
5.93777 236
5.95788 214
5.978 210
5.99811 250
6.01823 239
6.03834 220
6.05845 232
6.07857 223
6.09868 232
6.11879 232
6.13891 211
6.15902 219
6.17913 255
6.19925 216
6.21936 185
6.23948 223
6.25959 193
6.2797 168
6.29982 193
6.31993 195
6.34004 211
6.36016 213
6.38027 203
6.40039 189
6.4205 220
6.44061 216
6.46073 192
6.48084 205
6.50095 204
6.52107 183
6.54118 195
6.56129 196
6.58141 170
6.60152 180
6.62164 184
6.64175 189
6.66186 165
6.68198 211
6.70209 179
6.7222 162
6.74232 200
6.76243 196
6.78255 181
6.80266 198
6.82277 187
6.84289 181
6.863 172
6.88311 184
6.90323 196
6.92334 178
6.94346 190
6.96357 167
6.98368 192
7.0038 202
7.02391 190
7.04402 176
7.06414 173
7.08425 185
7.10436 180
7.12448 188
7.14459 200
7.16471 222
7.18482 193
7.20493 221
7.22505 199
7.24516 208
7.26527 190
7.28539 195
7.3055 182
7.32562 200
7.34573 199
7.36584 189
7.38596 212
7.40607 201
7.42618 174
7.4463 214
7.46641 186
7.48653 183
7.50664 152
7.52675 212
7.54687 210
7.56698 181
7.58709 205
7.60721 212
7.62732 180
7.64743 201
7.66755 229
7.68766 205
7.70778 198
7.72789 194
7.748 215
7.76812 192
7.78823 198
7.80834 201
7.82846 242
7.84857 206
7.86869 220
7.8888 236
7.90891 219
7.92903 217
7.94914 216
7.96925 202
7.98937 195
8.00948 217
8.0296 243
8.04971 217
8.06982 236
8.08994 218
8.11005 219
8.13016 219
8.15028 207
8.17039 245
8.1905 197
8.21062 217
8.23073 238
8.25085 211
8.27096 228
8.29107 216
8.31119 202
8.3313 245
8.35141 212
8.37153 219
8.39164 220
8.41176 236
8.43187 192
8.45198 234
8.4721 242
8.49221 216
8.51232 234
8.53244 245
8.55255 248
8.57266 224
8.59278 208
8.61289 203
8.63301 238
8.65312 237
8.67323 224
8.69335 231
8.71346 197
8.73357 204
8.75369 217
8.7738 235
8.79392 204
8.81403 239
8.83414 256
8.85426 232
8.87437 193
8.89448 248
8.9146 223
8.93471 241
8.95483 252
8.97494 240
8.99505 235
9.01517 205
9.03528 250
9.05539 238
9.07551 250
9.09562 228
9.11573 220
9.13585 259
9.15596 260
9.17608 221
9.19619 266
9.2163 210
9.23642 243
9.25653 239
9.27664 240
9.29676 233
9.31687 209
9.33699 221
9.3571 239
9.37721 208
9.39733 235
9.41744 215
9.43755 241
9.45767 254
9.47778 240
9.4979 200
9.51801 235
9.53812 247
9.55824 242
9.57835 219
9.59846 239
9.61858 217
9.63869 221
9.6588 224
9.67892 238
9.69903 214
9.71915 214
9.73926 206
9.75937 234
9.77949 208
9.7996 234
9.81971 251
9.83983 209
9.85994 254
9.88006 233
9.90017 267
9.92028 228
9.9404 188
9.96051 252
9.98062 224
10.00074 236
10.02085 212
10.04097 237
10.06108 275
10.08119 230
10.10131 231
10.12142 239
10.14153 244
10.16165 243
10.18176 197
10.20187 242
10.22199 224
10.2421 243
10.26222 242
10.28233 217
10.30244 224
10.32256 206
10.34267 198
10.36278 226
10.3829 197
10.40301 220
10.42313 237
10.44324 218
10.46335 240
10.48347 222
10.50358 208
10.52369 234
10.54381 194
10.56392 195
10.58403 178
10.60415 225
10.62426 220
10.64438 234
10.66449 223
10.6846 227
10.70472 211
10.72483 241
10.74494 230
10.76506 237
10.78517 234
10.80529 222
10.8254 219
10.84551 223
10.86563 232
10.88574 204
10.90585 225
10.92597 242
10.94608 229
10.9662 230
10.98631 236
11.00642 226
11.02654 238
11.04665 201
11.06676 207
11.08688 239
11.10699 219
11.1271 220
11.14722 255
11.16733 220
11.18745 229
11.20756 211
11.22767 204
11.24779 238
11.2679 239
11.28801 246
11.30813 216
11.32824 215
11.34836 223
11.36847 207
11.38858 277
11.4087 228
11.42881 216
11.44892 218
11.46904 237
11.48915 225
11.50927 233
11.52938 222
11.54949 235
11.56961 246
11.58972 234
11.60983 225
11.62995 234
11.65006 225
11.67017 241
11.69029 254
11.7104 220
11.73052 242
11.75063 231
11.77074 247
11.79086 243
11.81097 245
11.83108 230
11.8512 212
11.87131 261
11.89143 225
11.91154 229
11.93165 244
11.95177 210
11.97188 213
11.99199 275
12.01211 247
12.03222 243
12.05234 269
12.07245 253
12.09256 273
12.11268 242
12.13279 307
12.1529 303
12.17302 305
12.19313 284
12.21324 324
12.23336 299
12.25347 310
12.27359 325
12.2937 346
12.31381 377
12.33393 371
12.35404 398
12.37415 443
12.39427 368
12.41438 365
12.4345 338
12.45461 337
12.47472 282
12.49484 262
12.51495 270
12.53506 264
12.55518 245
12.57529 247
12.5954 255
12.61552 224
12.63563 243
12.65575 226
12.67586 224
12.69597 244
12.71609 243
12.7362 214
12.75631 243
12.77643 228
12.79654 217
12.81666 211
12.83677 192
12.85688 227
12.877 191
12.89711 208
12.91722 212
12.93734 198
12.95745 199
12.97757 213
12.99768 213
13.01779 225
13.03791 210
13.05802 212
13.07813 214
13.09825 217
13.11836 186
13.13847 218
13.15859 191
13.1787 186
13.19882 190
13.21893 189
13.23904 225
13.25916 212
13.27927 190
13.29938 233
13.3195 239
13.33961 192
13.35973 211
13.37984 227
13.39995 197
13.42007 206
13.44018 206
13.46029 184
13.48041 167
13.50052 218
13.52064 196
13.54075 183
13.56086 215
13.58098 241
13.60109 242
13.6212 202
13.64132 193
13.66143 203
13.68154 213
13.70166 176
13.72177 196
13.74189 188
13.762 192
13.78211 227
13.80223 232
13.82234 202
13.84245 184
13.86257 236
13.88268 192
13.9028 227
13.92291 170
13.94302 222
13.96314 222
13.98325 205
14.00336 198
14.02348 220
14.04359 211
14.06371 208
14.08382 221
14.10393 202
14.12405 201
14.14416 196
14.16427 201
14.18439 171
14.2045 173
14.22461 187
14.24473 199
14.26484 189
14.28496 198
14.30507 196
14.32518 214
14.3453 180
14.36541 210
14.38552 191
14.40564 187
14.42575 219
14.44587 173
14.46598 217
14.48609 202
14.50621 190
14.52632 186
14.54643 200
14.56655 183
14.58666 206
14.60677 177
14.62689 194
14.647 216
14.66712 180
14.68723 176
14.70734 219
14.72746 209
14.74757 197
14.76768 176
14.7878 171
14.80791 201
14.82803 208
14.84814 188
14.86825 174
14.88837 155
14.90848 172
14.92859 179
14.94871 206
14.96882 178
14.98894 181
15.00905 186
15.02916 190
15.04928 212
15.06939 192
15.0895 205
15.10962 194
15.12973 160
15.14984 189
15.16996 183
15.19007 179
15.21019 185
15.2303 188
15.25041 178
15.27053 188
15.29064 192
15.31075 204
15.33087 185
15.35098 188
15.3711 180
15.39121 196
15.41132 192
15.43144 181
15.45155 182
15.47166 179
15.49178 197
15.51189 206
15.53201 186
15.55212 165
15.57223 192
15.59235 176
15.61246 183
15.63257 194
15.65269 181
15.6728 195
15.69291 164
15.71303 161
15.73314 177
15.75326 205
15.77337 181
15.79348 172
15.8136 171
15.83371 164
15.85382 189
15.87394 156
15.89405 178
15.91417 176
15.93428 164
15.95439 176
15.97451 167
15.99462 181
16.01473 168
16.03485 192
16.05496 194
16.07508 190
16.09519 209
16.1153 196
16.13542 167
16.15553 177
16.17564 198
16.19576 176
16.21587 184
16.23598 192
16.2561 162
16.27621 190
16.29633 171
16.31644 182
16.33655 175
16.35667 181
16.37678 168
16.39689 186
16.41701 176
16.43712 174
16.45724 182
16.47735 182
16.49746 193
16.51758 162
16.53769 169
16.5578 177
16.57792 178
16.59803 165
16.61814 187
16.63826 172
16.65837 189
16.67849 176
16.6986 200
16.71871 173
16.73883 182
16.75894 173
16.77905 174
16.79917 175
16.81928 208
16.8394 143
16.85951 181
16.87962 171
16.89974 180
16.91985 188
16.93996 163
16.96008 153
16.98019 163
17.00031 174
17.02042 159
17.04053 196
17.06065 198
17.08076 179
17.10087 196
17.12099 153
17.1411 172
17.16121 179
17.18133 180
17.20144 179
17.22156 168
17.24167 174
17.26178 194
17.2819 188
17.30201 181
17.32212 178
17.34224 179
17.36235 183
17.38247 186
17.40258 164
17.42269 181
17.44281 182
17.46292 169
17.48303 186
17.50315 180
17.52326 185
17.54338 178
17.56349 183
17.5836 167
17.60372 178
17.62383 173
17.64394 182
17.66406 189
17.68417 182
17.70428 187
17.7244 162
17.74451 182
17.76463 170
17.78474 156
17.80485 158
17.82497 173
17.84508 166
17.86519 181
17.88531 165
17.90542 178
17.92554 168
17.94565 198
17.96576 180
17.98588 180
18.00599 187
18.0261 180
18.04622 163
18.06633 178
18.08645 187
18.10656 169
18.12667 191
18.14679 151
18.1669 177
18.18701 177
18.20713 187
18.22724 143
18.24735 179
18.26747 178
18.28758 172
18.3077 165
18.32781 176
18.34792 151
18.36804 180
18.38815 184
18.40826 187
18.42838 175
18.44849 189
18.46861 191
18.48872 190
18.50883 146
18.52895 184
18.54906 150
18.56917 174
18.58929 192
18.6094 162
18.62951 182
18.64963 204
18.66974 197
18.68986 185
18.70997 191
18.73008 174
18.7502 181
18.77031 200
18.79042 204
18.81054 201
18.83065 187
18.85077 210
18.87088 208
18.89099 162
18.91111 184
18.93122 186
18.95133 178
18.97145 154
18.99156 145
19.01168 158
19.03179 169
19.0519 175
19.07202 164
19.09213 182
19.11224 192
19.13236 178
19.15247 183
19.17258 172
19.1927 184
19.21281 174
19.23293 183
19.25304 171
19.27315 164
19.29327 208
19.31338 184
19.33349 178
19.35361 162
19.37372 192
19.39384 175
19.41395 164
19.43406 166
19.45418 163
19.47429 186
19.4944 195
19.51452 171
19.53463 174
19.55475 185
19.57486 204
19.59497 178
19.61509 229
19.6352 203
19.65531 204
19.67543 203
19.69554 181
19.71565 189
19.73577 232
19.75588 237
19.776 256
19.79611 241
19.81622 263
19.83634 304
19.85645 246
19.87656 308
19.89668 250
19.91679 270
19.93691 260
19.95702 260
19.97713 289
19.99725 275
20.01736 261
20.03747 253
20.05759 301
20.0777 259
20.09782 272
20.11793 289
20.13804 274
20.15816 282
20.17827 293
20.19838 313
20.2185 295
20.23861 301
20.25872 341
20.27884 261
20.29895 330
20.31907 316
20.33918 304
20.35929 306
20.37941 344
20.39952 327
20.41963 338
20.43975 357
20.45986 360
20.47998 399
20.50009 385
20.5202 419
20.54032 394
20.56043 438
20.58054 439
20.60066 434
20.62077 480
20.64088 508
20.661 558
20.68111 692
20.70123 855
20.72134 1183
20.74145 1883
20.76157 2789
20.78168 4040
20.80179 6014
20.82191 7839
20.84202 9366
20.86214 9487
20.88225 8158
20.90236 5928
20.92248 4055
20.94259 2448
20.9627 1209
20.98282 801
21.00293 624
21.02305 565
21.04316 516
21.06327 468
21.08339 492
21.1035 433
21.12361 422
21.14373 394
21.16384 395
21.18395 387
21.20407 332
21.22418 340
21.2443 313
21.26441 330
21.28452 272
21.30464 336
21.32475 257
21.34486 309
21.36498 307
21.38509 279
21.40521 329
21.42532 338
21.44543 280
21.46555 297
21.48566 269
21.50577 248
21.52589 281
21.546 270
21.56612 242
21.58623 261
21.60634 253
21.62646 281
21.64657 252
21.66668 232
21.6868 249
21.70691 247
21.72702 252
21.74714 251
21.76725 258
21.78737 220
21.80748 241
21.82759 220
21.84771 232
21.86782 250
21.88793 247
21.90805 221
21.92816 257
21.94828 235
21.96839 247
21.9885 230
22.00862 225
22.02873 250
22.04884 225
22.06896 234
22.08907 217
22.10919 207
22.1293 253
22.14941 224
22.16953 229
22.18964 248
22.20975 218
22.22987 234
22.24998 229
22.27009 231
22.29021 224
22.31032 228
22.33044 255
22.35055 236
22.37066 206
22.39078 219
22.41089 229
22.431 213
22.45112 236
22.47123 251
22.49135 239
22.51146 220
22.53157 193
22.55169 210
22.5718 242
22.59191 239
22.61203 211
22.63214 217
22.65225 210
22.67237 228
22.69248 233
22.7126 225
22.73271 221
22.75282 207
22.77294 221
22.79305 195
22.81316 205
22.83328 202
22.85339 241
22.87351 237
22.89362 205
22.91373 220
22.93385 235
22.95396 221
22.97407 209
22.99419 207
23.0143 219
23.03442 243
23.05453 217
23.07464 249
23.09476 218
23.11487 225
23.13498 194
23.1551 208
23.17521 198
23.19532 210
23.21544 226
23.23555 215
23.25567 183
23.27578 196
23.29589 191
23.31601 179
23.33612 198
23.35623 223
23.37635 248
23.39646 230
23.41658 209
23.43669 207
23.4568 220
23.47692 217
23.49703 231
23.51714 233
23.53726 222
23.55737 190
23.57749 206
23.5976 213
23.61771 191
23.63783 233
23.65794 199
23.67805 196
23.69817 211
23.71828 211
23.73839 198
23.75851 212
23.77862 198
23.79874 221
23.81885 241
23.83896 202
23.85908 218
23.87919 255
23.8993 241
23.91942 255
23.93953 261
23.95965 287
23.97976 304
23.99987 340
24.01999 334
24.0401 325
24.06021 284
24.08033 250
24.10044 221
24.12056 206
24.14067 229
24.16078 210
24.1809 234
24.20101 230
24.22112 233
24.24124 220
24.26135 233
24.28146 245
24.30158 231
24.32169 246
24.34181 222
24.36192 227
24.38203 234
24.40215 218
24.42226 234
24.44237 206
24.46249 246
24.4826 218
24.50272 209
24.52283 202
24.54294 222
24.56306 233
24.58317 247
24.60328 231
24.6234 238
24.64351 229
24.66362 234
24.68374 237
24.70385 277
24.72397 281
24.74408 233
24.76419 274
24.78431 287
24.80442 290
24.82453 298
24.84465 341
24.86476 326
24.88488 356
24.90499 290
24.9251 329
24.94522 273
24.96533 277
24.98544 284
25.00556 269
25.02567 248
25.04579 276
25.0659 230
25.08601 223
25.10613 245
25.12624 252
25.14635 248
25.16647 245
25.18658 257
25.20669 259
25.22681 222
25.24692 270
25.26704 264
25.28715 276
25.30726 252
25.32738 254
25.34749 258
25.3676 276
25.38772 244
25.40783 260
25.42795 249
25.44806 244
25.46817 260
25.48829 217
25.5084 241
25.52851 270
25.54863 263
25.56874 236
25.58886 245
25.60897 253
25.62908 268
25.6492 282
25.66931 324
25.68942 348
25.70954 370
25.72965 408
25.74976 423
25.76988 419
25.78999 370
25.81011 413
25.83022 445
25.85033 392
25.87045 440
25.89056 396
25.91067 418
25.93079 464
25.9509 448
25.97102 439
25.99113 450
26.01124 490
26.03136 474
26.05147 484
26.07158 495
26.0917 515
26.11181 547
26.13193 551
26.15204 645
26.17215 652
26.19227 657
26.21238 738
26.23249 804
26.25261 825
26.27272 914
26.29283 937
26.31295 1050
26.33306 1099
26.35318 1210
26.37329 1326
26.3934 1560
26.41352 1844
26.43363 2224
26.45374 2902
26.47386 3995
26.49397 5673
26.51409 8431
26.5342 12326
26.55431 18568
26.57443 26751
26.59454 35293
26.61465 41682
26.63477 43148
26.65488 37411
26.67499 28309
26.69511 22073
26.71522 16214
26.73534 9560
26.75545 4938
26.77556 2715
26.79568 1956
26.81579 1697
26.8359 1540
26.85602 1363
26.87613 1235
26.89625 1188
26.91636 1061
26.93647 1020
26.95659 893
26.9767 794
26.99681 734
27.01693 642
27.03704 607
27.05716 578
27.07727 518
27.09738 514
27.1175 460
27.13761 411
27.15772 453
27.17784 438
27.19795 449
27.21806 429
27.23818 425
27.25829 417
27.27841 417
27.29852 439
27.31863 399
27.33875 408
27.35886 445
27.37897 392
27.39909 386
27.4192 394
27.43932 389
27.45943 440
27.47954 369
27.49966 354
27.51977 386
27.53988 334
27.56 338
27.58011 353
27.60023 366
27.62034 333
27.64045 315
27.66057 332
27.68068 347
27.70079 310
27.72091 295
27.74102 331
27.76113 308
27.78125 301
27.80136 307
27.82148 308
27.84159 302
27.8617 308
27.88182 310
27.90193 321
27.92204 291
27.94216 308
27.96227 265
27.98239 259
28.0025 260
28.02261 272
28.04273 274
28.06284 265
28.08295 272
28.10307 254
28.12318 249
28.1433 255
28.16341 253
28.18352 270
28.20364 285
28.22375 245
28.24386 270
28.26398 248
28.28409 245
28.3042 265
28.32432 265
28.34443 265
28.36455 259
28.38466 241
28.40477 239
28.42489 260
28.445 266
28.46511 225
28.48523 243
28.50534 206
28.52546 228
28.54557 243
28.56568 268
28.5858 227
28.60591 265
28.62602 241
28.64614 264
28.66625 257
28.68636 264
28.70648 266
28.72659 280
28.74671 251
28.76682 271
28.78693 249
28.80705 245
28.82716 233
28.84727 210
28.86739 233
28.8875 257
28.90762 245
28.92773 255
28.94784 226
28.96796 223
28.98807 254
29.00818 246
29.0283 258
29.04841 226
29.06853 230
29.08864 238
29.10875 230
29.12887 203
29.14898 220
29.16909 242
29.18921 219
29.20932 232
29.22943 252
29.24955 206
29.26966 236
29.28978 233
29.30989 226
29.33 220
29.35012 223
29.37023 231
29.39034 238
29.41046 224
29.43057 232
29.45069 216
29.4708 213
29.49091 237
29.51103 252
29.53114 254
29.55125 224
29.57137 229
29.59148 207
29.6116 219
29.63171 201
29.65182 209
29.67194 242
29.69205 226
29.71216 187
29.73228 213
29.75239 202
29.7725 225
29.79262 205
29.81273 231
29.83285 192
29.85296 216
29.87307 235
29.89319 219
29.9133 223
29.93341 232
29.95353 197
29.97364 255
29.99376 226
30.01387 216
30.03398 239
30.0541 222
30.07421 245
30.09432 227
30.11444 249
30.13455 212
30.15467 201
30.17478 212
30.19489 215
30.21501 243
30.23512 200
30.25523 209
30.27535 218
30.29546 233
30.31557 216
30.33569 215
30.3558 215
30.37592 199
30.39603 214
30.41614 218
30.43626 209
30.45637 194
30.47648 192
30.4966 189
30.51671 191
30.53683 200
30.55694 211
30.57705 211
30.59717 207
30.61728 181
30.63739 186
30.65751 225
30.67762 225
30.69773 204
30.71785 211
30.73796 195
30.75808 203
30.77819 183
30.7983 198
30.81842 206
30.83853 215
30.85864 195
30.87876 184
30.89887 176
30.91899 195
30.9391 177
30.95921 209
30.97933 207
30.99944 243
31.01955 211
31.03967 183
31.05978 205
31.0799 211
31.10001 209
31.12012 190
31.14024 221
31.16035 194
31.18046 170
31.20058 190
31.22069 161
31.2408 196
31.26092 185
31.28103 175
31.30115 184
31.32126 177
31.34137 180
31.36149 160
31.3816 187
31.40171 164
31.42183 194
31.44194 169
31.46206 185
31.48217 179
31.50228 163
31.5224 178
31.54251 193
31.56262 189
31.58274 195
31.60285 187
31.62297 199
31.64308 218
31.66319 190
31.68331 216
31.70342 192
31.72353 168
31.74365 197
31.76376 181
31.78387 236
31.80399 200
31.8241 182
31.84422 171
31.86433 172
31.88444 194
31.90456 164
31.92467 184
31.94478 181
31.9649 157
31.98501 204
32.00513 180
32.02524 187
32.04535 189
32.06547 191
32.08558 194
32.10569 174
32.12581 192
32.14592 172
32.16604 180
32.18615 178
32.20626 152
32.22638 199
32.24649 187
32.2666 184
32.28672 181
32.30683 185
32.32694 187
32.34706 187
32.36717 191
32.38729 146
32.4074 189
32.42751 201
32.44763 192
32.46774 180
32.48785 196
32.50797 182
32.52808 202
32.5482 191
32.56831 202
32.58842 175
32.60854 199
32.62865 180
32.64876 186
32.66888 201
32.68899 213
32.7091 199
32.72922 205
32.74933 172
32.76945 189
32.78956 226
32.80967 176
32.82979 168
32.8499 210
32.87001 198
32.89013 205
32.91024 197
32.93036 194
32.95047 186
32.97058 183
32.9907 167
33.01081 205
33.03092 203
33.05104 206
33.07115 205
33.09127 209
33.11138 235
33.13149 209
33.15161 227
33.17172 212
33.19183 218
33.21195 195
33.23206 193
33.25217 214
33.27229 195
33.2924 174
33.31252 177
33.33263 227
33.35274 176
33.37286 220
33.39297 198
33.41308 185
33.4332 172
33.45331 179
33.47343 179
33.49354 198
33.51365 183
33.53377 149
33.55388 167
33.57399 175
33.59411 177
33.61422 181
33.63434 178
33.65445 164
33.67456 165
33.69468 195
33.71479 172
33.7349 186
33.75502 169
33.77513 165
33.79524 170
33.81536 156
33.83547 164
33.85559 160
33.8757 156
33.89581 168
33.91593 165
33.93604 167
33.95615 149
33.97627 165
33.99638 178
34.0165 135
34.03661 170
34.05672 163
34.07684 190
34.09695 140
34.11706 169
34.13718 139
34.15729 174
34.17741 171
34.19752 182
34.21763 152
34.23775 168
34.25786 153
34.27797 153
34.29809 177
34.3182 161
34.33831 146
34.35843 159
34.37854 174
34.39866 163
34.41877 170
34.43888 165
34.459 152
34.47911 173
34.49922 175
34.51934 153
34.53945 156
34.55957 159
34.57968 192
34.59979 169
34.61991 190
34.64002 153
34.66013 166
34.68025 170
34.70036 177
34.72047 172
34.74059 172
34.7607 181
34.78082 212
34.80093 215
34.82104 201
34.84116 205
34.86127 199
34.88138 208
34.9015 191
34.92161 214
34.94173 213
34.96184 232
34.98195 208
35.00207 191
35.02218 251
35.04229 219
35.06241 201
35.08252 215
35.10264 208
35.12275 220
35.14286 218
35.16298 196
35.18309 189
35.2032 190
35.22332 198
35.24343 192
35.26354 185
35.28366 203
35.30377 209
35.32389 221
35.344 232
35.36411 200
35.38423 210
35.40434 207
35.42445 233
35.44457 250
35.46468 241
35.4848 262
35.50491 247
35.52502 276
35.54514 259
35.56525 277
35.58536 240
35.60548 240
35.62559 259
35.64571 268
35.66582 273
35.68593 228
35.70605 266
35.72616 271
35.74627 250
35.76639 279
35.7865 238
35.80661 249
35.82673 246
35.84684 245
35.86696 251
35.88707 243
35.90718 265
35.9273 252
35.94741 234
35.96752 240
35.98764 229
36.00775 233
36.02787 271
36.04798 246
36.06809 230
36.08821 246
36.10832 230
36.12843 243
36.14855 276
36.16866 236
36.18878 259
36.20889 240
36.229 246
36.24912 275
36.26923 308
36.28934 313
36.30946 338
36.32957 389
36.34968 430
36.3698 531
36.38991 673
36.41003 882
36.43014 1183
36.45025 1468
36.47037 2051
36.49048 2478
36.51059 2851
36.53071 2957
36.55082 2689
36.57094 1987
36.59105 1671
36.61116 1530
36.63128 1478
36.65139 1045
36.6715 590
36.69162 427
36.71173 332
36.73184 281
36.75196 307
36.77207 245
36.79219 281
36.8123 244
36.83241 209
36.85253 214
36.87264 232
36.89275 221
36.91287 192
36.93298 216
36.9531 188
36.97321 169
36.99332 199
37.01344 185
37.03355 196
37.05366 228
37.07378 171
37.09389 204
37.11401 188
37.13412 193
37.15423 175
37.17435 205
37.19446 188
37.21457 164
37.23469 168
37.2548 163
37.27491 177
37.29503 170
37.31514 179
37.33526 193
37.35537 177
37.37548 187
37.3956 204
37.41571 204
37.43582 178
37.45594 177
37.47605 160
37.49617 191
37.51628 183
37.53639 184
37.55651 209
37.57662 181
37.59673 174
37.61685 182
37.63696 185
37.65708 177
37.67719 195
37.6973 180
37.71742 184
37.73753 203
37.75764 169
37.77776 188
37.79787 180
37.81798 197
37.8381 182
37.85821 155
37.87833 171
37.89844 170
37.91855 200
37.93867 185
37.95878 179
37.97889 201
37.99901 172
38.01912 193
38.03924 170
38.05935 198
38.07946 209
38.09958 196
38.11969 208
38.1398 198
38.15992 176
38.18003 220
38.20015 193
38.22026 196
38.24037 202
38.26049 225
38.2806 205
38.30071 202
38.32083 211
38.34094 226
38.36105 249
38.38117 225
38.40128 225
38.4214 245
38.44151 233
38.46162 233
38.48174 194
38.50185 222
38.52196 227
38.54208 206
38.56219 232
38.58231 206
38.60242 206
38.62253 238
38.64265 196
38.66276 191
38.68287 198
38.70299 219
38.7231 191
38.74321 167
38.76333 220
38.78344 196
38.80356 192
38.82367 188
38.84378 183
38.8639 226
38.88401 208
38.90412 205
38.92424 214
38.94435 236
38.96447 213
38.98458 224
39.00469 203
39.02481 232
39.04492 227
39.06503 218
39.08515 246
39.10526 232
39.12538 261
39.14549 287
39.1656 288
39.18572 300
39.20583 311
39.22594 352
39.24606 370
39.26617 428
39.28628 449
39.3064 603
39.32651 763
39.34663 985
39.36674 1336
39.38685 1713
39.40697 2269
39.42708 2595
39.44719 2715
39.46731 2598
39.48742 2000
39.50754 1567
39.52765 1477
39.54776 1476
39.56788 1233
39.58799 912
39.6081 556
39.62822 352
39.64833 331
39.66845 277
39.68856 277
39.70867 248
39.72879 232
39.7489 246
39.76901 225
39.78913 221
39.80924 241
39.82935 227
39.84947 197
39.86958 201
39.8897 218
39.90981 191
39.92992 203
39.95004 206
39.97015 221
39.99026 249
40.01038 240
40.03049 245
40.05061 235
40.07072 284
40.09083 292
40.11095 308
40.13106 411
40.15117 531
40.17129 568
40.1914 778
40.21152 1002
40.23163 1162
40.25174 1419
40.27186 1402
40.29197 1339
40.31208 1015
40.3322 880
40.35231 791
40.37242 703
40.39254 674
40.41265 516
40.43277 329
40.45288 264
40.47299 238
40.49311 202
40.51322 188
40.53333 229
40.55345 200
40.57356 194
40.59368 226
40.61379 190
40.6339 188
40.65402 178
40.67413 186
40.69424 176
40.71436 198
40.73447 205
40.75458 190
40.7747 158
40.79481 158
40.81493 188
40.83504 180
40.85515 193
40.87527 200
40.89538 171
40.91549 189
40.93561 189
40.95572 195
40.97584 197
40.99595 186
41.01606 197
41.03618 178
41.05629 194
41.0764 188
41.09652 186
41.11663 207
41.13675 195
41.15686 222
41.17697 201
41.19709 192
41.2172 179
41.23731 164
41.25743 192
41.27754 198
41.29765 196
41.31777 188
41.33788 182
41.358 184
41.37811 180
41.39822 194
41.41834 172
41.43845 188
41.45856 183
41.47868 166
41.49879 181
41.51891 191
41.53902 164
41.55913 167
41.57925 167
41.59936 134
41.61947 195
41.63959 181
41.6597 173
41.67982 162
41.69993 172
41.72004 167
41.74016 185
41.76027 194
41.78038 167
41.8005 184
41.82061 209
41.84072 185
41.86084 178
41.88095 168
41.90107 176
41.92118 181
41.94129 197
41.96141 196
41.98152 192
42.00163 183
42.02175 201
42.04186 176
42.06198 202
42.08209 187
42.1022 205
42.12232 213
42.14243 232
42.16254 256
42.18266 261
42.20277 284
42.22289 335
42.243 310
42.26311 388
42.28323 445
42.30334 610
42.32345 753
42.34357 998
42.36368 1198
42.38379 1568
42.40391 1832
42.42402 2029
42.44414 1962
42.46425 1508
42.48436 1166
42.50448 1113
42.52459 1097
42.5447 1058
42.56482 773
42.58493 565
42.60505 362
42.62516 285
42.64527 285
42.66539 223
42.6855 234
42.70561 211
42.72573 195
42.74584 201
42.76595 199
42.78607 178
42.80618 176
42.8263 202
42.84641 146
42.86652 173
42.88664 181
42.90675 181
42.92686 171
42.94698 186
42.96709 151
42.98721 153
43.00732 140
43.02743 178
43.04755 176
43.06766 157
43.08777 169
43.10789 162
43.128 160
43.14812 157
43.16823 161
43.18834 165
43.20846 157
43.22857 156
43.24868 178
43.2688 177
43.28891 151
43.30902 172
43.32914 179
43.34925 180
43.36937 155
43.38948 177
43.40959 193
43.42971 146
43.44982 154
43.46993 158
43.49005 135
43.51016 164
43.53028 142
43.55039 160
43.5705 182
43.59062 154
43.61073 170
43.63084 162
43.65096 160
43.67107 161
43.69119 167
43.7113 187
43.73141 156
43.75153 157
43.77164 197
43.79175 179
43.81187 171
43.83198 164
43.85209 143
43.87221 165
43.89232 164
43.91244 130
43.93255 163
43.95266 150
43.97278 163
43.99289 149
44.013 159
44.03312 168
44.05323 165
44.07335 156
44.09346 146
44.11357 146
44.13369 160
44.1538 171
44.17391 138
44.19403 142
44.21414 153
44.23426 147
44.25437 184
44.27448 156
44.2946 166
44.31471 166
44.33482 138
44.35494 178
44.37505 156
44.39516 156
44.41528 141
44.43539 158
44.45551 163
44.47562 164
44.49573 144
44.51585 162
44.53596 159
44.55607 154
44.57619 157
44.5963 152
44.61642 146
44.63653 158
44.65664 151
44.67676 150
44.69687 141
44.71698 156
44.7371 148
44.75721 153
44.77732 154
44.79744 170
44.81755 186
44.83767 161
44.85778 162
44.87789 171
44.89801 161
44.91812 163
44.93823 168
44.95835 175
44.97846 185
44.99858 174
45.01869 171
45.0388 172
45.05892 162
45.07903 173
45.09914 171
45.11926 148
45.13937 162
45.15949 143
45.1796 181
45.19971 161
45.21983 171
45.23994 156
45.26005 189
45.28017 149
45.30028 174
45.32039 176
45.34051 158
45.36062 190
45.38074 172
45.40085 177
45.42096 191
45.44108 179
45.46119 198
45.4813 198
45.50142 231
45.52153 205
45.54165 229
45.56176 264
45.58187 312
45.60199 334
45.6221 342
45.64221 452
45.66233 556
45.68244 616
45.70256 835
45.72267 1076
45.74278 1284
45.7629 1356
45.78301 1152
45.80312 1045
45.82324 841
45.84335 759
45.86346 730
45.88358 706
45.90369 701
45.92381 513
45.94392 327
45.96403 264
45.98415 232
46.00426 194
46.02437 202
46.04449 189
46.0646 188
46.08472 154
46.10483 192
46.12494 166
46.14506 181
46.16517 184
46.18528 167
46.2054 185
46.22551 165
46.24563 161
46.26574 136
46.28585 157
46.30597 142
46.32608 130
46.34619 156
46.36631 159
46.38642 157
46.40653 179
46.42665 146
46.44676 136
46.46688 137
46.48699 153
46.5071 149
46.52722 165
46.54733 150
46.56744 134
46.58756 143
46.60767 164
46.62779 156
46.6479 147
46.66801 146
46.68813 153
46.70824 141
46.72835 150
46.74847 156
46.76858 145
46.78869 167
46.80881 146
46.82892 149
46.84904 137
46.86915 158
46.88926 127
46.90938 135
46.92949 147
46.9496 147
46.96972 130
46.98983 153
47.00995 155
47.03006 164
47.05017 173
47.07029 156
47.0904 144
47.11051 167
47.13063 158
47.15074 157
47.17086 133
47.19097 169
47.21108 147
47.2312 147
47.25131 156
47.27142 135
47.29154 161
47.31165 146
47.33176 143
47.35188 156
47.37199 158
47.39211 142
47.41222 164
47.43233 142
47.45245 142
47.47256 138
47.49267 159
47.51279 160
47.5329 155
47.55302 152
47.57313 150
47.59324 130
47.61336 127
47.63347 141
47.65358 145
47.6737 150
47.69381 136
47.71393 148
47.73404 165
47.75415 150
47.77427 156
47.79438 173
47.81449 137
47.83461 145
47.85472 159
47.87483 150
47.89495 164
47.91506 145
47.93518 135
47.95529 153
47.9754 145
47.99552 175
48.01563 172
48.03574 144
48.05586 135
48.07597 146
48.09609 129
48.1162 141
48.13631 153
48.15643 156
48.17654 158
48.19665 139
48.21677 137
48.23688 137
48.257 133
48.27711 133
48.29722 160
48.31734 163
48.33745 164
48.35756 153
48.37768 148
48.39779 167
48.4179 172
48.43802 170
48.45813 152
48.47825 176
48.49836 159
48.51847 148
48.53859 175
48.5587 169
48.57881 150
48.59893 150
48.61904 155
48.63916 157
48.65927 159
48.67938 172
48.6995 173
48.71961 170
48.73972 145
48.75984 175
48.77995 160
48.80006 166
48.82018 145
48.84029 166
48.86041 157
48.88052 164
48.90063 174
48.92075 188
48.94086 147
48.96097 148
48.98109 152
49.0012 151
49.02132 148
49.04143 151
49.06154 195
49.08166 163
49.10177 163
49.12188 168
49.142 182
49.16211 171
49.18223 161
49.20234 171
49.22245 156
49.24257 161
49.26268 185
49.28279 190
49.30291 190
49.32302 171
49.34313 175
49.36325 191
49.38336 173
49.40348 182
49.42359 185
49.4437 192
49.46382 157
49.48393 192
49.50404 218
49.52416 181
49.54427 214
49.56439 198
49.5845 213
49.60461 192
49.62473 207
49.64484 225
49.66495 198
49.68507 251
49.70518 202
49.7253 233
49.74541 240
49.76552 244
49.78564 293
49.80575 300
49.82586 351
49.84598 382
49.86609 375
49.8862 458
49.90632 525
49.92643 647
49.94655 721
49.96666 937
49.98677 1251
50.00689 1536
50.027 2147
50.04711 2663
50.06723 3294
50.08734 3847
50.10746 4397
50.12757 4053
50.14768 3279
50.1678 2587
50.18791 2084
50.20802 2076
50.22814 2187
50.24825 2082
50.26837 1788
50.28848 1347
50.30859 773
50.32871 540
50.34882 399
50.36893 320
50.38905 313
50.40916 306
50.42927 282
50.44939 270
50.4695 266
50.48962 232
50.50973 280
50.52984 250
50.54996 277
50.57007 286
50.59018 286
50.6103 255
50.63041 230
50.65053 232
50.67064 199
50.69075 192
50.71087 218
50.73098 191
50.75109 214
50.77121 204
50.79132 167
50.81143 190
50.83155 183
50.85166 203
50.87178 212
50.89189 162
50.912 140
50.93212 170
50.95223 162
50.97234 155
50.99246 175
51.01257 150
51.03269 173
51.0528 131
51.07291 153
51.09303 155
51.11314 146
51.13325 147
51.15337 145
51.17348 147
51.1936 138
51.21371 139
51.23382 145
51.25394 143
51.27405 147
51.29416 144
51.31428 144
51.33439 143
51.3545 155
51.37462 139
51.39473 134
51.41485 136
51.43496 157
51.45507 142
51.47519 158
51.4953 149
51.51541 137
51.53553 167
51.55564 135
51.57576 124
51.59587 149
51.61598 147
51.6361 145
51.65621 128
51.67632 152
51.69644 129
51.71655 152
51.73667 155
51.75678 139
51.77689 145
51.79701 149
51.81712 138
51.83723 143
51.85735 133
51.87746 131
51.89757 142
51.91769 150
51.9378 178
51.95792 141
51.97803 174
51.99814 141
52.01826 126
52.03837 136
52.05848 163
52.0786 151
52.09871 124
52.11883 137
52.13894 133
52.15905 123
52.17917 149
52.19928 138
52.21939 139
52.23951 129
52.25962 162
52.27974 126
52.29985 130
52.31996 144
52.34008 138
52.36019 144
52.3803 132
52.40042 149
52.42053 159
52.44064 120
52.46076 143
52.48087 132
52.50099 140
52.5211 149
52.54121 155
52.56133 129
52.58144 141
52.60155 131
52.62167 137
52.64178 133
52.6619 138
52.68201 130
52.70212 141
52.72224 139
52.74235 142
52.76246 146
52.78258 143
52.80269 142
52.8228 124
52.84292 137
52.86303 148
52.88315 157
52.90326 165
52.92337 167
52.94349 163
52.9636 147
52.98371 146
53.00383 143
53.02394 154
53.04406 141
53.06417 153
53.08428 148
53.1044 155
53.12451 155
53.14462 153
53.16474 148
53.18485 141
53.20497 163
53.22508 143
53.24519 149
53.26531 169
53.28542 157
53.30553 150
53.32565 148
53.34576 163
53.36587 158
53.38599 179
53.4061 146
53.42622 183
53.44633 129
53.46644 157
53.48656 164
53.50667 170
53.52678 172
53.5469 177
53.56701 147
53.58713 187
53.60724 146
53.62735 159
53.64747 153
53.66758 198
53.68769 162
53.70781 180
53.72792 170
53.74804 146
53.76815 158
53.78826 169
53.80838 182
53.82849 188
53.8486 158
53.86872 167
53.88883 169
53.90894 152
53.92906 191
53.94917 167
53.96929 170
53.9894 179
54.00951 165
54.02963 183
54.04974 153
54.06985 177
54.08997 182
54.11008 192
54.1302 209
54.15031 185
54.17042 191
54.19054 189
54.21065 204
54.23076 207
54.25088 169
54.27099 200
54.29111 182
54.31122 180
54.33133 185
54.35145 198
54.37156 208
54.39167 209
54.41179 198
54.4319 194
54.45201 182
54.47213 217
54.49224 204
54.51236 209
54.53247 234
54.55258 241
54.5727 249
54.59281 227
54.61292 266
54.63304 311
54.65315 297
54.67327 354
54.69338 435
54.71349 458
54.73361 620
54.75372 728
54.77383 862
54.79395 1055
54.81406 1188
54.83417 1294
54.85429 1211
54.8744 1030
54.89452 871
54.91463 720
54.93474 695
54.95486 693
54.97497 675
54.99508 672
55.0152 622
55.03531 510
55.05543 399
55.07554 325
55.09565 319
55.11577 298
55.13588 300
55.15599 313
55.17611 324
55.19622 364
55.21634 422
55.23645 514
55.25656 529
55.27668 611
55.29679 639
55.3169 602
55.33702 528
55.35713 438
55.37724 365
55.39736 393
55.41747 407
55.43759 413
55.4577 415
55.47781 320
55.49793 252
55.51804 210
55.53815 212
55.55827 212
55.57838 210
55.5985 171
55.61861 187
55.63872 143
55.65884 162
55.67895 164
55.69906 144
55.71918 168
55.73929 174
55.75941 169
55.77952 139
55.79963 155
55.81975 151
55.83986 157
55.85997 140
55.88009 166
55.9002 161
55.92031 132
55.94043 138
55.96054 140
55.98066 139
56.00077 141
56.02088 141
56.041 129
56.06111 135
56.08122 166
56.10134 157
56.12145 134
56.14157 136
56.16168 151
56.18179 155
56.20191 155
56.22202 157
56.24213 165
56.26225 149
56.28236 156
56.30248 148
56.32259 162
56.3427 164
56.36282 148
56.38293 141
56.40304 126
56.42316 157
56.44327 144
56.46338 171
56.4835 144
56.50361 152
56.52373 132
56.54384 134
56.56395 148
56.58407 167
56.60418 139
56.62429 161
56.64441 129
56.66452 149
56.68464 141
56.70475 149
56.72486 145
56.74498 144
56.76509 133
56.7852 128
56.80532 170
56.82543 150
56.84554 159
56.86566 133
56.88577 139
56.90589 130
56.926 150
56.94611 134
56.96623 178
56.98634 138
57.00645 143
57.02657 152
57.04668 137
57.0668 152
57.08691 198
57.10702 177
57.12714 163
57.14725 185
57.16736 199
57.18748 215
57.20759 199
57.22771 197
57.24782 192
57.26793 170
57.28805 187
57.30816 159
57.32827 173
57.34839 162
57.3685 174
57.38861 184
57.40873 153
57.42884 158
57.44896 161
57.46907 162
57.48918 151
57.5093 156
57.52941 131
57.54952 146
57.56964 124
57.58975 136
57.60987 152
57.62998 155
57.65009 165
57.67021 149
57.69032 142
57.71043 125
57.73055 145
57.75066 148
57.77078 131
57.79089 164
57.811 139
57.83112 153
57.85123 154
57.87134 166
57.89146 137
57.91157 153
57.93168 148
57.9518 143
57.97191 145
57.99203 143
58.01214 144
58.03225 144
58.05237 144
58.07248 163
58.09259 139
58.11271 151
58.13282 149
58.15294 142
58.17305 120
58.19316 162
58.21328 127
58.23339 149
58.2535 155
58.27362 140
58.29373 153
58.31385 145
58.33396 147
58.35407 160
58.37419 149
58.3943 143
58.41441 124
58.43453 132
58.45464 140
58.47475 150
58.49487 128
58.51498 135
58.5351 150
58.55521 166
58.57532 156
58.59544 181
58.61555 176
58.63566 154
58.65578 153
58.67589 117
58.69601 168
58.71612 142
58.73623 129
58.75635 132
58.77646 130
58.79657 158
58.81669 142
58.8368 131
58.85691 149
58.87703 158
58.89714 148
58.91726 140
58.93737 135
58.95748 159
58.9776 134
58.99771 144
59.01782 132
59.03794 127
59.05805 156
59.07817 163
59.09828 125
59.11839 141
59.13851 156
59.15862 153
59.17873 134
59.19885 166
59.21896 143
59.23908 156
59.25919 148
59.2793 166
59.29942 158
59.31953 143
59.33964 160
59.35976 178
59.37987 160
59.39998 167
59.4201 171
59.44021 172
59.46033 213
59.48044 194
59.50055 184
59.52067 214
59.54078 198
59.56089 229
59.58101 245
59.60112 255
59.62124 272
59.64135 300
59.66146 325
59.68158 372
59.70169 407
59.7218 449
59.74192 546
59.76203 629
59.78215 823
59.80226 934
59.82237 1244
59.84249 1566
59.8626 1851
59.88271 2252
59.90283 2510
59.92294 2569
59.94305 2374
59.96317 1989
59.98328 1532
60.0034 1229
60.02351 1243
60.04362 1273
60.06374 1356
60.08385 1408
60.10396 1230
60.12408 997
60.14419 691
60.16431 471
60.18442 358
60.20453 324
60.22465 262
60.24476 231
60.26487 221
60.28499 206
60.3051 207
60.32522 208
60.34533 187
60.36544 186
60.38556 178
60.40567 166
60.42578 164
60.4459 156
60.46601 157
60.48612 174
60.50624 148
60.52635 165
60.54647 139
60.56658 131
60.58669 153
60.60681 142
60.62692 147
60.64703 163
60.66715 134
60.68726 147
60.70738 158
60.72749 146
60.7476 149
60.76772 144
60.78783 152
60.80794 146
60.82806 148
60.84817 163
60.86828 137
60.8884 160
60.90851 145
60.92863 120
60.94874 152
60.96885 143
60.98897 150
61.00908 124
61.02919 143
61.04931 144
61.06942 148
61.08954 145
61.10965 149
61.12976 121
61.14988 120
61.16999 150
61.1901 157
61.21022 132
61.23033 157
61.25045 139
61.27056 123
61.29067 142
61.31079 136
61.3309 153
61.35101 128
61.37113 160
61.39124 115
61.41135 130
61.43147 136
61.45158 137
61.4717 143
61.49181 149
61.51192 126
61.53204 148
61.55215 153
61.57226 160
61.59238 135
61.61249 144
61.63261 136
61.65272 158
61.67283 144
61.69295 155
61.71306 162
61.73317 164
61.75329 147
61.7734 139
61.79352 142
61.81363 121
61.83374 126
61.85386 137
61.87397 128
61.89408 147
61.9142 136
61.93431 155
61.95442 168
61.97454 147
61.99465 142
62.01477 159
62.03488 180
62.05499 151
62.07511 157
62.09522 172
62.11533 167
62.13545 149
62.15556 161
62.17568 175
62.19579 179
62.2159 184
62.23602 175
62.25613 176
62.27624 159
62.29636 168
62.31647 172
62.33659 156
62.3567 191
62.37681 172
62.39693 147
62.41704 168
62.43715 164
62.45727 162
62.47738 161
62.49749 185
62.51761 143
62.53772 167
62.55784 152
62.57795 148
62.59806 142
62.61818 153
62.63829 131
62.6584 175
62.67852 145
62.69863 165
62.71875 150
62.73886 145
62.75897 132
62.77909 159
62.7992 150
62.81931 144
62.83943 156
62.85954 170
62.87965 143
62.89977 135
62.91988 137
62.94 132
62.96011 166
62.98022 132
63.00034 145
63.02045 133
63.04056 154
63.06068 144
63.08079 141
63.10091 144
63.12102 117
63.14113 144
63.16125 161
63.18136 141
63.20147 149
63.22159 156
63.2417 162
63.26182 134
63.28193 137
63.30204 156
63.32216 140
63.34227 164
63.36238 131
63.3825 134
63.40261 138
63.42272 143
63.44284 152
63.46295 165
63.48307 126
63.50318 140
63.52329 145
63.54341 153
63.56352 150
63.58363 152
63.60375 148
63.62386 153
63.64398 163
63.66409 162
63.6842 161
63.70432 160
63.72443 158
63.74454 187
63.76466 153
63.78477 197
63.80489 210
63.825 199
63.84511 226
63.86523 274
63.88534 299
63.90545 345
63.92557 429
63.94568 491
63.96579 540
63.98591 550
64.00602 574
64.02614 538
64.04625 492
64.06636 332
64.08648 307
64.10659 337
64.1267 303
64.14682 358
64.16693 337
64.18705 355
64.20716 305
64.22727 240
64.24739 216
64.2675 173
64.28761 175
64.30773 176
64.32784 154
64.34796 138
64.36807 154
64.38818 142
64.4083 144
64.42841 135
64.44852 163
64.46864 152
64.48875 120
64.50886 135
64.52898 115
64.54909 147
64.56921 137
64.58932 132
64.60943 161
64.62955 127
64.64966 158
64.66977 123
64.68989 137
64.71 106
64.73012 120
64.75023 139
64.77034 121
64.79046 122
64.81057 137
64.83068 129
64.8508 117
64.87091 115
64.89102 134
64.91114 135
64.93125 137
64.95137 134
64.97148 126
64.99159 131
65.01171 134
65.03182 128
65.05193 131
65.07205 124
65.09216 148
65.11228 142
65.13239 117
65.1525 126
65.17262 130
65.19273 117
65.21284 118
65.23296 151
65.25307 141
65.27319 139
65.2933 135
65.31341 141
65.33353 139
65.35364 132
65.37375 145
65.39387 123
65.41398 137
65.43409 133
65.45421 143
65.47432 123
65.49444 147
65.51455 141
65.53466 130
65.55478 153
65.57489 143
65.595 158
65.61512 164
65.63523 191
65.65535 194
65.67546 203
65.69557 215
65.71569 245
65.7358 251
65.75591 254
65.77603 200
65.79614 203
65.81626 171
65.83637 177
65.85648 183
65.8766 168
65.89671 199
65.91682 184
65.93694 193
65.95705 181
65.97716 177
65.99728 151
66.01739 145
66.03751 138
66.05762 146
66.07773 146
66.09785 148
66.11796 147
66.13807 139
66.15819 102
66.1783 142
66.19842 157
66.21853 113
66.23864 150
66.25876 152
66.27887 161
66.29898 129
66.3191 146
66.33921 148
66.35933 137
66.37944 138
66.39955 125
66.41967 143
66.43978 137
66.45989 151
66.48001 126
66.50012 139
66.52023 144
66.54035 118
66.56046 128
66.58058 154
66.60069 136
66.6208 130
66.64092 151
66.66103 149
66.68114 132
66.70126 142
66.72137 156
66.74149 132
66.7616 134
66.78171 138
66.80183 136
66.82194 132
66.84205 123
66.86217 121
66.88228 156
66.90239 135
66.92251 149
66.94262 138
66.96274 165
66.98285 161
67.00296 142
67.02308 163
67.04319 168
67.0633 136
67.08342 149
67.10353 178
67.12365 168
67.14376 174
67.16387 171
67.18399 152
67.2041 174
67.22421 190
67.24433 186
67.26444 176
67.28456 189
67.30467 174
67.32478 194
67.3449 198
67.36501 207
67.38512 217
67.40524 215
67.42535 246
67.44546 270
67.46558 281
67.48569 300
67.50581 362
67.52592 414
67.54603 441
67.56615 551
67.58626 649
67.60637 785
67.62649 969
67.6466 1070
67.66672 1347
67.68683 1450
67.70694 1466
67.72706 1419
67.74717 1168
67.76728 920
67.7874 782
67.80751 725
67.82763 754
67.84774 845
67.86785 934
67.88797 999
67.90808 990
67.92819 974
67.94831 904
67.96842 913
67.98853 938
68.00865 1087
68.02876 1289
68.04888 1466
68.06899 1672
68.0891 1866
68.10922 2025
68.12933 1857
68.14944 1724
68.16956 1487
68.18967 1358
68.20979 1445
68.2299 1545
68.25001 1709
68.27013 1799
68.29024 1723
68.31035 1642
68.33047 1393
68.35058 1049
68.3707 821
68.39081 672
68.41092 697
68.43104 683
68.45115 674
68.47126 626
68.49138 566
68.51149 487
68.5316 402
68.55172 314
68.57183 252
68.59195 261
68.61206 218
68.63217 180
68.65229 196
68.6724 183
68.69251 196
68.71263 193
68.73274 184
68.75286 169
68.77297 169
68.79308 165
68.8132 155
68.83331 151
68.85342 175
68.87354 149
68.89365 150
68.91376 150
68.93388 158
68.95399 128
68.97411 137
68.99422 154
69.01433 162
69.03445 139
69.05456 161
69.07467 165
69.09479 134
69.1149 154
69.13502 136
69.15513 127
69.17524 135
69.19536 143
69.21547 123
69.23558 151
69.2557 133
69.27581 136
69.29593 162
69.31604 144
69.33615 115
69.35627 124
69.37638 128
69.39649 111
69.41661 141
69.43672 131
69.45683 131
69.47695 127
69.49706 137
69.51718 148
69.53729 176
69.5574 132
69.57752 133
69.59763 137
69.61774 145
69.63786 146
69.65797 129
69.67809 129
69.6982 125
69.71831 138
69.73843 142
69.75854 126
69.77865 115
69.79877 129
69.81888 132
69.839 132
69.85911 117
69.87922 129
69.89934 123
69.91945 153
69.93956 128
69.95968 122
69.97979 119
69.9999 126
70.02002 122
70.04013 132
70.06025 123
70.08036 115
70.10047 128
70.12059 132
70.1407 136
70.16081 136
70.18093 137
70.20104 140
70.22116 133
70.24127 134
70.26138 109
70.2815 142
70.30161 131
70.32172 110
70.34184 139
70.36195 115
70.38207 134
70.40218 119
70.42229 113
70.44241 119
70.46252 121
70.48263 128
70.50275 139
70.52286 131
70.54297 126
70.56309 125
70.5832 150
70.60332 120
70.62343 115
70.64354 121
70.66366 121
70.68377 129
70.70388 106
70.724 123
70.74411 138
70.76423 127
70.78434 115
70.80445 126
70.82457 109
70.84468 118
70.86479 115
70.88491 113
70.90502 131
70.92513 122
70.94525 106
70.96536 124
70.98548 103
71.00559 116
71.0257 114
71.04582 109
71.06593 131
71.08604 106
71.10616 118
71.12627 131
71.14639 117
71.1665 141
71.18661 125
71.20673 96
71.22684 126
71.24695 134
71.26707 113
71.28718 116
71.3073 130
71.32741 112
71.34752 117
71.36764 120
71.38775 129
71.40786 123
71.42798 123
71.44809 123
71.4682 138
71.48832 132
71.50843 137
71.52855 114
71.54866 136
71.56877 141
71.58889 110
71.609 128
71.62911 135
71.64923 125
71.66934 131
71.68946 105
71.70957 144
71.72968 130
71.7498 130
71.76991 115
71.79002 132
71.81014 132
71.83025 135
71.85037 127
71.87048 111
71.89059 134
71.91071 135
71.93082 131
71.95093 131
71.97105 105
71.99116 137
72.01127 112
72.03139 135
72.0515 123
72.07162 112
72.09173 138
72.11184 117
72.13196 138
72.15207 135
72.17218 149
72.1923 144
72.21241 129
72.23253 135
72.25264 117
72.27275 119
72.29287 114
72.31298 124
72.33309 119
72.35321 130
72.37332 114
72.39344 115
72.41355 122
72.43366 130
72.45378 127
72.47389 129
72.494 133
72.51412 128
72.53423 106
72.55434 122
72.57446 107
72.59457 127
72.61469 123
72.6348 117
72.65491 114
72.67503 119
72.69514 117
72.71525 139
72.73537 121
72.75548 139
72.7756 140
72.79571 111
72.81582 122
72.83594 106
72.85605 133
72.87616 133
72.89628 132
72.91639 129
72.9365 117
72.95662 154
72.97673 146
72.99685 136
73.01696 153
73.03707 142
73.05719 128
73.0773 137
73.09741 137
73.11753 163
73.13764 135
73.15776 146
73.17787 166
73.19798 171
73.2181 188
73.23821 187
73.25832 210
73.27844 238
73.29855 256
73.31867 345
73.33878 397
73.35889 432
73.37901 504
73.39912 521
73.41923 494
73.43935 572
73.45946 524
73.47957 437
73.49969 360
73.5198 342
73.53992 276
73.56003 260
73.58014 308
73.60026 302
73.62037 330
73.64048 341
73.6606 321
73.68071 298
73.70083 265
73.72094 182
73.74105 164
73.76117 160
73.78128 170
73.80139 150
73.82151 137
73.84162 148
73.86174 130
73.88185 123
73.90196 118
73.92208 143
73.94219 133
73.9623 137
73.98242 123
74.00253 127
74.02264 137
74.04276 125
74.06287 128
74.08299 112
74.1031 131
74.12321 127
74.14333 149
74.16344 117
74.18355 126
74.20367 119
74.22378 123
74.2439 124
74.26401 121
74.28412 124
74.30424 113
74.32435 115
74.34446 127
74.36458 103
74.38469 112
74.40481 111
74.42492 107
74.44503 109
74.46515 130
74.48526 124
74.50537 136
74.52549 113
74.5456 121
74.56571 118
74.58583 123
74.60594 123
74.62606 108
74.64617 143
74.66628 146
74.6864 107
74.70651 105
74.72662 137
74.74674 107
74.76685 125
74.78697 116
74.80708 121
74.82719 122
74.84731 130
74.86742 123
74.88753 116
74.90765 134
74.92776 139
74.94787 119
74.96799 136
74.9881 140
75.00822 102
