3.00117 23862.8973047947
3.02128 23574.0015332022
3.0414 22376
3.06151 22445.8125983725
3.08162 21414.1254861931
3.10174 21113.798905208
3.12185 20740.8352964943
3.14197 19901.8660113148
3.16208 19555.4928475973
3.18219 18797.3728674214
3.20231 18305.8737548593
3.22242 17990.3494061022
3.24253 17184.2611224324
3.26265 16972.968460881
3.28276 16159.8263867471
3.30288 15600.0269968778
3.32299 15593.3339372358
3.3431 14516
3.36322 14642.9731674021
3.38333 14016.7287301288
3.40344 13498.0005451442
3.42356 13570.9745795764
3.44367 12627.9731725885
3.46379 12498.0605585668
3.4839 12116
3.50401 11852.8832898823
3.52413 11456.0377912551
3.54424 10809.3703234751
3.56435 10731.6555136747
3.58447 10157.8708183856
3.60458 9821.13240875222
3.62469 9655.19459105177
3.64481 9096.76438905131
3.66492 8865.91977324291
3.68504 8683.11771562755
3.70515 8148.25655914882
3.72526 8045.54454821253
3.74538 7568.3438033205
3.76549 7445.07210479246
3.7856 7129
3.80572 6816.82887410135
3.82583 6625.35929845917
3.84595 6122.51803998918
3.86606 6239.90416964112
3.88617 5994.57401255984
3.90629 5738.007553171
3.9264 5716
3.94651 5057.76764851843
3.96663 4992.12935375068
3.98674 4923.43794495766
4.00686 4601.25262552791
4.02697 4577.36864101939
4.04708 4116.33644460246
4.0672 4074
4.08731 4042.88088156715
4.10742 3766.94737796955
4.12754 3805.48332967045
4.14765 3339.47044026981
4.16776 3469.97806605767
4.18788 3183.3190312198
4.20799 3062.97481977606
4.22811 3082.90919508063
4.24822 2789.86075511126
4.26833 2881.20529161619
4.28845 2863.5295574907
4.30856 2648.15641676773
4.32867 2637.26125745607
4.34879 2359.04313530852
4.3689 2498
4.38902 2394.77763706238
4.40913 2269.15347206008
4.42924 2384.56802367388
4.44936 1972.24364601066
4.46947 2195.78649713349
4.48958 2071.15071792815
4.5097 2064
4.52981 2069.94089159929
4.54992 1884.87193104756
4.57004 1866.04419295247
4.59015 1850.16079074919
4.61027 1809.89770962202
4.63038 1902.05391961216
4.65049 1707.07955844335
4.67061 1708.05560408219
4.69072 1787.95587671157
4.71083 1665.90907118301
4.73095 1667.82210856461
4.75106 1517.19679052599
4.77118 1532.93705124793
4.79129 1558.01562756806
4.8114 1504
4.83152 1524.02708103776
4.85163 1502.86916103486
4.87174 1394.87285881619
4.89186 1389.99091446909
4.91197 1365.06560104666
4.93209 1325.01176072743
4.9522 1320
4.97231 1307.97947568952
4.99243 1251.93660866601
5.01254 1234.98478922259
5.03265 1232.96009435742
5.05277 1253.99938923159
5.07288 1221.05320531133
5.09299 1174.01315514384
5.11311 1151.97619374142
5.13322 1104.0077874263
5.15334 1148.0094205013
5.17345 1096.87958025063
5.19356 1097.92256899866
5.21368 1109.07068063177
5.23379 998.027044209304
5.2539 1014
5.27402 987.008140986947
5.29413 1046.0900011641
5.31425 1058.91620373002
5.33436 1020.00681933237
5.35447 1015.12557202744
5.37459 900.009634312185
5.3947 986
5.41481 955.945116916547
5.43493 864.001510781205
5.45504 922.009775311939
5.47516 860.064128646983
5.49527 904.890685837298
5.51538 928.056473565088
5.5355 822
5.55561 807.036275734164
5.57572 880.980195944745
5.59584 807.012779322623
5.61595 865.13311982282
5.63606 732.033951237605
5.65618 841.949054316534
5.67629 768.039525071689
5.69641 759.008750564256
5.71652 775.029879889162
5.73663 793.951143042921
5.75675 732.936898793275
5.77686 754.965490196182
5.79697 738.043172938099
5.81709 717.00775560432
5.8372 704
5.85732 700.007527370746
5.87743 697.943961006904
5.89754 656.020869149902
5.91766 710.931969632439
5.93777 707.987556660263
5.95788 737.986732226648
5.978 712
5.99811 675.999464800472
6.01823 692.995331463582
6.03834 677.032681383438
6.05845 707.051192377404
6.07857 644.049226304538
6.09868 658.991800928961
6.11879 645.99697340027
6.13891 664.992701064317
6.15902 612.953690468882
6.17913 610.05378859739
6.19925 654.063506274367
6.21936 660.971140377818
6.23948 685.987877343635
6.25959 664.026936957963
6.2797 614
6.29982 618.965292924829
6.31993 574.04611245324
6.34004 655.039452965015
6.36016 599.069390337824
6.38027 622.964361103793
6.40039 624.991319002345
6.4205 653
6.44061 618.989708463965
6.46073 619.981305686438
6.48084 592.985336466244
6.50095 598.059240208888
6.52107 562.980825810689
6.54118 613.980037052714
6.56129 577.025310395972
6.58141 557.006214488546
6.60152 584.021829073641
6.62164 589.997368508685
6.64175 585.973409351418
6.66186 574.007615167885
6.68198 598.935279083529
6.70209 651.012696559272
6.7222 580
6.74232 619.008360415317
6.76243 570.938435490508
6.78255 577.076851073504
6.80266 586.074042795626
6.82277 544.967432490943
6.84289 613.983407615373
6.863 580
6.88311 576.026599900409
6.90323 632.992933398678
6.92334 564.864430835746
6.94346 553.919798849321
6.96357 601.972875261858
6.98368 578.040489004347
7.0038 553
7.02391 569.011466467055
7.04402 583.000123705933
7.06414 578.00681042368
7.08425 577.078633701488
7.10436 545.946008455152
7.12448 599.011481646594
7.14459 532.011273689123
7.16471 583.026872328488
7.18482 597.001408343538
7.20493 601.996003513072
7.22505 580.903369029047
7.24516 546.019155609839
7.26527 566.946732809865
7.28539 581.01402218986
7.3055 529
7.32562 532.028381336325
7.34573 567.054882436531
7.36584 580.942808462315
7.38596 560.88061493412
7.40607 645.028593332382
7.42618 544.033333703032
7.4463 607
7.46641 563.969525374394
7.48653 531.972331282236
7.50664 526.04278360397
7.52675 557.974321317638
7.54687 542.022325891466
7.56698 551.968700145887
7.58709 575.005945537839
7.60721 536.985807217406
7.62732 540.021079850726
7.64743 563.032569755781
7.66755 569.953775678972
7.68766 536.056171912335
7.70778 532.979301841704
7.72789 551.005022783639
7.748 535
7.76812 587.01528527109
7.78823 562.994943685778
7.80834 586.99684447209
7.82846 542.10501299657
7.84857 536.906028016119
7.86869 606.003770627056
7.8888 552
7.90891 615.993730796835
7.92903 517.904008314935
7.94914 537.066783474861
7.96925 544.972765750224
7.98937 565.98609700555
8.00948 558.009057074517
8.0296 559
8.04971 567.00584722685
8.06982 570.982966043722
8.08994 547.999385088545
8.11005 561.979056098941
8.13016 526.063165049569
8.15028 523.978461875862
8.17039 555.982578037461
8.1905 572
8.21062 548.011911686801
8.23073 576.977606840311
8.25085 514.87229925772
8.27096 518.907640275901
8.29107 557.012178641553
8.31119 518.008142548187
8.3313 543
8.35141 555.000461582909
8.37153 542.947214442495
8.39164 513.028857828023
8.41176 559.944277092113
8.43187 557.987915598223
8.45198 575.015396937615
8.4721 525
8.49221 522.018155421214
8.51232 562.009972729999
8.53244 553.032480989571
8.55255 601.890024724677
8.57266 602.092433297628
8.59278 554.999026767325
8.61289 596.986426102151
8.63301 575.97658201957
8.65312 540.993102557133
8.67323 554.013326996178
8.69335 556.040247270944
8.71346 577.009383002056
8.73357 560.973872438087
8.75369 586.019202197065
8.7738 517
8.79392 596.048163427596
8.81403 572.953578250357
8.83414 575.02622806694
8.85426 579.007190548475
8.87437 571.016101255417
8.89448 561.007185139303
8.9146 561
8.93471 574.003775968154
8.95483 570.985004400656
8.97494 552.939377211829
8.99505 523.029351379393
9.01517 533.968806028111
9.03528 552.981961880912
9.05539 557.012133451871
9.07551 536.014207454174
9.09562 584.994271348613
9.11573 521.928558165253
9.13585 530.081086693978
9.15596 543.038862050198
9.17608 511.011554572304
9.19619 528.988127124056
9.2163 541
9.23642 538.981663742444
9.25653 520.006787462476
9.27664 535.982838438707
9.29676 516.958325593375
9.31687 549.05377321662
9.33699 469.010054854122
9.3571 531
9.37721 534.983615424663
9.39733 520.053826168372
9.41744 571.999868694784
9.43755 528.028969934773
9.45767 558.988564540029
9.47778 531.009760044716
9.4979 543
9.51801 498.990096466429
9.53812 516.015238270075
9.55824 520.04302085233
9.57835 543.956045542804
9.59846 504.99184845652
9.61858 536.02242087425
9.63869 469.010801527786
9.6588 514
9.67892 523.010660471452
9.69903 551.037340150594
9.71915 543.880571967582
9.73926 495.0014393403
9.75937 526.003929962372
9.77949 487.006164413821
9.7996 509
9.81971 497.018777841571
9.83983 572.055099497892
9.85994 543.910512479323
9.88006 521.019481662217
9.90017 512.017126468323
9.92028 507.983402083169
9.9404 537
9.96051 537.997407919119
9.98062 537.001222174708
10.00074 543.030504326444
10.02085 545.095430593586
10.04097 491.026381316606
10.06108 525.948533013847
10.08119 552.003113564124
10.10131 527.989759823391
10.12142 516.983718660512
10.14153 496.989566273647
10.16165 497.968642752733
10.18176 483.963461973135
10.20187 525.965402629904
10.22199 517.005900361259
10.2421 527
10.26222 551.004597964962
10.28233 532.958331314679
10.30244 517.010134692291
10.32256 529.008872148616
10.34267 516.981111740329
10.36278 540.013274090268
10.3829 499
10.40301 534.023682709855
10.42313 563.021758171246
10.44324 554.91426747716
10.46335 514.965364397377
10.48347 557.009618598515
10.50358 493.053468915132
10.52369 495.980965809592
10.54381 528.002772634232
10.56392 510.984452692477
10.58403 513.017922655813
10.60415 516.964079915598
10.62426 493.028037797651
10.64438 506.959235192068
10.66449 545.99548150511
10.6846 533
10.70472 544.984789261237
10.72483 505.968930514349
10.74494 517.029447314847
10.76506 501.105535327065
10.78517 462.947088837731
10.80529 549.971352133911
10.8254 532
10.84551 500.01370484173
10.86563 543.976943835554
10.88574 496.043434676518
10.90585 571.970705703805
10.92597 506.058228622741
10.94608 533.970144013471
10.9662 534
10.98631 544.99544740595
11.00642 527.01246799923
11.02654 546.930448789108
11.04665 488.966567013447
11.06676 573.876157393248
11.08688 571.015803294025
11.10699 566.011244892069
11.1271 522
11.14722 499.987312943683
11.16733 508.07425495065
11.18745 571.066936922314
11.20756 540.121887939831
11.22767 497.005591451751
11.24779 532.972696586283
11.2679 553
11.28801 501.020225609946
11.30813 590.998923774563
11.32824 515.006798287753
11.34836 601.961098401453
11.36847 528.064211121098
11.38858 559.974001389594
11.4087 542
11.42881 538.994259301955
11.44892 537.050312095019
11.46904 601.996725107884
11.48915 547.034435465561
11.50927 576.031216575991
11.52938 511.010083253383
11.54949 564.986015871322
11.56961 559.020817516002
11.58972 651.062414486709
11.60983 626.866893157447
11.62995 555.014866453679
11.65006 606.989253699091
11.67017 555.041419493634
11.69029 576.9923982924
11.7104 571
11.73052 611.028159093846
11.75063 623.04190734192
11.77074 662.024878981278
11.79086 646.018007161677
11.81097 664.951225463492
11.83108 675.03450859044
11.8512 625
11.87131 658.019144554309
11.89143 670.996547497435
11.91154 668.001472878172
11.93165 677.949768959729
11.95177 692.014385827275
11.97188 658.041224442969
11.99199 650.97395887893
12.01211 713.999907791043
12.03222 652.954403046236
12.05234 675.132979752423
12.07245 744.12862482582
12.09256 774.948799025412
12.11268 791.014083445213
12.13279 757.01141969559
12.1529 756
12.17302 746.989251995579
12.19313 729.946642437644
12.21324 722.157034126724
12.23336 835.926017644064
12.25347 786.054673003248
12.27359 799.000955229218
12.2937 775
12.31381 817.005331688371
12.33393 780.945846958111
12.35404 781.053085841995
12.37415 804.996400140708
12.39427 780.053113027496
12.41438 748.029881384639
12.4345 736
12.45461 756.981181261237
12.47472 676.950723244406
12.49484 667.938514757316
12.51495 619.994073672099
12.53506 677.897578173505
12.55518 667.066613592823
12.57529 603.004179160884
12.5954 642
12.61552 632.996883403623
12.63563 627.918187018163
12.65575 555.978135558362
12.67586 597.005572029014
12.69597 551.988175972033
12.71609 604.004188161107
12.7362 529
12.75631 554.015443582866
12.77643 547.963978630133
12.79654 529.987076676537
12.81666 528.019440814246
12.83677 495.088452606945
12.85688 464.942396466378
12.877 560
12.89711 501.982286780874
12.91722 527.021331651827
12.93734 512.965573144815
12.95745 508.022628038218
12.97757 497.986774078398
12.99768 526.969663258098
13.01779 534.011336645541
13.03791 511.006359601471
13.05802 528.956904620358
13.07813 448.9614994375
13.09825 487.052206074457
13.11836 463.032206461377
13.13847 472.997393601555
13.15859 466.989401931663
13.1787 513
13.19882 502.954925439192
13.21893 460.988361419179
13.23904 481.021411949628
13.25916 478.962902325817
13.27927 511.988733271737
13.29938 490.015518563637
13.3195 487
13.33961 459.001755893652
13.35973 501.071969547335
13.37984 512.931063403406
13.39995 467.028309204223
13.42007 493.965070197496
13.44018 506.962406678371
13.46029 539.019716717012
13.48041 453.9811066443
13.50052 485.029659374926
13.52064 479.993245922617
13.54075 505.109509115656
13.56086 554.897139902521
13.58098 583.017331210951
13.60109 552.993926636648
13.6212 598
13.64132 562.964121995916
13.66143 560.0253161209
13.68154 560.924725373817
13.70166 513.012545488742
13.72177 543.981392257524
13.74189 522.008123534967
13.762 525
13.78211 504.990970847998
13.80223 501.007122901478
13.82234 506.004133397632
13.84245 504.010108454565
13.86257 500.005679218634
13.88268 480.052406852326
13.9028 433
13.92291 484.004952401673
13.94302 443.979460067969
13.96314 466.037436514114
13.98325 450.090570830362
14.00336 423.998187692636
14.02348 450.964731718026
14.04359 477.990415939811
14.06371 478.985822079927
14.08382 439.980794640487
14.10393 444.001249262171
14.12405 440.039644403362
14.14416 465.997367757923
14.16427 433.063210086355
14.18439 415.991003567224
14.2045 451
14.22461 442.983710551822
14.24473 410.980717799781
14.26484 420.031074051507
14.28496 435.949818785112
14.30507 463.977232942221
14.32518 457.022974348837
14.3453 424
14.36541 401.013133603872
14.38552 460.045092791518
14.40564 452.896627285313
14.42575 415.92402296637
14.44587 485.956960144128
14.46598 450.043293152851
14.48609 425.018802158322
14.50621 398.019292158046
14.52632 472.023692162544
14.54643 432.956155081932
14.56655 451.077101643136
14.58666 468.973854369049
14.60677 472.031078457024
14.62689 450.991874542158
14.647 478
14.66712 409.967300724166
14.68723 436.048395217022
14.70734 425.902347068452
14.72746 377.025336034091
14.74757 401.957484463059
14.76768 419.972338106779
14.7878 454
14.80791 442.988164887216
14.82803 428.001421138914
14.84814 435.998146916043
14.86825 427.99308237349
14.88837 453.934750732725
14.90848 470.051429055358
14.92859 399.000815988036
14.94871 460.013918213694
14.96882 430.985561021931
14.98894 454.024337466977
15.00905 440.988342494946
15.02916 461.939686176947
15.04928 472.023567581317
15.06939 431.01412234081
15.0895 450
15.10962 504.965609654077
15.12973 416.951725842603
15.14984 472.130596729909
15.16996 489.028522846702
15.19007 473.008462971302
15.21019 481.992085723033
15.2303 482
15.25041 448.003036491303
15.27053 475.982976944788
15.29064 440.030273657004
15.31075 500.93739658406
15.33087 468.047825787085
15.35098 465.005003019967
15.3711 446
15.39121 443.998638836495
15.41132 445.021649054263
15.43144 464.957591921417
15.45155 418.04286456543
15.47166 445.933487942925
15.49178 444.038167412111
15.51189 398.01183984071
15.53201 419.029104108586
15.55212 466.996760088915
15.57223 445.048305276822
15.59235 502.955287670665
15.61246 408.141274607461
15.63257 418.924562303622
15.65269 453.996712801377
15.6728 438
15.69291 432.003464899413
15.71303 452.050858004494
15.73314 469.941644103486
15.75326 416.048464460977
15.77337 438.948995094375
15.79348 447.019232171065
15.8136 427
15.83371 449.999582953872
15.85382 430.004979974953
15.87394 461.027747029223
15.89405 459.928003011074
15.91417 482.099902341398
15.93428 367.039370082069
15.95439 424.973274325215
15.97451 430.006834989728
15.99462 465.011387419726
16.01473 437.946681859444
16.03485 420.998858563085
16.05496 425.996794824346
16.07508 421.005960933933
16.09519 424.990374170988
16.1153 441
16.13542 417.002481459105
16.15553 449.038311475193
16.17564 450.993375325508
16.19576 456.977054287045
16.21587 459.028078491201
16.23598 426.028968372222
16.2561 423
16.27621 458.008041905359
16.29633 446.970209558756
16.31644 439.013415647096
16.33655 437.091441590497
16.35667 396.978365047349
16.37678 450.979736689577
16.39689 414.022247528664
16.41701 409.016192059315
16.43712 443.001509411031
16.45724 417.976607042594
16.47735 426.994403252754
16.49746 412.988553092154
16.51758 435.993790223964
16.53769 427.992857885477
16.5578 457
16.57792 421.970727469084
16.59803 427.042694285686
16.61814 452.010043988914
16.63826 435.049040738615
16.65837 418.012430771316
16.67849 425.984640991829
16.6986 457
16.71871 432.99157085333
16.73883 444.040428087165
16.75894 460.985200588791
16.77905 444.98591912538
16.79917 469.98243697826
16.81928 452.031430018014
16.8394 441
16.85951 485.009947105166
16.87962 461.955479726025
16.89974 429.98810316115
16.91985 433.045138475542
16.93996 407.974756814978
16.96008 449.982133484618
16.98019 439.994228610059
17.00031 470.999271495282
17.02042 433.976233936422
17.04053 432.974815034027
17.06065 414.078037815759
17.08076 470.989603165122
17.10087 432.993536782208
17.12099 486.98756242578
17.1411 457
17.16121 447.99366163316
17.18133 426.989939269882
17.20144 444.055527352009
17.22156 461.006001459268
17.24167 429.090994977422
17.26178 397.942322480244
17.2819 493
17.30201 426.973490218208
17.32212 436.021659658318
17.34224 435.986344973286
17.36235 433.008154864236
17.38247 421.037189504177
17.40258 402.987059840479
17.42269 435.991179716993
17.44281 437.009030375962
17.46292 469.008690098286
17.48303 446.965287050071
17.50315 445.030905770671
17.52326 460.969329541911
17.54338 477.975413953349
17.56349 491.01207096539
17.5836 446
17.60372 444.980520501626
17.62383 408.986151783533
17.64394 433.041728700443
17.66406 435.98746845356
17.68417 447.006418334692
17.70428 437.983075121977
17.7244 469
17.74451 428.973923406229
17.76463 408.03685094886
17.78474 452.045565309142
17.80485 452.954045207485
17.82497 483.006107737077
17.84508 443.031664160564
17.86519 444.991395559516
17.88531 463.011244464984
17.90542 488.021202296353
17.92554 484.916466814822
17.94565 440.005973392904
17.96576 486.924035336143
17.98588 483.02622893583
18.00599 448.02467080415
18.0261 421
18.04622 488.014366599286
18.06633 446.971803363359
18.08645 472.033391993384
18.10656 456.015599915333
18.12667 470.977757515235
18.14679 468.007821195585
18.1669 453
18.18701 461.009259025224
18.20713 471.982816241495
18.22724 450.994655381975
18.24735 460.033968364466
18.26747 425.030638752175
18.28758 437.970538451243
18.3077 465
18.32781 472.993683625216
18.34792 448.980827325569
18.36804 446.017619227877
18.38815 454.002933161315
18.40826 452.966617764052
18.42838 471.015015801225
18.44849 429.014049862221
18.46861 433.006967443601
18.48872 448.029052586371
18.50883 472.983890318009
18.52895 448.034402217343
18.54906 486.010977266916
18.56917 454.956701890199
18.58929 522.001533991589
18.6094 441
18.62951 466.03449352781
18.64963 497.92841692822
18.66974 418.96235631562
18.68986 473.898040008355
18.70997 472.04075253281
18.73008 454.001885445404
18.7502 463
18.77031 462.998865054339
18.79042 461.99834833163
18.81054 461.005823801051
18.83065 464.010041529075
18.85077 457.993691674499
18.87088 461.021810990811
18.89099 449.97037364118
18.91111 543.014643586301
18.93122 493.954644239674
18.95133 486.977723221077
18.97145 445.90328362746
18.99156 441.929379265953
19.01168 485.983086402659
19.03179 477.997683155125
19.0519 500
19.07202 491.008978024175
19.09213 503.954687827984
19.11224 462.050178465781
19.13236 543.902838488433
19.15247 532.016668206877
19.17258 542.010170292079
19.1927 503
19.21281 485.990773371037
19.23293 463.988034237081
19.25304 475.035382060008
19.27315 493.933801240592
19.29327 505.051460366586
19.31338 464.975539359698
19.33349 541.97672684074
19.35361 526.987269337468
19.37372 514.974798255286
19.39384 506.127396766076
19.41395 603.084211662632
19.43406 552.122048875615
19.45418 531.004332503925
19.47429 525.999681018761
19.4944 532
19.51452 546.040104712364
19.53463 604.074819076849
19.55475 622.975017353806
19.57486 610.978220260726
19.59497 633.005479483618
19.61509 618.986083704481
19.6352 677
19.65531 667.010581936771
19.67543 715.007844403671
19.69554 704.136188454078
19.71565 827.853299493858
19.73577 807.989714090739
19.75588 867.966933115721
19.776 870
19.79611 946.007549706856
19.81622 915.027618277777
19.83634 1017.17346956245
19.85645 1032.06412158406
19.87656 1011.99903433474
19.89668 1046.9317960572
19.91679 1082.03223027741
19.93691 989.008461592623
19.95702 1087.01201632573
19.97713 984.883652435555
19.99725 997.075417227597
20.01736 997.014671056119
20.03747 1008.94783218612
20.05759 1037.00626406076
20.0777 997
20.09782 994.96863315971
20.11793 938.958790010338
20.13804 965.104221564378
20.15816 994.033934273755
20.17827 957.012698090726
20.19838 984.976314692233
20.2185 974
20.23861 934.984489971887
20.25872 938.052185319933
20.27884 986.954983994172
20.29895 900.187159516009
20.31907 899.905848960892
20.33918 965.979617036675
20.35929 921.040656270179
20.37941 865.001764938945
20.39952 896.995639885773
20.41963 862.007147084554
20.43975 909.053613573752
20.45986 896.972708596016
20.47998 924.03142635098
20.50009 841.027404403384
20.5202 852
20.54032 873.007653941213
20.56043 855.918324671301
20.58054 814.067981959156
20.60066 883.002509485198
20.62077 815.039655674963
20.64088 859.962112392916
20.661 846
20.68111 842.019167355682
20.70123 911.109847078971
20.72134 961.047618226358
20.74145 967.003788756609
20.76157 987.90610144121
20.78168 1054.98645679619
20.80179 1034.98809270059
20.82191 1142.07538610828
20.84202 1240.98780582585
20.86214 1163.92658695893
20.88225 1165.8392278399
20.90236 1046.1148740295
20.92248 1054.03929117613
20.94259 945.043331905043
20.9627 935
20.98282 954.993788174403
21.00293 918.91938250037
21.02305 894.098175562349
21.04316 964.932765012997
21.06327 929.104635645444
21.08339 886.993632686525
21.1035 921
21.12361 900.023504042468
21.14373 990.034805371273
21.16384 907.766318143306
21.18395 839.014784361194
21.20407 870.953774887665
21.22418 878.997913876608
21.2443 887
21.26441 892.001123619479
21.28452 889.991338441745
21.30464 875.969210853283
21.32475 868.980991087512
21.34486 865.095396793666
21.36498 808.995488252368
21.38509 868.979361381544
21.40521 877.016730687479
21.42532 917.971213694823
21.44543 820.871168557894
21.46555 813.148572952907
21.48566 892.875134540455
21.50577 893.106676538315
21.52589 817.002158123404
21.546 889
21.56612 920.006625792514
21.58623 922.998051229181
21.60634 918.991114106069
21.62646 915.00949705284
21.64657 897.063169678836
21.66668 849.023652485565
21.6868 855
21.70691 836.971500434592
21.72702 772.972012196955
21.74714 772.956097670222
21.76725 753.852892266794
21.78737 834.047379089198
21.80748 705.077890094303
21.82759 753.948037425215
21.84771 805.981727823924
21.86782 749.02727447134
21.88793 839.03953769452
21.90805 780.905461072021
21.92816 784.077481322818
21.94828 725.970959978975
21.96839 820.983698234017
21.9885 759
22.00862 754.010512320649
22.02873 750.992119785837
22.04884 738.931357631453
22.06896 700.018697122751
22.08907 723.959061239931
22.10919 737.993181390691
22.1293 734
22.14941 671.998655925922
22.16953 727.062946300829
22.18964 720.961424294278
22.20975 715.994088110459
22.22987 707.047693851072
22.24998 667.021289643075
22.27009 652.02365854059
22.29021 607.015812457646
22.31032 688.028461897694
22.33044 646.947181732307
22.35055 669.052398117466
22.37066 665.007484415902
22.39078 663.023996277779
22.41089 637.990391179959
22.431 681
22.45112 636.974932985134
22.47123 661.060213014619
22.49135 686.026796302761
22.51146 688.999145154891
22.53157 682.036617792407
22.55169 658.996101385542
22.5718 693
22.59191 687.987406102789
22.61203 678.045107646035
22.63214 716.983288445274
22.65225 657.146970956834
22.67237 644.956569078043
22.69248 688.961819449648
22.7126 698
22.73271 660.985971695244
22.75282 656.01033843977
22.77294 675.057120874795
22.79305 709.90964070757
22.81316 730.018704549341
22.83328 707.007388741534
22.85339 715.002970069437
22.87351 695.999189321961
22.89362 726.045376833889
22.91373 760.016695318915
22.93385 732.826700136559
22.95396 652.110886305996
22.97407 646.94715132563
22.99419 677.005560979767
23.0143 641
23.03442 685.069230004026
23.05453 721.95990826632
23.07464 661.93727600791
23.09476 689.887261611026
23.11487 725.009292598993
23.13498 678.067043821384
23.1551 631
23.17521 668.030869808225
23.19532 708.991950628351
23.21544 676.994368938081
23.23555 702.996560658668
23.25567 663.066546130661
23.27578 650.979174423
23.29589 676.000142515728
23.31601 661.005136376492
23.33612 688.998079635856
23.35623 651.955513388341
23.37635 671.167887354401
23.39646 738.95953727704
23.41658 703.053184726186
23.43669 685.982815465688
23.4568 744
23.47692 759.031791170092
23.49703 819.088431043694
23.51714 860.067548988742
23.53726 883.006594131079
23.55737 877.950769387283
23.57749 940.977598865333
23.5976 934
23.61771 872.965823371559
23.63783 839.052252808164
23.65794 925.169487836788
23.67805 953.08441447423
23.69817 920.943025901578
23.71828 981.035032128719
23.73839 864.03372873474
23.75851 877.998597944987
23.77862 818.944089386205
23.79874 803.005495905802
23.81885 798.963049930063
23.83896 760.142812084501
23.85908 698.000536738382
23.87919 732.005166834672
23.8993 694
23.91942 790.063147331176
23.93953 760.875208908312
23.95965 686.905229689497
23.97976 697.906319521582
23.99987 753.924253029499
24.01999 782.997509067434
24.0401 765
24.06021 721.981492432
24.08033 688.938058510825
24.10044 650.980478729292
24.12056 671.941136761771
24.14067 706.911548443482
24.16078 762.993795241637
24.1809 720
24.20101 706.00119782429
24.22112 705.993282556162
24.24124 707.055012115983
24.26135 741.990168755228
24.28146 713.050981713672
24.30158 710.994640983995
24.32169 713.996504521441
24.34181 715.990786373537
24.36192 697.015965125279
24.38203 734.012665443872
24.40215 711.98700512471
24.42226 728.010944986806
24.44237 718.92812113348
24.46249 799.985892368982
24.4826 759
24.50272 758.01158143144
24.52283 770.041663545221
24.54294 784.915766830255
24.56306 719.022176489475
24.58317 795.820465233317
24.60328 871.014062552773
24.6234 818
24.64351 882.017963468296
24.66362 856.969767153215
24.68374 848.973144655529
24.70385 811.13210476156
24.72397 780.966676843332
24.74408 856.899173681749
24.76419 907.024718990835
24.78431 805.972526819772
24.80442 836.057609749231
24.82453 860.982871904804
24.84465 834.962258258482
24.86476 844.951981370272
24.88488 873.964598970036
24.90499 882.027577824822
24.9251 786
24.94522 792.095749579144
24.96533 880.966886018986
24.98544 780.917851334968
25.00556 796.133770526852
25.02567 694.921686070987
25.04579 856.980637897214
25.0659 742
25.08601 802.031827426424
25.10613 780.892221583733
25.12624 724.987813188295
25.14635 753.961067006567
25.16647 751.963501286167
25.18658 796.984732861981
25.20669 772.012753672688
25.22681 757.985162383102
25.24692 729.015833119691
25.26704 767.992619475347
25.28715 707.83897320375
25.30726 700.877404310567
25.32738 762.019443300579
25.34749 681.021407497389
25.3676 721
25.38772 746.966877856096
25.40783 702.011163486582
25.42795 741.971775404043
25.44806 674.091101653432
25.46817 692.928585266858
25.48829 727.991919925358
25.5084 721
25.52851 697.002889428705
25.54863 723.01724970545
25.56874 710.979605931985
25.58886 718.965527304843
25.60897 732.98969018951
25.62908 740.979018654511
25.6492 769
25.66931 780.014554568178
25.68942 835.064074022124
25.70954 876.002087709998
25.72965 857.006501551477
25.74976 873.993218295945
25.76988 839.064432610069
25.78999 783.008579734884
25.81011 783.98436757549
25.83022 725.971956500707
25.85033 736.000554684572
25.87045 698.864294699409
25.89056 666.977873168084
25.91067 689.029086820158
25.93079 632.018790336851
25.9509 635
25.97102 636.015483131966
25.99113 671.05571585483
26.01124 660.820587803856
26.03136 558.029672842252
26.05147 633.89597133676
26.07158 637.026516884377
26.0917 626
26.11181 639.991798551634
26.13193 596.949042168855
26.15204 590.006509995043
26.17215 598.933099167044
26.19227 641.933024267003
26.21238 656.035147430441
26.23249 614.992214744128
26.25261 667.002734445249
26.27272 632.013120812028
26.29283 690.016464095444
26.31295 653.013254265689
26.33306 705.969033252706
26.35318 658.052458690908
26.37329 652.981923642664
26.3934 712
26.41352 767.02841393381
26.43363 777.017001160419
26.45374 816.145373051599
26.47386 908.818459612281
26.49397 992.863007995917
26.51409 1103.93704506287
26.5342 1290
26.55431 1641.1554167703
26.57443 1872.3033118942
26.59454 2097.4832848036
26.61465 2300.72688537268
26.63477 2282.19276998813
26.65488 2083.2450041723
26.67499 1811.14859561926
26.69511 1493.83781982792
26.71522 1228.85751393374
26.73534 1145.71171499837
26.75545 937.623912152103
26.77556 880.093278591284
26.79568 817.022791185025
26.81579 822.017757527138
26.8359 739
26.85602 758.11608470391
26.87613 858.942656404461
26.89625 717.791279264684
26.91636 771.775200513684
26.93647 827.061116623068
26.95659 751.005676653411
26.9767 807
26.99681 775.990308167147
27.01693 783.973885650255
27.03704 753.040338774668
27.05716 816.93055984888
27.07727 798.037800128782
27.09738 779.047333857505
27.1175 743
27.13761 835.006137173382
27.15772 756.941878240458
27.17784 768.041053041349
27.19795 765.000380699998
27.21806 777.980455187568
27.23818 780.991112874179
27.25829 796.994315913742
27.27841 810.016119682247
27.29852 865.062734603663
27.31863 889.933206006223
27.33875 831.034192834172
27.35886 959.605087487145
27.37897 1123.89535284434
27.39909 1131.98113998853
27.4192 1238
27.43932 1311.01792331092
27.45943 1292.95893383053
27.47954 1282.01017829975
27.49966 1277.08094791459
27.51977 1213.07343352528
27.53988 1186.03549898366
27.56 1129
27.58011 1070.96555460695
27.60023 1020.01501797957
27.62034 1056.97481092537
27.64045 1013.94381468422
27.66057 1099.92373239969
27.68068 1095.98078667136
27.70079 1140.00421807206
27.72091 1080.98498231761
27.74102 1111.04225348685
27.76113 1113.93905722766
27.78125 1049.84479031192
27.80136 996.124731225663
27.82148 928.051728024642
27.84159 889.025101421815
27.8617 835
27.88182 823.956265564095
27.90193 744.896626078214
27.92204 728.06634103015
27.94216 760.03808218827
27.96227 701.056707249058
27.98239 696.01051972774
28.0025 638
28.02261 590.986002905795
28.04273 583.020938036924
28.06284 594.96828815566
28.08295 565.010270599479
28.10307 590.96936467129
28.12318 588.008859138706
28.1433 575
28.16341 549.011704652077
28.18352 602.019780984767
28.20364 579.979600589727
28.22375 584.926211331795
28.24386 537.993869778348
28.26398 592.958646316247
28.28409 594.00062658518
28.3042 593
28.32432 537.979494848046
28.34443 557.016732857509
28.36455 535.924265050242
28.38466 509.065696983897
28.40477 490.958413366204
28.42489 534.001896848848
28.445 497
28.46511 541.001417747357
28.48523 488.938785475333
28.50534 493.034959128114
28.52546 505.957074024759
28.54557 527.998624513733
28.56568 498.048794426906
28.5858 480
28.60591 561.016261127945
28.62602 534.982846452211
28.64614 540.952933033688
28.66625 493.034430443958
28.68636 511.021322493292
28.70648 472.0058834035
28.72659 502.994922002975
28.74671 484.00058829033
28.76682 517.027062163581
28.78693 528.032755730623
28.80705 550.967711487585
28.82716 496.130455871918
28.84727 460.991498028385
28.86739 496.977398164424
28.8875 514
28.90762 476.005518658628
28.92773 523.050097691289
28.94784 527.025821206051
28.96796 549.015161134698
28.98807 513.036728081596
29.00818 515.9931350691
29.0283 512
29.04841 503.990576199908
29.06853 473.951827635961
29.08864 471.097953537313
29.10875 539.918350437316
29.12887 520.0507079284
29.14898 509.986934048658
29.16909 528.995852304514
29.18921 518.990324784765
29.20932 500.985542011702
29.22943 502.039765641532
29.24955 523.942699143444
29.26966 477.01864635542
29.28978 510.978333518745
29.30989 501.002823949901
29.33 511
29.35012 499.999025609212
29.37023 510.000121380415
29.39034 513.078888865584
29.41046 555.047450738765
29.43057 489.024721535899
29.45069 538.979322226395
29.4708 533
29.49091 530.001193948053
29.51103 523.971787524906
29.53114 500.972435100405
29.55125 515.875564552396
29.57137 554.040965888616
29.59148 486.029595123149
29.6116 524
29.63171 535.977645026759
29.65182 493.030455982469
29.67194 579.103079051777
29.69205 561.921552401606
29.71216 553.007053377248
29.73228 557.966237136282
29.75239 606.985238146242
29.7725 606
29.79262 609.010543169875
29.81273 630.05705355919
29.83285 680.12342259562
29.85296 687.130581104576
29.87307 613.977986947398
29.89319 686.997100312081
29.9133 617
29.93341 659.012948391014
29.95353 630.950309832423
29.97364 617.968756196268
29.99376 604.963868769439
30.01387 636.004236231381
30.03398 590.051215811715
30.0541 589
30.07421 650.981826818781
30.09432 565.00621508529
30.11444 646.999804972102
30.13455 556.080836465541
30.15467 617.935627432092
30.17478 580.067432676219
30.19489 545.994013669997
30.21501 569.99475724547
30.23512 547.032888399132
30.25523 613.011280510354
30.27535 542.811219859214
30.29546 519.965390947334
30.31557 547.967488358664
30.33569 553.00270506611
30.3558 557
30.37592 577.972452179843
30.39603 524.981387101564
30.41614 563.065652939478
30.43626 568.975485435758
30.45637 591.993315043881
30.47648 565.041820507454
30.4966 545
30.51671 584.004063522689
30.53683 547.930602127921
30.55694 536.067725338831
30.57705 574.029191713588
30.59717 537.971986450288
30.61728 594.003709891706
30.63739 524.022631184118
30.65751 553.031147376039
30.67762 599.019857592883
30.69773 595.979738147062
30.71785 597.070697134891
30.73796 640.931323439225
30.75808 654.992954868955
30.77819 657.007351242414
30.7983 628
30.81842 600.962659067043
30.83853 571.012011373538
30.85864 612.076910334657
30.87876 603.132100809239
30.89887 531.023942524515
30.91899 568.986062476277
30.9391 556
30.95921 546.995121750778
30.97933 544.036283366192
30.99944 572.981457144542
31.01955 536.027007317966
31.03967 565.952545172163
31.05978 552.067895982843
31.0799 487
31.10001 543.011656396554
31.12012 512.979771405482
31.14024 521.990063924412
31.16035 497.018808171469
31.18046 510.995397774434
31.20058 497.00150128128
31.22069 511.996684481196
31.2408 501
31.26092 507.030721271528
31.28103 538.000977049815
31.30115 522.028237965646
31.32126 537.097038846829
31.34137 449.052501855351
31.36149 494.968713580742
31.3816 516
31.40171 494.999560311447
31.42183 507.992598296989
31.44194 483.975184626443
31.46206 491.986436892815
31.48217 483.026503179414
31.50228 466.013668588614
31.5224 470
31.54251 513.009933172787
31.56262 496.96750784973
31.58274 485.053230664843
31.60285 509.095081986664
31.62297 446.98172389767
31.64308 529.948608353425
31.66319 500.029640269384
31.68331 469.001874489293
31.70342 486.002521870585
31.72353 469.98356676445
31.74365 485.096237007418
31.76376 516.011783700955
31.78387 481.040717300404
31.80399 476.002527389788
31.8241 466
31.84422 460.949943148619
31.86433 413.059070357157
31.88444 510.078811978827
31.90456 470.053450879606
31.92467 492.974828624368
31.94478 488.98358320904
31.9649 521
31.98501 484.983839389495
32.00513 487.04038198441
32.02524 512.010546712138
32.04535 496.052566689822
32.06547 491.971204006802
32.08558 507.023057832129
32.10569 474.988764488517
32.12581 530.000799698197
32.14592 483.99779704053
32.16604 531.020843560211
32.18615 480.877205363588
32.20626 489.873017377377
32.22638 549.998896754577
32.24649 497.023345624756
32.2666 503
32.28672 552.029415382066
32.30683 560.010506897425
32.32694 565.968696652529
32.34706 548.954476255397
32.36717 606.929492999344
32.38729 607.01872795544
32.4074 572
32.42751 581.984435897784
32.44763 513.92923991436
32.46774 524.094272539266
32.48785 568.943969687321
32.50797 553.07589243631
32.52808 502.019803986075
32.5482 518
32.56831 525.995422178531
32.58842 513.999541145509
32.60854 528.034077396777
32.62865 524.094174349557
32.64876 479.024995666869
32.66888 510.951589730143
32.68899 542.9950917954
32.7091 537
32.72922 535.006318088412
32.74933 552.044336949562
32.76945 569.949660131609
32.78956 530.029059040633
32.80967 555.944927273542
32.82979 573.001994746648
32.8499 556
32.87001 544.000091584788
32.89013 542.97168947737
32.91024 531.072971757408
32.93036 596.932904053763
32.95047 556.144775478572
32.97058 494.951731742635
32.9907 611
33.01081 597.995622082163
33.03092 622.001003546592
33.05104 599.015254999576
33.07115 640.937690634198
33.09127 621.062655381682
33.11138 601.974164862837
33.13149 641.99955248813
33.15161 595.976406162182
33.17172 585.017860302944
33.19183 597.972606423761
33.21195 569.018281430695
33.23206 605.97435341145
33.25217 583.025496790068
33.27229 582.008290040721
33.2924 551
33.31252 572.035473540588
33.33263 585.961996404823
33.35274 546.982089546369
33.37286 554.068284058597
33.39297 501.983029396622
33.41308 582.925129233287
33.4332 590
33.45331 534.986987006486
33.47343 548.040268553684
33.49354 556.968435263587
33.51365 531.035675795194
33.53377 542.953181643149
33.55388 556.036028682411
33.57399 502.004619894479
33.59411 539.011035560702
33.61422 529.001403544014
33.63434 540.95662125652
33.65445 499.996166246114
33.67456 540.944636990744
33.69468 536.998947868674
33.71479 547.006990852928
33.7349 519
33.75502 541.994146516505
33.77513 502.961317254213
33.79524 516.063331290573
33.81536 531.034671159947
33.83547 499.019844459293
33.85559 512.991840250646
33.8757 512
33.89581 496.99451798221
33.91593 495.009623655847
33.93604 514.072284087908
33.95615 533.093796248316
33.97627 478.985783733392
33.99638 550.947175932505
34.0165 543
34.03661 522.99093532457
34.05672 510.003570584196
34.07684 520.995836117682
34.09695 513.958499045706
34.11706 541.009385106
34.13718 504.027276129067
34.15729 519.974480125581
34.17741 571.011492425859
34.19752 547.940452479669
34.21763 501.009378739565
34.23775 554.132152304917
34.25786 571.018103372686
34.27797 546.061244762448
34.29809 523.983922117249
34.3182 589
34.33831 570.973222762689
34.35843 526.983182396246
34.37854 548.060080242752
34.39866 569.961760809503
34.41877 583.999077682983
34.43888 571.018474035894
34.459 567
34.47911 610.022325926341
34.49922 623.968892782019
34.51934 584.004209195838
34.53945 621.958585511804
34.55957 604.013106269487
34.57968 625.969783138326
34.59979 650.985930341953
34.61991 661.982320662254
34.64002 618.014756762889
34.66013 686.072446812974
34.68025 688.001735509704
34.70036 712.941473831376
34.72047 726.006753083619
34.74059 717.998100821204
34.7607 727
34.78082 720.033165903872
34.80093 787.081603261803
34.82104 799.975494169531
34.84116 790.986968750561
34.86127 798.029498720713
34.88138 763.011230130087
34.9015 804
34.92161 863.991640240704
34.94173 789.913948666545
34.96184 769.931859827533
34.98195 740.881548001179
35.00207 822.996082815252
35.02218 756.012444887104
35.04229 808.997481670634
35.06241 745.981324467771
35.08252 784.070045085308
35.10264 844.099409783775
35.12275 852.84190484712
35.14286 770.034495513216
35.16298 820.962671731899
35.18309 797.02569532431
35.2032 777
35.22332 840.031766493509
35.24343 816.932548002507
35.26354 787.98582382542
35.28366 780.073598465366
35.30377 731.023458664479
35.32389 748.996753797583
35.344 740
35.36411 774.001000272891
35.38423 734.940659499987
35.40434 746.145996420111
35.42445 819.99789431711
35.44457 764.034567312816
35.46468 804.953752529873
35.4848 826
35.50491 829.967870805009
35.52502 757.027880184899
35.54514 857.067410212064
35.56525 794.130020167656
35.58536 805.95575544851
35.60548 818.96185925326
35.62559 869.991875400352
35.64571 831.967886051342
35.66582 777.966107459176
35.68593 768.013335198932
35.70605 774.9735129765
35.72616 760.974908809253
35.74627 798.951899737582
35.76639 795.019597837206
35.7865 753
35.80661 777.017685792988
35.82673 787.96305415012
35.84684 760.024571018767
35.86696 794.013444315253
35.88707 755.99630503117
35.90718 797.991548811061
35.9273 755
35.94741 741.990231271026
35.96752 701.958878333112
35.98764 669.938269600887
36.00775 651.961355795051
36.02787 700.907646915191
36.04798 738.005045432206
36.06809 696.0280350084
36.08821 664.004250322967
36.10832 695.019145087943
36.12843 688.984123840074
36.14855 698.080656821857
36.16866 720.051858048185
36.18878 659.045035675086
36.20889 662.982089353781
36.229 679
36.24912 615.978550741263
36.26923 647.043886878535
36.28934 637.939712658198
36.30946 636.877605348957
36.32957 717.963877762144
36.34968 679.031624915462
36.3698 684
36.38991 685.023118895585
36.41003 751.021344890036
36.43014 702.90001044566
36.45025 695.945929631049
36.47037 716.991800541154
36.49048 726.950884314642
36.51059 794.984648201631
36.53071 763.969314179474
36.55082 728.01490520531
36.57094 762.997770590575
36.59105 710.845577664178
36.61116 695.90354904024
36.63128 759.984690608058
36.65139 720.018780797911
36.6715 709
36.69162 680.990395161039
36.71173 685.980775112417
36.73184 655.972178909927
36.75196 661.012179940893
36.77207 637.027516025925
36.79219 643.985689943488
36.8123 679
36.83241 693.000501704267
36.85253 688.995001425805
36.87264 687.994843750255
36.89275 670.106817101838
36.91287 639.954298701449
36.93298 696.001949849652
36.9531 640
36.97321 666.000783707408
36.99332 631.992013443796
37.01344 675.114999644548
37.03355 690.122167372017
37.05366 625.022745560947
37.07378 665.977959518849
37.09389 656.990598640879
37.11401 705.009520321826
37.13412 669.943636769794
37.15423 632.987313505899
37.17435 652.091786377414
37.19446 673.038171515936
37.21457 639.994632792277
37.23469 682.982869241196
37.2548 668
37.27491 638.029876117584
37.29503 723.977769926422
37.31514 623.913711813266
37.33526 666.96573439704
37.35537 623.04251925275
37.37548 638.987554719835
37.3956 622
37.41571 625.021627153341
37.43582 673.003588452497
37.45594 642.991899057989
37.47605 679.91689834473
37.49617 670.072610160601
37.51628 615.033371314178
37.53639 615.989724470832
37.55651 638.009881321718
37.57662 637.966008656731
37.59673 610.048895877183
37.61685 679.065816332478
37.63696 644.072868885666
37.65708 643.985012904319
37.67719 657.990908470507
37.6973 667
37.71742 634.989511891439
37.73753 659.056034403726
37.75764 667.918882185751
37.77776 600.101151066566
37.79787 607.903458864618
37.81798 670.995259062456
37.8381 618
37.85821 594.990448394362
37.87833 595.091446307024
37.89844 672.010767767532
37.91855 611.086115883808
37.93867 631.980338831712
37.95878 603.041750619941
37.97889 591.982748130073
37.99901 636.001030677829
38.01912 602.9899524305
38.03924 627.022840263933
38.05935 600.89505723758
38.07946 583.943676053572
38.09958 632.975009464764
38.11969 622.007281668641
38.1398 627
38.15992 629.976937838872
38.18003 611.043655027289
38.20015 662.005963117665
38.22026 614.05919795026
38.24037 630.964475147823
38.26049 635.001212757096
38.2806 640
38.30071 657.00820583036
38.32083 662.985072632614
38.34094 652.016836488811
38.36105 663.05905081341
38.38117 615.036329521608
38.40128 637.95437351129
38.4214 664
38.44151 626.985014954756
38.46162 631.033592187776
38.48174 669.042037681854
38.50185 661.070140777025
38.52196 638.002614383848
38.54208 645.014699815762
38.56219 607.016159104862
38.58231 615.027215065893
38.60242 648.939892514568
38.62253 553.000939149445
38.64265 642.093564385995
38.66276 593.062089533775
38.68287 624.946028245718
38.70299 625.008637014352
38.7231 608
38.74321 619.034809015268
38.76333 684.953238624237
38.78344 581.887744028135
38.80356 594.031365951914
38.82367 545.982470359779
38.84378 624.939080410045
38.8639 613
38.88401 556.978471938754
38.90412 549.036467989839
38.92424 603.069227576459
38.94435 606.012422554758
38.96447 598.044752357818
38.98458 547.051625461485
39.00469 537.97141374528
39.02481 614.011338088505
39.04492 580.980270498476
39.06503 590.981606595355
39.08515 552.962531973254
39.10526 573.957069937729
39.12538 576.002258448603
39.14549 580.995755198995
39.1656 582
39.18572 566.001971962282
39.20583 588.03592426436
39.22594 592.965439638093
39.24606 564.052348212428
39.26617 545.0314417107
39.28628 543.949730098281
39.3064 604
39.32651 542.981979984442
39.34663 571.075217624628
39.36674 602.022955753838
39.38685 620.868299875572
39.40697 672.020508635535
39.42708 619.003489116272
39.44719 657.00871480229
39.46731 572.968055811923
39.48742 574.025491222791
39.50754 597.067203881615
39.52765 617.928513127412
39.54776 552.106153313591
39.56788 533.012230042026
39.58799 517.001267793548
39.6081 527
39.62822 530.023681165579
39.64833 557.990178151496
39.66845 522.953433221613
39.68856 530.998774000599
39.70867 513.02034287225
39.72879 516.994117863602
39.7489 518
39.76901 507.016425901996
39.78913 557.005420549106
39.80924 513.946268733338
39.82935 528.949518506465
39.84947 532.995681928498
39.86958 538.004826112435
39.8897 532
39.90981 561.009731244895
39.92992 540.935391964203
39.95004 478.98838737075
39.97015 529.863407960321
39.99026 545.031961824217
40.01038 530.987481332949
40.03049 548.012626227711
40.05061 506.007026980223
40.07072 556.996056157033
40.09083 497.966270593863
40.11095 532.049161811406
40.13106 515.011044718872
40.15117 542.947269303318
40.17129 560.998889239672
40.1914 559
40.21152 576.027459799482
40.23163 589.968302074118
40.25174 557.000353952323
40.27186 584.989249859222
40.29197 557.032684270949
40.31208 560.989972044246
40.3322 573
40.35231 588.977906450508
40.37242 521.995016886082
40.39254 577.05720565174
40.41265 540.138517477874
40.43277 525.938693038166
40.45288 573.009929394511
40.47299 513.019815699308
40.49311 529.018522538677
40.51322 545.989853755293
40.53333 520.969329345634
40.55345 506.938888436725
40.57356 484.978274375257
40.59368 524.965166150725
40.61379 528.010900641731
40.6339 505
40.65402 513.006039975833
40.67413 513.010396335679
40.69424 531.040108098951
40.71436 540.013267784186
40.73447 539.950243561134
40.75458 580.006864886255
40.7747 531
40.79481 540.00831081368
40.81493 557.065130912222
40.83504 604.001705311639
40.85515 554.138370277936
40.87527 539.955323977226
40.89538 574.004378802847
40.91549 538.00901042358
40.93561 558.014318811744
40.95572 562.977993240602
40.97584 535.987356882256
40.99595 551.02934434192
41.01606 557.950374982866
41.03618 584.012695204743
41.05629 544.007814807836
41.0764 563
41.09652 546.974737554043
41.11663 529.985201754013
41.13675 521.975318114482
41.15686 523.937391843985
41.17697 557.016373799999
41.19709 525.990645234751
41.2172 572
41.23731 495.98437534788
41.25743 541.077859347299
41.27754 541.921165998151
41.29765 516.91486626095
41.31777 577.98401901501
41.33788 531.034459269441
41.358 535
41.37811 498.972050449481
41.39822 474.042911501149
41.41834 548.061405825304
41.43845 519.07835863358
41.45856 516.995792346468
41.47868 508.009884055062
41.49879 504.000683906287
41.51891 513.015144478909
41.53902 551.020533304293
41.55913 534.929590659078
41.57925 505.074929232525
41.59936 588.824874259522
41.61947 630.011802429202
41.63959 598.014423528349
41.6597 597
41.67982 629.022282022395
41.69993 627.967770305172
41.72004 597.942030807791
41.74016 575.040874767549
41.76027 551.043783655151
41.78038 529.000109715111
41.8005 545
41.82061 551.009713217226
41.84072 567.97935980096
41.86084 516.922955852321
41.88095 518.928776355624
41.90107 538.01897883468
41.92118 491.061177280981
41.94129 460.986235637435
41.96141 519.017217498574
41.98152 501.956924444208
42.00163 476.014320492612
42.02175 498.99021176396
42.04186 473.005684772856
42.06198 503.969738061907
42.08209 503.014318704857
42.1022 480
42.12232 524.040384663569
42.14243 530.966676563804
42.16254 495.929466666788
42.18266 467.05465703367
42.20277 446.006375064361
42.22289 458.989851921257
42.243 469
42.26311 458.004997495083
42.28323 491.051094547245
42.30334 515.047645674785
42.32345 537.973346593582
42.34357 546.956818758309
42.36368 582.991610936047
42.38379 561.010192289836
42.40391 560.002241903731
42.42402 552.978518034329
42.44414 527.971794391367
42.46425 544.128271014956
42.48436 576.095587290632
42.50448 496.003558024011
42.52459 561.990070106156
42.5447 510
42.56482 521.996553529376
42.58493 498.017625266534
42.60505 529.951230399628
42.62516 473.016477427255
42.64527 510.010349434731
42.66539 455.008714678688
42.6855 500
42.70561 513.0018138761
42.72573 505.934924608015
42.74584 455.999206103054
42.76595 492.984795063429
42.78607 455.040297499236
42.80618 472.95847379298
42.8263 504
42.84641 493.996743662458
42.86652 492.98631082326
42.88664 470.985150626303
42.90675 477.010745669929
42.92686 475.920917745382
42.94698 519.028883231979
42.96709 433.025999692607
42.98721 455.02286130399
43.00732 480.009283626696
43.02743 484.005494530446
43.04755 492.029778952021
43.06766 488.078354438381
43.08777 443.002068610012
43.10789 486.979355210814
43.128 495
43.14812 485.990124112035
43.16823 474.982584514523
43.18834 483.094953519208
43.20846 532.016934768169
43.22857 464.10600030732
43.24868 444.968703159753
43.2688 479
43.28891 444.002896761262
43.30902 484.001870786704
43.32914 447.996981265163
43.34925 478.034218385782
43.36937 424.02280619232
43.38948 468.952712395208
43.40959 477.00784488459
43.42971 465.001807666803
43.44982 477.001257327812
43.46993 468.000373273007
43.49005 478.002009861299
43.51016 467.01284807714
43.53028 465.013853954034
43.55039 450.992939150423
43.5705 478
43.59062 448.995596215282
43.61073 477.0281381394
43.63084 465.959820833775
43.65096 455.007919576273
43.67107 452.008522032902
43.69119 449.994111613693
43.7113 474
43.73141 477.987471422026
43.75153 441.970731469794
43.77164 463.117278394712
43.79175 515.98636391556
43.81187 479.0495709548
43.83198 470.010629405138
43.85209 457.993556051148
43.87221 487.004861478825
43.89232 467.977960144452
43.91244 470.055613624443
43.93255 513.113392699123
43.95266 529.066421527355
43.97278 471.038007584694
43.99289 475.986543125837
44.013 492
44.03312 461.959401292783
44.05323 438.012454939777
44.07335 468.063764289772
44.09346 468.041642092566
44.11357 452.980648590825
44.13369 481.994615679961
44.1538 464
44.17391 458.005032265598
44.19403 466.987681687021
44.21414 459.051424353818
44.23426 504.963173078201
44.25437 478.064492596018
44.27448 457.986704330328
44.2946 482
44.31471 458.991710785586
44.33482 470.029014237756
44.35494 487.974081739866
44.37505 457.039463639754
44.39516 453.056270662179
44.41528 413.0027412643
44.43539 461.967123492671
44.45551 486.98026520032
44.47562 433.00552417636
44.49573 492.048937565544
44.51585 467.920144706124
44.53596 455.030044655729
44.55607 442.973476096485
44.57619 475.996638611166
44.5963 441
44.61642 424.040141944713
44.63653 479.005256605522
44.65664 443.004337939055
44.67676 481.012716354274
44.69687 442.96539580598
44.71698 522.961079028034
44.7371 488
44.75721 465.983732959111
44.77732 426.99213314564
44.79744 458.080661399072
44.81755 478.996216019593
44.83767 472.007302100802
44.85778 474.994008107384
44.87789 480.996123626156
44.89801 489.002389783728
44.91812 484.985041359718
44.93823 481.046810641099
44.95835 512.934408763369
44.97846 439.102421657421
44.99858 450.95346794248
45.01869 490.989941833816
45.0388 492
45.05892 490.998096825092
45.07903 490.009287685178
45.09914 485.924342944098
45.11926 453.92456259368
45.13937 533.954383792917
45.15949 500.010759405212
45.1796 513
45.19971 474.98741640737
45.21983 481.018329150932
45.23994 499.095911777408
45.26005 545.033145744096
45.28017 486.050805508196
45.30028 502.976876182622
45.32039 499.0099031046
45.34051 477.990762157945
45.36062 466.998211333624
45.38074 476.039454630216
45.40085 497.031208201105
45.42096 511.925143629702
45.44108 548.010260591531
45.46119 505.0085237804
45.4813 521
45.50142 484.966234232239
45.52153 491.071924097404
45.54165 538.000624817058
45.56176 488.115241461727
45.58187 465.976509665925
45.60199 492.995187572145
45.6221 492
45.64221 529.001942351182
45.66233 504.999605840645
45.68244 542.0726073022
45.70256 553.997736475067
45.72267 552.016828159842
45.74278 529.030793540584
45.7629 500
45.78301 506.02266611422
45.80312 551.994687715259
45.82324 499.91550922875
45.84335 500.944661539979
45.86346 519.972919723836
45.88358 517.028437989782
45.90369 483.005055054738
45.92381 498.006037941218
45.94392 486.97365185864
45.96403 479.054989356384
45.98415 532.035553455809
46.00426 499.067599935696
46.02437 495.979545798245
46.04449 509.994005446789
46.0646 510
46.08472 488.001577997682
46.10483 500.980078568547
46.12494 464.965352448179
46.14506 481.94855381508
46.16517 495.989668203449
46.18528 504.984582002929
46.2054 517
46.22551 493.987697177136
46.24563 484.008820520892
46.26574 488.972388084048
46.28585 467.995799754863
46.30597 483.016123084692
46.32608 457.988366202613
46.34619 503.986657241868
46.36631 486.984127646153
46.38642 477.019797308891
46.40653 503.000582501289
46.42665 485.005934145464
46.44676 509.978102519329
46.46688 493.022379601152
46.48699 484.998014722587
46.5071 502
46.52722 521.973083110944
46.54733 460.927581386369
46.56744 447.998771895223
46.58756 462.887190038186
46.60767 523.00207316618
46.62779 462.026641470836
46.6479 461
46.66801 487.00497053359
46.68813 482.994590360266
46.70824 481.979180089421
46.72835 467.998612500097
46.74847 477.010008302326
46.76858 458.00360310731
46.78869 478.986525189711
46.80881 479.980715902782
46.82892 444.022859800402
46.84904 514.097749943904
46.86915 497.855501990743
46.88926 450.016832412052
46.90938 469.991606354453
46.92949 459.99763120127
46.9496 485
46.96972 482.994354713665
46.98983 479.985437358779
47.00995 477.066536010926
47.03006 503.05605981587
47.05017 446.010739763598
47.07029 494.98385917652
47.0904 481
47.11051 475.990519754713
47.13063 460.046068664783
47.15074 507.98378865177
47.17086 458.008064179456
47.19097 501.99010668327
47.21108 456.027941716047
47.2312 479
47.25131 502.009891847455
47.27142 508.974032328296
47.29154 458.911180358292
47.31165 444.968093342255
47.33176 470.941290432366
47.35188 482.019699140986
47.37199 453.002067797408
47.39211 474.006133035556
47.41222 482.041596378483
47.43233 528.978401498334
47.45245 462.897110028575
47.47256 472.975778719134
47.49267 472.965923059803
47.51279 497.015767837425
47.5329 448
47.55302 529.011185467664
47.57313 454.919974034439
47.59324 477.095006353399
47.61336 498.016872856428
47.63347 478.016619470936
47.65358 473.021942714376
47.6737 448
47.69381 484.008564846211
47.71393 453.909745648028
47.73404 416.041276415899
47.75415 468.944749969244
47.77427 453.99378021628
47.79438 491.970197843109
47.81449 482.019838879245
47.83461 439.98689513283
47.85472 441.022219703693
47.87483 454.97315246854
47.89495 423.99622639728
47.91506 464.893028824555
47.93518 492.009781122301
47.95529 462.011557043922
47.9754 457
47.99552 457.017245143626
48.01563 480.002990672293
48.03574 460.973065693341
48.05586 467.968041807941
48.07597 478.995103875279
48.09609 490.980167742959
48.1162 526
48.13631 461.980297595716
48.15643 468.009449384967
48.17654 455.992286142112
48.19665 474.925548616867
48.21677 491.016405253324
48.23688 467.009714414108
48.257 480
48.27711 482.995006187031
48.29722 463.975308644181
48.31734 448.008643461342
48.33745 458.98155106855
48.35756 438.009172185747
48.37768 452.992086446572
48.39779 460.979201393335
48.4179 512
48.43802 472.987416517483
48.45813 499.01511436833
48.47825 473.937562238287
48.49836 472.975419948173
48.51847 486.977928295385
48.53859 488.013177987947
48.5587 461
48.57881 494.997252849974
48.59893 468.044544236981
48.61904 533.00113932482
48.63916 469.057187698673
48.65927 495.994398250481
48.67938 452.036810287104
48.6995 454
48.71961 468.006173547224
48.73972 482.016157483986
48.75984 491.989256384249
48.77995 472.060771619022
48.80006 454.021245193998
48.82018 458.97211605493
48.84029 500.980371081091
48.86041 506.979172537937
48.88052 444.96014723056
48.90063 451.051209533943
48.92075 480.019514891864
48.94086 472.999624801323
48.96097 488.972622214271
48.98109 488.014196535991
49.0012 445
49.02132 446.046834206488
49.04143 509.059653480891
49.06154 505.945741135126
49.08166 485.99957046823
49.10177 496.005008073793
49.12188 479.007635530814
49.142 488
49.16211 500.015300635893
49.18223 521.95363040231
49.20234 461.958542126238
49.22245 494.917379547558
49.24257 495.019471527229
49.26268 480.025790813979
49.28279 467.982212342896
49.30291 520.001346927926
49.32302 476.980338615537
49.34313 503.038165897105
49.36325 491.906087427656
49.38336 467.959212650736
49.40348 507.996066336339
49.42359 474.009018892288
49.4437 486
49.46382 481.028979294037
49.48393 531.024120989666
49.50404 492.884193258468
49.52416 463.968494107125
49.54427 511.922117851759
49.56439 541.995285628593
49.5845 537
49.60461 513.983369783757
49.62473 481.975727751472
49.64484 477.981299497128
49.66495 464.99270633588
49.68507 485.96766299911
49.70518 502.975724162164
49.7253 516
49.74541 464.98947900789
49.76552 486.023902409214
49.78564 488.993978693436
49.80575 494.030178491704
49.82586 502.012980001621
49.84598 478.033899401781
49.86609 461.988642540005
49.8862 516
49.90632 541.99059309217
49.92643 517.98070385467
49.94655 526.033135677574
49.96666 530.008746319339
49.98677 543.913295221169
50.00689 609.994188410957
50.027 579
50.04711 629.021943110835
50.06723 633.982318164784
50.08734 629.006572682765
50.10746 622.073878729378
50.12757 584.980126149653
50.14768 626.004498547525
50.1678 568
50.18791 557.992164834111
50.20802 524.979952343799
50.22814 536.06070206788
50.24825 553.044554210262
50.26837 524.987971570686
50.28848 560.990643105405
50.30859 523.025613824808
50.32871 491.994816890829
50.34882 482.9732837164
50.36893 453.001159299187
50.38905 495.149448546006
50.40916 523.062218614754
50.42927 457.073571986318
50.44939 463.974534294893
50.4695 521
50.48962 504.926569568971
50.50973 442.032526095579
50.52984 515.034202427493
50.54996 475.977151592
50.57007 544.959866152375
50.59018 508.022485248974
50.6103 526
50.63041 505.995598858323
50.65053 525.038981493493
50.67064 544.036478309656
50.69075 541.127390897346
50.71087 471.048056035067
50.73098 491.967508365439
50.75109 511.987787098851
50.77121 542.009515940461
50.79132 546.00088348883
50.81143 551.006470367336
50.83155 565.096634035094
50.85166 600.025615400583
50.87178 545.047328748885
50.89189 544.981057540342
50.912 578
50.93212 541.976466070401
50.95223 550.024848346237
50.97234 555.998050177932
50.99246 550.025183573338
51.01257 538.998994236901
51.03269 538.012999799592
51.0528 500
51.07291 512.00024611243
51.09303 489.971730521638
51.11314 490.01873365496
51.13325 494.016646537678
51.15337 496.942862310383
51.17348 526.050360459461
51.1936 427
51.21371 464.022904077159
51.23382 468.987119918631
51.25394 448.921725007065
51.27405 416.964048236817
51.29416 467.923115263681
51.31428 452.063357749107
51.33439 409.978967580792
51.3545 483
51.37462 400.9816497644
51.39473 471.076175253336
51.41485 446.880101464042
51.43496 425.986150124945
51.45507 442.987023113617
51.47519 442.995347508752
51.4953 462
51.51541 454.99158951292
51.53553 438.981703785198
51.55564 435.011941100063
51.57576 450.952136692776
51.59587 454.067650445762
51.61598 409.965635223425
51.6361 497
51.65621 456.981920923828
51.67632 458.995819110676
51.69644 436.986230506413
51.71655 452.965671010004
51.73667 453.000461817323
51.75678 455.00652160515
51.77689 435.013639459095
51.79701 430.020533550398
51.81712 476.988401467303
51.83723 411.92690610002
51.85735 415.054476070601
51.87746 423.011264964721
51.89757 417.985692612802
51.91769 426.011838988485
51.9378 400
51.95792 474.040794473233
51.97803 451.940202904649
51.99814 437.016623995021
52.01826 448.010625974846
52.03837 431.007558679891
52.05848 448.971684902642
52.0786 461
52.09871 432.999405464488
52.11883 458.021853964639
52.13894 439.927103210382
52.15905 417.970168495564
52.17917 441.012200739205
52.19928 418.976212094145
52.21939 477.988413435789
52.23951 449.988096235303
52.25962 457.009515060497
52.27974 448.965374259334
52.29985 431.962708722116
52.31996 429.959509726939
52.34008 454.000395727065
52.36019 436.000316254042
52.3803 462
52.40042 453.947264716289
52.42053 403.012031946695
52.44064 456.054125453899
52.46076 428.082799859201
52.48087 423.935393274537
52.50099 478.989500465435
52.5211 453
52.54121 442.01516504287
52.56133 479.999528077313
52.58144 437.917200463568
52.60155 430.950741955822
52.62167 450.997686792107
52.64178 447.975011714901
52.6619 489
52.68201 468.995328381926
52.70212 483.00778014036
52.72224 458.896418102156
52.74235 413.022909483415
52.76246 438.941794175027
52.78258 447.005688007387
52.80269 443.995677160038
52.8228 456
52.84292 450.017560206198
52.86303 482.014324371093
52.88315 456.912179686449
52.90326 450.923243373992
52.92337 499.984923945256
52.94349 471.009251384474
52.9636 491
52.98371 500.979779618917
53.00383 444.981020140148
53.02394 480.057631742233
53.04406 479.002375104237
53.06417 494.969203179143
53.08428 502.01226758359
53.1044 478
53.12451 479.016019803948
53.14462 516.007384847745
53.16474 487.930190704083
53.18485 471.997274872937
53.20497 477.998618404028
53.22508 472.004730961248
53.24519 488.974599634725
53.26531 533.993223252992
53.28542 468.943536048806
53.30553 459.023624034353
53.32565 477.043588185212
53.34576 507.879557553771
53.36587 560.016479276813
53.38599 505.012337450437
53.4061 520
53.42622 477.983102615451
53.44633 501.03132231379
53.46644 501.00379429857
53.48656 502.050777677262
53.50667 469.98922522675
53.52678 509.979793762129
53.5469 501
53.56701 524.001436448741
53.58713 499.971159023356
53.60724 498.999122474858
53.62735 492.007071478582
53.64747 504.955549675563
53.66758 535.984472982405
53.68769 531.007015226917
53.70781 521.999417998762
53.72792 529.012739422344
53.74804 546.043756453934
53.76815 559.980615319117
53.78826 535.047062981159
53.80838 536.966590218599
53.82849 575.993939021994
53.8486 551
53.86872 529.007757011981
53.88883 560.054013206656
53.90894 568.93492928504
53.92906 528.996353869359
53.94917 571.948254747931
53.96929 575.999679734731
53.9894 585
54.00951 583.006559050616
54.02963 586.927456598814
54.04974 509.924157447009
54.06985 543.821626112024
54.08997 594.990931300836
54.11008 565.032474028231
54.1302 561
54.15031 579.993917262896
54.17042 557.014350488569
54.19054 593.993320106113
54.21065 557.994904241513
54.23076 599.97383209319
54.25088 566.030042178004
54.27099 565.99721070959
54.29111 562.999381009429
54.31122 567.002383386671
54.33133 570.018900380962
54.35145 591.047323706426
54.37156 587.074916879587
54.39167 549.987187613073
54.41179 584.003030876199
54.4319 536
54.45201 560.019253485387
54.47213 582.01386429402
54.49224 575.944328928636
54.51236 547.004308727327
54.53247 566.985207652995
54.55258 560.995393621125
54.5727 576
54.59281 551.987261767063
54.61292 540.998977361989
54.63304 546.023403779028
54.65315 551.039735012268
54.67327 531.984840572144
54.69338 573.956124919373
54.71349 592.003236336089
54.73361 575.994033599514
54.75372 565.976609264761
54.77383 545.019424248919
54.79395 589.101290138993
54.81406 597.039901095772
54.83417 567.039828283316
54.85429 559.992176888428
54.8744 593
54.89452 613.979459132397
54.91463 566.944302840337
54.93474 551.968306965966
54.95486 541.948191194146
54.97497 581.001741004414
54.99508 547.006000101249
55.0152 576
55.03531 553.993370322986
55.05543 554.970514599958
55.07554 517.968471638908
55.09565 527.001995974929
55.11577 515.980343638733
55.13588 559.953324461791
55.15599 581.002875492823
55.17611 546.968793769077
55.19622 501.016658183138
55.21634 554.033753571225
55.23645 522.952339786007
55.25656 543.941193508234
55.27668 544.035886062849
55.29679 510.992099500331
55.3169 561
55.33702 532.956711702523
55.35713 506.983161506528
55.37724 512.051289662902
55.39736 543.962446798785
55.41747 543.012823664973
55.43759 529.0146538699
55.4577 509
55.47781 538.980887977365
55.49793 464.995805339033
55.51804 542.11824227477
55.53815 534.069362369321
55.55827 516.038939611457
55.57838 484.017617682856
55.5985 491
55.61861 505.998208823795
55.63872 489.989601840124
55.65884 486.976975925527
55.67895 471.00042918669
55.69906 500.892072041138
55.71918 538.015831446067
55.73929 486.017567004587
55.75941 493.010991743227
55.77952 502.997876037373
55.79963 500.011078967061
55.81975 510.991242165344
55.83986 498.992775263124
55.85997 511.016328864516
55.88009 485.000823575889
55.9002 511
55.92031 502.992818643669
55.94043 493.983931024884
55.96054 485.006961929565
55.98066 498.976815437046
56.00077 492.043549361981
56.02088 469.98191732134
56.041 509
56.06111 474.984002742767
56.08122 476.022372400145
56.10134 509.088164142369
56.12145 534.064220359668
56.14157 488.006166615508
56.16168 517.008920530393
56.18179 470.006856157003
56.20191 503.010922946416
56.22202 486.976910506257
56.24213 487.034265416189
56.26225 515.038451041813
56.28236 508.04335188304
56.30248 470.062920508895
56.32259 430.97820634432
56.3427 519
56.36282 473.946386876096
56.38293 456.992514782907
56.40304 455.033821487341
56.42316 478.99431022397
56.44327 465.993505549847
56.46338 491.981524895562
56.4835 486
56.50361 475.002331611909
56.52373 489.013169234813
56.54384 484.979932471828
56.56395 484.951706918734
56.58407 507.002445125645
56.60418 479.030502782371
56.62429 465.999380632057
56.64441 483.018729227647
56.66452 518.004138129235
56.68464 497.981267921545
56.70475 512.039164493694
56.72486 517.987427979207
56.74498 525.002153985845
56.76509 514.004780776915
56.7852 504
56.80532 476.988304748797
56.82543 473.96938961457
56.84554 441.977450040715
56.86566 454.982491939098
56.88577 449.999831493303
56.90589 453.00761604616
56.926 436
56.94611 484.015744165153
56.96623 487.010726501473
56.98634 495.951564499282
57.00645 450.05093398498
57.02657 471.94857274056
57.04668 492.988477203133
57.0668 489
57.08691 459.002677479804
57.10702 490.01122388088
57.12714 478.012724692046
57.14725 495.054171708522
57.16736 449.012317591687
57.18748 493.957232139517
57.20759 489.022740352944
57.22771 445.998014761149
57.24782 469.001757989822
57.26793 439.968289063969
57.28805 456.11063123664
57.30816 492.995840586659
57.32827 462.052519407133
57.34839 449.995210078128
57.3685 467
57.38861 476.010933084525
57.40873 502.008190316519
57.42884 492.007774207454
57.44896 517.947059398169
57.46907 518.048505708014
57.48918 476.022273539312
57.5093 480
57.52941 475.995387643606
57.54952 471.002183187822
57.56964 467.953162672168
57.58975 447.942920789734
57.60987 500.9542056882
57.62998 485.034271374734
57.65009 461.006390200414
57.67021 455.999396279718
57.69032 458.008658598295
57.71043 474.030520268341
57.73055 480.946306502824
57.75066 450.011899876822
57.77078 466.996289130052
57.79089 446.010383537252
57.811 448
57.83112 468.998807012039
57.85123 449.981969918845
57.87134 451.997262463392
57.89146 452.9473499888
57.91157 484.012726419148
57.93168 445.015943042873
57.9518 460
57.97191 439.999612836183
57.99203 466.030948899676
58.01214 469.009321746726
58.03225 468.082846001923
58.05237 428.986969305379
58.07248 477.97213352342
58.09259 467.003284302585
58.11271 474.994706966553
58.13282 456.016028486908
58.15294 488.976676702402
58.17305 436.933411366249
58.19316 449.996094372999
58.21328 429.004896522517
58.23339 451.988239646182
58.2535 456
58.27362 453.01386996781
58.29373 464.969994469766
58.31385 427.978395712937
58.33396 449.980306187607
58.35407 428.046123428986
58.37419 421.98521561077
58.3943 458
58.41441 429.993332910524
58.43453 459.081808849855
58.45464 493.972303414887
58.47475 445.101389010251
58.49487 444.95486284178
58.51498 467.014318867468
58.5351 436
58.55521 466.004592051752
58.57532 446.995470827797
58.59544 472.053967531551
58.61555 486.960693815152
58.63566 494.048869614942
58.65578 450.028084735195
58.67589 444.006278202117
58.69601 428.006344261121
58.71612 466.027566559063
58.73623 461.967571740733
58.75635 442.975558304244
58.77646 439.015548033877
58.79657 433.978862229397
58.81669 464.985577820641
58.8368 475
58.85691 462.996787480226
58.87703 462.99547767359
58.89714 458.007061229484
58.91726 472.962865789206
58.93737 479.022860436716
58.95748 457.005220604722
58.9776 472
58.99771 472.996245049975
59.01782 468.002994238148
59.03794 467.961176869984
59.05805 452.92551443758
59.07817 509.961793391026
59.09828 478.056736060321
59.11839 437.008174810099
59.13851 446.013272041209
59.15862 471.011644452209
59.17873 472.006633848154
59.19885 479.993875591351
59.21896 458.072330658231
59.23908 433.98996487992
59.25919 477.972235646797
59.2793 510
59.29942 485.989679598399
59.31953 485.962576341377
59.33964 452.016993352087
59.35976 487.012335142341
59.37987 433.060995423685
59.39998 450.938893584417
59.4201 491
59.44021 424.992358635849
59.46033 469.039657464441
59.48044 451.979496865025
59.50055 475.912085182861
59.52067 492.016714918262
59.54078 468.014268212783
59.56089 470.997269628304
59.58101 461.987249073204
59.60112 439.001038178929
59.62124 471.096779100584
59.64135 499.968497272835
59.66146 460.061255939304
59.68158 453.004865767964
59.70169 445.995864286216
59.7218 473
59.74192 496.015215287551
59.76203 499.982364177693
59.78215 482.982355342049
59.80226 490.973786030961
59.82237 501.983051210485
59.84249 511.997810090037
59.8626 529
59.88271 580.99718158703
59.90283 530.964959823457
59.92294 551.019838402243
59.94305 525.084837069813
59.96317 512.981235300491
59.98328 518.037132987926
60.0034 469
60.02351 515.004210300003
60.04362 475.982127965192
60.06374 503.054913489265
60.08385 502.035933912189
60.10396 491.011753749099
60.12408 479.030802037137
60.14419 454.989153415977
60.16431 501.004758447291
60.18442 465.972900662208
60.20453 463.982835174097
60.22465 440.995438119728
60.24476 464.956737143547
60.26487 469.001893897373
60.28499 469.00230923099
60.3051 450
60.32522 429.033190866211
60.34533 486.017798958054
60.36544 438.897423917037
60.38556 431.935783815895
60.40567 475.949819926629
60.42578 468.0582737356
60.4459 413
60.46601 469.006894398386
60.48612 437.004483806374
60.50624 485.032465478147
60.52635 458.016834446862
60.54647 480.006489135582
60.56658 440.029471863563
60.58669 448.98521374214
60.60681 458.983902285752
60.62692 421.015608805762
60.64703 476.031142326027
60.66715 449.968921323621
60.68726 463.019378743652
60.70738 426.020312856222
60.72749 437.991886605897
60.7476 435
60.76772 422.007024099475
60.78783 441.011465378842
60.80794 428.966293051871
60.82806 428.952267702145
60.84817 460.974656955075
60.86828 462.989821329728
60.8884 464
60.90851 398.996851128533
60.92863 457.07975970593
60.94874 461.962595047705
60.96885 446.027712714642
60.98897 452.945517640307
61.00908 491.000055972541
61.02919 459.008985065782
61.04931 472.007582733248
61.06942 467.984087163954
61.08954 451.977542398229
61.10965 449.010491210676
61.12976 452.011042997963
61.14988 447.985113953325
61.16999 485.976320536841
61.1901 509
61.21022 459.964125665999
61.23033 461.034037369349
61.25045 481.019580091079
61.27056 466.077836690969
61.29067 430.006364077463
61.31079 465.972209575442
61.3309 497
61.35101 456.995136293368
61.37113 483.023049730525
61.39124 476.009544918181
61.41135 491.026485132303
61.43147 467.979348871642
61.45158 507.99399573561
61.4717 482
61.49181 520.006431349956
61.51192 491.974026877693
61.53204 491.009141068059
61.55215 498.929054846942
61.57226 534.973932325308
61.59238 527.993663492456
61.61249 542.00876446992
61.63261 494.982696196037
61.65272 496.018787364017
61.67283 519.046717228737
61.69295 543.999706405983
61.71306 525.025485444101
61.73317 530.981442186094
61.75329 527.015391292249
61.7734 500
61.79352 544.008235207695
61.81363 522.021293439312
61.83374 577.067679161125
61.85386 570.012685504063
61.87397 583.981584025454
61.89408 587.989000445284
61.9142 601
61.93431 578.992229523583
61.95442 594.046942251441
61.97454 628.953936073328
61.99465 568.080082192954
62.01477 594.92512236279
62.03488 625.994633964171
62.05499 620.996820554766
62.07511 630.992031205274
62.09522 609.021536285211
62.11533 657.011380228164
62.13545 632.041290433045
62.15556 681.998187451953
62.17568 638.999441330657
62.19579 691.986748850587
62.2159 669
62.23602 682.011414927292
62.25613 681.010514910143
62.27624 679.909102744089
62.29636 624.984060550703
62.31647 676.992390148464
62.33659 630.006422159723
62.3567 666
62.37681 628.978038931438
62.39693 617.024138529809
62.41704 639.01900776214
62.43715 638.971429142269
62.45727 657.002458831428
62.47738 628.037525333542
62.49749 600.009192159131
62.51761 594.004775519995
62.53772 594.965224680162
62.55784 563.074078362155
62.57795 631.994104603164
62.59806 553.114233315858
62.61818 558.986652037726
62.63829 547.007119755436
62.6584 543
62.67852 523.962126787549
62.69863 494.014072051635
62.71875 544.150994616078
62.73886 570.048703430437
62.75897 525.030072701286
62.77909 533.003080677023
62.7992 528
62.81931 593.986777478129
62.83943 501.961622015994
62.85954 561.062153346769
62.87965 511.1783270177
62.89977 489.936294711411
62.91988 550.979598117526
62.94 518
62.96011 502.998639352985
62.98022 503.006333740144
63.00034 512.008534657121
63.02045 524.895180295146
63.04056 562.045917395329
63.06068 489.056846861155
63.08079 488.983831479124
63.10091 512.999511742926
63.12102 487.968508626969
63.14113 483.056247875654
63.16125 516.920265121163
63.18136 444.052140605601
63.20147 490.911496558196
63.22159 509.007936307089
63.2417 483
63.26182 486.024320079576
63.28193 511.0083883853
63.30204 492.948016878601
63.32216 463.088902817571
63.34227 427.984727193574
63.36238 470.972761640938
63.3825 463
63.40261 476.02293375152
63.42272 521.004185645926
63.44284 498.005837112907
63.46295 530.965437517099
63.48307 502.069429324248
63.50318 471.007693101749
63.52329 489.979452823377
63.54341 522.999221619628
63.56352 488.962042348013
63.58363 481.042213596443
63.60375 507.95540291461
63.62386 466.003043129322
63.64398 505.981867565996
63.66409 479.01604474306
63.6842 481
63.70432 501.958162490234
63.72443 426.955427111004
63.74454 464.095594344153
63.76466 484.977232192279
63.78477 501.970485008847
63.80489 508.010714911999
63.825 478
63.84511 499.008318283661
63.86523 505.029332354009
63.88534 526.977595670113
63.90545 499.974106523716
63.92557 537.996141806571
63.94568 500.020359418146
63.96579 533.966616958216
63.98591 571.984033623893
64.00602 508.986240239792
64.02614 550.043143153746
64.04625 519.8994389065
64.06636 505.983753743649
64.08648 527.968162725121
64.10659 550.002083701492
64.1267 522
64.14682 506.004870569582
64.16693 529.051777846582
64.18705 549.970815962146
64.20716 518.041035814546
64.22727 516.011225842391
64.24739 499.003093285574
64.2675 513
64.28761 524.995368780696
64.30773 491.926546462472
64.32784 449.962536334736
64.34796 463.919658924881
64.36807 503.97132644877
64.38818 500.008978222531
64.4083 489
64.42841 460.000735580424
64.44852 490.025154795056
64.46864 485.950756220241
64.48875 465.002863106128
64.50886 478.983061512289
64.52898 475.002777168641
64.54909 487.985255432348
64.56921 512.999089901515
64.58932 482.962773880328
64.60943 454.966432017438
64.62955 453.093388423097
64.64966 507.938456666166
64.66977 497.044372759897
64.68989 477.002444548936
64.71 474
64.73012 447.996624402154
64.75023 468.022969029118
64.77034 470.015406265302
64.79046 470.079973051137
64.81057 419.995378540672
64.83068 468.97577435434
64.8508 447
64.87091 453.002411142454
64.89102 449.005836827151
64.91114 460.99146796556
64.93125 443.016482031252
64.95137 451.994268774251
64.97148 446.99671110227
64.99159 469.981655685858
65.01171 490.99061355071
65.03182 461.011500118549
65.05193 503.013186235123
65.07205 466.927277044155
65.09216 469.981604941269
65.11228 468.004563736509
65.13239 454.019334273788
65.1525 411
65.17262 436.02827819375
65.19273 449.016589972959
65.21284 459.998234769633
65.23296 445.038621757151
65.25307 432.007963956494
65.27319 422.014078052557
65.2933 402
65.31341 461.015410668206
65.33353 448.982713415131
65.35364 467.066812796672
65.37375 479.081225606213
65.39387 434.002909641275
65.41398 473.975023125648
65.43409 450.025033563883
65.45421 412.996651786528
65.47432 434.029175840691
65.49444 444.97085982392
65.51455 408.885526085628
65.53466 389.932764408901
65.55478 452.957217361328
65.57489 450.012762515149
65.595 434
65.61512 446.002883970312
65.63523 444.023396142686
65.65535 471.023625499769
65.67546 459.017336841649
65.69557 447.069509796174
65.71569 399.990909951923
65.7358 466
65.75591 445.999206788838
65.77603 465.964272278089
65.79614 412.996013125352
65.81626 467.925289762853
65.83637 457.024635416753
65.85648 472.956799223944
65.8766 500
65.89671 424.963089991764
65.91682 394.00715615778
65.93694 424.084739587961
65.95705 454.987166072791
65.97716 433.072584551626
65.99728 417.970366506744
66.01739 470.98452099689
66.03751 452.975535313965
66.05762 426.030530075658
66.07773 470.971035042485
66.09785 393.876773285832
66.11796 415.895337702242
66.13807 440.033962343188
66.15819 405.995628296485
66.1783 453
66.19842 437.981248757858
66.21853 442.023888265763
66.23864 451.993680411482
66.25876 440.018331359031
66.27887 440.989381893551
66.29898 447.995304657874
66.3191 453
66.33921 456.991127333697
66.35933 423.961612591764
66.37944 424.043594661765
66.39955 441.027200327031
66.41967 419.985432781183
66.43978 436.043067461205
66.45989 368.994690433372
66.48001 451.022532295377
66.50012 419.961045907607
66.52023 427.058955347598
66.54035 453.958044239911
66.56046 416.009923459267
66.58058 445.987063305791
66.60069 428.005442537211
66.6208 438
66.64092 435.004975867637
66.66103 440.973569683021
66.68114 416.017349512184
66.70126 449.980842312363
66.72137 427.021548078257
66.74149 439.991054543855
66.7616 441
66.78171 421.995091651038
66.80183 424.00599771337
66.82194 423.999528635864
66.84205 428.970565830413
66.86217 435.021121153637
66.88228 407.020965541289
66.90239 412.983899907967
66.92251 441.998266823918
66.94262 410.975600545548
66.96274 409.005320512017
66.98285 410.026904240612
67.00296 421.01977452595
67.02308 394.01899236585
67.04319 398.989932640126
67.0633 418
67.08342 421.005345312804
67.10353 434.024563407737
67.12365 435.934580344776
67.14376 408.972603236398
67.16387 442.015756319087
67.18399 397.003543376478
67.2041 436
67.22421 413.987136451454
67.24433 415.029138797431
67.26444 433.009537220985
67.28456 435.952007095995
67.30467 463.016961603277
67.32478 429.996383659061
67.3449 463
67.36501 425.999030642901
67.38512 462.008297798228
67.40524 428.955015934115
67.42535 439.960036394689
67.44546 453.933656602116
67.46558 474.047324368492
67.48569 397.006849358777
67.50581 452.018103611244
67.52592 432.97609070845
67.54603 443.04906272184
67.56615 472.023802285847
67.58626 454.075640649265
67.60637 436.943946401268
67.62649 501.984412469683
67.6466 470
67.66672 432.014015661652
67.68683 491.105610575343
67.70694 526.975533105723
67.72706 486.072162651808
67.74717 480.970613499593
67.76728 498.006600485546
67.7874 469
67.80751 466.013290119612
67.82763 497.009161464012
67.84774 476.963158652951
67.86785 477.972876367752
67.88797 497.94343357077
67.90808 523.027433185485
67.92819 462.01757844082
67.94831 470.004877896889
67.96842 460.993050792134
67.98853 472.03614151345
68.00865 497.0451782386
68.02876 504.002019954846
68.04888 509.975380613488
68.06899 536.999522331138
68.0891 519
68.10922 544.025933622002
68.12933 537.931468905744
68.14944 487.979017958117
68.16956 521.920746708306
68.18967 523.065556945411
68.20979 479.994932444208
68.2299 525
68.25001 493.997821712357
68.27013 516.97686116126
68.29024 469.988141268701
68.31035 505.984483964463
68.33047 469.032698629775
68.35058 483.984831186208
68.3707 475
68.39081 456.993998553217
68.41092 461.027198874104
68.43104 487.99149464635
68.45115 465.003646416436
68.47126 478.06243284749
68.49138 422.004805674336
68.51149 470.985357529728
68.5316 445
68.55172 425.00795580379
68.57183 449.035759024836
68.59195 457.98774723725
68.61206 446.026217940874
68.63217 435.01677543003
68.65229 429.994961469848
68.6724 448
68.69251 426.971191857164
68.71263 379.022415839337
68.73274 447.116130933344
68.75286 446.094334557581
68.77297 399.019214695547
68.79308 427.955651952548
68.8132 451
68.83331 425.993690722611
68.85342 440.027135001671
68.87354 460.011095427566
68.89365 440.122530584111
68.91376 402.958870822912
68.93388 457.980147635771
68.95399 428.012583902698
68.97411 425.992629108402
68.99422 400.000490206274
69.01433 429.032853960075
69.03445 428.995810054228
69.05456 440.959066410134
69.07467 453.012963891125
69.09479 434.003310538303
69.1149 429
69.13502 380.994631435486
69.15513 425.069577432721
69.17524 428.925733720554
69.19536 390.998241149806
69.21547 425.962511515264
69.23558 414.032023027341
69.2557 404
69.27581 462.012591076667
69.29593 441.962598341166
69.31604 435.994168647052
69.33615 438.93123931795
69.35627 463.039964750126
69.37638 412.998194223269
69.39649 464.987457688379
69.41661 440.990773620251
69.43672 443.986155275578
69.45683 422.025580944074
69.47695 459.983941053263
69.49706 419.994768901916
69.51718 466.983069368938
69.53729 432.017182302057
69.5574 427
69.57752 426.01196250297
69.59763 438.980319805535
69.61774 417.027044253231
69.63786 456.975022502261
69.65797 434.019510949863
69.67809 448.9922479274
69.6982 441
69.71831 414.997804016328
69.73843 424.99696005049
69.75854 405.970952109165
69.77865 405.991389221385
69.79877 412.967461527749
69.81888 426.030570155752
69.839 378
69.85911 424.019555967132
69.87922 416.963448868271
69.89934 397.053127308724
69.91945 447.050590463441
69.93956 419.08343772824
69.95968 414.948805048389
69.97979 460.02046020597
69.9999 375
70.02002 449.03465079114
70.04013 399.913229424943
70.06025 399.119540222621
70.08036 440.028239080614
70.10047 397.992059135788
70.12059 444.99629773935
70.1407 403
70.16081 438.02573362737
70.18093 451.940273789061
70.20104 398.982315679504
70.22116 443.898166745248
70.24127 453.050863339242
70.26138 406.028419574821
70.2815 412
70.30161 431.00135695773
70.32172 414.972976371175
70.34184 397.00785882902
70.36195 421.920132020768
70.38207 435.027733026799
70.40218 403.014478142671
70.42229 418.985741553207
70.44241 429.990474462523
70.46252 400.993929300956
70.48263 422.029412165505
70.50275 422.982990854723
70.52286 412.044148776772
70.54297 391.99591397153
70.56309 411.994512744439
70.5832 402
70.60332 399.01732787521
70.62343 427.03323297137
70.64354 425.948985169849
70.66366 392.048527405115
70.68377 384.003648197747
70.70388 394.957125466983
70.724 439
70.74411 394.988718460522
70.76423 413.026732261345
70.78434 417.033650795865
70.80445 444.974607973534
70.82457 429.03263970215
70.84468 417.006671269562
70.86479 408.007130923653
70.88491 399.00500968977
70.90502 428.03394621807
70.92513 439.964739322432
70.94525 409.008133564696
70.96536 430.038346993856
70.98548 381.01008109639
71.00559 423.979308197355
71.0257 432
71.04582 436.00730534683
71.06593 432.965390961153
71.08604 396.936862958423
71.10616 393.934186962215
71.12627 432.988801437911
71.14639 400.022271562934
71.1665 379
71.18661 407.013546601417
71.20673 417.997615946181
71.22684 403.940415760305
71.24695 391.892438772885
71.26707 450.007650431323
71.28718 392.022136786828
71.3073 422
71.32741 387.985484919008
71.34752 388.004932335195
71.36764 386.006631427273
71.38775 404.919312359929
71.40786 423.044279457512
71.42798 390.985113481715
71.44809 446.983001053812
71.4682 420
71.48832 383.032092607173
71.50843 440.998180184574
71.52855 388.975648791464
71.54866 445.890303226246
71.56877 451.037298978335
71.58889 430.999989955863
71.609 447
71.62911 442.992308545942
71.64923 435.019438581927
71.66934 447.957074798765
71.68946 404.038578111192
71.70957 407.035030611525
71.72968 373.976662518745
71.7498 437
71.76991 409.002171533026
71.79002 462.03821640307
71.81014 452.947815943194
71.83025 427.094796975515
71.85037 399.970048999664
71.87048 449.973650211803
71.89059 434.011852985605
71.91071 435.011865743183
71.93082 464.018334327919
71.95093 457.957195019758
71.97105 422.933326383162
71.99116 417.968146562447
72.01127 441.970339873349
72.03139 449.999719877485
72.0515 437
72.07162 407.018811225731
72.09173 451.005486248398
72.11184 402.908383282363
72.13196 403.921575732514
72.15207 445.973897429098
72.17218 443.989212523995
72.1923 462
72.21241 419.984560628859
72.23253 425.039104844483
72.25264 441.98450777905
72.27275 419.032131251173
72.29287 424.98722400123
72.31298 417.02717031726
72.33309 394.994655071045
72.35321 430.011547950854
72.37332 433.010269467073
72.39344 453.009033959716
72.41355 432.928485846179
72.43366 422.959253233046
72.45378 458.975197826986
72.47389 441.032879191006
72.494 384
72.51412 440.004682959034
72.53423 400.021290642043
72.55434 466.03324532706
72.57446 419.047414375032
72.59457 443.980924420503
72.61469 417.016463337402
72.6348 411
72.65491 436.003732204907
72.67503 420.969092996073
72.69514 421.060607256678
72.71525 445.072355596536
72.73537 395.983730340156
72.75548 457.976096221713
72.7756 416
72.79571 416.018360390826
72.81582 440.974173082797
72.83594 389.977678137776
72.85605 424.943534156981
72.87616 411.033046626207
72.89628 414.986416920214
72.91639 429.990576528678
72.9365 446
72.95662 437.990820476545
72.97673 439.018483602856
72.99685 442.936936613539
73.01696 411.983906450291
73.03707 446.992208464396
73.05719 416.008283621841
73.0773 440
73.09741 472.0114890224
73.11753 472.949490617581
73.13764 428.966392516242
73.15776 444.965502782849
73.17787 440.029048318816
73.19798 425.996433166931
73.2181 451
73.23821 482.006124118112
73.25832 470.972813118519
73.27844 438.93619665588
73.29855 432.896790452721
73.31867 487.980593746466
73.33878 464.000171061581
73.35889 494.995755168161
73.37901 472.996587489908
73.39912 489.001005604546
73.41923 464.968182349516
73.43935 463.015877596072
73.45946 467.9905613217
73.47957 469.011072299556
73.49969 458.002487785711
73.5198 458
73.53992 445.991413337064
73.56003 443.997242320582
73.58014 450.055855601955
73.60026 480.005247657921
73.62037 451.022054301925
73.64048 459.001403461652
73.6606 448
73.68071 471.997218073494
73.70083 446.00723040143
73.72094 483.038873491351
73.74105 467.049473332531
73.76117 461.008943950902
73.78128 449.010087225047
73.80139 442.005208935489
73.82151 436.006489839824
73.84162 460.012268067029
73.86174 454.989155953823
73.88185 458.008818872222
73.90196 453.029134172031
73.92208 438.004893349706
73.94219 441.000865889867
73.9623 424
73.98242 406.01714628707
74.00253 438.004929025731
74.02264 414.992667467814
74.04276 440.959767921084
74.06287 435.025854830145
74.08299 430.990488294295
74.1031 454
74.12321 437.003873429763
74.14333 461.992676221458
74.16344 423.945319933376
74.18355 431.938442073598
74.20367 452.976864988252
74.22378 460.002675650182
74.2439 452
74.26401 446.997242919453
74.28412 445.008823431252
74.30424 453.982230045009
74.32435 436.000204615822
74.34446 448.017235710883
74.36458 413.033818672438
74.38469 419.969864270145
74.40481 471.984307353949
74.42492 396.996450889358
74.44503 469.055604354322
74.46515 430.890610318584
74.48526 425.980428459621
74.50537 435.970349237054
74.52549 466.983280554269
74.5456 483
74.56571 445.978424757804
74.58583 423.010228512585
74.60594 450.056035367188
74.62606 459.023023318523
74.64617 437.031348530579
74.66628 429.991506894012
74.6864 441
74.70651 435.005656057014
74.72662 450.985835431599
74.74674 417.989015202081
74.76685 447.932524526862
74.78697 451.006107364291
74.80708 449.007662747428
74.82719 434.007993707302
74.84731 423.998496300359
74.86742 417.980244464684
74.88753 415.082827416866
74.90765 481.975220255363
74.92776 417.019262043091
74.94787 467.989603569586
74.96799 410.0192411753
74.9881 427
75.00822 424.984701735318
