3.00117 19904
3.02128 19901
3.0414 19080
3.06151 18918
3.08162 17785
3.10174 17143
3.12185 16950
3.14197 16392
3.16208 16111
3.18219 15327
3.20231 15227
3.22242 14747
3.24253 14047
3.26265 13804
3.28276 13379
3.30288 12795
3.32299 12646
3.3431 12110
3.36322 11914
3.38333 11167
3.40344 11286
3.42356 10772
3.44367 10548
3.46379 10314
3.4839 9606
3.50401 9288
3.52413 8970
3.54424 8642
3.56435 8731
3.58447 8138
3.60458 7859
3.62469 7504
3.64481 7276
3.66492 7189
3.68504 6848
3.70515 6651
3.72526 6191
3.74538 6026
3.76549 5909
3.7856 5513
3.80572 5495
3.82583 5339
3.84595 5095
3.86606 4782
3.88617 4646
3.90629 4680
3.9264 4209
3.94651 4100
3.96663 3997
3.98674 3852
4.00686 3689
4.02697 3555
4.04708 3394
4.0672 3305
4.08731 3043
4.10742 3087
4.12754 2989
4.14765 2768
4.16776 2812
4.18788 2738
4.20799 2452
4.22811 2421
4.24822 2312
4.26833 2396
4.28845 2173
4.30856 2228
4.32867 2075
4.34879 2030
4.3689 2023
4.38902 2060
4.40913 2015
4.42924 1883
4.44936 1761
4.46947 1864
4.48958 1873
4.5097 1796
4.52981 1675
4.54992 1601
4.57004 1677
4.59015 1663
4.61027 1615
4.63038 1564
4.65049 1540
4.67061 1544
4.69072 1524
4.71083 1478
4.73095 1443
4.75106 1408
4.77118 1377
4.79129 1359
4.8114 1338
4.83152 1298
4.85163 1207
4.87174 1266
4.89186 1212
4.91197 1214
4.93209 1192
4.9522 1237
4.97231 1204
4.99243 1253
5.01254 1150
5.03265 1189
5.05277 1074
5.07288 1103
5.09299 1058
5.11311 1089
5.13322 1099
5.15334 1033
5.17345 1025
5.19356 1024
5.21368 981
5.23379 964
5.2539 973
5.27402 1021
5.29413 969
5.31425 945
5.33436 924
5.35447 881
5.37459 872
5.3947 845
5.41481 891
5.43493 891
5.45504 888
5.47516 840
5.49527 852
5.51538 844
5.5355 795
5.55561 803
5.57572 797
5.59584 817
5.61595 783
5.63606 698
5.65618 704
5.67629 710
5.69641 714
5.71652 748
5.73663 700
5.75675 773
5.77686 762
5.79697 696
5.81709 718
5.8372 715
5.85732 737
5.87743 706
5.89754 704
5.91766 703
5.93777 679
5.95788 699
5.978 671
5.99811 692
6.01823 695
6.03834 672
6.05845 671
6.07857 703
6.09868 661
6.11879 653
6.13891 614
6.15902 645
6.17913 648
6.19925 636
6.21936 716
6.23948 645
6.25959 625
6.2797 643
6.29982 653
6.31993 643
6.34004 627
6.36016 661
6.38027 652
6.40039 569
6.4205 564
6.44061 587
6.46073 602
6.48084 586
6.50095 564
6.52107 624
6.54118 600
6.56129 600
6.58141 581
6.60152 585
6.62164 558
6.64175 537
6.66186 564
6.68198 588
6.70209 593
6.7222 550
6.74232 575
6.76243 557
6.78255 575
6.80266 564
6.82277 565
6.84289 592
6.863 594
6.88311 538
6.90323 542
6.92334 544
6.94346 535
6.96357 546
6.98368 558
7.0038 495
7.02391 544
7.04402 556
7.06414 542
7.08425 540
7.10436 557
7.12448 554
7.14459 545
7.16471 530
7.18482 485
7.20493 551
7.22505 510
7.24516 527
7.26527 542
7.28539 566
7.3055 539
7.32562 540
7.34573 530
7.36584 543
7.38596 497
7.40607 500
7.42618 537
7.4463 487
7.46641 486
7.48653 512
7.50664 560
7.52675 534
7.54687 503
7.56698 545
7.58709 486
7.60721 514
7.62732 477
7.64743 496
7.66755 519
7.68766 506
7.70778 534
7.72789 562
7.748 506
7.76812 554
7.78823 544
7.80834 526
7.82846 516
7.84857 531
7.86869 508
7.8888 551
7.90891 511
7.92903 499
7.94914 559
7.96925 546
7.98937 534
8.00948 519
8.0296 550
8.04971 541
8.06982 520
8.08994 551
8.11005 522
8.13016 541
8.15028 496
8.17039 520
8.1905 561
8.21062 503
8.23073 566
8.25085 517
8.27096 544
8.29107 583
8.31119 544
8.3313 541
8.35141 537
8.37153 547
8.39164 538
8.41176 557
8.43187 524
8.45198 521
8.4721 550
8.49221 579
8.51232 540
8.53244 586
8.55255 525
8.57266 516
8.59278 516
8.61289 535
8.63301 494
8.65312 548
8.67323 515
8.69335 499
8.71346 511
8.73357 513
8.75369 532
8.7738 496
8.79392 483
8.81403 461
8.83414 500
8.85426 429
8.87437 430
8.89448 444
8.9146 499
8.93471 438
8.95483 424
8.97494 441
8.99505 441
9.01517 442
9.03528 398
9.05539 436
9.07551 416
9.09562 427
9.11573 424
9.13585 437
9.15596 413
9.17608 391
9.19619 358
9.2163 357
9.23642 397
9.25653 404
9.27664 359
9.29676 330
9.31687 384
9.33699 395
9.3571 365
9.37721 359
9.39733 375
9.41744 379
9.43755 329
9.45767 370
9.47778 387
9.4979 375
9.51801 380
9.53812 355
9.55824 348
9.57835 366
9.59846 340
9.61858 366
9.63869 367
9.6588 351
9.67892 405
9.69903 371
9.71915 329
9.73926 376
9.75937 347
9.77949 374
9.7996 338
9.81971 343
9.83983 355
9.85994 362
9.88006 331
9.90017 348
9.92028 330
9.9404 382
9.96051 372
9.98062 331
10.00074 362
10.02085 308
10.04097 360
10.06108 334
10.08119 345
10.10131 345
10.12142 367
10.14153 358
10.16165 349
10.18176 336
10.20187 345
10.22199 359
10.2421 337
10.26222 383
10.28233 329
10.30244 350
10.32256 368
10.34267 367
10.36278 395
10.3829 374
10.40301 373
10.42313 390
10.44324 435
10.46335 426
10.48347 381
10.50358 362
10.52369 368
10.54381 364
10.56392 336
10.58403 321
10.60415 332
10.62426 321
10.64438 318
10.66449 299
10.6846 354
10.70472 349
10.72483 323
10.74494 329
10.76506 315
10.78517 343
10.80529 353
10.8254 311
10.84551 308
10.86563 315
10.88574 326
10.90585 312
10.92597 328
10.94608 329
10.9662 341
10.98631 340
11.00642 345
11.02654 323
11.04665 334
11.06676 349
11.08688 322
11.10699 317
11.1271 313
11.14722 340
11.16733 285
11.18745 335
11.20756 339
11.22767 292
11.24779 294
11.2679 335
11.28801 328
11.30813 314
11.32824 321
11.34836 352
11.36847 312
11.38858 310
11.4087 310
11.42881 305
11.44892 305
11.46904 365
11.48915 318
11.50927 301
11.52938 321
11.54949 304
11.56961 328
11.58972 342
11.60983 334
11.62995 317
11.65006 311
11.67017 287
11.69029 325
11.7104 309
11.73052 295
11.75063 327
11.77074 308
11.79086 314
11.81097 299
11.83108 320
11.8512 308
11.87131 371
11.89143 326
11.91154 366
11.93165 326
11.95177 303
11.97188 313
11.99199 371
12.01211 302
12.03222 311
12.05234 315
12.07245 336
12.09256 329
12.11268 318
12.13279 357
12.1529 347
12.17302 309
12.19313 317
12.21324 307
12.23336 317
12.25347 294
12.27359 299
12.2937 328
12.31381 346
12.33393 322
12.35404 357
12.37415 346
12.39427 323
12.41438 339
12.4345 306
12.45461 310
12.47472 350
12.49484 322
12.51495 297
12.53506 313
12.55518 319
12.57529 311
12.5954 336
12.61552 302
12.63563 326
12.65575 323
12.67586 278
12.69597 324
12.71609 327
12.7362 328
12.75631 276
12.77643 290
12.79654 307
12.81666 317
12.83677 328
12.85688 308
12.877 337
12.89711 300
12.91722 292
12.93734 302
12.95745 317
12.97757 312
12.99768 311
13.01779 326
13.03791 318
13.05802 320
13.07813 310
13.09825 317
13.11836 283
13.13847 296
13.15859 315
13.1787 356
13.19882 323
13.21893 329
13.23904 366
13.25916 326
13.27927 356
13.29938 312
13.3195 306
13.33961 326
13.35973 357
13.37984 322
13.39995 345
13.42007 339
13.44018 302
13.46029 336
13.48041 319
13.50052 317
13.52064 371
13.54075 357
13.56086 331
13.58098 381
13.60109 362
13.6212 370
13.64132 350
13.66143 383
13.68154 357
13.70166 410
13.72177 395
13.74189 404
13.762 410
13.78211 415
13.80223 407
13.82234 421
13.84245 397
13.86257 407
13.88268 383
13.9028 401
13.92291 382
13.94302 401
13.96314 340
13.98325 340
14.00336 360
14.02348 302
14.04359 335
14.06371 327
14.08382 348
14.10393 358
14.12405 307
14.14416 294
14.16427 305
14.18439 311
14.2045 324
14.22461 322
14.24473 332
14.26484 298
14.28496 336
14.30507 280
14.32518 338
14.3453 277
14.36541 305
14.38552 342
14.40564 286
14.42575 279
14.44587 304
14.46598 293
14.48609 301
14.50621 304
14.52632 318
14.54643 333
14.56655 360
14.58666 324
14.60677 318
14.62689 317
14.647 291
14.66712 295
14.68723 317
14.70734 261
14.72746 256
14.74757 287
14.76768 331
14.7878 316
14.80791 320
14.82803 318
14.84814 312
14.86825 313
14.88837 314
14.90848 320
14.92859 314
14.94871 315
14.96882 359
14.98894 337
15.00905 335
15.02916 359
15.04928 348
15.06939 351
15.0895 343
15.10962 296
15.12973 330
15.14984 330
15.16996 332
15.19007 325
15.21019 304
15.2303 321
15.25041 313
15.27053 276
15.29064 334
15.31075 328
15.33087 333
15.35098 300
15.3711 282
15.39121 310
15.41132 312
15.43144 284
15.45155 291
15.47166 303
15.49178 315
15.51189 283
15.53201 281
15.55212 322
15.57223 317
15.59235 301
15.61246 319
15.63257 325
15.65269 319
15.6728 308
15.69291 314
15.71303 314
15.73314 327
15.75326 329
15.77337 288
15.79348 317
15.8136 331
15.83371 321
15.85382 281
15.87394 303
15.89405 296
15.91417 294
15.93428 288
15.95439 345
15.97451 317
15.99462 304
16.01473 303
16.03485 305
16.05496 312
16.07508 306
16.09519 334
16.1153 294
16.13542 316
16.15553 304
16.17564 310
16.19576 291
16.21587 283
16.23598 343
16.2561 310
16.27621 307
16.29633 274
16.31644 313
16.33655 326
16.35667 305
16.37678 300
16.39689 307
16.41701 350
16.43712 303
16.45724 297
16.47735 321
16.49746 300
16.51758 351
16.53769 313
16.5578 315
16.57792 324
16.59803 309
16.61814 301
16.63826 311
16.65837 318
16.67849 297
16.6986 297
16.71871 332
16.73883 330
16.75894 316
16.77905 318
16.79917 337
16.81928 318
16.8394 300
16.85951 308
16.87962 302
16.89974 294
16.91985 322
16.93996 328
16.96008 324
16.98019 294
17.00031 317
17.02042 339
17.04053 325
17.06065 321
17.08076 357
17.10087 330
17.12099 312
17.1411 313
17.16121 340
17.18133 328
17.20144 296
17.22156 304
17.24167 338
17.26178 320
17.2819 318
17.30201 326
17.32212 331
17.34224 336
17.36235 324
17.38247 326
17.40258 338
17.42269 304
17.44281 309
17.46292 334
17.48303 308
17.50315 308
17.52326 305
17.54338 322
17.56349 291
17.5836 351
17.60372 317
17.62383 285
17.64394 323
17.66406 348
17.68417 318
17.70428 281
17.7244 306
17.74451 331
17.76463 316
17.78474 334
17.80485 326
17.82497 320
17.84508 306
17.86519 325
17.88531 314
17.90542 323
17.92554 286
17.94565 307
17.96576 315
17.98588 359
18.00599 331
18.0261 321
18.04622 338
18.06633 313
18.08645 304
18.10656 328
18.12667 297
18.14679 337
18.1669 322
18.18701 338
18.20713 296
18.22724 324
18.24735 321
18.26747 328
18.28758 302
18.3077 328
18.32781 334
18.34792 330
18.36804 304
18.38815 337
18.40826 314
18.42838 320
18.44849 305
18.46861 318
18.48872 316
18.50883 314
18.52895 322
18.54906 330
18.56917 305
18.58929 336
18.6094 341
18.62951 330
18.64963 348
18.66974 319
18.68986 296
18.70997 354
18.73008 362
18.7502 326
18.77031 351
18.79042 339
18.81054 353
18.83065 308
18.85077 336
18.87088 363
18.89099 372
18.91111 302
18.93122 311
18.95133 342
18.97145 325
18.99156 344
19.01168 340
19.03179 376
19.0519 367
19.07202 331
19.09213 323
19.11224 359
19.13236 367
19.15247 375
19.17258 414
19.1927 350
19.21281 390
19.23293 393
19.25304 413
19.27315 423
19.29327 386
19.31338 431
19.33349 422
19.35361 416
19.37372 421
19.39384 457
19.41395 471
19.43406 502
19.45418 498
19.47429 514
19.4944 513
19.51452 500
19.53463 517
19.55475 571
19.57486 590
19.59497 564
19.61509 655
19.6352 572
19.65531 591
19.67543 649
19.69554 641
19.71565 646
19.73577 626
19.75588 623
19.776 657
19.79611 672
19.81622 626
19.83634 654
19.85645 592
19.87656 574
19.89668 665
19.91679 569
19.93691 593
19.95702 536
19.97713 546
19.99725 524
20.01736 559
20.03747 537
20.05759 592
20.0777 531
20.09782 499
20.11793 494
20.13804 512
20.15816 502
20.17827 512
20.19838 512
20.2185 481
20.23861 491
20.25872 520
20.27884 496
20.29895 537
20.31907 482
20.33918 502
20.35929 449
20.37941 509
20.39952 473
20.41963 501
20.43975 440
20.45986 487
20.47998 462
20.50009 517
20.5202 489
20.54032 465
20.56043 452
20.58054 482
20.60066 523
20.62077 561
20.64088 578
20.661 643
20.68111 744
20.70123 835
20.72134 1070
20.74145 1232
20.76157 1456
20.78168 1604
20.80179 1685
20.82191 1716
20.84202 1701
20.86214 1486
20.88225 1281
20.90236 1095
20.92248 888
20.94259 796
20.9627 737
20.98282 693
21.00293 602
21.02305 637
21.04316 611
21.06327 510
21.08339 489
21.1035 538
21.12361 507
21.14373 444
21.16384 468
21.18395 478
21.20407 419
21.22418 418
21.2443 419
21.26441 433
21.28452 445
21.30464 416
21.32475 441
21.34486 433
21.36498 404
21.38509 410
21.40521 477
21.42532 394
21.44543 409
21.46555 416
21.48566 425
21.50577 420
21.52589 406
21.546 402
21.56612 433
21.58623 392
21.60634 446
21.62646 397
21.64657 412
21.66668 387
21.6868 452
21.70691 407
21.72702 399
21.74714 423
21.76725 488
21.78737 439
21.80748 532
21.82759 540
21.84771 620
21.86782 664
21.88793 755
21.90805 892
21.92816 963
21.94828 1017
21.96839 1051
21.9885 923
22.00862 897
22.02873 809
22.04884 675
22.06896 646
22.08907 589
22.10919 467
22.1293 472
22.14941 451
22.16953 426
22.18964 443
22.20975 445
22.22987 431
22.24998 418
22.27009 438
22.29021 435
22.31032 442
22.33044 425
22.35055 390
22.37066 464
22.39078 460
22.41089 460
22.431 449
22.45112 442
22.47123 457
22.49135 431
22.51146 415
22.53157 416
22.55169 436
22.5718 422
22.59191 424
22.61203 420
22.63214 403
22.65225 432
22.67237 401
22.69248 431
22.7126 433
22.73271 414
22.75282 446
22.77294 452
22.79305 400
22.81316 486
22.83328 480
22.85339 444
22.87351 536
22.89362 515
22.91373 551
22.93385 526
22.95396 530
22.97407 554
22.99419 555
23.0143 529
23.03442 507
23.05453 495
23.07464 502
23.09476 493
23.11487 498
23.13498 474
23.1551 460
23.17521 504
23.19532 484
23.21544 432
23.23555 439
23.25567 487
23.27578 422
23.29589 471
23.31601 456
23.33612 444
23.35623 512
23.37635 467
23.39646 545
23.41658 595
23.43669 614
23.4568 689
23.47692 709
23.49703 721
23.51714 780
23.53726 815
23.55737 768
23.57749 696
23.5976 676
23.61771 621
23.63783 591
23.65794 553
23.67805 517
23.69817 542
23.71828 513
23.73839 501
23.75851 526
23.77862 524
23.79874 537
23.81885 542
23.83896 572
23.85908 549
23.87919 558
23.8993 613
23.91942 600
23.93953 607
23.95965 655
23.97976 626
23.99987 624
24.01999 583
24.0401 665
24.06021 629
24.08033 634
24.10044 621
24.12056 659
24.14067 668
24.16078 668
24.1809 625
24.20101 696
24.22112 716
24.24124 649
24.26135 686
24.28146 686
24.30158 620
24.32169 554
24.34181 554
24.36192 555
24.38203 537
24.40215 410
24.42226 484
24.44237 479
24.46249 434
24.4826 428
24.50272 446
24.52283 434
24.54294 450
24.56306 462
24.58317 387
24.60328 447
24.6234 462
24.64351 451
24.66362 432
24.68374 414
24.70385 413
24.72397 423
24.74408 400
24.76419 408
24.78431 431
24.80442 427
24.82453 390
24.84465 403
24.86476 463
24.88488 406
24.90499 405
24.9251 417
24.94522 430
24.96533 430
24.98544 447
25.00556 411
25.02567 504
25.04579 479
25.0659 432
25.08601 407
25.10613 477
25.12624 458
25.14635 454
25.16647 464
25.18658 465
25.20669 466
25.22681 486
25.24692 457
25.26704 469
25.28715 492
25.30726 463
25.32738 502
25.34749 503
25.3676 530
25.38772 530
25.40783 527
25.42795 571
25.44806 563
25.46817 583
25.48829 565
25.5084 586
25.52851 611
25.54863 632
25.56874 655
25.58886 645
25.60897 628
25.62908 615
25.6492 555
25.66931 539
25.68942 526
25.70954 480
25.72965 480
25.74976 469
25.76988 495
25.78999 444
25.81011 469
25.83022 485
25.85033 452
25.87045 444
25.89056 427
25.91067 525
25.93079 418
25.9509 450
25.97102 462
25.99113 483
26.01124 481
26.03136 446
26.05147 485
26.07158 524
26.0917 535
26.11181 535
26.13193 473
26.15204 548
26.17215 577
26.19227 598
26.21238 571
26.23249 660
26.25261 622
26.27272 681
26.29283 803
26.31295 819
26.33306 858
26.35318 929
26.37329 1048
26.3934 1224
26.41352 1293
26.43363 1669
26.45374 2080
26.47386 2537
26.49397 3380
26.51409 4268
26.5342 5339
26.55431 6023
26.57443 6500
26.59454 6617
26.61465 6141
26.63477 5325
26.65488 4263
26.67499 3282
26.69511 2419
26.71522 1804
26.73534 1297
26.75545 1009
26.77556 929
26.79568 862
26.81579 861
26.8359 833
26.85602 796
26.87613 782
26.89625 766
26.91636 767
26.93647 753
26.95659 749
26.9767 773
26.99681 744
27.01693 771
27.03704 810
27.05716 726
27.07727 728
27.09738 709
27.1175 636
27.13761 567
27.15772 588
27.17784 591
27.19795 532
27.21806 588
27.23818 578
27.25829 587
27.27841 624
27.29852 627
27.31863 634
27.33875 708
27.35886 787
27.37897 779
27.39909 804
27.4192 867
27.43932 932
27.45943 906
27.47954 947
27.49966 808
27.51977 809
27.53988 831
27.56 856
27.58011 839
27.60023 861
27.62034 970
27.64045 1109
27.66057 1173
27.68068 1279
27.70079 1276
27.72091 1329
27.74102 1426
27.76113 1392
27.78125 1420
27.80136 1498
27.82148 1558
27.84159 1587
27.8617 1551
27.88182 1576
27.90193 1596
27.92204 1521
27.94216 1361
27.96227 1298
27.98239 1142
28.0025 994
28.02261 972
28.04273 890
28.06284 773
28.08295 735
28.10307 755
28.12318 734
28.1433 745
28.16341 723
28.18352 766
28.20364 700
28.22375 738
28.24386 718
28.26398 657
28.28409 619
28.3042 625
28.32432 591
28.34443 524
28.36455 525
28.38466 509
28.40477 534
28.42489 475
28.445 487
28.46511 501
28.48523 461
28.50534 454
28.52546 454
28.54557 441
28.56568 436
28.5858 443
28.60591 430
28.62602 418
28.64614 427
28.66625 448
28.68636 442
28.70648 366
28.72659 397
28.74671 438
28.76682 452
28.78693 404
28.80705 421
28.82716 402
28.84727 387
28.86739 437
28.8875 415
28.90762 457
28.92773 435
28.94784 390
28.96796 423
28.98807 405
29.00818 446
29.0283 408
29.04841 420
29.06853 420
29.08864 445
29.10875 412
29.12887 461
29.14898 448
29.16909 486
29.18921 452
29.20932 538
29.22943 527
29.24955 514
29.26966 611
29.28978 619
29.30989 677
29.33 775
29.35012 877
29.37023 928
29.39034 970
29.41046 964
29.43057 1026
29.45069 998
29.4708 1055
29.49091 977
29.51103 924
29.53114 907
29.55125 784
29.57137 754
29.59148 735
29.6116 742
29.63171 664
29.65182 665
29.67194 676
29.69205 630
29.71216 664
29.73228 678
29.75239 672
29.7725 629
29.79262 709
29.81273 713
29.83285 671
29.85296 662
29.87307 612
29.89319 581
29.9133 600
29.93341 561
29.95353 576
29.97364 523
29.99376 516
30.01387 522
30.03398 501
30.0541 580
30.07421 499
30.09432 529
30.11444 525
30.13455 533
30.15467 467
30.17478 512
30.19489 538
30.21501 544
30.23512 583
30.25523 620
30.27535 651
30.29546 655
30.31557 659
30.33569 677
30.3558 700
30.37592 669
30.39603 694
30.41614 623
30.43626 695
30.45637 647
30.47648 543
30.4966 581
30.51671 517
30.53683 544
30.55694 483
30.57705 492
30.59717 464
30.61728 469
30.63739 470
30.65751 463
30.67762 500
30.69773 504
30.71785 563
30.73796 517
30.75808 487
30.77819 528
30.7983 503
30.81842 507
30.83853 453
30.85864 448
30.87876 422
30.89887 426
30.91899 387
30.9391 424
30.95921 422
30.97933 397
30.99944 396
31.01955 414
31.03967 417
31.05978 418
31.0799 414
31.10001 384
31.12012 466
31.14024 459
31.16035 412
31.18046 417
31.20058 444
31.22069 505
31.2408 469
31.26092 462
31.28103 462
31.30115 461
31.32126 440
31.34137 464
31.36149 429
31.3816 461
31.40171 400
31.42183 432
31.44194 384
31.46206 413
31.48217 369
31.50228 388
31.5224 426
31.54251 396
31.56262 453
31.58274 394
31.60285 397
31.62297 405
31.64308 368
31.66319 376
31.68331 348
31.70342 374
31.72353 408
31.74365 361
31.76376 372
31.78387 391
31.80399 389
31.8241 367
31.84422 352
31.86433 344
31.88444 368
31.90456 349
31.92467 353
31.94478 343
31.9649 352
31.98501 399
32.00513 387
32.02524 388
32.04535 389
32.06547 415
32.08558 389
32.10569 376
32.12581 403
32.14592 421
32.16604 396
32.18615 443
32.20626 419
32.22638 395
32.24649 401
32.2666 412
32.28672 408
32.30683 411
32.32694 376
32.34706 426
32.36717 401
32.38729 388
32.4074 389
32.42751 388
32.44763 420
32.46774 403
32.48785 353
32.50797 377
32.52808 369
32.5482 329
32.56831 395
32.58842 370
32.60854 365
32.62865 376
32.64876 335
32.66888 377
32.68899 381
32.7091 405
32.72922 356
32.74933 381
32.76945 393
32.78956 387
32.80967 396
32.82979 410
32.8499 437
32.87001 379
32.89013 426
32.91024 421
32.93036 440
32.95047 461
32.97058 467
32.9907 445
33.01081 454
33.03092 436
33.05104 462
33.07115 402
33.09127 485
33.11138 403
33.13149 381
33.15161 371
33.17172 383
33.19183 390
33.21195 399
33.23206 356
33.25217 374
33.27229 376
33.2924 380
33.31252 367
33.33263 322
33.35274 357
33.37286 358
33.39297 390
33.41308 369
33.4332 382
33.45331 383
33.47343 361
33.49354 342
33.51365 339
33.53377 334
33.55388 352
33.57399 387
33.59411 366
33.61422 364
33.63434 350
33.65445 361
33.67456 383
33.69468 386
33.71479 415
33.7349 403
33.75502 433
33.77513 433
33.79524 439
33.81536 430
33.83547 418
33.85559 401
33.8757 401
33.89581 382
33.91593 397
33.93604 387
33.95615 395
33.97627 395
33.99638 381
34.0165 414
34.03661 409
34.05672 398
34.07684 376
34.09695 419
34.11706 423
34.13718 405
34.15729 439
34.17741 460
34.19752 398
34.21763 443
34.23775 447
34.25786 475
34.27797 459
34.29809 477
34.3182 529
34.33831 505
34.35843 491
34.37854 525
34.39866 464
34.41877 542
34.43888 561
34.459 537
34.47911 550
34.49922 536
34.51934 499
34.53945 541
34.55957 529
34.57968 537
34.59979 503
34.61991 551
34.64002 576
34.66013 575
34.68025 514
34.70036 527
34.72047 570
34.74059 571
34.7607 524
34.78082 583
34.80093 589
34.82104 584
34.84116 539
34.86127 601
34.88138 580
34.9015 563
34.92161 588
34.94173 649
34.96184 644
34.98195 653
35.00207 628
35.02218 648
35.04229 661
35.06241 655
35.08252 600
35.10264 644
35.12275 644
35.14286 676
35.16298 662
35.18309 621
35.2032 608
35.22332 642
35.24343 600
35.26354 650
35.28366 623
35.30377 633
35.32389 591
35.344 633
35.36411 639
35.38423 701
35.40434 616
35.42445 644
35.44457 631
35.46468 661
35.4848 655
35.50491 637
35.52502 682
35.54514 638
35.56525 616
35.58536 594
35.60548 628
35.62559 621
35.64571 564
35.66582 609
35.68593 570
35.70605 543
35.72616 507
35.74627 510
35.76639 477
35.7865 464
35.80661 477
35.82673 530
35.84684 517
35.86696 501
35.88707 519
35.90718 487
35.9273 513
35.94741 556
35.96752 516
35.98764 510
36.00775 540
36.02787 555
36.04798 539
36.06809 533
36.08821 500
36.10832 557
36.12843 534
36.14855 523
36.16866 543
36.18878 489
36.20889 511
36.229 502
36.24912 521
36.26923 507
36.28934 528
36.30946 532
36.32957 602
36.34968 610
36.3698 657
36.38991 689
36.41003 721
36.43014 771
36.45025 852
36.47037 832
36.49048 846
36.51059 768
36.53071 787
36.55082 662
36.57094 699
36.59105 619
36.61116 587
36.63128 565
36.65139 495
36.6715 523
36.69162 477
36.71173 500
36.73184 463
36.75196 433
36.77207 411
36.79219 420
36.8123 444
36.83241 439
36.85253 446
36.87264 398
36.89275 502
36.91287 441
36.93298 491
36.9531 450
36.97321 488
36.99332 456
37.01344 456
37.03355 441
37.05366 435
37.07378 434
37.09389 465
37.11401 442
37.13412 408
37.15423 401
37.17435 389
37.19446 453
37.21457 425
37.23469 428
37.2548 420
37.27491 407
37.29503 422
37.31514 392
37.33526 411
37.35537 445
37.37548 414
37.3956 427
37.41571 451
37.43582 423
37.45594 407
37.47605 458
37.49617 464
37.51628 461
37.53639 455
37.55651 448
37.57662 445
37.59673 458
37.61685 433
37.63696 426
37.65708 443
37.67719 387
37.6973 396
37.71742 443
37.73753 447
37.75764 422
37.77776 379
37.79787 414
37.81798 368
37.8381 398
37.85821 399
37.87833 356
37.89844 381
37.91855 347
37.93867 347
37.95878 402
37.97889 355
37.99901 361
38.01912 327
38.03924 393
38.05935 380
38.07946 396
38.09958 390
38.11969 351
38.1398 366
38.15992 414
38.18003 378
38.20015 360
38.22026 370
38.24037 379
38.26049 379
38.2806 395
38.30071 372
38.32083 343
38.34094 400
38.36105 383
38.38117 385
38.40128 330
38.4214 372
38.44151 403
38.46162 380
38.48174 404
38.50185 337
38.52196 372
38.54208 392
38.56219 386
38.58231 388
38.60242 398
38.62253 371
38.64265 382
38.66276 377
38.68287 397
38.70299 356
38.7231 380
38.74321 376
38.76333 334
38.78344 400
38.80356 360
38.82367 384
38.84378 440
38.8639 380
38.88401 375
38.90412 377
38.92424 381
38.94435 373
38.96447 383
38.98458 422
39.00469 380
39.02481 382
39.04492 364
39.06503 387
39.08515 409
39.10526 419
39.12538 418
39.14549 385
39.1656 439
39.18572 417
39.20583 395
39.22594 481
39.24606 475
39.26617 499
39.28628 548
39.3064 596
39.32651 683
39.34663 689
39.36674 823
39.38685 821
39.40697 807
39.42708 825
39.44719 720
39.46731 727
39.48742 737
39.50754 690
39.52765 621
39.54776 607
39.56788 558
39.58799 499
39.6081 499
39.62822 468
39.64833 410
39.66845 413
39.68856 400
39.70867 402
39.72879 402
39.7489 399
39.76901 406
39.78913 420
39.80924 415
39.82935 418
39.84947 394
39.86958 375
39.8897 423
39.90981 414
39.92992 362
39.95004 392
39.97015 379
39.99026 366
40.01038 395
40.03049 417
40.05061 373
40.07072 390
40.09083 407
40.11095 437
40.13106 441
40.15117 490
40.17129 538
40.1914 524
40.21152 551
40.23163 524
40.25174 522
40.27186 512
40.29197 489
40.31208 490
40.3322 465
40.35231 407
40.37242 381
40.39254 392
40.41265 369
40.43277 388
40.45288 364
40.47299 377
40.49311 354
40.51322 344
40.53333 390
40.55345 384
40.57356 373
40.59368 347
40.61379 377
40.6339 399
40.65402 372
40.67413 380
40.69424 402
40.71436 408
40.73447 388
40.75458 407
40.7747 368
40.79481 400
40.81493 381
40.83504 400
40.85515 401
40.87527 407
40.89538 361
40.91549 411
40.93561 421
40.95572 370
40.97584 407
40.99595 399
41.01606 373
41.03618 397
41.05629 393
41.0764 374
41.09652 362
41.11663 367
41.13675 367
41.15686 343
41.17697 369
41.19709 382
41.2172 356
41.23731 358
41.25743 361
41.27754 354
41.29765 375
41.31777 347
41.33788 347
41.358 354
41.37811 323
41.39822 361
41.41834 362
41.43845 370
41.45856 359
41.47868 376
41.49879 414
41.51891 352
41.53902 390
41.55913 381
41.57925 419
41.59936 400
41.61947 454
41.63959 405
41.6597 415
41.67982 418
41.69993 398
41.72004 434
41.74016 431
41.76027 394
41.78038 402
41.8005 412
41.82061 399
41.84072 408
41.86084 360
41.88095 367
41.90107 362
41.92118 336
41.94129 384
41.96141 345
41.98152 363
42.00163 354
42.02175 385
42.04186 369
42.06198 377
42.08209 345
42.1022 396
42.12232 406
42.14243 382
42.16254 411
42.18266 434
42.20277 456
42.22289 407
42.243 468
42.26311 521
42.28323 539
42.30334 558
42.32345 624
42.34357 671
42.36368 677
42.38379 664
42.40391 656
42.42402 660
42.44414 620
42.46425 556
42.48436 553
42.50448 527
42.52459 467
42.5447 434
42.56482 444
42.58493 412
42.60505 414
42.62516 420
42.64527 431
42.66539 379
42.6855 414
42.70561 413
42.72573 406
42.74584 372
42.76595 395
42.78607 410
42.80618 366
42.8263 367
42.84641 388
42.86652 405
42.88664 408
42.90675 368
42.92686 410
42.94698 393
42.96709 381
42.98721 369
43.00732 394
43.02743 409
43.04755 416
43.06766 393
43.08777 449
43.10789 435
43.128 454
43.14812 462
43.16823 456
43.18834 442
43.20846 460
43.22857 447
43.24868 433
43.2688 459
43.28891 398
43.30902 398
43.32914 408
43.34925 409
43.36937 398
43.38948 376
43.40959 389
43.42971 384
43.44982 375
43.46993 336
43.49005 355
43.51016 378
43.53028 373
43.55039 380
43.5705 340
43.59062 359
43.61073 332
43.63084 327
43.65096 330
43.67107 335
43.69119 338
43.7113 333
43.73141 348
43.75153 363
43.77164 344
43.79175 294
43.81187 355
43.83198 350
43.85209 286
43.87221 345
43.89232 330
43.91244 340
43.93255 324
43.95266 322
43.97278 335
43.99289 310
44.013 319
44.03312 331
44.05323 331
44.07335 306
44.09346 377
44.11357 337
44.13369 365
44.1538 318
44.17391 318
44.19403 364
44.21414 314
44.23426 344
44.25437 329
44.27448 309
44.2946 327
44.31471 340
44.33482 360
44.35494 351
44.37505 333
44.39516 324
44.41528 367
44.43539 342
44.45551 330
44.47562 338
44.49573 327
44.51585 335
44.53596 348
44.55607 366
44.57619 319
44.5963 326
44.61642 330
44.63653 313
44.65664 349
44.67676 382
44.69687 335
44.71698 368
44.7371 352
44.75721 329
44.77732 365
44.79744 373
44.81755 359
44.83767 346
44.85778 345
44.87789 354
44.89801 360
44.91812 351
44.93823 388
44.95835 343
44.97846 352
44.99858 320
45.01869 358
45.0388 364
45.05892 335
45.07903 356
45.09914 301
45.11926 354
45.13937 349
45.15949 366
45.1796 322
45.19971 339
45.21983 332
45.23994 336
45.26005 362
45.28017 328
45.30028 345
45.32039 321
45.34051 320
45.36062 385
45.38074 341
45.40085 349
45.42096 367
45.44108 332
45.46119 362
45.4813 333
45.50142 399
45.52153 357
45.54165 344
45.56176 402
45.58187 371
45.60199 436
45.6221 444
45.64221 480
45.66233 491
45.68244 518
45.70256 527
45.72267 556
45.74278 536
45.7629 457
45.78301 506
45.80312 434
45.82324 409
45.84335 456
45.86346 399
45.88358 435
45.90369 392
45.92381 366
45.94392 348
45.96403 342
45.98415 327
46.00426 339
46.02437 325
46.04449 347
46.0646 332
46.08472 338
46.10483 352
46.12494 377
46.14506 314
46.16517 333
46.18528 334
46.2054 315
46.22551 340
46.24563 293
46.26574 339
46.28585 309
46.30597 305
46.32608 294
46.34619 318
46.36631 337
46.38642 323
46.40653 316
46.42665 338
46.44676 338
46.46688 305
46.48699 307
46.5071 327
46.52722 346
46.54733 321
46.56744 317
46.58756 332
46.60767 303
46.62779 320
46.6479 337
46.66801 319
46.68813 338
46.70824 321
46.72835 288
46.74847 339
46.76858 298
46.78869 339
46.80881 371
46.82892 372
46.84904 321
46.86915 290
46.88926 317
46.90938 335
46.92949 361
46.9496 353
46.96972 346
46.98983 342
47.00995 359
47.03006 346
47.05017 335
47.07029 348
47.0904 341
47.11051 351
47.13063 373
47.15074 348
47.17086 327
47.19097 365
47.21108 345
47.2312 381
47.25131 386
47.27142 310
47.29154 396
47.31165 364
47.33176 343
47.35188 381
47.37199 373
47.39211 390
47.41222 385
47.43233 408
47.45245 445
47.47256 407
47.49267 432
47.51279 390
47.5329 387
47.55302 418
47.57313 422
47.59324 413
47.61336 407
47.63347 391
47.65358 394
47.6737 406
47.69381 420
47.71393 369
47.73404 361
47.75415 382
47.77427 352
47.79438 369
47.81449 383
47.83461 349
47.85472 335
47.87483 346
47.89495 343
47.91506 343
47.93518 358
47.95529 336
47.9754 303
47.99552 345
48.01563 352
48.03574 315
48.05586 360
48.07597 346
48.09609 329
48.1162 379
48.13631 378
48.15643 334
48.17654 359
48.19665 373
48.21677 377
48.23688 361
48.257 361
48.27711 337
48.29722 388
48.31734 388
48.33745 403
48.35756 348
48.37768 332
48.39779 361
48.4179 367
48.43802 396
48.45813 361
48.47825 420
48.49836 403
48.51847 384
48.53859 393
48.5587 423
48.57881 421
48.59893 415
48.61904 388
48.63916 402
48.65927 388
48.67938 360
48.6995 367
48.71961 376
48.73972 370
48.75984 402
48.77995 377
48.80006 392
48.82018 396
48.84029 372
48.86041 378
48.88052 383
48.90063 338
48.92075 374
48.94086 373
48.96097 366
48.98109 364
49.0012 404
49.02132 393
49.04143 353
49.06154 397
49.08166 401
49.10177 416
49.12188 426
49.142 381
49.16211 370
49.18223 399
49.20234 379
49.22245 396
49.24257 371
49.26268 364
49.28279 353
49.30291 376
49.32302 390
49.34313 376
49.36325 328
49.38336 369
49.40348 361
49.42359 355
49.4437 342
49.46382 381
49.48393 350
49.50404 333
49.52416 349
49.54427 375
49.56439 362
49.5845 361
49.60461 383
49.62473 422
49.64484 392
49.66495 394
49.68507 397
49.70518 426
49.7253 469
49.74541 437
49.76552 436
49.78564 452
49.80575 480
49.82586 441
49.84598 514
49.86609 517
49.8862 558
49.90632 574
49.92643 582
49.94655 631
49.96666 673
49.98677 754
50.00689 807
50.027 874
50.04711 941
50.06723 989
50.08734 897
50.10746 889
50.12757 779
50.14768 741
50.1678 741
50.18791 643
50.20802 623
50.22814 570
50.24825 524
50.26837 452
50.28848 436
50.30859 395
50.32871 358
50.34882 362
50.36893 369
50.38905 394
50.40916 381
50.42927 375
50.44939 384
50.4695 364
50.48962 402
50.50973 422
50.52984 445
50.54996 401
50.57007 458
50.59018 418
50.6103 445
50.63041 426
50.65053 411
50.67064 422
50.69075 409
50.71087 427
50.73098 397
50.75109 383
50.77121 344
50.79132 355
50.81143 357
50.83155 349
50.85166 336
50.87178 309
50.89189 312
50.912 339
50.93212 313
50.95223 298
50.97234 354
50.99246 342
51.01257 379
51.03269 375
51.0528 351
51.07291 365
51.09303 343
51.11314 379
51.13325 375
51.15337 346
51.17348 422
51.1936 414
51.21371 373
51.23382 372
51.25394 419
51.27405 374
51.29416 359
51.31428 364
51.33439 324
51.3545 391
51.37462 306
51.39473 341
51.41485 338
51.43496 345
51.45507 341
51.47519 324
51.4953 321
51.51541 327
51.53553 297
51.55564 280
51.57576 296
51.59587 321
51.61598 309
51.6361 300
51.65621 301
51.67632 285
51.69644 282
51.71655 301
51.73667 307
51.75678 288
51.77689 291
51.79701 298
51.81712 311
51.83723 324
51.85735 304
51.87746 292
51.89757 302
51.91769 324
51.9378 338
51.95792 316
51.97803 288
51.99814 324
52.01826 322
52.03837 318
52.05848 353
52.0786 326
52.09871 321
52.11883 328
52.13894 329
52.15905 350
52.17917 341
52.19928 321
52.21939 326
52.23951 324
52.25962 343
52.27974 366
52.29985 340
52.31996 312
52.34008 324
52.36019 320
52.3803 305
52.40042 328
52.42053 324
52.44064 357
52.46076 299
52.48087 300
52.50099 331
52.5211 305
52.54121 318
52.56133 332
52.58144 339
52.60155 307
52.62167 348
52.64178 328
52.6619 361
52.68201 322
52.70212 336
52.72224 334
52.74235 342
52.76246 332
52.78258 370
52.80269 317
52.8228 341
52.84292 360
52.86303 354
52.88315 333
52.90326 348
52.92337 292
52.94349 348
52.9636 329
52.98371 377
53.00383 389
53.02394 350
53.04406 339
53.06417 322
53.08428 364
53.1044 399
53.12451 390
53.14462 369
53.16474 340
53.18485 345
53.20497 374
53.22508 336
53.24519 345
53.26531 333
53.28542 327
53.30553 334
53.32565 359
53.34576 366
53.36587 350
53.38599 358
53.4061 337
53.42622 336
53.44633 374
53.46644 291
53.48656 367
53.50667 359
53.52678 335
53.5469 366
53.56701 349
53.58713 337
53.60724 308
53.62735 335
53.64747 377
53.66758 335
53.68769 359
53.70781 366
53.72792 339
53.74804 399
53.76815 376
53.78826 370
53.80838 367
53.82849 361
53.8486 382
53.86872 381
53.88883 388
53.90894 383
53.92906 386
53.94917 419
53.96929 376
53.9894 378
54.00951 359
54.02963 357
54.04974 390
54.06985 378
54.08997 343
54.11008 377
54.1302 359
54.15031 348
54.17042 363
54.19054 333
54.21065 387
54.23076 384
54.25088 379
54.27099 355
54.29111 375
54.31122 359
54.33133 355
54.35145 365
54.37156 401
54.39167 358
54.41179 346
54.4319 377
54.45201 342
54.47213 347
54.49224 373
54.51236 386
54.53247 364
54.55258 393
54.5727 353
54.59281 375
54.61292 401
54.63304 394
54.65315 422
54.67327 427
54.69338 401
54.71349 430
54.73361 473
54.75372 442
54.77383 518
54.79395 562
54.81406 479
54.83417 484
54.85429 497
54.8744 481
54.89452 464
54.91463 442
54.93474 467
54.95486 449
54.97497 394
54.99508 396
55.0152 407
55.03531 393
55.05543 373
55.07554 372
55.09565 365
55.11577 389
55.13588 411
55.15599 400
55.17611 428
55.19622 364
55.21634 399
55.23645 416
55.25656 408
55.27668 397
55.29679 398
55.3169 394
55.33702 348
55.35713 371
55.37724 390
55.39736 362
55.41747 377
55.43759 393
55.4577 365
55.47781 330
55.49793 312
55.51804 380
55.53815 332
55.55827 330
55.57838 330
55.5985 369
55.61861 325
55.63872 347
55.65884 325
55.67895 364
55.69906 321
55.71918 368
55.73929 282
55.75941 337
55.77952 345
55.79963 316
55.81975 342
55.83986 328
55.85997 375
55.88009 309
55.9002 331
55.92031 323
55.94043 308
55.96054 349
55.98066 290
56.00077 333
56.02088 327
56.041 317
56.06111 323
56.08122 310
56.10134 332
56.12145 325
56.14157 354
56.16168 353
56.18179 340
56.20191 314
56.22202 324
56.24213 320
56.26225 364
56.28236 363
56.30248 366
56.32259 320
56.3427 340
56.36282 334
56.38293 313
56.40304 339
56.42316 334
56.44327 348
56.46338 338
56.4835 301
56.50361 352
56.52373 363
56.54384 359
56.56395 382
56.58407 353
56.60418 413
56.62429 356
56.64441 359
56.66452 364
56.68464 350
56.70475 365
56.72486 368
56.74498 375
56.76509 348
56.7852 341
56.80532 371
56.82543 351
56.84554 331
56.86566 359
56.88577 302
56.90589 330
56.926 314
56.94611 325
56.96623 309
56.98634 359
57.00645 326
57.02657 292
57.04668 335
57.0668 367
57.08691 304
57.10702 330
57.12714 336
57.14725 356
57.16736 345
57.18748 342
57.20759 338
57.22771 332
57.24782 330
57.26793 354
57.28805 361
57.30816 366
57.32827 338
57.34839 345
57.3685 356
57.38861 384
57.40873 368
57.42884 363
57.44896 354
57.46907 379
57.48918 349
57.5093 390
57.52941 368
57.54952 343
57.56964 412
57.58975 370
57.60987 369
57.62998 340
57.65009 368
57.67021 319
57.69032 351
57.71043 365
57.73055 353
57.75066 334
57.77078 353
57.79089 338
57.811 315
57.83112 323
57.85123 305
57.87134 335
57.89146 333
57.91157 301
57.93168 331
57.9518 350
57.97191 322
57.99203 345
58.01214 317
58.03225 300
58.05237 336
58.07248 316
58.09259 301
58.11271 333
58.13282 312
58.15294 317
58.17305 302
58.19316 305
58.21328 312
58.23339 333
58.2535 309
58.27362 308
58.29373 320
58.31385 307
58.33396 335
58.35407 344
58.37419 339
58.3943 329
58.41441 331
58.43453 314
58.45464 330
58.47475 330
58.49487 336
58.51498 365
58.5351 321
58.55521 344
58.57532 349
58.59544 332
58.61555 328
58.63566 306
58.65578 341
58.67589 335
58.69601 340
58.71612 342
58.73623 357
58.75635 333
58.77646 305
58.79657 308
58.81669 311
58.8368 334
58.85691 325
58.87703 338
58.89714 331
58.91726 311
58.93737 315
58.95748 359
58.9776 300
58.99771 319
59.01782 303
59.03794 321
59.05805 307
59.07817 300
59.09828 308
59.11839 298
59.13851 306
59.15862 325
59.17873 329
59.19885 321
59.21896 347
59.23908 328
59.25919 316
59.2793 335
59.29942 333
59.31953 347
59.33964 306
59.35976 297
59.37987 342
59.39998 347
59.4201 329
59.44021 323
59.46033 344
59.48044 325
59.50055 309
59.52067 331
59.54078 379
59.56089 350
59.58101 325
59.60112 363
59.62124 337
59.64135 346
59.66146 383
59.68158 366
59.70169 391
59.7218 403
59.74192 460
59.76203 477
59.78215 505
59.80226 556
59.82237 642
59.84249 708
59.8626 669
59.88271 667
59.90283 681
59.92294 623
59.94305 582
59.96317 564
59.98328 530
60.0034 513
60.02351 519
60.04362 513
60.06374 502
60.08385 458
60.10396 389
60.12408 429
60.14419 366
60.16431 378
60.18442 356
60.20453 361
60.22465 362
60.24476 366
60.26487 382
60.28499 346
60.3051 365
60.32522 305
60.34533 314
60.36544 347
60.38556 335
60.40567 345
60.42578 353
60.4459 332
60.46601 327
60.48612 340
60.50624 335
60.52635 361
60.54647 342
60.56658 332
60.58669 346
60.60681 345
60.62692 328
60.64703 362
60.66715 362
60.68726 372
60.70738 346
60.72749 369
60.7476 347
60.76772 363
60.78783 361
60.80794 346
60.82806 377
60.84817 335
60.86828 362
60.8884 356
60.90851 335
60.92863 350
60.94874 392
60.96885 399
60.98897 390
61.00908 368
61.02919 361
61.04931 372
61.06942 389
61.08954 415
61.10965 373
61.12976 400
61.14988 379
61.16999 407
61.1901 386
61.21022 392
61.23033 422
61.25045 428
61.27056 418
61.29067 390
61.31079 422
61.3309 425
61.35101 408
61.37113 413
61.39124 406
61.41135 445
61.43147 412
61.45158 401
61.4717 409
61.49181 418
61.51192 449
61.53204 438
61.55215 451
61.57226 421
61.59238 429
61.61249 433
61.63261 417
61.65272 452
61.67283 430
61.69295 417
61.71306 395
61.73317 424
61.75329 423
61.7734 426
61.79352 402
61.81363 431
61.83374 408
61.85386 436
61.87397 402
61.89408 395
61.9142 396
61.93431 393
61.95442 408
61.97454 383
61.99465 358
62.01477 423
62.03488 399
62.05499 388
62.07511 395
62.09522 369
62.11533 368
62.13545 398
62.15556 395
62.17568 367
62.19579 382
62.2159 380
62.23602 364
62.25613 355
62.27624 394
62.29636 403
62.31647 410
62.33659 393
62.3567 382
62.37681 370
62.39693 384
62.41704 355
62.43715 378
62.45727 375
62.47738 386
62.49749 413
62.51761 360
62.53772 370
62.55784 357
62.57795 374
62.59806 305
62.61818 361
62.63829 363
62.6584 334
62.67852 340
62.69863 336
62.71875 373
62.73886 345
62.75897 347
62.77909 349
62.7992 350
62.81931 319
62.83943 315
62.85954 351
62.87965 321
62.89977 351
62.91988 327
62.94 363
62.96011 343
62.98022 333
63.00034 332
63.02045 330
63.04056 332
63.06068 349
63.08079 357
63.10091 366
63.12102 329
63.14113 321
63.16125 338
63.18136 312
63.20147 329
63.22159 354
63.2417 305
63.26182 351
63.28193 350
63.30204 329
63.32216 326
63.34227 353
63.36238 334
63.3825 317
63.40261 337
63.42272 319
63.44284 320
63.46295 372
63.48307 351
63.50318 335
63.52329 339
63.54341 347
63.56352 355
63.58363 373
63.60375 354
63.62386 372
63.64398 391
63.66409 386
63.6842 357
63.70432 369
63.72443 398
63.74454 392
63.76466 352
63.78477 388
63.80489 390
63.825 384
63.84511 392
63.86523 374
63.88534 422
63.90545 414
63.92557 405
63.94568 393
63.96579 401
63.98591 399
64.00602 388
64.02614 406
64.04625 349
64.06636 400
64.08648 380
64.10659 337
64.1267 393
64.14682 361
64.16693 357
64.18705 324
64.20716 304
64.22727 315
64.24739 354
64.2675 334
64.28761 313
64.30773 330
64.32784 321
64.34796 298
64.36807 322
64.38818 339
64.4083 364
64.42841 296
64.44852 319
64.46864 307
64.48875 341
64.50886 332
64.52898 324
64.54909 304
64.56921 305
64.58932 312
64.60943 313
64.62955 314
64.64966 340
64.66977 325
64.68989 338
64.71 343
64.73012 325
64.75023 329
64.77034 326
64.79046 326
64.81057 341
64.83068 325
64.8508 329
64.87091 319
64.89102 322
64.91114 303
64.93125 336
64.95137 328
64.97148 331
64.99159 349
65.01171 309
65.03182 301
65.05193 343
65.07205 318
65.09216 344
65.11228 359
65.13239 344
65.1525 324
65.17262 343
65.19273 322
65.21284 318
65.23296 325
65.25307 325
65.27319 334
65.2933 333
65.31341 343
65.33353 347
65.35364 318
65.37375 317
65.39387 296
65.41398 372
65.43409 297
65.45421 302
65.47432 293
65.49444 325
65.51455 316
65.53466 335
65.55478 302
65.57489 316
65.595 324
65.61512 312
65.63523 339
65.65535 307
65.67546 308
65.69557 340
65.71569 304
65.7358 327
65.75591 301
65.77603 321
65.79614 305
65.81626 334
65.83637 280
65.85648 321
65.8766 307
65.89671 323
65.91682 293
65.93694 300
65.95705 307
65.97716 333
65.99728 323
66.01739 310
66.03751 292
66.05762 292
66.07773 306
66.09785 293
66.11796 315
66.13807 289
66.15819 302
66.1783 297
66.19842 307
66.21853 314
66.23864 289
66.25876 311
66.27887 293
66.29898 328
66.3191 306
66.33921 321
66.35933 312
66.37944 278
66.39955 277
66.41967 281
66.43978 316
66.45989 304
66.48001 289
66.50012 277
66.52023 291
66.54035 306
66.56046 283
66.58058 309
66.60069 296
66.6208 310
66.64092 290
66.66103 264
66.68114 298
66.70126 279
66.72137 286
66.74149 330
66.7616 311
66.78171 271
66.80183 300
66.82194 269
66.84205 299
66.86217 300
66.88228 314
66.90239 299
66.92251 296
66.94262 326
66.96274 328
66.98285 309
67.00296 305
67.02308 301
67.04319 312
67.0633 318
67.08342 298
67.10353 323
67.12365 321
67.14376 286
67.16387 305
67.18399 327
67.2041 318
67.22421 334
67.24433 311
67.26444 320
67.28456 320
67.30467 325
67.32478 324
67.3449 320
67.36501 349
67.38512 348
67.40524 298
67.42535 347
67.44546 364
67.46558 337
67.48569 415
67.50581 350
67.52592 394
67.54603 428
67.56615 431
67.58626 433
67.60637 515
67.62649 534
67.6466 553
67.66672 549
67.68683 552
67.70694 493
67.72706 499
67.74717 502
67.76728 456
67.7874 442
67.80751 447
67.82763 475
67.84774 458
67.86785 501
67.88797 469
67.90808 454
67.92819 480
67.94831 486
67.96842 501
67.98853 545
68.00865 579
68.02876 596
68.04888 659
68.06899 656
68.0891 645
68.10922 602
68.12933 582
68.14944 582
68.16956 562
68.18967 589
68.20979 613
68.2299 646
68.25001 639
68.27013 553
68.29024 553
68.31035 495
68.33047 495
68.35058 453
68.3707 395
68.39081 428
68.41092 409
68.43104 395
68.45115 391
68.47126 376
68.49138 381
68.51149 312
68.5316 345
68.55172 330
68.57183 307
68.59195 287
68.61206 311
68.63217 311
68.65229 305
68.6724 327
68.69251 327
68.71263 284
68.73274 305
68.75286 339
68.77297 301
68.79308 320
68.8132 297
68.83331 302
68.85342 328
68.87354 301
68.89365 279
68.91376 299
68.93388 337
68.95399 329
68.97411 303
68.99422 322
69.01433 280
69.03445 309
69.05456 333
69.07467 305
69.09479 336
69.1149 287
69.13502 327
69.15513 307
69.17524 295
69.19536 296
69.21547 323
69.23558 307
69.2557 332
69.27581 350
69.29593 347
69.31604 356
69.33615 351
69.35627 376
69.37638 343
69.39649 317
69.41661 301
69.43672 338
69.45683 321
69.47695 320
69.49706 342
69.51718 348
69.53729 310
69.5574 292
69.57752 299
69.59763 309
69.61774 309
69.63786 294
69.65797 344
69.67809 342
69.6982 304
69.71831 320
69.73843 351
69.75854 281
69.77865 295
69.79877 309
69.81888 312
69.839 319
69.85911 313
69.87922 319
69.89934 295
69.91945 325
69.93956 320
69.95968 284
69.97979 324
69.9999 292
70.02002 298
70.04013 308
70.06025 298
70.08036 288
70.10047 278
70.12059 302
70.1407 280
70.16081 316
70.18093 310
70.20104 297
70.22116 323
70.24127 283
70.26138 270
70.2815 286
70.30161 296
70.32172 308
70.34184 277
70.36195 263
70.38207 292
70.40218 272
70.42229 278
70.44241 304
70.46252 314
70.48263 318
70.50275 304
70.52286 276
70.54297 313
70.56309 278
70.5832 297
70.60332 300
70.62343 296
70.64354 270
70.66366 279
70.68377 284
70.70388 287
70.724 294
70.74411 295
70.76423 275
70.78434 285
70.80445 295
70.82457 318
70.84468 310
70.86479 280
70.88491 297
70.90502 330
70.92513 313
70.94525 317
70.96536 315
70.98548 318
71.00559 286
71.0257 295
71.04582 318
71.06593 312
71.08604 291
71.10616 298
71.12627 316
71.14639 305
71.1665 281
71.18661 300
71.20673 300
71.22684 282
71.24695 287
71.26707 324
71.28718 270
71.3073 323
71.32741 321
71.34752 278
71.36764 308
71.38775 310
71.40786 306
71.42798 318
71.44809 282
71.4682 273
71.48832 318
71.50843 295
71.52855 321
71.54866 319
71.56877 315
71.58889 296
71.609 333
71.62911 312
71.64923 324
71.66934 319
71.68946 283
71.70957 300
71.72968 316
71.7498 299
71.76991 301
71.79002 329
71.81014 295
71.83025 299
71.85037 289
71.87048 264
71.89059 272
71.91071 300
71.93082 300
71.95093 316
71.97105 300
71.99116 275
72.01127 319
72.03139 283
72.0515 272
72.07162 292
72.09173 323
72.11184 267
72.13196 300
72.15207 335
72.17218 277
72.1923 308
72.21241 302
72.23253 295
72.25264 323
72.27275 315
72.29287 308
72.31298 330
72.33309 288
72.35321 307
72.37332 343
72.39344 322
72.41355 303
72.43366 325
72.45378 276
72.47389 295
72.494 281
72.51412 327
72.53423 320
72.55434 329
72.57446 299
72.59457 313
72.61469 322
72.6348 309
72.65491 347
72.67503 306
72.69514 357
72.71525 305
72.73537 285
72.75548 289
72.7756 300
72.79571 310
72.81582 302
72.83594 350
72.85605 291
72.87616 286
72.89628 345
72.91639 323
72.9365 345
72.95662 350
72.97673 303
72.99685 329
73.01696 276
73.03707 309
73.05719 303
73.0773 358
73.09741 327
73.11753 326
73.13764 340
73.15776 316
73.17787 313
73.19798 327
73.2181 341
73.23821 323
73.25832 327
73.27844 388
73.29855 392
73.31867 361
73.33878 384
73.35889 379
73.37901 398
73.39912 358
73.41923 381
73.43935 391
73.45946 363
73.47957 345
73.49969 339
73.5198 369
73.53992 378
73.56003 350
73.58014 341
73.60026 336
73.62037 352
73.64048 341
73.6606 350
73.68071 319
73.70083 320
73.72094 304
73.74105 306
73.76117 319
73.78128 340
73.80139 308
73.82151 323
73.84162 338
73.86174 313
73.88185 315
73.90196 299
73.92208 325
73.94219 324
73.9623 345
73.98242 333
74.00253 312
74.02264 301
74.04276 312
74.06287 306
74.08299 330
74.1031 354
74.12321 345
74.14333 315
74.16344 307
74.18355 296
74.20367 304
74.22378 323
74.2439 304
74.26401 285
74.28412 287
74.30424 323
74.32435 313
74.34446 293
74.36458 307
74.38469 258
74.40481 308
74.42492 315
74.44503 305
74.46515 307
74.48526 317
74.50537 324
74.52549 303
74.5456 309
74.56571 334
74.58583 303
74.60594 293
74.62606 308
74.64617 306
74.66628 296
74.6864 282
74.70651 313
74.72662 316
74.74674 308
74.76685 294
74.78697 266
74.80708 314
74.82719 282
74.84731 272
74.86742 307
74.88753 304
74.90765 297
74.92776 281
74.94787 289
74.96799 278
74.9881 293
75.00822 303
