3.00117 19276
3.02128 18509
3.0414 18034
3.06151 17734
3.08162 16908
3.10174 16813
3.12185 16015
3.14197 15748
3.16208 15424
3.18219 14868
3.20231 14554
3.22242 13767
3.24253 13862
3.26265 12975
3.28276 12733
3.30288 12438
3.32299 11751
3.3431 11487
3.36322 11083
3.38333 10980
3.40344 10467
3.42356 9952
3.44367 9744
3.46379 9309
3.4839 9100
3.50401 9173
3.52413 8343
3.54424 8111
3.56435 7579
3.58447 7593
3.60458 7256
3.62469 6885
3.64481 6910
3.66492 6453
3.68504 6315
3.70515 6233
3.72526 5588
3.74538 5560
3.76549 5203
3.7856 5115
3.80572 4890
3.82583 4691
3.84595 4455
3.86606 4230
3.88617 4034
3.90629 4060
3.9264 3565
3.94651 3554
3.96663 3350
3.98674 3349
4.00686 3287
4.02697 2825
4.04708 2877
4.0672 2843
4.08731 2626
4.10742 2595
4.12754 2286
4.14765 2261
4.16776 2148
4.18788 2035
4.20799 2192
4.22811 1838
4.24822 1916
4.26833 1830
4.28845 1736
4.30856 1723
4.32867 1562
4.34879 1513
4.3689 1509
4.38902 1517
4.40913 1457
4.42924 1330
4.44936 1423
4.46947 1346
4.48958 1344
4.5097 1369
4.52981 1207
4.54992 1220
4.57004 1172
4.59015 1169
4.61027 1097
4.63038 1045
4.65049 1088
4.67061 1037
4.69072 1038
4.71083 962
4.73095 892
4.75106 934
4.77118 945
4.79129 984
4.8114 950
4.83152 835
4.85163 904
4.87174 822
4.89186 767
4.91197 834
4.93209 739
4.9522 750
4.97231 782
4.99243 734
5.01254 683
5.03265 650
5.05277 652
5.07288 703
5.09299 628
5.11311 621
5.13322 582
5.15334 608
5.17345 580
5.19356 630
5.21368 528
5.23379 475
5.2539 548
5.27402 577
5.29413 538
5.31425 501
5.33436 476
5.35447 462
5.37459 465
5.3947 482
5.41481 452
5.43493 425
5.45504 466
5.47516 383
5.49527 390
5.51538 391
5.5355 415
5.55561 402
5.57572 319
5.59584 361
5.61595 352
5.63606 405
5.65618 339
5.67629 322
5.69641 365
5.71652 310
5.73663 368
5.75675 349
5.77686 334
5.79697 367
5.81709 324
5.8372 323
5.85732 311
5.87743 316
5.89754 294
5.91766 269
5.93777 306
5.95788 301
5.978 299
5.99811 300
6.01823 299
6.03834 298
6.05845 265
6.07857 284
6.09868 291
6.11879 282
6.13891 272
6.15902 290
6.17913 250
6.19925 253
6.21936 261
6.23948 280
6.25959 268
6.2797 255
6.29982 261
6.31993 261
6.34004 257
6.36016 239
6.38027 254
6.40039 243
6.4205 250
6.44061 249
6.46073 249
6.48084 262
6.50095 274
6.52107 259
6.54118 269
6.56129 249
6.58141 257
6.60152 249
6.62164 234
6.64175 259
6.66186 233
6.68198 255
6.70209 235
6.7222 274
6.74232 220
6.76243 263
6.78255 232
6.80266 237
6.82277 229
6.84289 284
6.863 233
6.88311 233
6.90323 230
6.92334 248
6.94346 212
6.96357 233
6.98368 264
7.0038 212
7.02391 263
7.04402 264
7.06414 259
7.08425 270
7.10436 241
7.12448 252
7.14459 232
7.16471 267
7.18482 240
7.20493 251
7.22505 260
7.24516 232
7.26527 235
7.28539 226
7.3055 243
7.32562 240
7.34573 233
7.36584 236
7.38596 238
7.40607 242
7.42618 245
7.4463 211
7.46641 258
7.48653 290
7.50664 244
7.52675 237
7.54687 280
7.56698 246
7.58709 278
7.60721 279
7.62732 264
7.64743 246
7.66755 225
7.68766 290
7.70778 211
7.72789 256
7.748 266
7.76812 242
7.78823 241
7.80834 252
7.82846 267
7.84857 251
7.86869 271
7.8888 267
7.90891 280
7.92903 269
7.94914 251
7.96925 269
7.98937 257
8.00948 269
8.0296 256
8.04971 255
8.06982 255
8.08994 252
8.11005 285
8.13016 248
8.15028 251
8.17039 285
8.1905 250
8.21062 261
8.23073 258
8.25085 215
8.27096 259
8.29107 248
8.31119 278
8.3313 278
8.35141 260
8.37153 255
8.39164 271
8.41176 255
8.43187 230
8.45198 283
8.4721 288
8.49221 274
8.51232 252
8.53244 264
8.55255 266
8.57266 245
8.59278 262
8.61289 265
8.63301 292
8.65312 265
8.67323 268
8.69335 292
8.71346 273
8.73357 238
8.75369 237
8.7738 254
8.79392 254
8.81403 261
8.83414 268
8.85426 318
8.87437 302
8.89448 288
8.9146 272
8.93471 304
8.95483 271
8.97494 275
8.99505 284
9.01517 276
9.03528 292
9.05539 280
9.07551 241
9.09562 279
9.11573 292
9.13585 287
9.15596 234
9.17608 264
9.19619 272
9.2163 262
9.23642 277
9.25653 252
9.27664 265
9.29676 260
9.31687 274
9.33699 255
9.3571 259
9.37721 261
9.39733 294
9.41744 335
9.43755 270
9.45767 306
9.47778 259
9.4979 276
9.51801 287
9.53812 270
9.55824 271
9.57835 257
9.59846 266
9.61858 261
9.63869 234
9.6588 302
9.67892 266
9.69903 255
9.71915 266
9.73926 294
9.75937 253
9.77949 270
9.7996 245
9.81971 276
9.83983 305
9.85994 224
9.88006 279
9.90017 275
9.92028 290
9.9404 263
9.96051 244
9.98062 284
10.00074 238
10.02085 271
10.04097 297
10.06108 297
10.08119 258
10.10131 270
10.12142 256
10.14153 287
10.16165 251
10.18176 240
10.20187 266
10.22199 279
10.2421 303
10.26222 275
10.28233 259
10.30244 253
10.32256 275
10.34267 248
10.36278 272
10.3829 269
10.40301 250
10.42313 285
10.44324 275
10.46335 243
10.48347 295
10.50358 307
10.52369 290
10.54381 274
10.56392 276
10.58403 274
10.60415 279
10.62426 286
10.64438 286
10.66449 264
10.6846 260
10.70472 279
10.72483 242
10.74494 246
10.76506 255
10.78517 293
10.80529 257
10.8254 260
10.84551 256
10.86563 281
10.88574 293
10.90585 319
10.92597 263
10.94608 278
10.9662 240
10.98631 237
11.00642 262
11.02654 284
11.04665 249
11.06676 236
11.08688 286
11.10699 284
11.1271 275
11.14722 279
11.16733 319
11.18745 304
11.20756 260
11.22767 276
11.24779 257
11.2679 257
11.28801 275
11.30813 306
11.32824 237
11.34836 285
11.36847 279
11.38858 300
11.4087 309
11.42881 287
11.44892 270
11.46904 269
11.48915 267
11.50927 248
11.52938 259
11.54949 255
11.56961 257
11.58972 253
11.60983 268
11.62995 292
11.65006 319
11.67017 272
11.69029 287
11.7104 272
11.73052 292
11.75063 271
11.77074 313
11.79086 288
11.81097 321
11.83108 257
11.8512 328
11.87131 318
11.89143 319
11.91154 308
11.93165 312
11.95177 358
11.97188 320
11.99199 333
12.01211 310
12.03222 349
12.05234 324
12.07245 326
12.09256 384
12.11268 374
12.13279 365
12.1529 407
12.17302 461
12.19313 430
12.21324 464
12.23336 480
12.25347 522
12.27359 516
12.2937 579
12.31381 577
12.33393 519
12.35404 555
12.37415 520
12.39427 509
12.41438 504
12.4345 461
12.45461 418
12.47472 415
12.49484 361
12.51495 356
12.53506 350
12.55518 380
12.57529 340
12.5954 285
12.61552 283
12.63563 338
12.65575 314
12.67586 299
12.69597 316
12.71609 268
12.7362 235
12.75631 300
12.77643 296
12.79654 326
12.81666 258
12.83677 272
12.85688 249
12.877 271
12.89711 277
12.91722 275
12.93734 272
12.95745 289
12.97757 259
12.99768 271
13.01779 243
13.03791 251
13.05802 270
13.07813 273
13.09825 249
13.11836 269
13.13847 258
13.15859 260
13.1787 258
13.19882 248
13.21893 274
13.23904 249
13.25916 257
13.27927 272
13.29938 276
13.3195 288
13.33961 259
13.35973 237
13.37984 282
13.39995 244
13.42007 245
13.44018 244
13.46029 273
13.48041 302
13.50052 278
13.52064 285
13.54075 269
13.56086 235
13.58098 284
13.60109 247
13.6212 220
13.64132 249
13.66143 260
13.68154 268
13.70166 235
13.72177 250
13.74189 214
13.762 226
13.78211 260
13.80223 234
13.82234 235
13.84245 255
13.86257 255
13.88268 250
13.9028 249
13.92291 263
13.94302 268
13.96314 205
13.98325 258
14.00336 249
14.02348 253
14.04359 241
14.06371 254
14.08382 214
14.10393 241
14.12405 235
14.14416 237
14.16427 259
14.18439 226
14.2045 218
14.22461 221
14.24473 255
14.26484 244
14.28496 233
14.30507 230
14.32518 226
14.3453 264
14.36541 222
14.38552 227
14.40564 233
14.42575 243
14.44587 236
14.46598 256
14.48609 255
14.50621 245
14.52632 238
14.54643 238
14.56655 239
14.58666 236
14.60677 248
14.62689 224
14.647 214
14.66712 240
14.68723 234
14.70734 232
14.72746 243
14.74757 264
14.76768 219
14.7878 229
14.80791 218
14.82803 223
14.84814 240
14.86825 249
14.88837 250
14.90848 244
14.92859 261
14.94871 226
14.96882 250
14.98894 218
15.00905 202
15.02916 245
15.04928 244
15.06939 230
15.0895 229
15.10962 215
15.12973 231
15.14984 225
15.16996 262
15.19007 234
15.21019 234
15.2303 214
15.25041 259
15.27053 235
15.29064 222
15.31075 202
15.33087 233
15.35098 254
15.3711 222
15.39121 218
15.41132 260
15.43144 225
15.45155 237
15.47166 219
15.49178 228
15.51189 238
15.53201 220
15.55212 249
15.57223 240
15.59235 226
15.61246 241
15.63257 234
15.65269 230
15.6728 226
15.69291 243
15.71303 229
15.73314 233
15.75326 231
15.77337 219
15.79348 249
15.8136 215
15.83371 229
15.85382 201
15.87394 215
15.89405 210
15.91417 215
15.93428 243
15.95439 230
15.97451 212
15.99462 241
16.01473 245
16.03485 212
16.05496 235
16.07508 230
16.09519 245
16.1153 232
16.13542 194
16.15553 232
16.17564 226
16.19576 248
16.21587 206
16.23598 218
16.2561 225
16.27621 229
16.29633 252
16.31644 212
16.33655 230
16.35667 234
16.37678 245
16.39689 214
16.41701 238
16.43712 260
16.45724 246
16.47735 224
16.49746 202
16.51758 232
16.53769 233
16.5578 218
16.57792 245
16.59803 203
16.61814 232
16.63826 221
16.65837 230
16.67849 193
16.6986 232
16.71871 214
16.73883 211
16.75894 240
16.77905 243
16.79917 208
16.81928 191
16.8394 253
16.85951 219
16.87962 233
16.89974 244
16.91985 204
16.93996 230
16.96008 241
16.98019 190
17.00031 217
17.02042 189
17.04053 226
17.06065 219
17.08076 229
17.10087 235
17.12099 214
17.1411 210
17.16121 213
17.18133 248
17.20144 181
17.22156 230
17.24167 224
17.26178 221
17.2819 241
17.30201 254
17.32212 221
17.34224 243
17.36235 243
17.38247 244
17.40258 261
17.42269 230
17.44281 209
17.46292 216
17.48303 225
17.50315 206
17.52326 242
17.54338 221
17.56349 225
17.5836 232
17.60372 258
17.62383 195
17.64394 229
17.66406 225
17.68417 218
17.70428 206
17.7244 242
17.74451 197
17.76463 232
17.78474 204
17.80485 233
17.82497 238
17.84508 268
17.86519 203
17.88531 234
17.90542 218
17.92554 239
17.94565 237
17.96576 229
17.98588 222
18.00599 245
18.0261 232
18.04622 247
18.06633 198
18.08645 235
18.10656 235
18.12667 233
18.14679 218
18.1669 232
18.18701 252
18.20713 213
18.22724 257
18.24735 253
18.26747 235
18.28758 256
18.3077 247
18.32781 222
18.34792 234
18.36804 240
18.38815 218
18.40826 233
18.42838 247
18.44849 207
18.46861 200
18.48872 234
18.50883 235
18.52895 227
18.54906 220
18.56917 254
18.58929 258
18.6094 237
18.62951 244
18.64963 234
18.66974 211
18.68986 209
18.70997 251
18.73008 219
18.7502 247
18.77031 249
18.79042 234
18.81054 221
18.83065 253
18.85077 235
18.87088 246
18.89099 236
18.91111 227
18.93122 244
18.95133 228
18.97145 229
18.99156 234
19.01168 246
19.03179 253
19.0519 222
19.07202 242
19.09213 220
19.11224 229
19.13236 244
19.15247 243
19.17258 256
19.1927 231
19.21281 237
19.23293 243
19.25304 249
19.27315 233
19.29327 251
19.31338 254
19.33349 210
19.35361 255
19.37372 233
19.39384 225
19.41395 242
19.43406 223
19.45418 261
19.47429 249
19.4944 256
19.51452 253
19.53463 259
19.55475 257
19.57486 257
19.59497 271
19.61509 289
19.6352 278
19.65531 275
19.67543 295
19.69554 313
19.71565 308
19.73577 331
19.75588 364
19.776 362
19.79611 369
19.81622 391
19.83634 430
19.85645 433
19.87656 421
19.89668 428
19.91679 383
19.93691 402
19.95702 389
19.97713 363
19.99725 372
20.01736 348
20.03747 385
20.05759 353
20.0777 394
20.09782 363
20.11793 396
20.13804 388
20.15816 372
20.17827 392
20.19838 383
20.2185 357
20.23861 384
20.25872 411
20.27884 388
20.29895 413
20.31907 466
20.33918 473
20.35929 432
20.37941 416
20.39952 436
20.41963 478
20.43975 484
20.45986 462
20.47998 497
20.50009 486
20.5202 522
20.54032 512
20.56043 540
20.58054 538
20.60066 635
20.62077 727
20.64088 923
20.661 1083
20.68111 1373
20.70123 1812
20.72134 2425
20.74145 3230
20.76157 4044
20.78168 4989
20.80179 5650
20.82191 6113
20.84202 5777
20.86214 5497
20.88225 4444
20.90236 3167
20.92248 2228
20.94259 1499
20.9627 1105
20.98282 842
21.00293 668
21.02305 615
21.04316 572
21.06327 594
21.08339 554
21.1035 563
21.12361 469
21.14373 504
21.16384 464
21.18395 465
21.20407 434
21.22418 444
21.2443 450
21.26441 422
21.28452 453
21.30464 453
21.32475 416
21.34486 391
21.36498 407
21.38509 392
21.40521 440
21.42532 400
21.44543 388
21.46555 395
21.48566 364
21.50577 404
21.52589 376
21.546 371
21.56612 342
21.58623 379
21.60634 378
21.62646 345
21.64657 352
21.66668 368
21.6868 354
21.70691 325
21.72702 356
21.74714 340
21.76725 340
21.78737 341
21.80748 347
21.82759 334
21.84771 331
21.86782 321
21.88793 370
21.90805 329
21.92816 374
21.94828 326
21.96839 338
21.9885 276
22.00862 320
22.02873 288
22.04884 359
22.06896 334
22.08907 313
22.10919 318
22.1293 332
22.14941 299
22.16953 355
22.18964 314
22.20975 305
22.22987 318
22.24998 357
22.27009 346
22.29021 311
22.31032 319
22.33044 327
22.35055 308
22.37066 307
22.39078 314
22.41089 279
22.431 336
22.45112 272
22.47123 291
22.49135 304
22.51146 331
22.53157 305
22.55169 302
22.5718 287
22.59191 295
22.61203 305
22.63214 310
22.65225 288
22.67237 296
22.69248 302
22.7126 307
22.73271 290
22.75282 283
22.77294 326
22.79305 313
22.81316 287
22.83328 297
22.85339 283
22.87351 282
22.89362 309
22.91373 292
22.93385 294
22.95396 284
22.97407 322
22.99419 292
23.0143 315
23.03442 322
23.05453 311
23.07464 295
23.09476 301
23.11487 306
23.13498 331
23.1551 287
23.17521 300
23.19532 281
23.21544 304
23.23555 333
23.25567 266
23.27578 247
23.29589 277
23.31601 288
23.33612 261
23.35623 274
23.37635 329
23.39646 265
23.41658 251
23.43669 285
23.4568 296
23.47692 311
23.49703 310
23.51714 286
23.53726 289
23.55737 281
23.57749 290
23.5976 270
23.61771 289
23.63783 278
23.65794 312
23.67805 275
23.69817 275
23.71828 276
23.73839 310
23.75851 363
23.77862 338
23.79874 294
23.81885 313
23.83896 333
23.85908 335
23.87919 350
23.8993 343
23.91942 369
23.93953 438
23.95965 407
23.97976 430
23.99987 378
24.01999 356
24.0401 365
24.06021 333
24.08033 340
24.10044 321
24.12056 345
24.14067 313
24.16078 317
24.1809 289
24.20101 326
24.22112 326
24.24124 345
24.26135 328
24.28146 331
24.30158 325
24.32169 359
24.34181 361
24.36192 351
24.38203 291
24.40215 299
24.42226 300
24.44237 357
24.46249 288
24.4826 322
24.50272 329
24.52283 314
24.54294 326
24.56306 348
24.58317 352
24.60328 372
24.6234 376
24.64351 392
24.66362 376
24.68374 415
24.70385 437
24.72397 429
24.74408 420
24.76419 470
24.78431 449
24.80442 448
24.82453 444
24.84465 485
24.86476 500
24.88488 485
24.90499 519
24.9251 441
24.94522 416
24.96533 395
24.98544 375
25.00556 396
25.02567 342
25.04579 364
25.0659 358
25.08601 357
25.10613 333
25.12624 361
25.14635 310
25.16647 356
25.18658 338
25.20669 383
25.22681 336
25.24692 332
25.26704 332
25.28715 334
25.30726 387
25.32738 387
25.34749 360
25.3676 324
25.38772 335
25.40783 312
25.42795 336
25.44806 346
25.46817 350
25.48829 361
25.5084 376
25.52851 370
25.54863 389
25.56874 365
25.58886 409
25.60897 365
25.62908 416
25.6492 426
25.66931 426
25.68942 421
25.70954 441
25.72965 433
25.74976 449
25.76988 461
25.78999 461
25.81011 449
25.83022 457
25.85033 475
25.87045 487
25.89056 493
25.91067 501
25.93079 487
25.9509 509
25.97102 542
25.99113 493
26.01124 526
26.03136 493
26.05147 553
26.07158 595
26.0917 605
26.11181 642
26.13193 700
26.15204 742
26.17215 773
26.19227 830
26.21238 781
26.23249 909
26.25261 1033
26.27272 1078
26.29283 1211
26.31295 1337
26.33306 1559
26.35318 1833
26.37329 2207
26.3934 2684
26.41352 3431
26.43363 4564
26.45374 6126
26.47386 8090
26.49397 10977
26.51409 14774
26.5342 18732
26.55431 22553
26.57443 25569
26.59454 26794
26.61465 26686
26.63477 24509
26.65488 20291
26.67499 15204
26.69511 11286
26.71522 7894
26.73534 5116
26.75545 3089
26.77556 2031
26.79568 1494
26.81579 1365
26.8359 1221
26.85602 1107
26.87613 1004
26.89625 958
26.91636 858
26.93647 790
26.95659 805
26.9767 764
26.99681 667
27.01693 620
27.03704 597
27.05716 594
27.07727 565
27.09738 577
27.1175 545
27.13761 522
27.15772 463
27.17784 486
27.19795 472
27.21806 530
27.23818 475
27.25829 460
27.27841 526
27.29852 492
27.31863 482
27.33875 548
27.35886 549
27.37897 489
27.39909 536
27.4192 491
27.43932 516
27.45943 523
27.47954 495
27.49966 481
27.51977 465
27.53988 442
27.56 404
27.58011 352
27.60023 391
27.62034 374
27.64045 354
27.66057 370
27.68068 356
27.70079 347
27.72091 361
27.74102 350
27.76113 389
27.78125 333
27.80136 370
27.82148 345
27.84159 380
27.8617 348
27.88182 333
27.90193 354
27.92204 346
27.94216 327
27.96227 332
27.98239 316
28.0025 304
28.02261 286
28.04273 362
28.06284 304
28.08295 319
28.10307 332
28.12318 338
28.1433 328
28.16341 320
28.18352 309
28.20364 301
28.22375 325
28.24386 282
28.26398 325
28.28409 320
28.3042 277
28.32432 303
28.34443 269
28.36455 312
28.38466 305
28.40477 304
28.42489 269
28.445 283
28.46511 290
28.48523 309
28.50534 290
28.52546 297
28.54557 303
28.56568 304
28.5858 299
28.60591 295
28.62602 299
28.64614 328
28.66625 297
28.68636 268
28.70648 238
28.72659 289
28.74671 285
28.76682 308
28.78693 298
28.80705 320
28.82716 280
28.84727 275
28.86739 301
28.8875 257
28.90762 273
28.92773 288
28.94784 268
28.96796 303
28.98807 291
29.00818 290
29.0283 285
29.04841 253
29.06853 260
29.08864 271
29.10875 272
29.12887 260
29.14898 293
29.16909 308
29.18921 273
29.20932 291
29.22943 246
29.24955 297
29.26966 262
29.28978 298
29.30989 292
29.33 300
29.35012 290
29.37023 306
29.39034 294
29.41046 332
29.43057 295
29.45069 307
29.4708 255
29.49091 278
29.51103 309
29.53114 287
29.55125 278
29.57137 283
29.59148 249
29.6116 289
29.63171 283
29.65182 274
29.67194 259
29.69205 284
29.71216 261
29.73228 263
29.75239 275
29.7725 299
29.79262 297
29.81273 257
29.83285 291
29.85296 264
29.87307 236
29.89319 288
29.9133 252
29.93341 269
29.95353 286
29.97364 263
29.99376 276
30.01387 289
30.03398 289
30.0541 310
30.07421 274
30.09432 293
30.11444 286
30.13455 293
30.15467 288
30.17478 283
30.19489 296
30.21501 269
30.23512 277
30.25523 277
30.27535 253
30.29546 247
30.31557 280
30.33569 252
30.3558 238
30.37592 292
30.39603 288
30.41614 264
30.43626 261
30.45637 258
30.47648 260
30.4966 274
30.51671 242
30.53683 263
30.55694 299
30.57705 277
30.59717 259
30.61728 254
30.63739 297
30.65751 296
30.67762 289
30.69773 288
30.71785 296
30.73796 291
30.75808 302
30.77819 277
30.7983 301
30.81842 254
30.83853 294
30.85864 274
30.87876 245
30.89887 273
30.91899 255
30.9391 253
30.95921 264
30.97933 240
30.99944 253
31.01955 313
31.03967 239
31.05978 242
31.0799 201
31.10001 251
31.12012 265
31.14024 249
31.16035 239
31.18046 265
31.20058 242
31.22069 259
31.2408 219
31.26092 232
31.28103 224
31.30115 259
31.32126 244
31.34137 268
31.36149 275
31.3816 263
31.40171 256
31.42183 240
31.44194 272
31.46206 234
31.48217 245
31.50228 255
31.5224 239
31.54251 252
31.56262 232
31.58274 241
31.60285 248
31.62297 254
31.64308 241
31.66319 229
31.68331 258
31.70342 261
31.72353 242
31.74365 241
31.76376 256
31.78387 262
31.80399 286
31.8241 266
31.84422 244
31.86433 260
31.88444 261
31.90456 227
31.92467 254
31.94478 248
31.9649 230
31.98501 232
32.00513 238
32.02524 251
32.04535 239
32.06547 247
32.08558 244
32.10569 242
32.12581 271
32.14592 240
32.16604 245
32.18615 234
32.20626 256
32.22638 252
32.24649 264
32.2666 251
32.28672 264
32.30683 247
32.32694 263
32.34706 253
32.36717 256
32.38729 283
32.4074 249
32.42751 293
32.44763 250
32.46774 265
32.48785 266
32.50797 284
32.52808 244
32.5482 258
32.56831 267
32.58842 213
32.60854 251
32.62865 249
32.64876 246
32.66888 242
32.68899 288
32.7091 266
32.72922 272
32.74933 260
32.76945 299
32.78956 269
32.80967 276
32.82979 266
32.8499 274
32.87001 269
32.89013 285
32.91024 269
32.93036 296
32.95047 260
32.97058 262
32.9907 289
33.01081 298
33.03092 291
33.05104 287
33.07115 316
33.09127 330
33.11138 308
33.13149 343
33.15161 299
33.17172 278
33.19183 287
33.21195 312
33.23206 338
33.25217 309
33.27229 304
33.2924 282
33.31252 266
33.33263 281
33.35274 277
33.37286 292
33.39297 276
33.41308 272
33.4332 279
33.45331 295
33.47343 271
33.49354 255
33.51365 286
33.53377 273
33.55388 233
33.57399 270
33.59411 269
33.61422 288
33.63434 265
33.65445 262
33.67456 235
33.69468 226
33.71479 264
33.7349 264
33.75502 249
33.77513 247
33.79524 206
33.81536 232
33.83547 256
33.85559 263
33.8757 236
33.89581 256
33.91593 219
33.93604 268
33.95615 242
33.97627 238
33.99638 234
34.0165 246
34.03661 215
34.05672 276
34.07684 254
34.09695 236
34.11706 277
34.13718 290
34.15729 261
34.17741 277
34.19752 270
34.21763 265
34.23775 256
34.25786 290
34.27797 263
34.29809 255
34.3182 271
34.33831 279
34.35843 256
34.37854 262
34.39866 253
34.41877 232
34.43888 271
34.459 253
34.47911 258
34.49922 260
34.51934 265
34.53945 241
34.55957 257
34.57968 236
34.59979 242
34.61991 271
34.64002 276
34.66013 260
34.68025 251
34.70036 268
34.72047 254
34.74059 277
34.7607 295
34.78082 292
34.80093 327
34.82104 337
34.84116 327
34.86127 334
34.88138 346
34.9015 326
34.92161 311
34.94173 306
34.96184 295
34.98195 322
35.00207 329
35.02218 316
35.04229 309
35.06241 334
35.08252 321
35.10264 290
35.12275 320
35.14286 302
35.16298 289
35.18309 319
35.2032 305
35.22332 318
35.24343 297
35.26354 328
35.28366 318
35.30377 331
35.32389 345
35.344 342
35.36411 296
35.38423 381
35.40434 347
35.42445 342
35.44457 361
35.46468 338
35.4848 347
35.50491 348
35.52502 345
35.54514 359
35.56525 335
35.58536 348
35.60548 367
35.62559 361
35.64571 348
35.66582 357
35.68593 348
35.70605 335
35.72616 347
35.74627 357
35.76639 326
35.7865 391
35.80661 372
35.82673 382
35.84684 378
35.86696 342
35.88707 368
35.90718 356
35.9273 348
35.94741 353
35.96752 347
35.98764 372
36.00775 336
36.02787 348
36.04798 325
36.06809 292
36.08821 329
36.10832 315
36.12843 339
36.14855 333
36.16866 352
36.18878 369
36.20889 365
36.229 405
36.24912 415
36.26923 431
36.28934 472
36.30946 547
36.32957 648
36.34968 742
36.3698 903
36.38991 1105
36.41003 1313
36.43014 1618
36.45025 1847
36.47037 1961
36.49048 1908
36.51059 1944
36.53071 1786
36.55082 1591
36.57094 1343
36.59105 1123
36.61116 996
36.63128 823
36.65139 651
36.6715 484
36.69162 425
36.71173 380
36.73184 330
36.75196 360
36.77207 322
36.79219 362
36.8123 315
36.83241 353
36.85253 308
36.87264 354
36.89275 314
36.91287 314
36.93298 323
36.9531 316
36.97321 312
36.99332 323
37.01344 310
37.03355 313
37.05366 253
37.07378 298
37.09389 274
37.11401 290
37.13412 278
37.15423 273
37.17435 309
37.19446 275
37.21457 295
37.23469 270
37.2548 248
37.27491 290
37.29503 258
37.31514 262
37.33526 280
37.35537 258
37.37548 268
37.3956 231
37.41571 261
37.43582 278
37.45594 301
37.47605 288
37.49617 284
37.51628 279
37.53639 271
37.55651 279
37.57662 269
37.59673 263
37.61685 294
37.63696 274
37.65708 263
37.67719 270
37.6973 284
37.71742 252
37.73753 268
37.75764 265
37.77776 267
37.79787 280
37.81798 286
37.8381 284
37.85821 254
37.87833 254
37.89844 277
37.91855 273
37.93867 271
37.95878 280
37.97889 268
37.99901 272
38.01912 302
38.03924 293
38.05935 273
38.07946 275
38.09958 301
38.11969 283
38.1398 293
38.15992 321
38.18003 311
38.20015 334
38.22026 330
38.24037 336
38.26049 327
38.2806 327
38.30071 352
38.32083 338
38.34094 345
38.36105 327
38.38117 370
38.40128 362
38.4214 340
38.44151 335
38.46162 381
38.48174 335
38.50185 302
38.52196 344
38.54208 349
38.56219 321
38.58231 326
38.60242 310
38.62253 296
38.64265 262
38.66276 288
38.68287 280
38.70299 299
38.7231 293
38.74321 309
38.76333 278
38.78344 299
38.80356 267
38.82367 291
38.84378 241
38.8639 273
38.88401 302
38.90412 279
38.92424 324
38.94435 301
38.96447 292
38.98458 306
39.00469 304
39.02481 328
39.04492 346
39.06503 312
39.08515 386
39.10526 377
39.12538 412
39.14549 421
39.1656 461
39.18572 457
39.20583 499
39.22594 583
39.24606 641
39.26617 728
39.28628 832
39.3064 1007
39.32651 1143
39.34663 1404
39.36674 1592
39.38685 1732
39.40697 1911
39.42708 1855
39.44719 1750
39.46731 1538
39.48742 1326
39.50754 1179
39.52765 906
39.54776 850
39.56788 692
39.58799 531
39.6081 439
39.62822 383
39.64833 331
39.66845 319
39.68856 288
39.70867 302
39.72879 266
39.7489 305
39.76901 278
39.78913 285
39.80924 285
39.82935 322
39.84947 294
39.86958 273
39.8897 273
39.90981 297
39.92992 330
39.95004 295
39.97015 328
39.99026 326
40.01038 344
40.03049 356
40.05061 416
40.07072 415
40.09083 503
40.11095 527
40.13106 636
40.15117 723
40.17129 827
40.1914 917
40.21152 1017
40.23163 1057
40.25174 1016
40.27186 952
40.29197 892
40.31208 753
40.3322 725
40.35231 621
40.37242 558
40.39254 465
40.41265 418
40.43277 370
40.45288 342
40.47299 312
40.49311 284
40.51322 268
40.53333 236
40.55345 263
40.57356 280
40.59368 269
40.61379 273
40.6339 268
40.65402 276
40.67413 262
40.69424 244
40.71436 264
40.73447 247
40.75458 278
40.7747 257
40.79481 270
40.81493 255
40.83504 281
40.85515 288
40.87527 277
40.89538 255
40.91549 269
40.93561 278
40.95572 257
40.97584 242
40.99595 280
41.01606 282
41.03618 280
41.05629 254
41.0764 251
41.09652 272
41.11663 252
41.13675 251
41.15686 270
41.17697 261
41.19709 298
41.2172 268
41.23731 270
41.25743 266
41.27754 269
41.29765 296
41.31777 270
41.33788 272
41.358 245
41.37811 236
41.39822 231
41.41834 236
41.43845 244
41.45856 248
41.47868 223
41.49879 251
41.51891 245
41.53902 255
41.55913 280
41.57925 250
41.59936 259
41.61947 250
41.63959 270
41.6597 280
41.67982 272
41.69993 243
41.72004 294
41.74016 282
41.76027 266
41.78038 304
41.8005 264
41.82061 264
41.84072 269
41.86084 278
41.88095 285
41.90107 289
41.92118 256
41.94129 273
41.96141 248
41.98152 280
42.00163 267
42.02175 261
42.04186 269
42.06198 283
42.08209 284
42.1022 275
42.12232 333
42.14243 314
42.16254 344
42.18266 430
42.20277 422
42.22289 483
42.243 501
42.26311 636
42.28323 776
42.30334 823
42.32345 1027
42.34357 1216
42.36368 1309
42.38379 1342
42.40391 1357
42.42402 1310
42.44414 1212
42.46425 1074
42.48436 947
42.50448 809
42.52459 758
42.5447 600
42.56482 494
42.58493 387
42.60505 378
42.62516 300
42.64527 294
42.66539 276
42.6855 285
42.70561 259
42.72573 260
42.74584 274
42.76595 250
42.78607 257
42.80618 250
42.8263 255
42.84641 225
42.86652 216
42.88664 249
42.90675 249
42.92686 208
42.94698 219
42.96709 215
42.98721 224
43.00732 229
43.02743 217
43.04755 228
43.06766 230
43.08777 229
43.10789 218
43.128 202
43.14812 243
43.16823 225
43.18834 237
43.20846 242
43.22857 226
43.24868 220
43.2688 218
43.28891 219
43.30902 221
43.32914 226
43.34925 227
43.36937 207
43.38948 234
43.40959 223
43.42971 232
43.44982 214
43.46993 244
43.49005 207
43.51016 216
43.53028 249
43.55039 229
43.5705 242
43.59062 224
43.61073 261
43.63084 222
43.65096 231
43.67107 231
43.69119 223
43.7113 229
43.73141 240
43.75153 220
43.77164 227
43.79175 199
43.81187 224
43.83198 225
43.85209 224
43.87221 200
43.89232 259
43.91244 221
43.93255 215
43.95266 230
43.97278 204
43.99289 228
44.013 225
44.03312 214
44.05323 213
44.07335 208
44.09346 234
44.11357 211
44.13369 217
44.1538 240
44.17391 209
44.19403 203
44.21414 215
44.23426 236
44.25437 229
44.27448 223
44.2946 205
44.31471 231
44.33482 211
44.35494 203
44.37505 245
44.39516 221
44.41528 219
44.43539 223
44.45551 237
44.47562 224
44.49573 257
44.51585 229
44.53596 235
44.55607 216
44.57619 200
44.5963 209
44.61642 186
44.63653 238
44.65664 222
44.67676 218
44.69687 217
44.71698 197
44.7371 227
44.75721 208
44.77732 210
44.79744 222
44.81755 214
44.83767 217
44.85778 231
44.87789 231
44.89801 240
44.91812 240
44.93823 247
44.95835 207
44.97846 202
44.99858 249
45.01869 231
45.0388 239
45.05892 254
45.07903 216
45.09914 225
45.11926 216
45.13937 197
45.15949 245
45.1796 228
45.19971 275
45.21983 274
45.23994 228
45.26005 260
45.28017 238
45.30028 260
45.32039 238
45.34051 265
45.36062 269
45.38074 278
45.40085 258
45.42096 290
45.44108 276
45.46119 314
45.4813 309
45.50142 315
45.52153 337
45.54165 376
45.56176 378
45.58187 484
45.60199 518
45.6221 583
45.64221 676
45.66233 740
45.68244 828
45.70256 863
45.72267 967
45.74278 937
45.7629 971
45.78301 817
45.80312 772
45.82324 706
45.84335 633
45.86346 597
45.88358 542
45.90369 452
45.92381 426
45.94392 317
45.96403 264
45.98415 272
46.00426 258
46.02437 237
46.04449 233
46.0646 266
46.08472 244
46.10483 239
46.12494 257
46.14506 213
46.16517 244
46.18528 257
46.2054 213
46.22551 194
46.24563 231
46.26574 225
46.28585 219
46.30597 227
46.32608 226
46.34619 199
46.36631 231
46.38642 210
46.40653 200
46.42665 210
46.44676 236
46.46688 212
46.48699 222
46.5071 197
46.52722 231
46.54733 206
46.56744 203
46.58756 207
46.60767 232
46.62779 214
46.6479 195
46.66801 211
46.68813 226
46.70824 232
46.72835 213
46.74847 222
46.76858 200
46.78869 195
46.80881 207
46.82892 219
46.84904 219
46.86915 216
46.88926 195
46.90938 232
46.92949 200
46.9496 219
46.96972 234
46.98983 241
47.00995 219
47.03006 236
47.05017 214
47.07029 215
47.0904 228
47.11051 222
47.13063 214
47.15074 219
47.17086 233
47.19097 187
47.21108 243
47.2312 219
47.25131 209
47.27142 247
47.29154 203
47.31165 235
47.33176 224
47.35188 214
47.37199 214
47.39211 239
47.41222 223
47.43233 262
47.45245 199
47.47256 194
47.49267 213
47.51279 211
47.5329 242
47.55302 210
47.57313 189
47.59324 233
47.61336 202
47.63347 221
47.65358 208
47.6737 227
47.69381 219
47.71393 202
47.73404 228
47.75415 228
47.77427 225
47.79438 266
47.81449 227
47.83461 238
47.85472 234
47.87483 226
47.89495 214
47.91506 250
47.93518 217
47.95529 242
47.9754 210
47.99552 225
48.01563 218
48.03574 229
48.05586 216
48.07597 224
48.09609 226
48.1162 229
48.13631 227
48.15643 216
48.17654 241
48.19665 205
48.21677 223
48.23688 217
48.257 204
48.27711 221
48.29722 239
48.31734 247
48.33745 212
48.35756 204
48.37768 203
48.39779 200
48.4179 216
48.43802 243
48.45813 221
48.47825 239
48.49836 211
48.51847 225
48.53859 232
48.5587 225
48.57881 273
48.59893 240
48.61904 216
48.63916 225
48.65927 217
48.67938 242
48.6995 260
48.71961 204
48.73972 213
48.75984 234
48.77995 217
48.80006 246
48.82018 237
48.84029 253
48.86041 231
48.88052 252
48.90063 208
48.92075 238
48.94086 243
48.96097 237
48.98109 240
49.0012 253
49.02132 254
49.04143 238
49.06154 251
49.08166 249
49.10177 244
49.12188 247
49.142 226
49.16211 224
49.18223 225
49.20234 230
49.22245 241
49.24257 282
49.26268 260
49.28279 218
49.30291 246
49.32302 242
49.34313 275
49.36325 257
49.38336 238
49.40348 243
49.42359 282
49.4437 283
49.46382 268
49.48393 288
49.50404 257
49.52416 289
49.54427 257
49.56439 286
49.5845 311
49.60461 312
49.62473 294
49.64484 285
49.66495 348
49.68507 342
49.70518 358
49.7253 363
49.74541 389
49.76552 404
49.78564 437
49.80575 484
49.82586 560
49.84598 608
49.86609 659
49.8862 761
49.90632 894
49.92643 1062
49.94655 1266
49.96666 1487
49.98677 1792
50.00689 2117
50.027 2545
50.04711 2779
50.06723 2857
50.08734 2809
50.10746 2745
50.12757 2466
50.14768 2168
50.1678 1890
50.18791 1698
50.20802 1586
50.22814 1414
50.24825 1225
50.26837 952
50.28848 764
50.30859 594
50.32871 418
50.34882 406
50.36893 352
50.38905 362
50.40916 338
50.42927 311
50.44939 342
50.4695 353
50.48962 350
50.50973 338
50.52984 321
50.54996 341
50.57007 352
50.59018 332
50.6103 309
50.63041 283
50.65053 274
50.67064 294
50.69075 295
50.71087 282
50.73098 263
50.75109 268
50.77121 252
50.79132 247
50.81143 253
50.83155 265
50.85166 262
50.87178 246
50.89189 280
50.912 236
50.93212 247
50.95223 243
50.97234 227
50.99246 260
51.01257 223
51.03269 238
51.0528 212
51.07291 214
51.09303 249
51.11314 209
51.13325 195
51.15337 237
51.17348 221
51.1936 215
51.21371 206
51.23382 227
51.25394 225
51.27405 213
51.29416 211
51.31428 234
51.33439 248
51.3545 209
51.37462 211
51.39473 219
51.41485 227
51.43496 233
51.45507 215
51.47519 201
51.4953 221
51.51541 202
51.53553 206
51.55564 219
51.57576 219
51.59587 216
51.61598 209
51.6361 203
51.65621 226
51.67632 211
51.69644 206
51.71655 225
51.73667 222
51.75678 185
51.77689 200
51.79701 231
51.81712 219
51.83723 198
51.85735 193
51.87746 187
51.89757 213
51.91769 206
51.9378 204
51.95792 238
51.97803 208
51.99814 235
52.01826 232
52.03837 218
52.05848 217
52.0786 215
52.09871 195
52.11883 201
52.13894 190
52.15905 178
52.17917 224
52.19928 228
52.21939 206
52.23951 195
52.25962 216
52.27974 219
52.29985 183
52.31996 211
52.34008 224
52.36019 232
52.3803 212
52.40042 213
52.42053 228
52.44064 202
52.46076 184
52.48087 210
52.50099 188
52.5211 196
52.54121 215
52.56133 202
52.58144 222
52.60155 213
52.62167 219
52.64178 211
52.6619 216
52.68201 209
52.70212 219
52.72224 210
52.74235 226
52.76246 229
52.78258 223
52.80269 209
52.8228 206
52.84292 233
52.86303 225
52.88315 228
52.90326 202
52.92337 229
52.94349 198
52.9636 204
52.98371 206
53.00383 219
53.02394 223
53.04406 235
53.06417 196
53.08428 250
53.1044 214
53.12451 228
53.14462 236
53.16474 243
53.18485 237
53.20497 228
53.22508 247
53.24519 239
53.26531 244
53.28542 242
53.30553 215
53.32565 252
53.34576 250
53.36587 235
53.38599 218
53.4061 266
53.42622 258
53.44633 249
53.46644 238
53.48656 258
53.50667 266
53.52678 244
53.5469 266
53.56701 234
53.58713 271
53.60724 250
53.62735 264
53.64747 244
53.66758 256
53.68769 264
53.70781 242
53.72792 257
53.74804 242
53.76815 268
53.78826 256
53.80838 247
53.82849 254
53.8486 259
53.86872 253
53.88883 262
53.90894 247
53.92906 272
53.94917 278
53.96929 276
53.9894 230
54.00951 263
54.02963 297
54.04974 265
54.06985 290
54.08997 255
54.11008 282
54.1302 276
54.15031 283
54.17042 276
54.19054 276
54.21065 288
54.23076 269
54.25088 275
54.27099 288
54.29111 307
54.31122 264
54.33133 253
54.35145 263
54.37156 277
54.39167 269
54.41179 277
54.4319 313
54.45201 293
54.47213 240
54.49224 336
54.51236 303
54.53247 306
54.55258 334
54.5727 377
54.59281 429
54.61292 436
54.63304 457
54.65315 492
54.67327 533
54.69338 612
54.71349 746
54.73361 774
54.75372 878
54.77383 949
54.79395 947
54.81406 966
54.83417 1012
54.85429 947
54.8744 808
54.89452 791
54.91463 728
54.93474 621
54.95486 656
54.97497 663
54.99508 581
55.0152 494
55.03531 461
55.05543 420
55.07554 406
55.09565 405
55.11577 387
55.13588 378
55.15599 426
55.17611 491
55.19622 511
55.21634 550
55.23645 582
55.25656 576
55.27668 580
55.29679 524
55.3169 509
55.33702 473
55.35713 412
55.37724 407
55.39736 435
55.41747 415
55.43759 421
55.4577 330
55.47781 305
55.49793 308
55.51804 258
55.53815 249
55.55827 256
55.57838 248
55.5985 243
55.61861 247
55.63872 256
55.65884 232
55.67895 234
55.69906 234
55.71918 232
55.73929 197
55.75941 258
55.77952 188
55.79963 223
55.81975 220
55.83986 233
55.85997 225
55.88009 215
55.9002 213
55.92031 224
55.94043 219
55.96054 215
55.98066 214
56.00077 236
56.02088 219
56.041 230
56.06111 216
56.08122 205
56.10134 183
56.12145 254
56.14157 203
56.16168 230
56.18179 200
56.20191 235
56.22202 217
56.24213 235
56.26225 215
56.28236 219
56.30248 241
56.32259 194
56.3427 221
56.36282 245
56.38293 259
56.40304 233
56.42316 258
56.44327 259
56.46338 248
56.4835 204
56.50361 237
56.52373 255
56.54384 238
56.56395 257
56.58407 217
56.60418 230
56.62429 222
56.64441 232
56.66452 234
56.68464 225
56.70475 230
56.72486 207
56.74498 233
56.76509 194
56.7852 229
56.80532 223
56.82543 231
56.84554 219
56.86566 199
56.88577 227
56.90589 219
56.926 245
56.94611 219
56.96623 250
56.98634 238
57.00645 202
57.02657 240
57.04668 247
57.0668 247
57.08691 243
57.10702 269
57.12714 231
57.14725 239
57.16736 277
57.18748 256
57.20759 239
57.22771 262
57.24782 250
57.26793 262
57.28805 240
57.30816 232
57.32827 236
57.34839 253
57.3685 233
57.38861 215
57.40873 240
57.42884 230
57.44896 252
57.46907 206
57.48918 224
57.5093 216
57.52941 228
57.54952 237
57.56964 208
57.58975 226
57.60987 204
57.62998 191
57.65009 209
57.67021 235
57.69032 195
57.71043 221
57.73055 174
57.75066 208
57.77078 208
57.79089 224
57.811 233
57.83112 205
57.85123 209
57.87134 219
57.89146 206
57.91157 219
57.93168 237
57.9518 213
57.97191 245
57.99203 222
58.01214 225
58.03225 226
58.05237 209
58.07248 217
58.09259 235
58.11271 209
58.13282 209
58.15294 203
58.17305 225
58.19316 225
58.21328 213
58.23339 211
58.2535 235
58.27362 199
58.29373 240
58.31385 191
58.33396 224
58.35407 222
58.37419 214
58.3943 219
58.41441 206
58.43453 195
58.45464 232
58.47475 209
58.49487 203
58.51498 210
58.5351 205
58.55521 225
58.57532 209
58.59544 216
58.61555 189
58.63566 206
58.65578 213
58.67589 211
58.69601 242
58.71612 202
58.73623 233
58.75635 236
58.77646 199
58.79657 226
58.81669 222
58.8368 231
58.85691 225
58.87703 216
58.89714 203
58.91726 203
58.93737 244
58.95748 207
58.9776 219
58.99771 207
59.01782 240
59.03794 230
59.05805 200
59.07817 224
59.09828 228
59.11839 214
59.13851 246
59.15862 227
59.17873 234
59.19885 221
59.21896 198
59.23908 248
59.25919 248
59.2793 250
59.29942 226
59.31953 258
59.33964 276
59.35976 254
59.37987 250
59.39998 238
59.4201 288
59.44021 255
59.46033 291
59.48044 294
59.50055 301
59.52067 334
59.54078 315
59.56089 358
59.58101 357
59.60112 414
59.62124 419
59.64135 460
59.66146 519
59.68158 556
59.70169 623
59.7218 687
59.74192 837
59.76203 935
59.78215 1158
59.80226 1329
59.82237 1550
59.84249 1757
59.8626 1852
59.88271 1963
59.90283 1767
59.92294 1734
59.94305 1521
59.96317 1364
59.98328 1189
60.0034 1119
60.02351 1048
60.04362 1057
60.06374 1017
60.08385 922
60.10396 766
60.12408 654
60.14419 564
60.16431 345
60.18442 347
60.20453 303
60.22465 264
60.24476 274
60.26487 278
60.28499 274
60.3051 259
60.32522 242
60.34533 250
60.36544 221
60.38556 228
60.40567 233
60.42578 248
60.4459 238
60.46601 230
60.48612 239
60.50624 237
60.52635 228
60.54647 236
60.56658 238
60.58669 225
60.60681 244
60.62692 222
60.64703 226
60.66715 226
60.68726 248
60.70738 212
60.72749 214
60.7476 226
60.76772 225
60.78783 218
60.80794 230
60.82806 213
60.84817 203
60.86828 222
60.8884 232
60.90851 187
60.92863 199
60.94874 221
60.96885 217
60.98897 215
61.00908 234
61.02919 203
61.04931 232
61.06942 200
61.08954 231
61.10965 213
61.12976 236
61.14988 198
61.16999 211
61.1901 221
61.21022 215
61.23033 183
61.25045 200
61.27056 211
61.29067 214
61.31079 195
61.3309 217
61.35101 216
61.37113 198
61.39124 225
61.41135 200
61.43147 216
61.45158 230
61.4717 212
61.49181 234
61.51192 205
61.53204 219
61.55215 186
61.57226 217
61.59238 233
61.61249 221
61.63261 202
61.65272 239
61.67283 208
61.69295 204
61.71306 239
61.73317 218
61.75329 208
61.7734 245
61.79352 225
61.81363 211
61.83374 228
61.85386 226
61.87397 229
61.89408 252
61.9142 236
61.93431 206
61.95442 263
61.97454 268
61.99465 241
62.01477 279
62.03488 226
62.05499 251
62.07511 253
62.09522 259
62.11533 267
62.13545 269
62.15556 301
62.17568 261
62.19579 275
62.2159 293
62.23602 292
62.25613 276
62.27624 255
62.29636 278
62.31647 250
62.33659 260
62.3567 268
62.37681 277
62.39693 260
62.41704 263
62.43715 257
62.45727 288
62.47738 244
62.49749 260
62.51761 225
62.53772 261
62.55784 274
62.57795 243
62.59806 258
62.61818 243
62.63829 218
62.6584 198
62.67852 237
62.69863 227
62.71875 217
62.73886 226
62.75897 232
62.77909 238
62.7992 201
62.81931 219
62.83943 244
62.85954 202
62.87965 226
62.89977 213
62.91988 244
62.94 209
62.96011 213
62.98022 224
63.00034 224
63.02045 214
63.04056 219
63.06068 215
63.08079 224
63.10091 195
63.12102 228
63.14113 208
63.16125 205
63.18136 235
63.20147 201
63.22159 236
63.2417 226
63.26182 218
63.28193 209
63.30204 235
63.32216 202
63.34227 233
63.36238 209
63.3825 227
63.40261 183
63.42272 224
63.44284 212
63.46295 240
63.48307 221
63.50318 242
63.52329 227
63.54341 226
63.56352 194
63.58363 223
63.60375 254
63.62386 243
63.64398 249
63.66409 251
63.6842 261
63.70432 275
63.72443 245
63.74454 252
63.76466 298
63.78477 287
63.80489 343
63.825 343
63.84511 368
63.86523 403
63.88534 441
63.90545 476
63.92557 505
63.94568 529
63.96579 507
63.98591 522
64.00602 478
64.02614 458
64.04625 411
64.06636 381
64.08648 376
64.10659 410
64.1267 349
64.14682 376
64.16693 345
64.18705 335
64.20716 295
64.22727 292
64.24739 264
64.2675 267
64.28761 266
64.30773 266
64.32784 242
64.34796 237
64.36807 233
64.38818 211
64.4083 205
64.42841 209
64.44852 217
64.46864 240
64.48875 196
64.50886 206
64.52898 203
64.54909 205
64.56921 218
64.58932 197
64.60943 211
64.62955 222
64.64966 182
64.66977 221
64.68989 215
64.71 209
64.73012 217
64.75023 209
64.77034 200
64.79046 190
64.81057 214
64.83068 213
64.8508 208
64.87091 215
64.89102 203
64.91114 207
64.93125 209
64.95137 211
64.97148 201
64.99159 199
65.01171 198
65.03182 218
65.05193 207
65.07205 200
65.09216 218
65.11228 219
65.13239 240
65.1525 205
65.17262 210
65.19273 275
65.21284 229
65.23296 205
65.25307 206
65.27319 232
65.2933 231
65.31341 191
65.33353 200
65.35364 190
65.37375 229
65.39387 246
65.41398 227
65.43409 242
65.45421 226
65.47432 201
65.49444 218
65.51455 226
65.53466 219
65.55478 257
65.57489 251
65.595 231
65.61512 249
65.63523 254
65.65535 283
65.67546 280
65.69557 262
65.71569 267
65.7358 284
65.75591 273
65.77603 283
65.79614 280
65.81626 246
65.83637 249
65.85648 239
65.8766 218
65.89671 227
65.91682 260
65.93694 237
65.95705 229
65.97716 221
65.99728 236
66.01739 233
66.03751 206
66.05762 189
66.07773 215
66.09785 224
66.11796 222
66.13807 215
66.15819 196
66.1783 225
66.19842 216
66.21853 183
66.23864 205
66.25876 210
66.27887 218
66.29898 184
66.3191 205
66.33921 205
66.35933 227
66.37944 209
66.39955 197
66.41967 233
66.43978 229
66.45989 206
66.48001 233
66.50012 214
66.52023 208
66.54035 199
66.56046 218
66.58058 225
66.60069 196
66.6208 211
66.64092 216
66.66103 212
66.68114 211
66.70126 195
66.72137 187
66.74149 222
66.7616 212
66.78171 213
66.80183 216
66.82194 209
66.84205 219
66.86217 222
66.88228 213
66.90239 208
66.92251 237
66.94262 223
66.96274 224
66.98285 229
67.00296 229
67.02308 220
67.04319 201
67.0633 244
67.08342 226
67.10353 240
67.12365 243
67.14376 239
67.16387 260
67.18399 248
67.2041 246
67.22421 251
67.24433 271
67.26444 271
67.28456 231
67.30467 282
67.32478 301
67.3449 312
67.36501 307
67.38512 300
67.40524 355
67.42535 374
67.44546 433
67.46558 441
67.48569 493
67.50581 522
67.52592 595
67.54603 675
67.56615 776
67.58626 827
67.60637 959
67.62649 1130
67.6466 1185
67.66672 1194
67.68683 1152
67.70694 1110
67.72706 1040
67.74717 940
67.76728 836
67.7874 824
67.80751 866
67.82763 925
67.84774 946
67.86785 910
67.88797 932
67.90808 1006
67.92819 992
67.94831 1025
67.96842 1058
67.98853 1135
68.00865 1321
68.02876 1378
68.04888 1548
68.06899 1592
68.0891 1627
68.10922 1512
68.12933 1489
68.14944 1393
68.16956 1364
68.18967 1340
68.20979 1470
68.2299 1464
68.25001 1405
68.27013 1411
68.29024 1177
68.31035 1102
68.33047 927
68.35058 810
68.3707 735
68.39081 622
68.41092 632
68.43104 598
68.45115 551
68.47126 523
68.49138 455
68.51149 401
68.5316 367
68.55172 303
68.57183 313
68.59195 280
68.61206 268
68.63217 236
68.65229 251
68.6724 253
68.69251 223
68.71263 240
68.73274 232
68.75286 228
68.77297 210
68.79308 216
68.8132 241
68.83331 241
68.85342 219
68.87354 217
68.89365 223
68.91376 238
68.93388 212
68.95399 199
68.97411 223
68.99422 227
69.01433 220
69.03445 189
69.05456 214
69.07467 217
69.09479 191
69.1149 226
69.13502 208
69.15513 185
69.17524 204
69.19536 211
69.21547 201
69.23558 201
69.2557 205
69.27581 226
69.29593 192
69.31604 205
69.33615 199
69.35627 202
69.37638 222
69.39649 187
69.41661 186
69.43672 204
69.45683 209
69.47695 203
69.49706 206
69.51718 222
69.53729 213
69.5574 205
69.57752 196
69.59763 200
69.61774 193
69.63786 196
69.65797 198
69.67809 206
69.6982 221
69.71831 201
69.73843 203
69.75854 203
69.77865 196
69.79877 208
69.81888 191
69.839 193
69.85911 192
69.87922 211
69.89934 193
69.91945 207
69.93956 206
69.95968 205
69.97979 196
69.9999 202
70.02002 225
70.04013 236
70.06025 199
70.08036 201
70.10047 218
70.12059 195
70.1407 180
70.16081 185
70.18093 192
70.20104 201
70.22116 199
70.24127 188
70.26138 178
70.2815 198
70.30161 187
70.32172 186
70.34184 166
70.36195 202
70.38207 231
70.40218 219
70.42229 205
70.44241 188
70.46252 203
70.48263 219
70.50275 179
70.52286 189
70.54297 197
70.56309 199
70.5832 191
70.60332 202
70.62343 200
70.64354 199
70.66366 185
70.68377 163
70.70388 178
70.724 196
70.74411 205
70.76423 180
70.78434 196
70.80445 202
70.82457 206
70.84468 186
70.86479 164
70.88491 191
70.90502 192
70.92513 207
70.94525 210
70.96536 177
70.98548 211
71.00559 196
71.0257 192
71.04582 188
71.06593 188
71.08604 196
71.10616 197
71.12627 196
71.14639 212
71.1665 193
71.18661 197
71.20673 193
71.22684 193
71.24695 196
71.26707 212
71.28718 191
71.3073 201
71.32741 186
71.34752 161
71.36764 174
71.38775 191
71.40786 217
71.42798 197
71.44809 199
71.4682 201
71.48832 214
71.50843 173
71.52855 202
71.54866 197
71.56877 213
71.58889 206
71.609 198
71.62911 200
71.64923 196
71.66934 212
71.68946 203
71.70957 177
71.72968 200
71.7498 184
71.76991 180
71.79002 206
71.81014 217
71.83025 163
71.85037 202
71.87048 196
71.89059 207
71.91071 212
71.93082 191
71.95093 191
71.97105 201
71.99116 216
72.01127 207
72.03139 202
72.0515 198
72.07162 214
72.09173 185
72.11184 209
72.13196 177
72.15207 210
72.17218 226
72.1923 167
72.21241 210
72.23253 203
72.25264 209
72.27275 193
72.29287 200
72.31298 211
72.33309 208
72.35321 203
72.37332 235
72.39344 208
72.41355 228
72.43366 195
72.45378 194
72.47389 188
72.494 198
72.51412 204
72.53423 193
72.55434 172
72.57446 197
72.59457 216
72.61469 192
72.6348 209
72.65491 215
72.67503 214
72.69514 195
72.71525 212
72.73537 205
72.75548 208
72.7756 193
72.79571 174
72.81582 205
72.83594 192
72.85605 178
72.87616 221
72.89628 200
72.91639 189
72.9365 224
72.95662 199
72.97673 206
72.99685 216
73.01696 227
73.03707 209
73.05719 229
73.0773 237
73.09741 252
73.11753 227
73.13764 249
73.15776 272
73.17787 319
73.19798 294
73.2181 304
73.23821 331
73.25832 330
73.27844 379
73.29855 396
73.31867 457
73.33878 433
73.35889 497
73.37901 511
73.39912 518
73.41923 559
73.43935 454
73.45946 427
73.47957 402
73.49969 380
73.5198 359
73.53992 362
73.56003 314
73.58014 358
73.60026 377
73.62037 346
73.64048 338
73.6606 361
73.68071 291
73.70083 254
73.72094 271
73.74105 215
73.76117 223
73.78128 214
73.80139 234
73.82151 199
73.84162 218
73.86174 204
73.88185 192
73.90196 206
73.92208 194
73.94219 228
73.9623 222
73.98242 199
74.00253 200
74.02264 183
74.04276 176
74.06287 202
74.08299 184
74.1031 200
74.12321 213
74.14333 200
74.16344 184
74.18355 190
74.20367 215
74.22378 192
74.2439 221
74.26401 200
74.28412 170
74.30424 203
74.32435 173
74.34446 197
74.36458 197
74.38469 195
74.40481 224
74.42492 184
74.44503 183
74.46515 175
74.48526 168
74.50537 203
74.52549 169
74.5456 184
74.56571 214
74.58583 205
74.60594 217
74.62606 203
74.64617 180
74.66628 204
74.6864 210
74.70651 194
74.72662 211
74.74674 221
74.76685 190
74.78697 185
74.80708 197
74.82719 188
74.84731 222
74.86742 190
74.88753 204
74.90765 198
74.92776 226
74.94787 200
74.96799 201
74.9881 236
75.00822 192
