3.00117 20573
3.02128 20351
3.0414 19226
3.06151 19374
3.08162 18494
3.10174 18036
3.12185 17381
3.14197 16809
3.16208 16669
3.18219 15518
3.20231 15587
3.22242 14879
3.24253 14626
3.26265 14472
3.28276 13522
3.30288 13351
3.32299 12919
3.3431 12402
3.36322 12303
3.38333 11549
3.40344 11436
3.42356 10926
3.44367 10645
3.46379 10639
3.4839 9764
3.50401 9525
3.52413 9455
3.54424 8886
3.56435 8719
3.58447 8029
3.60458 8138
3.62469 7742
3.64481 7342
3.66492 7288
3.68504 6786
3.70515 6300
3.72526 6331
3.74538 6041
3.76549 6057
3.7856 5482
3.80572 5268
3.82583 5155
3.84595 4831
3.86606 4761
3.88617 4504
3.90629 4360
3.9264 4165
3.94651 3891
3.96663 3919
3.98674 3453
4.00686 3423
4.02697 3296
4.04708 3144
4.0672 3095
4.08731 2747
4.10742 2677
4.12754 2712
4.14765 2463
4.16776 2474
4.18788 2202
4.20799 2212
4.22811 2155
4.24822 2015
4.26833 2080
4.28845 1834
4.30856 1849
4.32867 1800
4.34879 1750
4.3689 1652
4.38902 1610
4.40913 1565
4.42924 1561
4.44936 1537
4.46947 1602
4.48958 1384
4.5097 1305
4.52981 1393
4.54992 1322
4.57004 1261
4.59015 1177
4.61027 1184
4.63038 1172
4.65049 1217
4.67061 1144
4.69072 1055
4.71083 957
4.73095 1043
4.75106 1051
4.77118 1023
4.79129 914
4.8114 912
4.83152 963
4.85163 855
4.87174 842
4.89186 880
4.91197 814
4.93209 855
4.9522 803
4.97231 771
4.99243 738
5.01254 733
5.03265 733
5.05277 721
5.07288 714
5.09299 684
5.11311 641
5.13322 675
5.15334 606
5.17345 636
5.19356 555
5.21368 580
5.23379 509
5.2539 578
5.27402 530
5.29413 557
5.31425 530
5.33436 503
5.35447 526
5.37459 476
5.3947 485
5.41481 472
5.43493 463
5.45504 456
5.47516 398
5.49527 433
5.51538 395
5.5355 377
5.55561 406
5.57572 365
5.59584 376
5.61595 433
5.63606 377
5.65618 403
5.67629 332
5.69641 362
5.71652 358
5.73663 376
5.75675 327
5.77686 332
5.79697 314
5.81709 331
5.8372 305
5.85732 313
5.87743 285
5.89754 313
5.91766 310
5.93777 282
5.95788 297
5.978 306
5.99811 320
6.01823 264
6.03834 283
6.05845 246
6.07857 259
6.09868 276
6.11879 273
6.13891 288
6.15902 266
6.17913 285
6.19925 248
6.21936 273
6.23948 255
6.25959 258
6.2797 226
6.29982 233
6.31993 239
6.34004 260
6.36016 239
6.38027 246
6.40039 246
6.4205 272
6.44061 252
6.46073 261
6.48084 219
6.50095 231
6.52107 218
6.54118 242
6.56129 232
6.58141 243
6.60152 232
6.62164 232
6.64175 217
6.66186 222
6.68198 206
6.70209 229
6.7222 229
6.74232 219
6.76243 225
6.78255 187
6.80266 233
6.82277 218
6.84289 239
6.863 222
6.88311 186
6.90323 232
6.92334 196
6.94346 236
6.96357 211
6.98368 200
7.0038 217
7.02391 218
7.04402 196
7.06414 217
7.08425 227
7.10436 184
7.12448 245
7.14459 211
7.16471 216
7.18482 210
7.20493 213
7.22505 228
7.24516 201
7.26527 214
7.28539 225
7.3055 211
7.32562 205
7.34573 194
7.36584 236
7.38596 228
7.40607 217
7.42618 241
7.4463 220
7.46641 228
7.48653 220
7.50664 232
7.52675 226
7.54687 246
7.56698 200
7.58709 243
7.60721 214
7.62732 208
7.64743 217
7.66755 198
7.68766 209
7.70778 219
7.72789 218
7.748 237
7.76812 217
7.78823 211
7.80834 231
7.82846 233
7.84857 251
7.86869 237
7.8888 205
7.90891 222
7.92903 221
7.94914 219
7.96925 223
7.98937 225
8.00948 214
8.0296 218
8.04971 193
8.06982 217
8.08994 241
8.11005 185
8.13016 195
8.15028 234
8.17039 234
8.1905 183
8.21062 213
8.23073 209
8.25085 232
8.27096 211
8.29107 265
8.31119 219
8.3313 240
8.35141 194
8.37153 243
8.39164 244
8.41176 248
8.43187 197
8.45198 231
8.4721 255
8.49221 202
8.51232 214
8.53244 221
8.55255 256
8.57266 225
8.59278 232
8.61289 243
8.63301 189
8.65312 208
8.67323 249
8.69335 237
8.71346 223
8.73357 237
8.75369 237
8.7738 260
8.79392 212
8.81403 239
8.83414 222
8.85426 247
8.87437 240
8.89448 234
8.9146 236
8.93471 207
8.95483 208
8.97494 229
8.99505 222
9.01517 217
9.03528 229
9.05539 244
9.07551 222
9.09562 204
9.11573 221
9.13585 245
9.15596 238
9.17608 228
9.19619 220
9.2163 210
9.23642 207
9.25653 216
9.27664 201
9.29676 218
9.31687 194
9.33699 241
9.3571 214
9.37721 205
9.39733 225
9.41744 228
9.43755 213
9.45767 199
9.47778 264
9.4979 222
9.51801 218
9.53812 229
9.55824 219
9.57835 229
9.59846 244
9.61858 213
9.63869 248
9.6588 231
9.67892 219
9.69903 229
9.71915 246
9.73926 228
9.75937 219
9.77949 228
9.7996 232
9.81971 228
9.83983 223
9.85994 217
9.88006 200
9.90017 219
9.92028 195
9.9404 229
9.96051 207
9.98062 227
10.00074 201
10.02085 241
10.04097 217
10.06108 214
10.08119 261
10.10131 215
10.12142 214
10.14153 230
10.16165 229
10.18176 232
10.20187 204
10.22199 230
10.2421 225
10.26222 206
10.28233 234
10.30244 195
10.32256 221
10.34267 196
10.36278 202
10.3829 221
10.40301 244
10.42313 230
10.44324 197
10.46335 193
10.48347 232
10.50358 196
10.52369 210
10.54381 223
10.56392 193
10.58403 221
10.60415 254
10.62426 202
10.64438 184
10.66449 186
10.6846 202
10.70472 223
10.72483 214
10.74494 203
10.76506 227
10.78517 243
10.80529 206
10.8254 203
10.84551 193
10.86563 214
10.88574 219
10.90585 217
10.92597 195
10.94608 200
10.9662 215
10.98631 221
11.00642 189
11.02654 207
11.04665 212
11.06676 185
11.08688 239
11.10699 213
11.1271 218
11.14722 235
11.16733 186
11.18745 204
11.20756 182
11.22767 207
11.24779 220
11.2679 208
11.28801 234
11.30813 225
11.32824 218
11.34836 205
11.36847 211
11.38858 208
11.4087 231
11.42881 215
11.44892 211
11.46904 223
11.48915 175
11.50927 248
11.52938 227
11.54949 224
11.56961 233
11.58972 237
11.60983 216
11.62995 212
11.65006 194
11.67017 222
11.69029 206
11.7104 183
11.73052 222
11.75063 243
11.77074 203
11.79086 225
11.81097 218
11.83108 227
11.8512 258
11.87131 227
11.89143 222
11.91154 221
11.93165 240
11.95177 218
11.97188 244
11.99199 228
12.01211 205
12.03222 241
12.05234 231
12.07245 201
12.09256 233
12.11268 221
12.13279 243
12.1529 242
12.17302 235
12.19313 248
12.21324 245
12.23336 265
12.25347 232
12.27359 270
12.2937 270
12.31381 270
12.33393 307
12.35404 257
12.37415 266
12.39427 254
12.41438 252
12.4345 246
12.45461 234
12.47472 213
12.49484 203
12.51495 233
12.53506 226
12.55518 208
12.57529 209
12.5954 220
12.61552 245
12.63563 197
12.65575 223
12.67586 211
12.69597 201
12.71609 202
12.7362 209
12.75631 193
12.77643 207
12.79654 189
12.81666 199
12.83677 205
12.85688 196
12.877 176
12.89711 184
12.91722 182
12.93734 206
12.95745 190
12.97757 206
12.99768 193
13.01779 213
13.03791 183
13.05802 208
13.07813 191
13.09825 186
13.11836 205
13.13847 199
13.15859 172
13.1787 172
13.19882 196
13.21893 253
13.23904 238
13.25916 208
13.27927 205
13.29938 179
13.3195 161
13.33961 198
13.35973 186
13.37984 193
13.39995 196
13.42007 182
13.44018 223
13.46029 176
13.48041 195
13.50052 168
13.52064 187
13.54075 170
13.56086 202
13.58098 195
13.60109 190
13.6212 175
13.64132 200
13.66143 179
13.68154 181
13.70166 196
13.72177 186
13.74189 195
13.762 208
13.78211 174
13.80223 201
13.82234 177
13.84245 214
13.86257 204
13.88268 171
13.9028 159
13.92291 185
13.94302 225
13.96314 182
13.98325 188
14.00336 201
14.02348 186
14.04359 201
14.06371 165
14.08382 197
14.10393 177
14.12405 154
14.14416 210
14.16427 190
14.18439 197
14.2045 207
14.22461 192
14.24473 182
14.26484 191
14.28496 174
14.30507 168
14.32518 165
14.3453 158
14.36541 199
14.38552 177
14.40564 193
14.42575 179
14.44587 171
14.46598 198
14.48609 198
14.50621 180
14.52632 182
14.54643 201
14.56655 198
14.58666 199
14.60677 193
14.62689 182
14.647 191
14.66712 174
14.68723 151
14.70734 160
14.72746 190
14.74757 175
14.76768 165
14.7878 170
14.80791 169
14.82803 184
14.84814 180
14.86825 181
14.88837 177
14.90848 168
14.92859 191
14.94871 177
14.96882 192
14.98894 158
15.00905 184
15.02916 194
15.04928 186
15.06939 169
15.0895 182
15.10962 166
15.12973 204
15.14984 187
15.16996 164
15.19007 144
15.21019 180
15.2303 212
15.25041 178
15.27053 185
15.29064 157
15.31075 153
15.33087 149
15.35098 170
15.3711 162
15.39121 181
15.41132 162
15.43144 145
15.45155 147
15.47166 165
15.49178 144
15.51189 186
15.53201 164
15.55212 166
15.57223 187
15.59235 172
15.61246 167
15.63257 165
15.65269 155
15.6728 192
15.69291 168
15.71303 175
15.73314 150
15.75326 154
15.77337 196
15.79348 181
15.8136 181
15.83371 160
15.85382 167
15.87394 168
15.89405 165
15.91417 191
15.93428 193
15.95439 195
15.97451 162
15.99462 175
16.01473 154
16.03485 191
16.05496 159
16.07508 151
16.09519 153
16.1153 185
16.13542 172
16.15553 182
16.17564 151
16.19576 164
16.21587 157
16.23598 191
16.2561 151
16.27621 158
16.29633 166
16.31644 176
16.33655 190
16.35667 155
16.37678 167
16.39689 195
16.41701 181
16.43712 153
16.45724 161
16.47735 177
16.49746 164
16.51758 166
16.53769 171
16.5578 134
16.57792 177
16.59803 153
16.61814 159
16.63826 178
16.65837 145
16.67849 147
16.6986 161
16.71871 188
16.73883 166
16.75894 179
16.77905 175
16.79917 164
16.81928 144
16.8394 151
16.85951 162
16.87962 152
16.89974 158
16.91985 165
16.93996 182
16.96008 154
16.98019 148
17.00031 169
17.02042 174
17.04053 154
17.06065 166
17.08076 170
17.10087 190
17.12099 153
17.1411 179
17.16121 166
17.18133 154
17.20144 138
17.22156 154
17.24167 160
17.26178 176
17.2819 173
17.30201 141
17.32212 164
17.34224 180
17.36235 184
17.38247 168
17.40258 170
17.42269 169
17.44281 137
17.46292 174
17.48303 164
17.50315 159
17.52326 189
17.54338 177
17.56349 171
17.5836 164
17.60372 177
17.62383 173
17.64394 178
17.66406 190
17.68417 168
17.70428 155
17.7244 135
17.74451 180
17.76463 165
17.78474 169
17.80485 156
17.82497 166
17.84508 160
17.86519 148
17.88531 176
17.90542 163
17.92554 173
17.94565 167
17.96576 148
17.98588 172
18.00599 168
18.0261 147
18.04622 187
18.06633 194
18.08645 194
18.10656 164
18.12667 179
18.14679 182
18.1669 168
18.18701 134
18.20713 140
18.22724 177
18.24735 176
18.26747 179
18.28758 181
18.3077 174
18.32781 187
18.34792 191
18.36804 166
18.38815 171
18.40826 185
18.42838 176
18.44849 182
18.46861 134
18.48872 168
18.50883 161
18.52895 163
18.54906 176
18.56917 158
18.58929 147
18.6094 181
18.62951 184
18.64963 165
18.66974 167
18.68986 146
18.70997 166
18.73008 168
18.7502 147
18.77031 186
18.79042 204
18.81054 175
18.83065 185
18.85077 182
18.87088 180
18.89099 171
18.91111 166
18.93122 172
18.95133 152
18.97145 170
18.99156 187
19.01168 162
19.03179 169
19.0519 172
19.07202 165
19.09213 156
19.11224 151
19.13236 169
19.15247 155
19.17258 170
19.1927 158
19.21281 166
19.23293 184
19.25304 175
19.27315 179
19.29327 172
19.31338 189
19.33349 164
19.35361 174
19.37372 169
19.39384 184
19.41395 189
19.43406 191
19.45418 201
19.47429 188
19.4944 181
19.51452 165
19.53463 225
19.55475 226
19.57486 216
19.59497 213
19.61509 220
19.6352 205
19.65531 251
19.67543 235
19.69554 227
19.71565 224
19.73577 253
19.75588 262
19.776 240
19.79611 276
19.81622 244
19.83634 285
19.85645 287
19.87656 310
19.89668 289
19.91679 302
19.93691 281
19.95702 265
19.97713 274
19.99725 266
20.01736 278
20.03747 276
20.05759 264
20.0777 244
20.09782 286
20.11793 291
20.13804 265
20.15816 310
20.17827 278
20.19838 317
20.2185 312
20.23861 309
20.25872 297
20.27884 303
20.29895 348
20.31907 314
20.33918 363
20.35929 333
20.37941 302
20.39952 322
20.41963 368
20.43975 332
20.45986 412
20.47998 374
20.50009 417
20.5202 405
20.54032 404
20.56043 440
20.58054 439
20.60066 449
20.62077 499
20.64088 586
20.661 703
20.68111 832
20.70123 1086
20.72134 1466
20.74145 2091
20.76157 3010
20.78168 4279
20.80179 6010
20.82191 7819
20.84202 9531
20.86214 9971
20.88225 9275
20.90236 7015
20.92248 4961
20.94259 3191
20.9627 1782
20.98282 1058
21.00293 767
21.02305 662
21.04316 604
21.06327 478
21.08339 480
21.1035 424
21.12361 452
21.14373 407
21.16384 354
21.18395 368
21.20407 332
21.22418 335
21.2443 325
21.26441 273
21.28452 289
21.30464 292
21.32475 284
21.34486 279
21.36498 285
21.38509 291
21.40521 280
21.42532 276
21.44543 288
21.46555 292
21.48566 247
21.50577 227
21.52589 232
21.546 256
21.56612 237
21.58623 247
21.60634 252
21.62646 238
21.64657 268
21.66668 261
21.6868 236
21.70691 233
21.72702 244
21.74714 206
21.76725 257
21.78737 219
21.80748 229
21.82759 239
21.84771 222
21.86782 245
21.88793 215
21.90805 257
21.92816 235
21.94828 240
21.96839 240
21.9885 236
22.00862 253
22.02873 203
22.04884 255
22.06896 240
22.08907 269
22.10919 217
22.1293 252
22.14941 225
22.16953 234
22.18964 210
22.20975 219
22.22987 242
22.24998 241
22.27009 232
22.29021 217
22.31032 235
22.33044 224
22.35055 243
22.37066 240
22.39078 192
22.41089 228
22.431 215
22.45112 237
22.47123 233
22.49135 210
22.51146 221
22.53157 215
22.55169 240
22.5718 227
22.59191 188
22.61203 223
22.63214 222
22.65225 201
22.67237 219
22.69248 219
22.7126 221
22.73271 239
22.75282 206
22.77294 191
22.79305 212
22.81316 233
22.83328 177
22.85339 199
22.87351 189
22.89362 207
22.91373 183
22.93385 205
22.95396 208
22.97407 216
22.99419 203
23.0143 231
23.03442 220
23.05453 201
23.07464 209
23.09476 209
23.11487 221
23.13498 212
23.1551 212
23.17521 225
23.19532 216
23.21544 207
23.23555 218
23.25567 241
23.27578 206
23.29589 212
23.31601 210
23.33612 198
23.35623 182
23.37635 214
23.39646 211
23.41658 187
23.43669 217
23.4568 206
23.47692 213
23.49703 204
23.51714 207
23.53726 250
23.55737 207
23.57749 229
23.5976 205
23.61771 197
23.63783 208
23.65794 242
23.67805 201
23.69817 232
23.71828 202
23.73839 201
23.75851 222
23.77862 226
23.79874 239
23.81885 237
23.83896 229
23.85908 260
23.87919 253
23.8993 274
23.91942 226
23.93953 280
23.95965 280
23.97976 297
23.99987 298
24.01999 302
24.0401 338
24.06021 277
24.08033 240
24.10044 231
24.12056 221
24.14067 226
24.16078 203
24.1809 232
24.20101 195
24.22112 215
24.24124 235
24.26135 224
24.28146 219
24.30158 221
24.32169 229
24.34181 217
24.36192 223
24.38203 221
24.40215 239
24.42226 212
24.44237 184
24.46249 209
24.4826 205
24.50272 193
24.52283 205
24.54294 216
24.56306 246
24.58317 206
24.60328 215
24.6234 235
24.64351 224
24.66362 227
24.68374 239
24.70385 240
24.72397 232
24.74408 205
24.76419 218
24.78431 259
24.80442 263
24.82453 246
24.84465 259
24.86476 276
24.88488 256
24.90499 240
24.9251 262
24.94522 250
24.96533 270
24.98544 237
25.00556 232
25.02567 226
25.04579 233
25.0659 228
25.08601 236
25.10613 240
25.12624 231
25.14635 227
25.16647 226
25.18658 246
25.20669 249
25.22681 269
25.24692 261
25.26704 232
25.28715 244
25.30726 219
25.32738 224
25.34749 249
25.3676 222
25.38772 220
25.40783 225
25.42795 230
25.44806 246
25.46817 261
25.48829 266
25.5084 276
25.52851 258
25.54863 252
25.56874 286
25.58886 280
25.60897 282
25.62908 318
25.6492 316
25.66931 368
25.68942 380
25.70954 395
25.72965 429
25.74976 476
25.76988 432
25.78999 433
25.81011 452
25.83022 489
25.85033 448
25.87045 453
25.89056 429
25.91067 502
25.93079 485
25.9509 497
25.97102 485
25.99113 499
26.01124 541
26.03136 551
26.05147 548
26.07158 535
26.0917 586
26.11181 657
26.13193 670
26.15204 722
26.17215 777
26.19227 775
26.21238 857
26.23249 882
26.25261 939
26.27272 1032
26.29283 1152
26.31295 1285
26.33306 1352
26.35318 1475
26.37329 1631
26.3934 1938
26.41352 2269
26.43363 2963
26.45374 3857
26.47386 5202
26.49397 7199
26.51409 10392
26.5342 14481
26.55431 20500
26.57443 28157
26.59454 36161
26.61465 43231
26.63477 46263
26.65488 42087
26.67499 33717
26.69511 25845
26.71522 19368
26.73534 12841
26.75545 7029
26.77556 3820
26.79568 2462
26.81579 2103
26.8359 1774
26.85602 1571
26.87613 1472
26.89625 1286
26.91636 1226
26.93647 1085
26.95659 1025
26.9767 849
26.99681 788
27.01693 768
27.03704 688
27.05716 648
27.07727 573
27.09738 540
27.1175 524
27.13761 555
27.15772 502
27.17784 468
27.19795 503
27.21806 443
27.23818 516
27.25829 437
27.27841 474
27.29852 441
27.31863 418
27.33875 434
27.35886 462
27.37897 458
27.39909 432
27.4192 481
27.43932 474
27.45943 452
27.47954 443
27.49966 414
27.51977 398
27.53988 387
27.56 415
27.58011 391
27.60023 353
27.62034 345
27.64045 331
27.66057 338
27.68068 338
27.70079 353
27.72091 349
27.74102 333
27.76113 327
27.78125 356
27.80136 296
27.82148 346
27.84159 328
27.8617 339
27.88182 346
27.90193 296
27.92204 358
27.94216 334
27.96227 346
27.98239 347
28.0025 311
28.02261 305
28.04273 307
28.06284 274
28.08295 296
28.10307 293
28.12318 301
28.1433 320
28.16341 297
28.18352 261
28.20364 269
28.22375 255
28.24386 246
28.26398 265
28.28409 277
28.3042 267
28.32432 278
28.34443 303
28.36455 278
28.38466 258
28.40477 239
28.42489 267
28.445 249
28.46511 271
28.48523 268
28.50534 254
28.52546 265
28.54557 255
28.56568 268
28.5858 265
28.60591 267
28.62602 225
28.64614 261
28.66625 261
28.68636 234
28.70648 253
28.72659 245
28.74671 255
28.76682 261
28.78693 242
28.80705 238
28.82716 241
28.84727 251
28.86739 266
28.8875 246
28.90762 208
28.92773 265
28.94784 253
28.96796 209
28.98807 242
29.00818 237
29.0283 273
29.04841 239
29.06853 228
29.08864 225
29.10875 236
29.12887 217
29.14898 238
29.16909 251
29.18921 226
29.20932 232
29.22943 226
29.24955 247
29.26966 248
29.28978 255
29.30989 234
29.33 235
29.35012 234
29.37023 236
29.39034 227
29.41046 243
29.43057 224
29.45069 249
29.4708 234
29.49091 231
29.51103 262
29.53114 227
29.55125 240
29.57137 221
29.59148 254
29.6116 224
29.63171 223
29.65182 201
29.67194 226
29.69205 219
29.71216 235
29.73228 227
29.75239 252
29.7725 221
29.79262 220
29.81273 211
29.83285 231
29.85296 213
29.87307 255
29.89319 235
29.9133 215
29.93341 186
29.95353 213
29.97364 225
29.99376 202
30.01387 210
30.03398 221
30.0541 235
30.07421 219
30.09432 231
30.11444 219
30.13455 233
30.15467 254
30.17478 249
30.19489 219
30.21501 224
30.23512 225
30.25523 231
30.27535 236
30.29546 230
30.31557 225
30.33569 211
30.3558 209
30.37592 207
30.39603 229
30.41614 227
30.43626 193
30.45637 213
30.47648 233
30.4966 198
30.51671 215
30.53683 240
30.55694 218
30.57705 211
30.59717 187
30.61728 197
30.63739 215
30.65751 200
30.67762 189
30.69773 228
30.71785 205
30.73796 224
30.75808 212
30.77819 208
30.7983 206
30.81842 231
30.83853 196
30.85864 228
30.87876 196
30.89887 212
30.91899 218
30.9391 200
30.95921 195
30.97933 210
30.99944 200
31.01955 197
31.03967 194
31.05978 206
31.0799 182
31.10001 189
31.12012 190
31.14024 184
31.16035 205
31.18046 188
31.20058 218
31.22069 191
31.2408 191
31.26092 183
31.28103 203
31.30115 206
31.32126 194
31.34137 179
31.36149 170
31.3816 165
31.40171 179
31.42183 202
31.44194 205
31.46206 183
31.48217 182
31.50228 181
31.5224 172
31.54251 175
31.56262 200
31.58274 170
31.60285 203
31.62297 170
31.64308 178
31.66319 176
31.68331 165
31.70342 163
31.72353 191
31.74365 182
31.76376 176
31.78387 171
31.80399 169
31.8241 200
31.84422 164
31.86433 154
31.88444 164
31.90456 167
31.92467 187
31.94478 174
31.9649 151
31.98501 170
32.00513 191
32.02524 185
32.04535 170
32.06547 164
32.08558 206
32.10569 178
32.12581 197
32.14592 172
32.16604 198
32.18615 178
32.20626 158
32.22638 171
32.24649 175
32.2666 171
32.28672 190
32.30683 196
32.32694 192
32.34706 156
32.36717 155
32.38729 171
32.4074 159
32.42751 179
32.44763 198
32.46774 159
32.48785 171
32.50797 196
32.52808 186
32.5482 167
32.56831 161
32.58842 164
32.60854 192
32.62865 165
32.64876 160
32.66888 167
32.68899 159
32.7091 169
32.72922 154
32.74933 162
32.76945 169
32.78956 169
32.80967 170
32.82979 166
32.8499 159
32.87001 157
32.89013 177
32.91024 166
32.93036 191
32.95047 173
32.97058 156
32.9907 145
33.01081 144
33.03092 178
33.05104 153
33.07115 199
33.09127 185
33.11138 162
33.13149 163
33.15161 157
33.17172 164
33.19183 172
33.21195 163
33.23206 187
33.25217 164
33.27229 178
33.2924 146
33.31252 186
33.33263 145
33.35274 158
33.37286 154
33.39297 167
33.41308 161
33.4332 152
33.45331 171
33.47343 168
33.49354 182
33.51365 142
33.53377 146
33.55388 158
33.57399 164
33.59411 177
33.61422 154
33.63434 171
33.65445 153
33.67456 168
33.69468 147
33.71479 167
33.7349 148
33.75502 178
33.77513 149
33.79524 150
33.81536 159
33.83547 167
33.85559 159
33.8757 153
33.89581 165
33.91593 133
33.93604 164
33.95615 157
33.97627 134
33.99638 148
34.0165 148
34.03661 126
34.05672 135
34.07684 160
34.09695 140
34.11706 174
34.13718 162
34.15729 161
34.17741 167
34.19752 150
34.21763 131
34.23775 170
34.25786 169
34.27797 182
34.29809 151
34.3182 164
34.33831 171
34.35843 175
34.37854 173
34.39866 145
34.41877 203
34.43888 187
34.459 168
34.47911 159
34.49922 179
34.51934 164
34.53945 189
34.55957 220
34.57968 170
34.59979 176
34.61991 181
34.64002 182
34.66013 202
34.68025 197
34.70036 221
34.72047 177
34.74059 191
34.7607 213
34.78082 186
34.80093 175
34.82104 218
34.84116 213
34.86127 211
34.88138 208
34.9015 219
34.92161 220
34.94173 200
34.96184 217
34.98195 236
35.00207 208
35.02218 204
35.04229 209
35.06241 206
35.08252 214
35.10264 199
35.12275 222
35.14286 226
35.16298 192
35.18309 197
35.2032 235
35.22332 189
35.24343 200
35.26354 191
35.28366 186
35.30377 205
35.32389 225
35.344 192
35.36411 221
35.38423 214
35.40434 194
35.42445 213
35.44457 222
35.46468 211
35.4848 206
35.50491 210
35.52502 207
35.54514 215
35.56525 210
35.58536 223
35.60548 219
35.62559 201
35.64571 192
35.66582 179
35.68593 172
35.70605 216
35.72616 214
35.74627 199
35.76639 197
35.7865 204
35.80661 221
35.82673 214
35.84684 207
35.86696 205
35.88707 219
35.90718 202
35.9273 195
35.94741 200
35.96752 212
35.98764 208
36.00775 220
36.02787 222
36.04798 234
36.06809 208
36.08821 236
36.10832 201
36.12843 200
36.14855 262
36.16866 263
36.18878 254
36.20889 270
36.229 266
36.24912 296
36.26923 321
36.28934 366
36.30946 404
36.32957 460
36.34968 524
36.3698 613
36.38991 796
36.41003 1010
36.43014 1239
36.45025 1619
36.47037 2082
36.49048 2483
36.51059 2865
36.53071 2989
36.55082 2863
36.57094 2358
36.59105 1905
36.61116 1595
36.63128 1474
36.65139 1232
36.6715 788
36.69162 515
36.71173 386
36.73184 335
36.75196 315
36.77207 285
36.79219 267
36.8123 249
36.83241 275
36.85253 226
36.87264 255
36.89275 234
36.91287 247
36.93298 211
36.9531 220
36.97321 212
36.99332 211
37.01344 232
37.03355 203
37.05366 180
37.07378 182
37.09389 199
37.11401 179
37.13412 190
37.15423 185
37.17435 173
37.19446 180
37.21457 175
37.23469 209
37.2548 160
37.27491 182
37.29503 194
37.31514 166
37.33526 182
37.35537 215
37.37548 214
37.3956 167
37.41571 177
37.43582 181
37.45594 194
37.47605 185
37.49617 173
37.51628 184
37.53639 189
37.55651 205
37.57662 161
37.59673 207
37.61685 178
37.63696 177
37.65708 190
37.67719 173
37.6973 163
37.71742 171
37.73753 187
37.75764 176
37.77776 189
37.79787 159
37.81798 171
37.8381 188
37.85821 179
37.87833 168
37.89844 172
37.91855 165
37.93867 156
37.95878 178
37.97889 173
37.99901 190
38.01912 179
38.03924 193
38.05935 177
38.07946 170
38.09958 185
38.11969 202
38.1398 190
38.15992 191
38.18003 202
38.20015 171
38.22026 193
38.24037 188
38.26049 200
38.2806 203
38.30071 188
38.32083 205
38.34094 177
38.36105 197
38.38117 200
38.40128 194
38.4214 181
38.44151 201
38.46162 170
38.48174 177
38.50185 192
38.52196 209
38.54208 196
38.56219 189
38.58231 175
38.60242 201
38.62253 212
38.64265 182
38.66276 199
38.68287 189
38.70299 185
38.7231 158
38.74321 191
38.76333 183
38.78344 202
38.80356 167
38.82367 198
38.84378 199
38.8639 187
38.88401 196
38.90412 194
38.92424 176
38.94435 188
38.96447 225
38.98458 205
39.00469 216
39.02481 202
39.04492 199
39.06503 230
39.08515 208
39.10526 230
39.12538 220
39.14549 267
39.1656 245
39.18572 298
39.20583 344
39.22594 353
39.24606 398
39.26617 491
39.28628 572
39.3064 707
39.32651 846
39.34663 1139
39.36674 1406
39.38685 1737
39.40697 2257
39.42708 2495
39.44719 2749
39.46731 2713
39.48742 2139
39.50754 1761
39.52765 1551
39.54776 1363
39.56788 1249
39.58799 987
39.6081 621
39.62822 410
39.64833 347
39.66845 300
39.68856 283
39.70867 265
39.72879 272
39.7489 223
39.76901 259
39.78913 245
39.80924 220
39.82935 242
39.84947 214
39.86958 184
39.8897 230
39.90981 206
39.92992 237
39.95004 263
39.97015 235
39.99026 226
40.01038 257
40.03049 295
40.05061 287
40.07072 364
40.09083 366
40.11095 344
40.13106 479
40.15117 565
40.17129 684
40.1914 877
40.21152 1042
40.23163 1201
40.25174 1378
40.27186 1447
40.29197 1381
40.31208 1159
40.3322 885
40.35231 881
40.37242 778
40.39254 766
40.41265 608
40.43277 455
40.45288 316
40.47299 241
40.49311 249
40.51322 202
40.53333 224
40.55345 227
40.57356 204
40.59368 196
40.61379 174
40.6339 180
40.65402 188
40.67413 206
40.69424 178
40.71436 178
40.73447 181
40.75458 174
40.7747 186
40.79481 189
40.81493 195
40.83504 174
40.85515 166
40.87527 187
40.89538 170
40.91549 160
40.93561 173
40.95572 183
40.97584 164
40.99595 163
41.01606 178
41.03618 174
41.05629 181
41.0764 181
41.09652 184
41.11663 186
41.13675 184
41.15686 183
41.17697 188
41.19709 194
41.2172 162
41.23731 201
41.25743 157
41.27754 169
41.29765 173
41.31777 195
41.33788 203
41.358 164
41.37811 175
41.39822 186
41.41834 170
41.43845 201
41.45856 169
41.47868 163
41.49879 188
41.51891 186
41.53902 163
41.55913 156
41.57925 161
41.59936 171
41.61947 159
41.63959 180
41.6597 209
41.67982 183
41.69993 185
41.72004 173
41.74016 181
41.76027 158
41.78038 169
41.8005 172
41.82061 199
41.84072 194
41.86084 159
41.88095 181
41.90107 196
41.92118 187
41.94129 198
41.96141 193
41.98152 192
42.00163 189
42.02175 212
42.04186 199
42.06198 210
42.08209 234
42.1022 236
42.12232 221
42.14243 259
42.16254 280
42.18266 275
42.20277 339
42.22289 331
42.243 402
42.26311 461
42.28323 560
42.30334 690
42.32345 873
42.34357 1024
42.36368 1368
42.38379 1592
42.40391 1862
42.42402 2020
42.44414 1917
42.46425 1725
42.48436 1304
42.50448 1125
42.52459 1104
42.5447 1090
42.56482 871
42.58493 664
42.60505 421
42.62516 324
42.64527 250
42.66539 242
42.6855 225
42.70561 237
42.72573 235
42.74584 199
42.76595 181
42.78607 179
42.80618 190
42.8263 181
42.84641 160
42.86652 190
42.88664 172
42.90675 186
42.92686 179
42.94698 188
42.96709 170
42.98721 160
43.00732 177
43.02743 150
43.04755 156
43.06766 171
43.08777 177
43.10789 186
43.128 151
43.14812 157
43.16823 177
43.18834 163
43.20846 173
43.22857 178
43.24868 165
43.2688 154
43.28891 169
43.30902 166
43.32914 157
43.34925 167
43.36937 152
43.38948 164
43.40959 173
43.42971 165
43.44982 163
43.46993 166
43.49005 167
43.51016 138
43.53028 182
43.55039 154
43.5705 123
43.59062 156
43.61073 153
43.63084 154
43.65096 175
43.67107 154
43.69119 157
43.7113 171
43.73141 154
43.75153 184
43.77164 159
43.79175 160
43.81187 170
43.83198 144
43.85209 172
43.87221 156
43.89232 135
43.91244 142
43.93255 164
43.95266 145
43.97278 146
43.99289 154
44.013 155
44.03312 151
44.05323 175
44.07335 151
44.09346 157
44.11357 165
44.13369 156
44.1538 157
44.17391 170
44.19403 152
44.21414 144
44.23426 147
44.25437 157
44.27448 156
44.2946 154
44.31471 147
44.33482 151
44.35494 134
44.37505 172
44.39516 132
44.41528 167
44.43539 148
44.45551 149
44.47562 168
44.49573 148
44.51585 169
44.53596 162
44.55607 157
44.57619 133
44.5963 148
44.61642 143
44.63653 168
44.65664 133
44.67676 172
44.69687 155
44.71698 164
44.7371 168
44.75721 167
44.77732 158
44.79744 148
44.81755 167
44.83767 160
44.85778 153
44.87789 161
44.89801 170
44.91812 176
44.93823 145
44.95835 165
44.97846 192
44.99858 177
45.01869 167
45.0388 150
45.05892 163
45.07903 160
45.09914 166
45.11926 156
45.13937 159
45.15949 178
45.1796 176
45.19971 159
45.21983 181
45.23994 179
45.26005 173
45.28017 181
45.30028 173
45.32039 183
45.34051 172
45.36062 190
45.38074 182
45.40085 185
45.42096 187
45.44108 187
45.46119 203
45.4813 226
45.50142 236
45.52153 239
45.54165 232
45.56176 307
45.58187 344
45.60199 418
45.6221 431
45.64221 508
45.66233 594
45.68244 717
45.70256 920
45.72267 1075
45.74278 1217
45.7629 1356
45.78301 1335
45.80312 1153
45.82324 885
45.84335 794
45.86346 739
45.88358 709
45.90369 687
45.92381 582
45.94392 434
45.96403 307
45.98415 265
46.00426 195
46.02437 182
46.04449 183
46.0646 194
46.08472 174
46.10483 199
46.12494 157
46.14506 163
46.16517 160
46.18528 163
46.2054 168
46.22551 129
46.24563 169
46.26574 171
46.28585 158
46.30597 167
46.32608 153
46.34619 146
46.36631 169
46.38642 152
46.40653 169
46.42665 150
46.44676 128
46.46688 142
46.48699 154
46.5071 133
46.52722 148
46.54733 136
46.56744 180
46.58756 146
46.60767 145
46.62779 142
46.6479 154
46.66801 147
46.68813 136
46.70824 130
46.72835 130
46.74847 156
46.76858 133
46.78869 161
46.80881 136
46.82892 126
46.84904 139
46.86915 177
46.88926 151
46.90938 148
46.92949 145
46.9496 135
46.96972 152
46.98983 135
47.00995 137
47.03006 175
47.05017 123
47.07029 129
47.0904 136
47.11051 157
47.13063 153
47.15074 150
47.17086 125
47.19097 142
47.21108 145
47.2312 150
47.25131 141
47.27142 158
47.29154 126
47.31165 126
47.33176 142
47.35188 137
47.37199 144
47.39211 172
47.41222 148
47.43233 122
47.45245 154
47.47256 131
47.49267 155
47.51279 141
47.5329 138
47.55302 124
47.57313 138
47.59324 127
47.61336 131
47.63347 131
47.65358 133
47.6737 134
47.69381 139
47.71393 138
47.73404 136
47.75415 146
47.77427 153
47.79438 156
47.81449 128
47.83461 147
47.85472 155
47.87483 159
47.89495 171
47.91506 139
47.93518 145
47.95529 173
47.9754 153
47.99552 161
48.01563 149
48.03574 143
48.05586 142
48.07597 162
48.09609 152
48.1162 152
48.13631 173
48.15643 138
48.17654 133
48.19665 142
48.21677 127
48.23688 144
48.257 157
48.27711 137
48.29722 170
48.31734 146
48.33745 144
48.35756 156
48.37768 157
48.39779 156
48.4179 172
48.43802 152
48.45813 127
48.47825 163
48.49836 135
48.51847 144
48.53859 153
48.5587 142
48.57881 152
48.59893 151
48.61904 152
48.63916 173
48.65927 153
48.67938 184
48.6995 143
48.71961 154
48.73972 158
48.75984 166
48.77995 166
48.80006 142
48.82018 152
48.84029 171
48.86041 161
48.88052 152
48.90063 159
48.92075 154
48.94086 151
48.96097 157
48.98109 145
49.0012 143
49.02132 183
49.04143 163
49.06154 163
49.08166 161
49.10177 161
49.12188 155
49.142 166
49.16211 163
49.18223 165
49.20234 145
49.22245 156
49.24257 147
49.26268 175
49.28279 162
49.30291 177
49.32302 152
49.34313 175
49.36325 164
49.38336 159
49.40348 167
49.42359 168
49.4437 190
49.46382 171
49.48393 191
49.50404 186
49.52416 167
49.54427 198
49.56439 193
49.5845 194
49.60461 194
49.62473 182
49.64484 188
49.66495 234
49.68507 232
49.70518 232
49.7253 251
49.74541 293
49.76552 310
49.78564 298
49.80575 379
49.82586 420
49.84598 461
49.86609 576
49.8862 601
49.90632 681
49.92643 832
49.94655 987
49.96666 1248
49.98677 1588
50.00689 1908
50.027 2395
50.04711 2918
50.06723 3396
50.08734 3999
50.10746 4393
50.12757 4419
50.14768 3907
50.1678 3015
50.18791 2417
50.20802 2292
50.22814 2258
50.24825 2270
50.26837 2047
50.28848 1551
50.30859 1048
50.32871 616
50.34882 409
50.36893 407
50.38905 356
50.40916 342
50.42927 303
50.44939 308
50.4695 297
50.48962 284
50.50973 273
50.52984 276
50.54996 284
50.57007 274
50.59018 296
50.6103 302
50.63041 269
50.65053 262
50.67064 251
50.69075 218
50.71087 223
50.73098 244
50.75109 191
50.77121 224
50.79132 197
50.81143 163
50.83155 167
50.85166 182
50.87178 185
50.89189 199
50.912 163
50.93212 149
50.95223 162
50.97234 161
50.99246 176
51.01257 174
51.03269 170
51.0528 150
51.07291 189
51.09303 165
51.11314 154
51.13325 161
51.15337 162
51.17348 154
51.1936 134
51.21371 131
51.23382 135
51.25394 145
51.27405 146
51.29416 156
51.31428 157
51.33439 136
51.3545 132
51.37462 153
51.39473 137
51.41485 147
51.43496 117
51.45507 155
51.47519 133
51.4953 132
51.51541 140
51.53553 174
51.55564 120
51.57576 150
51.59587 133
51.61598 156
51.6361 138
51.65621 136
51.67632 152
51.69644 126
51.71655 145
51.73667 141
51.75678 130
51.77689 148
51.79701 137
51.81712 119
51.83723 139
51.85735 144
51.87746 143
51.89757 145
51.91769 137
51.9378 155
51.95792 149
51.97803 127
51.99814 142
52.01826 129
52.03837 136
52.05848 124
52.0786 145
52.09871 149
52.11883 124
52.13894 131
52.15905 135
52.17917 145
52.19928 149
52.21939 136
52.23951 139
52.25962 135
52.27974 116
52.29985 152
52.31996 155
52.34008 126
52.36019 141
52.3803 137
52.40042 120
52.42053 146
52.44064 143
52.46076 135
52.48087 123
52.50099 153
52.5211 134
52.54121 129
52.56133 127
52.58144 117
52.60155 147
52.62167 137
52.64178 145
52.6619 133
52.68201 102
52.70212 146
52.72224 117
52.74235 151
52.76246 160
52.78258 145
52.80269 141
52.8228 158
52.84292 152
52.86303 155
52.88315 138
52.90326 149
52.92337 148
52.94349 134
52.9636 171
52.98371 144
53.00383 152
53.02394 146
53.04406 154
53.06417 146
53.08428 114
53.1044 165
53.12451 156
53.14462 160
53.16474 141
53.18485 157
53.20497 150
53.22508 150
53.24519 153
53.26531 143
53.28542 145
53.30553 150
53.32565 139
53.34576 174
53.36587 167
53.38599 162
53.4061 138
53.42622 146
53.44633 148
53.46644 153
53.48656 152
53.50667 166
53.52678 174
53.5469 150
53.56701 167
53.58713 145
53.60724 140
53.62735 168
53.64747 186
53.66758 148
53.68769 118
53.70781 154
53.72792 186
53.74804 161
53.76815 154
53.78826 160
53.80838 161
53.82849 166
53.8486 162
53.86872 142
53.88883 149
53.90894 168
53.92906 151
53.94917 176
53.96929 165
53.9894 138
54.00951 169
54.02963 139
54.04974 144
54.06985 164
54.08997 160
54.11008 161
54.1302 145
54.15031 171
54.17042 158
54.19054 165
54.21065 145
54.23076 180
54.25088 170
54.27099 163
54.29111 172
54.31122 188
54.33133 165
54.35145 155
54.37156 179
54.39167 157
54.41179 181
54.4319 184
54.45201 167
54.47213 186
54.49224 210
54.51236 200
54.53247 210
54.55258 226
54.5727 235
54.59281 273
54.61292 308
54.63304 305
54.65315 353
54.67327 387
54.69338 463
54.71349 542
54.73361 679
54.75372 778
54.77383 875
54.79395 1120
54.81406 1190
54.83417 1318
54.85429 1368
54.8744 1260
54.89452 1035
54.91463 804
54.93474 744
54.95486 751
54.97497 762
54.99508 778
55.0152 717
55.03531 598
55.05543 488
55.07554 407
55.09565 329
55.11577 335
55.13588 349
55.15599 357
55.17611 379
55.19622 422
55.21634 466
55.23645 488
55.25656 599
55.27668 638
55.29679 668
55.3169 649
55.33702 579
55.35713 491
55.37724 417
55.39736 396
55.41747 399
55.43759 396
55.4577 402
55.47781 323
55.49793 285
55.51804 226
55.53815 218
55.55827 172
55.57838 176
55.5985 187
55.61861 171
55.63872 151
55.65884 184
55.67895 186
55.69906 169
55.71918 157
55.73929 167
55.75941 172
55.77952 160
55.79963 136
55.81975 147
55.83986 138
55.85997 159
55.88009 151
55.9002 173
55.92031 169
55.94043 167
55.96054 157
55.98066 167
56.00077 149
56.02088 145
56.041 111
56.06111 168
56.08122 146
56.10134 145
56.12145 163
56.14157 148
56.16168 158
56.18179 148
56.20191 133
56.22202 132
56.24213 136
56.26225 138
56.28236 151
56.30248 143
56.32259 136
56.3427 146
56.36282 138
56.38293 131
56.40304 146
56.42316 143
56.44327 142
56.46338 164
56.4835 158
56.50361 139
56.52373 132
56.54384 153
56.56395 155
56.58407 150
56.60418 130
56.62429 111
56.64441 168
56.66452 164
56.68464 156
56.70475 130
56.72486 139
56.74498 133
56.76509 150
56.7852 163
56.80532 154
56.82543 139
56.84554 133
56.86566 161
56.88577 162
56.90589 136
56.926 146
56.94611 153
56.96623 159
56.98634 128
57.00645 172
57.02657 138
57.04668 157
57.0668 139
57.08691 141
57.10702 183
57.12714 185
57.14725 188
57.16736 200
57.18748 203
57.20759 204
57.22771 215
57.24782 208
57.26793 186
57.28805 174
57.30816 163
57.32827 172
57.34839 156
57.3685 194
57.38861 169
57.40873 168
57.42884 134
57.44896 136
57.46907 140
57.48918 127
57.5093 155
57.52941 140
57.54952 148
57.56964 123
57.58975 142
57.60987 134
57.62998 143
57.65009 151
57.67021 136
57.69032 140
57.71043 165
57.73055 141
57.75066 153
57.77078 169
57.79089 152
57.811 130
57.83112 131
57.85123 136
57.87134 165
57.89146 163
57.91157 125
57.93168 134
57.9518 158
57.97191 144
57.99203 144
58.01214 131
58.03225 155
58.05237 132
58.07248 151
58.09259 136
58.11271 158
58.13282 149
58.15294 137
58.17305 128
58.19316 152
58.21328 140
58.23339 153
58.2535 142
58.27362 111
58.29373 132
58.31385 151
58.33396 147
58.35407 139
58.37419 145
58.3943 140
58.41441 155
58.43453 149
58.45464 151
58.47475 154
58.49487 149
58.51498 156
58.5351 121
58.55521 143
58.57532 157
58.59544 136
58.61555 153
58.63566 140
58.65578 152
58.67589 115
58.69601 149
58.71612 130
58.73623 127
58.75635 154
58.77646 132
58.79657 154
58.81669 153
58.8368 169
58.85691 148
58.87703 156
58.89714 135
58.91726 166
58.93737 151
58.95748 152
58.9776 140
58.99771 144
59.01782 148
59.03794 149
59.05805 159
59.07817 136
59.09828 160
59.11839 181
59.13851 149
59.15862 126
59.17873 158
59.19885 154
59.21896 165
59.23908 181
59.25919 164
59.2793 167
59.29942 168
59.31953 179
59.33964 156
59.35976 172
59.37987 180
59.39998 194
59.4201 184
59.44021 197
59.46033 192
59.48044 220
59.50055 223
59.52067 224
59.54078 232
59.56089 271
59.58101 275
59.60112 318
59.62124 331
59.64135 323
59.66146 414
59.68158 443
59.70169 521
59.7218 612
59.74192 641
59.76203 785
59.78215 960
59.80226 1213
59.82237 1365
59.84249 1794
59.8626 2020
59.88271 2369
59.90283 2656
59.92294 2747
59.94305 2652
59.96317 2432
59.98328 1908
60.0034 1435
60.02351 1372
60.04362 1314
60.06374 1438
60.08385 1469
60.10396 1300
60.12408 1131
60.14419 884
60.16431 617
60.18442 442
60.20453 347
60.22465 274
60.24476 258
60.26487 251
60.28499 234
60.3051 199
60.32522 199
60.34533 212
60.36544 189
60.38556 188
60.40567 186
60.42578 168
60.4459 196
60.46601 148
60.48612 166
60.50624 165
60.52635 179
60.54647 159
60.56658 159
60.58669 170
60.60681 154
60.62692 145
60.64703 154
60.66715 160
60.68726 168
60.70738 161
60.72749 163
60.7476 155
60.76772 155
60.78783 146
60.80794 158
60.82806 160
60.84817 171
60.86828 162
60.8884 164
60.90851 148
60.92863 135
60.94874 166
60.96885 157
60.98897 148
61.00908 153
61.02919 167
61.04931 136
61.06942 169
61.08954 196
61.10965 126
61.12976 150
61.14988 170
61.16999 159
61.1901 146
61.21022 114
61.23033 128
61.25045 148
61.27056 139
61.29067 167
61.31079 133
61.3309 171
61.35101 155
61.37113 167
61.39124 150
61.41135 149
61.43147 150
61.45158 164
61.4717 141
61.49181 156
61.51192 151
61.53204 147
61.55215 151
61.57226 151
61.59238 148
61.61249 144
61.63261 157
61.65272 179
61.67283 147
61.69295 165
61.71306 164
61.73317 157
61.75329 164
61.7734 171
61.79352 157
61.81363 165
61.83374 153
61.85386 153
61.87397 149
61.89408 160
61.9142 159
61.93431 162
61.95442 123
61.97454 163
61.99465 150
62.01477 158
62.03488 143
62.05499 153
62.07511 180
62.09522 175
62.11533 167
62.13545 175
62.15556 184
62.17568 149
62.19579 147
62.2159 142
62.23602 155
62.25613 155
62.27624 158
62.29636 176
62.31647 179
62.33659 145
62.3567 160
62.37681 142
62.39693 157
62.41704 150
62.43715 147
62.45727 156
62.47738 134
62.49749 156
62.51761 157
62.53772 148
62.55784 132
62.57795 165
62.59806 142
62.61818 141
62.63829 157
62.6584 137
62.67852 143
62.69863 129
62.71875 133
62.73886 134
62.75897 139
62.77909 153
62.7992 138
62.81931 146
62.83943 121
62.85954 152
62.87965 130
62.89977 124
62.91988 149
62.94 128
62.96011 133
62.98022 159
63.00034 134
63.02045 130
63.04056 154
63.06068 116
63.08079 132
63.10091 141
63.12102 147
63.14113 142
63.16125 129
63.18136 125
63.20147 158
63.22159 132
63.2417 138
63.26182 150
63.28193 135
63.30204 144
63.32216 128
63.34227 156
63.36238 136
63.3825 137
63.40261 158
63.42272 139
63.44284 148
63.46295 129
63.48307 167
63.50318 160
63.52329 137
63.54341 146
63.56352 136
63.58363 145
63.60375 134
63.62386 139
63.64398 166
63.66409 156
63.6842 180
63.70432 167
63.72443 177
63.74454 179
63.76466 184
63.78477 220
63.80489 222
63.825 273
63.84511 276
63.86523 288
63.88534 325
63.90545 384
63.92557 409
63.94568 485
63.96579 519
63.98591 586
64.00602 570
64.02614 566
64.04625 464
64.06636 445
64.08648 372
64.10659 354
64.1267 345
64.14682 364
64.16693 387
64.18705 351
64.20716 338
64.22727 304
64.24739 220
64.2675 198
64.28761 192
64.30773 177
64.32784 165
64.34796 130
64.36807 142
64.38818 152
64.4083 146
64.42841 147
64.44852 136
64.46864 130
64.48875 128
64.50886 156
64.52898 144
64.54909 130
64.56921 137
64.58932 126
64.60943 129
64.62955 140
64.64966 121
64.66977 170
64.68989 129
64.71 148
64.73012 122
64.75023 133
64.77034 117
64.79046 132
64.81057 116
64.83068 121
64.8508 132
64.87091 131
64.89102 136
64.91114 126
64.93125 133
64.95137 123
64.97148 133
64.99159 117
65.01171 131
65.03182 135
65.05193 167
65.07205 145
65.09216 138
65.11228 122
65.13239 157
65.1525 120
65.17262 144
65.19273 109
65.21284 122
65.23296 148
65.25307 127
65.27319 159
65.2933 150
65.31341 147
65.33353 141
65.35364 146
65.37375 143
65.39387 158
65.41398 162
65.43409 143
65.45421 141
65.47432 149
65.49444 166
65.51455 150
65.53466 153
65.55478 172
65.57489 173
65.595 177
65.61512 185
65.63523 187
65.65535 189
65.67546 224
65.69557 221
65.71569 248
65.7358 263
65.75591 274
65.77603 262
65.79614 242
65.81626 208
65.83637 193
65.85648 218
65.8766 218
65.89671 198
65.91682 192
65.93694 195
65.95705 207
65.97716 194
65.99728 149
66.01739 187
66.03751 134
66.05762 152
66.07773 151
66.09785 120
66.11796 116
66.13807 147
66.15819 130
66.1783 157
66.19842 155
66.21853 128
66.23864 136
66.25876 135
66.27887 166
66.29898 141
66.3191 138
66.33921 153
66.35933 127
66.37944 148
66.39955 165
66.41967 162
66.43978 147
66.45989 145
66.48001 128
66.50012 155
66.52023 141
66.54035 141
66.56046 160
66.58058 140
66.60069 155
66.6208 144
66.64092 147
66.66103 166
66.68114 170
66.70126 132
66.72137 145
66.74149 146
66.7616 158
66.78171 176
66.80183 146
66.82194 138
66.84205 146
66.86217 175
66.88228 155
66.90239 164
66.92251 180
66.94262 151
66.96274 163
66.98285 156
67.00296 163
67.02308 158
67.04319 187
67.0633 182
67.08342 167
67.10353 178
67.12365 165
67.14376 186
67.16387 158
67.18399 203
67.2041 182
67.22421 197
67.24433 203
67.26444 209
67.28456 188
67.30467 242
67.32478 237
67.3449 235
67.36501 257
67.38512 234
67.40524 298
67.42535 279
67.44546 324
67.46558 333
67.48569 383
67.50581 437
67.52592 492
67.54603 614
67.56615 721
67.58626 799
67.60637 990
67.62649 1112
67.6466 1329
67.66672 1504
67.68683 1597
67.70694 1613
67.72706 1590
67.74717 1410
67.76728 1184
67.7874 1033
67.80751 924
67.82763 958
67.84774 1070
67.86785 1078
67.88797 1166
67.90808 1244
67.92819 1286
67.94831 1172
67.96842 1117
67.98853 1208
68.00865 1319
68.02876 1522
68.04888 1650
68.06899 1913
68.0891 2130
68.10922 2206
68.12933 2224
68.14944 2079
68.16956 1840
68.18967 1662
68.20979 1694
68.2299 1840
68.25001 1954
68.27013 2095
68.29024 2050
68.31035 1933
68.33047 1636
68.35058 1320
68.3707 1099
68.39081 901
68.41092 807
68.43104 727
68.45115 773
68.47126 748
68.49138 696
68.51149 619
68.5316 502
68.55172 351
68.57183 284
68.59195 247
68.61206 243
68.63217 223
68.65229 228
68.6724 210
68.69251 187
68.71263 193
68.73274 187
68.75286 194
68.77297 198
68.79308 180
68.8132 175
68.83331 161
68.85342 188
68.87354 157
68.89365 169
68.91376 157
68.93388 180
68.95399 154
68.97411 138
68.99422 153
69.01433 178
69.03445 151
69.05456 161
69.07467 156
69.09479 141
69.1149 158
69.13502 151
69.15513 149
69.17524 158
69.19536 148
69.21547 136
69.23558 131
69.2557 142
69.27581 157
69.29593 147
69.31604 128
69.33615 155
69.35627 137
69.37638 138
69.39649 138
69.41661 145
69.43672 127
69.45683 128
69.47695 155
69.49706 132
69.51718 147
69.53729 154
69.5574 137
69.57752 161
69.59763 141
69.61774 118
69.63786 150
69.65797 150
69.67809 102
69.6982 147
69.71831 146
69.73843 131
69.75854 139
69.77865 133
69.79877 152
69.81888 127
69.839 121
69.85911 142
69.87922 136
69.89934 138
69.91945 166
69.93956 142
69.95968 144
69.97979 129
69.9999 129
70.02002 153
70.04013 150
70.06025 145
70.08036 123
70.10047 134
70.12059 113
70.1407 125
70.16081 125
70.18093 135
70.20104 130
70.22116 131
70.24127 146
70.26138 123
70.2815 146
70.30161 130
70.32172 121
70.34184 149
70.36195 139
70.38207 135
70.40218 116
70.42229 153
70.44241 131
70.46252 130
70.48263 133
70.50275 140
70.52286 138
70.54297 137
70.56309 134
70.5832 131
70.60332 123
70.62343 131
70.64354 141
70.66366 127
70.68377 138
70.70388 120
70.724 133
70.74411 123
70.76423 136
70.78434 119
70.80445 144
70.82457 145
70.84468 142
70.86479 130
70.88491 153
70.90502 103
70.92513 123
70.94525 138
70.96536 117
70.98548 118
71.00559 126
71.0257 136
71.04582 117
71.06593 130
71.08604 133
71.10616 117
71.12627 125
71.14639 139
71.1665 121
71.18661 146
71.20673 122
71.22684 121
71.24695 132
71.26707 129
71.28718 134
71.3073 130
71.32741 125
71.34752 146
71.36764 136
71.38775 148
71.40786 147
71.42798 125
71.44809 117
71.4682 116
71.48832 167
71.50843 99
71.52855 121
71.54866 107
71.56877 140
71.58889 130
71.609 111
71.62911 145
71.64923 146
71.66934 157
71.68946 117
71.70957 127
71.72968 156
71.7498 143
71.76991 134
71.79002 132
71.81014 153
71.83025 140
71.85037 122
71.87048 144
71.89059 142
71.91071 108
71.93082 124
71.95093 126
71.97105 128
71.99116 129
72.01127 127
72.03139 139
72.0515 144
72.07162 124
72.09173 140
72.11184 134
72.13196 149
72.15207 130
72.17218 129
72.1923 140
72.21241 142
72.23253 121
72.25264 122
72.27275 147
72.29287 121
72.31298 148
72.33309 133
72.35321 148
72.37332 131
72.39344 146
72.41355 123
72.43366 114
72.45378 135
72.47389 125
72.494 143
72.51412 154
72.53423 125
72.55434 128
72.57446 120
72.59457 123
72.61469 146
72.6348 134
72.65491 142
72.67503 142
72.69514 141
72.71525 131
72.73537 164
72.75548 144
72.7756 140
72.79571 139
72.81582 137
72.83594 137
72.85605 134
72.87616 139
72.89628 140
72.91639 143
72.9365 152
72.95662 150
72.97673 142
72.99685 141
73.01696 143
73.03707 151
73.05719 176
73.0773 155
73.09741 177
73.11753 161
73.13764 179
73.15776 205
73.17787 196
73.19798 209
73.2181 248
73.23821 238
73.25832 278
73.27844 305
73.29855 321
73.31867 356
73.33878 417
73.35889 514
73.37901 562
73.39912 589
73.41923 712
73.43935 646
73.45946 637
73.47957 508
73.49969 455
73.5198 367
73.53992 342
73.56003 374
73.58014 378
73.60026 387
73.62037 367
73.64048 396
73.6606 387
73.68071 330
73.70083 271
73.72094 265
73.74105 201
73.76117 176
73.78128 180
73.80139 161
73.82151 151
73.84162 159
73.86174 153
73.88185 152
73.90196 149
73.92208 138
73.94219 126
73.9623 131
73.98242 129
74.00253 126
74.02264 136
74.04276 145
74.06287 124
74.08299 138
74.1031 124
74.12321 168
74.14333 156
74.16344 120
74.18355 152
74.20367 130
74.22378 148
74.2439 130
74.26401 144
74.28412 134
74.30424 117
74.32435 131
74.34446 111
74.36458 134
74.38469 137
74.40481 132
74.42492 128
74.44503 125
74.46515 143
74.48526 124
74.50537 127
74.52549 113
74.5456 126
74.56571 124
74.58583 125
74.60594 122
74.62606 135
74.64617 142
74.66628 137
74.6864 128
74.70651 124
74.72662 136
74.74674 162
74.76685 148
74.78697 141
74.80708 121
74.82719 147
74.84731 131
74.86742 117
74.88753 134
74.90765 139
74.92776 162
74.94787 133
74.96799 137
74.9881 136
75.00822 120
