3.00117 20944
3.02128 20413
3.0414 19687
3.06151 19182
3.08162 18967
3.10174 18180
3.12185 17638
3.14197 17226
3.16208 16439
3.18219 16446
3.20231 15766
3.22242 15291
3.24253 14874
3.26265 14536
3.28276 14092
3.30288 13511
3.32299 12910
3.3431 12739
3.36322 11961
3.38333 11838
3.40344 11207
3.42356 11207
3.44367 10945
3.46379 10305
3.4839 10246
3.50401 9583
3.52413 9257
3.54424 9081
3.56435 8674
3.58447 8493
3.60458 7915
3.62469 7897
3.64481 7462
3.66492 7126
3.68504 7107
3.70515 6546
3.72526 6306
3.74538 6273
3.76549 5801
3.7856 5856
3.80572 5378
3.82583 5291
3.84595 5034
3.86606 4684
3.88617 4738
3.90629 4246
3.9264 4253
3.94651 4216
3.96663 3806
3.98674 3851
4.00686 3501
4.02697 3355
4.04708 3365
4.0672 3133
4.08731 3135
4.10742 2745
4.12754 2696
4.14765 2772
4.16776 2555
4.18788 2553
4.20799 2341
4.22811 2220
4.24822 2259
4.26833 2180
4.28845 2107
4.30856 1857
4.32867 1912
4.34879 1998
4.3689 1832
4.38902 1780
4.40913 1679
4.42924 1691
4.44936 1752
4.46947 1659
4.48958 1661
4.5097 1530
4.52981 1521
4.54992 1497
4.57004 1503
4.59015 1424
4.61027 1289
4.63038 1322
4.65049 1322
4.67061 1375
4.69072 1305
4.71083 1196
4.73095 1228
4.75106 1232
4.77118 1137
4.79129 1153
4.8114 1087
4.83152 1125
4.85163 1085
4.87174 1076
4.89186 1083
4.91197 988
4.93209 957
4.9522 966
4.97231 947
4.99243 853
5.01254 937
5.03265 813
5.05277 934
5.07288 875
5.09299 842
5.11311 852
5.13322 848
5.15334 824
5.17345 766
5.19356 764
5.21368 726
5.23379 776
5.2539 758
5.27402 751
5.29413 740
5.31425 656
5.33436 735
5.35447 715
5.37459 744
5.3947 682
5.41481 629
5.43493 628
5.45504 608
5.47516 635
5.49527 590
5.51538 601
5.5355 579
5.55561 632
5.57572 588
5.59584 535
5.61595 536
5.63606 559
5.65618 531
5.67629 538
5.69641 548
5.71652 517
5.73663 491
5.75675 553
5.77686 524
5.79697 511
5.81709 470
5.8372 477
5.85732 478
5.87743 471
5.89754 414
5.91766 457
5.93777 457
5.95788 444
5.978 443
5.99811 472
6.01823 446
6.03834 416
6.05845 462
6.07857 455
6.09868 437
6.11879 456
6.13891 482
6.15902 431
6.17913 439
6.19925 447
6.21936 453
6.23948 443
6.25959 429
6.2797 443
6.29982 445
6.31993 391
6.34004 407
6.36016 412
6.38027 372
6.40039 438
6.4205 404
6.44061 412
6.46073 380
6.48084 408
6.50095 447
6.52107 401
6.54118 368
6.56129 404
6.58141 380
6.60152 387
6.62164 391
6.64175 404
6.66186 384
6.68198 415
6.70209 391
6.7222 425
6.74232 427
6.76243 411
6.78255 404
6.80266 402
6.82277 400
6.84289 389
6.863 411
6.88311 399
6.90323 385
6.92334 413
6.94346 414
6.96357 393
6.98368 381
7.0038 391
7.02391 423
7.04402 389
7.06414 421
7.08425 404
7.10436 419
7.12448 360
7.14459 392
7.16471 406
7.18482 409
7.20493 414
7.22505 367
7.24516 409
7.26527 387
7.28539 449
7.3055 437
7.32562 367
7.34573 387
7.36584 381
7.38596 410
7.40607 413
7.42618 374
7.4463 380
7.46641 378
7.48653 410
7.50664 393
7.52675 389
7.54687 400
7.56698 382
7.58709 386
7.60721 386
7.62732 378
7.64743 417
7.66755 389
7.68766 388
7.70778 385
7.72789 398
7.748 375
7.76812 350
7.78823 388
7.80834 370
7.82846 376
7.84857 399
7.86869 379
7.8888 409
7.90891 401
7.92903 396
7.94914 388
7.96925 446
7.98937 387
8.00948 377
8.0296 378
8.04971 418
8.06982 388
8.08994 410
8.11005 395
8.13016 388
8.15028 384
8.17039 422
8.1905 405
8.21062 424
8.23073 423
8.25085 349
8.27096 401
8.29107 357
8.31119 423
8.3313 415
8.35141 400
8.37153 433
8.39164 388
8.41176 421
8.43187 437
8.45198 397
8.4721 435
8.49221 423
8.51232 436
8.53244 441
8.55255 432
8.57266 430
8.59278 442
8.61289 422
8.63301 455
8.65312 475
8.67323 505
8.69335 515
8.71346 472
8.73357 456
8.75369 486
8.7738 501
8.79392 497
8.81403 502
8.83414 523
8.85426 515
8.87437 535
8.89448 561
8.9146 459
8.93471 471
8.95483 493
8.97494 414
8.99505 455
9.01517 421
9.03528 436
9.05539 463
9.07551 434
9.09562 376
9.11573 436
9.13585 441
9.15596 404
9.17608 436
9.19619 418
9.2163 371
9.23642 380
9.25653 427
9.27664 407
9.29676 374
9.31687 408
9.33699 375
9.3571 390
9.37721 415
9.39733 365
9.41744 361
9.43755 395
9.45767 401
9.47778 373
9.4979 376
9.51801 364
9.53812 399
9.55824 392
9.57835 368
9.59846 363
9.61858 379
9.63869 366
9.6588 430
9.67892 364
9.69903 414
9.71915 407
9.73926 394
9.75937 359
9.77949 422
9.7996 369
9.81971 388
9.83983 369
9.85994 392
9.88006 363
9.90017 371
9.92028 354
9.9404 354
9.96051 355
9.98062 354
10.00074 365
10.02085 383
10.04097 360
10.06108 342
10.08119 360
10.10131 368
10.12142 350
10.14153 403
10.16165 364
10.18176 353
10.20187 392
10.22199 365
10.2421 375
10.26222 413
10.28233 375
10.30244 357
10.32256 344
10.34267 373
10.36278 357
10.3829 363
10.40301 381
10.42313 355
10.44324 341
10.46335 364
10.48347 379
10.50358 393
10.52369 375
10.54381 364
10.56392 398
10.58403 337
10.60415 380
10.62426 348
10.64438 349
10.66449 351
10.6846 367
10.70472 411
10.72483 375
10.74494 361
10.76506 369
10.78517 341
10.80529 353
10.8254 351
10.84551 338
10.86563 344
10.88574 360
10.90585 366
10.92597 367
10.94608 366
10.9662 348
10.98631 330
11.00642 349
11.02654 348
11.04665 365
11.06676 357
11.08688 386
11.10699 363
11.1271 354
11.14722 350
11.16733 377
11.18745 338
11.20756 355
11.22767 362
11.24779 333
11.2679 348
11.28801 369
11.30813 371
11.32824 368
11.34836 384
11.36847 391
11.38858 396
11.4087 386
11.42881 370
11.44892 378
11.46904 379
11.48915 372
11.50927 353
11.52938 392
11.54949 362
11.56961 402
11.58972 396
11.60983 391
11.62995 376
11.65006 354
11.67017 391
11.69029 373
11.7104 402
11.73052 378
11.75063 398
11.77074 384
11.79086 385
11.81097 395
11.83108 389
11.8512 415
11.87131 405
11.89143 381
11.91154 397
11.93165 423
11.95177 398
11.97188 426
11.99199 445
12.01211 384
12.03222 435
12.05234 439
12.07245 438
12.09256 456
12.11268 498
12.13279 478
12.1529 464
12.17302 499
12.19313 508
12.21324 489
12.23336 498
12.25347 492
12.27359 536
12.2937 503
12.31381 501
12.33393 547
12.35404 520
12.37415 494
12.39427 453
12.41438 476
12.4345 485
12.45461 454
12.47472 475
12.49484 428
12.51495 475
12.53506 367
12.55518 417
12.57529 416
12.5954 432
12.61552 391
12.63563 396
12.65575 410
12.67586 363
12.69597 376
12.71609 364
12.7362 380
12.75631 382
12.77643 374
12.79654 390
12.81666 391
12.83677 358
12.85688 365
12.877 399
12.89711 377
12.91722 386
12.93734 355
12.95745 371
12.97757 336
12.99768 374
13.01779 350
13.03791 346
13.05802 318
13.07813 358
13.09825 388
13.11836 334
13.13847 368
13.15859 356
13.1787 334
13.19882 360
13.21893 335
13.23904 335
13.25916 351
13.27927 323
13.29938 309
13.3195 342
13.33961 332
13.35973 342
13.37984 373
13.39995 349
13.42007 330
13.44018 335
13.46029 362
13.48041 357
13.50052 335
13.52064 339
13.54075 343
13.56086 319
13.58098 327
13.60109 338
13.6212 341
13.64132 357
13.66143 322
13.68154 332
13.70166 330
13.72177 336
13.74189 313
13.762 344
13.78211 335
13.80223 345
13.82234 348
13.84245 363
13.86257 380
13.88268 336
13.9028 326
13.92291 336
13.94302 325
13.96314 341
13.98325 360
14.00336 349
14.02348 336
14.04359 317
14.06371 341
14.08382 347
14.10393 316
14.12405 280
14.14416 326
14.16427 348
14.18439 348
14.2045 329
14.22461 307
14.24473 324
14.26484 342
14.28496 302
14.30507 327
14.32518 361
14.3453 330
14.36541 332
14.38552 348
14.40564 359
14.42575 318
14.44587 339
14.46598 303
14.48609 313
14.50621 362
14.52632 388
14.54643 314
14.56655 313
14.58666 315
14.60677 350
14.62689 308
14.647 313
14.66712 333
14.68723 304
14.70734 304
14.72746 307
14.74757 343
14.76768 309
14.7878 305
14.80791 350
14.82803 360
14.84814 317
14.86825 338
14.88837 316
14.90848 341
14.92859 322
14.94871 308
14.96882 329
14.98894 322
15.00905 285
15.02916 324
15.04928 314
15.06939 311
15.0895 312
15.10962 302
15.12973 333
15.14984 292
15.16996 330
15.19007 316
15.21019 307
15.2303 314
15.25041 330
15.27053 320
15.29064 283
15.31075 331
15.33087 374
15.35098 292
15.3711 299
15.39121 330
15.41132 349
15.43144 307
15.45155 319
15.47166 294
15.49178 348
15.51189 315
15.53201 320
15.55212 298
15.57223 324
15.59235 326
15.61246 323
15.63257 299
15.65269 317
15.6728 324
15.69291 297
15.71303 318
15.73314 331
15.75326 310
15.77337 303
15.79348 321
15.8136 304
15.83371 335
15.85382 321
15.87394 311
15.89405 320
15.91417 348
15.93428 333
15.95439 292
15.97451 304
15.99462 330
16.01473 322
16.03485 361
16.05496 324
16.07508 322
16.09519 338
16.1153 316
16.13542 294
16.15553 284
16.17564 336
16.19576 308
16.21587 340
16.23598 342
16.2561 326
16.27621 331
16.29633 317
16.31644 320
16.33655 323
16.35667 358
16.37678 326
16.39689 346
16.41701 308
16.43712 335
16.45724 323
16.47735 299
16.49746 323
16.51758 317
16.53769 289
16.5578 329
16.57792 344
16.59803 316
16.61814 301
16.63826 319
16.65837 342
16.67849 325
16.6986 302
16.71871 316
16.73883 334
16.75894 317
16.77905 332
16.79917 318
16.81928 272
16.8394 359
16.85951 304
16.87962 306
16.89974 315
16.91985 301
16.93996 324
16.96008 333
16.98019 307
17.00031 306
17.02042 315
17.04053 316
17.06065 313
17.08076 332
17.10087 344
17.12099 300
17.1411 277
17.16121 346
17.18133 358
17.20144 324
17.22156 329
17.24167 309
17.26178 358
17.2819 323
17.30201 358
17.32212 322
17.34224 324
17.36235 341
17.38247 346
17.40258 351
17.42269 283
17.44281 331
17.46292 363
17.48303 331
17.50315 369
17.52326 327
17.54338 340
17.56349 324
17.5836 377
17.60372 302
17.62383 361
17.64394 349
17.66406 351
17.68417 389
17.70428 421
17.7244 373
17.74451 440
17.76463 399
17.78474 392
17.80485 374
17.82497 384
17.84508 405
17.86519 360
17.88531 339
17.90542 364
17.92554 372
17.94565 350
17.96576 320
17.98588 372
18.00599 333
18.0261 366
18.04622 364
18.06633 385
18.08645 352
18.10656 356
18.12667 352
18.14679 328
18.1669 346
18.18701 357
18.20713 352
18.22724 313
18.24735 330
18.26747 326
18.28758 381
18.3077 347
18.32781 353
18.34792 352
18.36804 352
18.38815 328
18.40826 351
18.42838 352
18.44849 334
18.46861 354
18.48872 350
18.50883 340
18.52895 343
18.54906 322
18.56917 328
18.58929 302
18.6094 370
18.62951 365
18.64963 355
18.66974 381
18.68986 370
18.70997 341
18.73008 392
18.7502 363
18.77031 328
18.79042 326
18.81054 348
18.83065 368
18.85077 316
18.87088 329
18.89099 365
18.91111 329
18.93122 335
18.95133 329
18.97145 374
18.99156 341
19.01168 353
19.03179 362
19.0519 315
19.07202 321
19.09213 369
19.11224 349
19.13236 365
19.15247 387
19.17258 334
19.1927 352
19.21281 390
19.23293 380
19.25304 379
19.27315 329
19.29327 335
19.31338 384
19.33349 401
19.35361 394
19.37372 356
19.39384 379
19.41395 327
19.43406 392
19.45418 391
19.47429 392
19.4944 393
19.51452 383
19.53463 406
19.55475 425
19.57486 432
19.59497 456
19.61509 520
19.6352 514
19.65531 547
19.67543 583
19.69554 669
19.71565 645
19.73577 715
19.75588 776
19.776 804
19.79611 911
19.81622 875
19.83634 906
19.85645 827
19.87656 856
19.89668 835
19.91679 822
19.93691 780
19.95702 769
19.97713 683
19.99725 734
20.01736 642
20.03747 567
20.05759 625
20.0777 584
20.09782 595
20.11793 606
20.13804 593
20.15816 580
20.17827 590
20.19838 576
20.2185 610
20.23861 556
20.25872 633
20.27884 587
20.29895 567
20.31907 588
20.33918 580
20.35929 529
20.37941 533
20.39952 620
20.41963 611
20.43975 597
20.45986 654
20.47998 638
20.50009 663
20.5202 625
20.54032 673
20.56043 700
20.58054 716
20.60066 798
20.62077 807
20.64088 917
20.661 957
20.68111 1106
20.70123 1352
20.72134 1669
20.74145 2105
20.76157 2632
20.78168 3188
20.80179 3741
20.82191 3959
20.84202 3963
20.86214 3612
20.88225 3073
20.90236 2280
20.92248 1741
20.94259 1286
20.9627 970
20.98282 826
21.00293 759
21.02305 718
21.04316 669
21.06327 712
21.08339 656
21.1035 657
21.12361 623
21.14373 565
21.16384 603
21.18395 591
21.20407 636
21.22418 615
21.2443 638
21.26441 628
21.28452 656
21.30464 645
21.32475 606
21.34486 628
21.36498 656
21.38509 592
21.40521 627
21.42532 576
21.44543 603
21.46555 592
21.48566 598
21.50577 554
21.52589 601
21.546 578
21.56612 614
21.58623 610
21.60634 575
21.62646 558
21.64657 572
21.66668 501
21.6868 569
21.70691 523
21.72702 506
21.74714 505
21.76725 544
21.78737 524
21.80748 470
21.82759 493
21.84771 435
21.86782 501
21.88793 493
21.90805 488
21.92816 447
21.94828 479
21.96839 471
21.9885 491
22.00862 483
22.02873 478
22.04884 477
22.06896 449
22.08907 478
22.10919 439
22.1293 441
22.14941 483
22.16953 436
22.18964 454
22.20975 467
22.22987 425
22.24998 459
22.27009 485
22.29021 460
22.31032 454
22.33044 488
22.35055 441
22.37066 499
22.39078 433
22.41089 446
22.431 476
22.45112 484
22.47123 459
22.49135 442
22.51146 460
22.53157 446
22.55169 473
22.5718 432
22.59191 424
22.61203 481
22.63214 435
22.65225 445
22.67237 476
22.69248 502
22.7126 490
22.73271 444
22.75282 478
22.77294 454
22.79305 473
22.81316 498
22.83328 506
22.85339 534
22.87351 556
22.89362 501
22.91373 503
22.93385 548
22.95396 495
22.97407 486
22.99419 479
23.0143 471
23.03442 425
23.05453 492
23.07464 437
23.09476 487
23.11487 473
23.13498 446
23.1551 446
23.17521 413
23.19532 433
23.21544 451
23.23555 449
23.25567 459
23.27578 414
23.29589 423
23.31601 430
23.33612 427
23.35623 410
23.37635 441
23.39646 444
23.41658 420
23.43669 439
23.4568 435
23.47692 460
23.49703 422
23.51714 422
23.53726 432
23.55737 475
23.57749 442
23.5976 514
23.61771 476
23.63783 455
23.65794 510
23.67805 520
23.69817 492
23.71828 500
23.73839 510
23.75851 495
23.77862 543
23.79874 537
23.81885 529
23.83896 516
23.85908 532
23.87919 569
23.8993 516
23.91942 543
23.93953 481
23.95965 529
23.97976 533
23.99987 541
24.01999 569
24.0401 550
24.06021 530
24.08033 535
24.10044 528
24.12056 511
24.14067 482
24.16078 460
24.1809 505
24.20101 457
24.22112 478
24.24124 455
24.26135 439
24.28146 478
24.30158 478
24.32169 441
24.34181 447
24.36192 481
24.38203 428
24.40215 426
24.42226 464
24.44237 448
24.46249 472
24.4826 436
24.50272 493
24.52283 480
24.54294 495
24.56306 448
24.58317 466
24.60328 471
24.6234 459
24.64351 493
24.66362 492
24.68374 510
24.70385 514
24.72397 489
24.74408 502
24.76419 528
24.78431 596
24.80442 543
24.82453 534
24.84465 550
24.86476 522
24.88488 544
24.90499 551
24.9251 550
24.94522 512
24.96533 542
24.98544 526
25.00556 524
25.02567 511
25.04579 533
25.0659 493
25.08601 488
25.10613 524
25.12624 550
25.14635 532
25.16647 529
25.18658 574
25.20669 520
25.22681 560
25.24692 508
25.26704 527
25.28715 506
25.30726 541
25.32738 503
25.34749 520
25.3676 529
25.38772 541
25.40783 501
25.42795 555
25.44806 565
25.46817 569
25.48829 543
25.5084 575
25.52851 630
25.54863 537
25.56874 574
25.58886 587
25.60897 558
25.62908 557
25.6492 540
25.66931 529
25.68942 524
25.70954 508
25.72965 551
25.74976 602
25.76988 576
25.78999 626
25.81011 565
25.83022 642
25.85033 565
25.87045 632
25.89056 559
25.91067 560
25.93079 574
25.9509 545
25.97102 604
25.99113 622
26.01124 596
26.03136 671
26.05147 688
26.07158 684
26.0917 696
26.11181 740
26.13193 725
26.15204 757
26.17215 789
26.19227 844
26.21238 847
26.23249 959
26.25261 1001
26.27272 999
26.29283 1106
26.31295 1320
26.33306 1340
26.35318 1529
26.37329 1714
26.3934 1934
26.41352 2402
26.43363 3061
26.45374 3808
26.47386 5212
26.49397 6694
26.51409 8518
26.5342 11095
26.55431 13609
26.57443 15559
26.59454 17043
26.61465 17296
26.63477 15541
26.65488 13428
26.67499 10324
26.69511 7855
26.71522 5606
26.73534 3799
26.75545 2499
26.77556 1896
26.79568 1511
26.81579 1325
26.8359 1217
26.85602 1146
26.87613 1123
26.89625 953
26.91636 907
26.93647 842
26.95659 805
26.9767 791
26.99681 707
27.01693 699
27.03704 698
27.05716 618
27.07727 592
27.09738 663
27.1175 631
27.13761 567
27.15772 556
27.17784 587
27.19795 538
27.21806 518
27.23818 598
27.25829 515
27.27841 550
27.29852 553
27.31863 597
27.33875 543
27.35886 583
27.37897 573
27.39909 553
27.4192 586
27.43932 546
27.45943 614
27.47954 537
27.49966 586
27.51977 499
27.53988 527
27.56 537
27.58011 470
27.60023 501
27.62034 529
27.64045 494
27.66057 493
27.68068 518
27.70079 535
27.72091 546
27.74102 524
27.76113 500
27.78125 499
27.80136 515
27.82148 539
27.84159 501
27.8617 521
27.88182 518
27.90193 500
27.92204 492
27.94216 504
27.96227 449
27.98239 468
28.0025 457
28.02261 478
28.04273 452
28.06284 390
28.08295 414
28.10307 415
28.12318 374
28.1433 404
28.16341 391
28.18352 385
28.20364 425
28.22375 401
28.24386 405
28.26398 416
28.28409 421
28.3042 421
28.32432 405
28.34443 383
28.36455 396
28.38466 399
28.40477 418
28.42489 405
28.445 396
28.46511 408
28.48523 382
28.50534 413
28.52546 423
28.54557 399
28.56568 394
28.5858 376
28.60591 360
28.62602 387
28.64614 382
28.66625 355
28.68636 427
28.70648 399
28.72659 396
28.74671 391
28.76682 371
28.78693 373
28.80705 384
28.82716 393
28.84727 385
28.86739 376
28.8875 401
28.90762 360
28.92773 410
28.94784 347
28.96796 335
28.98807 375
29.00818 351
29.0283 359
29.04841 391
29.06853 360
29.08864 385
29.10875 389
29.12887 380
29.14898 355
29.16909 365
29.18921 380
29.20932 379
29.22943 367
29.24955 353
29.26966 375
29.28978 414
29.30989 370
29.33 393
29.35012 384
29.37023 418
29.39034 343
29.41046 397
29.43057 380
29.45069 381
29.4708 384
29.49091 388
29.51103 381
29.53114 396
29.55125 400
29.57137 389
29.59148 392
29.6116 407
29.63171 405
29.65182 442
29.67194 405
29.69205 425
29.71216 433
29.73228 443
29.75239 425
29.7725 423
29.79262 435
29.81273 426
29.83285 420
29.85296 449
29.87307 453
29.89319 485
29.9133 475
29.93341 460
29.95353 440
29.97364 411
29.99376 451
30.01387 415
30.03398 434
30.0541 377
30.07421 414
30.09432 432
30.11444 382
30.13455 427
30.15467 425
30.17478 374
30.19489 384
30.21501 481
30.23512 436
30.25523 417
30.27535 341
30.29546 380
30.31557 359
30.33569 403
30.3558 369
30.37592 371
30.39603 357
30.41614 392
30.43626 395
30.45637 351
30.47648 376
30.4966 366
30.51671 396
30.53683 364
30.55694 360
30.57705 411
30.59717 375
30.61728 353
30.63739 384
30.65751 347
30.67762 366
30.69773 393
30.71785 380
30.73796 342
30.75808 358
30.77819 384
30.7983 340
30.81842 350
30.83853 381
30.85864 364
30.87876 368
30.89887 362
30.91899 385
30.9391 370
30.95921 361
30.97933 363
30.99944 392
31.01955 382
31.03967 415
31.05978 397
31.0799 364
31.10001 422
31.12012 387
31.14024 440
31.16035 378
31.18046 403
31.20058 385
31.22069 418
31.2408 409
31.26092 430
31.28103 422
31.30115 403
31.32126 410
31.34137 433
31.36149 369
31.3816 395
31.40171 410
31.42183 408
31.44194 345
31.46206 403
31.48217 362
31.50228 350
31.5224 346
31.54251 367
31.56262 364
31.58274 367
31.60285 375
31.62297 342
31.64308 369
31.66319 307
31.68331 356
31.70342 332
31.72353 318
31.74365 384
31.76376 345
31.78387 404
31.80399 351
31.8241 371
31.84422 358
31.86433 364
31.88444 426
31.90456 346
31.92467 368
31.94478 365
31.9649 379
31.98501 428
32.00513 387
32.02524 332
32.04535 437
32.06547 402
32.08558 405
32.10569 380
32.12581 378
32.14592 377
32.16604 392
32.18615 391
32.20626 362
32.22638 361
32.24649 378
32.2666 369
32.28672 368
32.30683 371
32.32694 360
32.34706 381
32.36717 394
32.38729 351
32.4074 332
32.42751 342
32.44763 370
32.46774 341
32.48785 366
32.50797 324
32.52808 349
32.5482 359
32.56831 362
32.58842 350
32.60854 398
32.62865 375
32.64876 358
32.66888 366
32.68899 391
32.7091 381
32.72922 348
32.74933 361
32.76945 357
32.78956 376
32.80967 404
32.82979 388
32.8499 341
32.87001 404
32.89013 449
32.91024 416
32.93036 454
32.95047 424
32.97058 496
32.9907 505
33.01081 530
33.03092 564
33.05104 572
33.07115 584
33.09127 544
33.11138 542
33.13149 500
33.15161 527
33.17172 458
33.19183 446
33.21195 457
33.23206 438
33.25217 444
33.27229 413
33.2924 422
33.31252 409
33.33263 394
33.35274 386
33.37286 416
33.39297 399
33.41308 384
33.4332 343
33.45331 393
33.47343 426
33.49354 394
33.51365 402
33.53377 325
33.55388 367
33.57399 377
33.59411 366
33.61422 371
33.63434 348
33.65445 298
33.67456 379
33.69468 337
33.71479 347
33.7349 335
33.75502 378
33.77513 356
33.79524 314
33.81536 364
33.83547 351
33.85559 374
33.8757 358
33.89581 349
33.91593 326
33.93604 367
33.95615 337
33.97627 351
33.99638 308
34.0165 342
34.03661 343
34.05672 365
34.07684 369
34.09695 339
34.11706 363
34.13718 379
34.15729 364
34.17741 407
34.19752 376
34.21763 326
34.23775 367
34.25786 351
34.27797 370
34.29809 368
34.3182 377
34.33831 373
34.35843 364
34.37854 404
34.39866 410
34.41877 458
34.43888 415
34.459 466
34.47911 470
34.49922 486
34.51934 497
34.53945 488
34.55957 498
34.57968 496
34.59979 446
34.61991 485
34.64002 535
34.66013 552
34.68025 527
34.70036 562
34.72047 576
34.74059 566
34.7607 594
34.78082 582
34.80093 624
34.82104 651
34.84116 666
34.86127 715
34.88138 733
34.9015 767
34.92161 756
34.94173 780
34.96184 818
34.98195 774
35.00207 728
35.02218 706
35.04229 652
35.06241 655
35.08252 647
35.10264 580
35.12275 555
35.14286 555
35.16298 523
35.18309 495
35.2032 520
35.22332 482
35.24343 514
35.26354 506
35.28366 472
35.30377 508
35.32389 511
35.344 459
35.36411 510
35.38423 502
35.40434 549
35.42445 534
35.44457 556
35.46468 556
35.4848 549
35.50491 599
35.52502 583
35.54514 592
35.56525 616
35.58536 553
35.60548 575
35.62559 556
35.64571 555
35.66582 560
35.68593 523
35.70605 515
35.72616 518
35.74627 521
35.76639 464
35.7865 514
35.80661 495
35.82673 486
35.84684 540
35.86696 469
35.88707 494
35.90718 475
35.9273 442
35.94741 524
35.96752 499
35.98764 502
36.00775 474
36.02787 498
36.04798 450
36.06809 484
36.08821 485
36.10832 460
36.12843 451
36.14855 456
36.16866 454
36.18878 483
36.20889 477
36.229 538
36.24912 481
36.26923 532
36.28934 572
36.30946 599
36.32957 664
36.34968 751
36.3698 818
36.38991 928
36.41003 1053
36.43014 1199
36.45025 1330
36.47037 1496
36.49048 1496
36.51059 1467
36.53071 1422
36.55082 1257
36.57094 1173
36.59105 1012
36.61116 921
36.63128 823
36.65139 703
36.6715 592
36.69162 557
36.71173 533
36.73184 515
36.75196 518
36.77207 481
36.79219 489
36.8123 443
36.83241 471
36.85253 454
36.87264 498
36.89275 445
36.91287 497
36.93298 491
36.9531 453
36.97321 448
36.99332 499
37.01344 447
37.03355 457
37.05366 420
37.07378 408
37.09389 460
37.11401 433
37.13412 371
37.15423 406
37.17435 399
37.19446 395
37.21457 421
37.23469 407
37.2548 416
37.27491 383
37.29503 424
37.31514 427
37.33526 396
37.35537 383
37.37548 408
37.3956 418
37.41571 401
37.43582 407
37.45594 445
37.47605 457
37.49617 428
37.51628 418
37.53639 409
37.55651 482
37.57662 435
37.59673 432
37.61685 442
37.63696 472
37.65708 437
37.67719 449
37.6973 420
37.71742 442
37.73753 421
37.75764 487
37.77776 472
37.79787 443
37.81798 444
37.8381 454
37.85821 400
37.87833 407
37.89844 433
37.91855 393
37.93867 418
37.95878 406
37.97889 404
37.99901 374
38.01912 382
38.03924 419
38.05935 444
38.07946 425
38.09958 423
38.11969 395
38.1398 402
38.15992 384
38.18003 405
38.20015 422
38.22026 429
38.24037 404
38.26049 390
38.2806 405
38.30071 405
38.32083 449
38.34094 429
38.36105 454
38.38117 439
38.40128 432
38.4214 403
38.44151 426
38.46162 395
38.48174 402
38.50185 450
38.52196 433
38.54208 434
38.56219 366
38.58231 400
38.60242 421
38.62253 396
38.64265 394
38.66276 377
38.68287 414
38.70299 383
38.7231 370
38.74321 394
38.76333 385
38.78344 413
38.80356 381
38.82367 361
38.84378 393
38.8639 375
38.88401 411
38.90412 365
38.92424 374
38.94435 400
38.96447 422
38.98458 396
39.00469 422
39.02481 423
39.04492 450
39.06503 411
39.08515 427
39.10526 431
39.12538 463
39.14549 449
39.1656 455
39.18572 487
39.20583 484
39.22594 552
39.24606 543
39.26617 603
39.28628 662
39.3064 768
39.32651 859
39.34663 1023
39.36674 1133
39.38685 1261
39.40697 1313
39.42708 1314
39.44719 1269
39.46731 1108
39.48742 1008
39.50754 915
39.52765 795
39.54776 705
39.56788 676
39.58799 519
39.6081 433
39.62822 441
39.64833 401
39.66845 408
39.68856 407
39.70867 374
39.72879 398
39.7489 364
39.76901 345
39.78913 362
39.80924 376
39.82935 407
39.84947 415
39.86958 387
39.8897 424
39.90981 385
39.92992 429
39.95004 425
39.97015 438
39.99026 391
40.01038 445
40.03049 454
40.05061 437
40.07072 474
40.09083 490
40.11095 548
40.13106 620
40.15117 660
40.17129 657
40.1914 744
40.21152 816
40.23163 877
40.25174 801
40.27186 799
40.29197 750
40.31208 763
40.3322 641
40.35231 577
40.37242 558
40.39254 500
40.41265 456
40.43277 458
40.45288 443
40.47299 424
40.49311 408
40.51322 419
40.53333 413
40.55345 378
40.57356 416
40.59368 399
40.61379 360
40.6339 423
40.65402 382
40.67413 405
40.69424 369
40.71436 424
40.73447 400
40.75458 439
40.7747 442
40.79481 463
40.81493 413
40.83504 449
40.85515 433
40.87527 391
40.89538 443
40.91549 390
40.93561 403
40.95572 387
40.97584 415
40.99595 399
41.01606 379
41.03618 413
41.05629 419
41.0764 356
41.09652 327
41.11663 375
41.13675 380
41.15686 379
41.17697 390
41.19709 407
41.2172 393
41.23731 379
41.25743 388
41.27754 400
41.29765 383
41.31777 384
41.33788 360
41.358 392
41.37811 376
41.39822 379
41.41834 370
41.43845 384
41.45856 343
41.47868 348
41.49879 367
41.51891 355
41.53902 367
41.55913 328
41.57925 382
41.59936 328
41.61947 358
41.63959 346
41.6597 348
41.67982 363
41.69993 386
41.72004 372
41.74016 360
41.76027 356
41.78038 363
41.8005 350
41.82061 368
41.84072 342
41.86084 354
41.88095 383
41.90107 368
41.92118 387
41.94129 398
41.96141 379
41.98152 420
42.00163 399
42.02175 400
42.04186 417
42.06198 428
42.08209 420
42.1022 378
42.12232 422
42.14243 449
42.16254 449
42.18266 443
42.20277 492
42.22289 520
42.243 535
42.26311 611
42.28323 654
42.30334 759
42.32345 855
42.34357 899
42.36368 878
42.38379 1042
42.40391 1077
42.42402 1013
42.44414 940
42.46425 840
42.48436 715
42.50448 664
42.52459 638
42.5447 584
42.56482 506
42.58493 453
42.60505 419
42.62516 404
42.64527 381
42.66539 343
42.6855 340
42.70561 344
42.72573 340
42.74584 330
42.76595 374
42.78607 329
42.80618 310
42.8263 309
42.84641 335
42.86652 320
42.88664 314
42.90675 309
42.92686 319
42.94698 321
42.96709 293
42.98721 307
43.00732 348
43.02743 303
43.04755 341
43.06766 297
43.08777 292
43.10789 295
43.128 326
43.14812 292
43.16823 324
43.18834 294
43.20846 319
43.22857 318
43.24868 325
43.2688 301
43.28891 293
43.30902 313
43.32914 305
43.34925 292
43.36937 342
43.38948 329
43.40959 343
43.42971 345
43.44982 303
43.46993 331
43.49005 298
43.51016 308
43.53028 296
43.55039 316
43.5705 319
43.59062 317
43.61073 299
43.63084 301
43.65096 299
43.67107 334
43.69119 288
43.7113 294
43.73141 296
43.75153 330
43.77164 341
43.79175 313
43.81187 313
43.83198 301
43.85209 316
43.87221 289
43.89232 307
43.91244 340
43.93255 320
43.95266 334
43.97278 292
43.99289 336
44.013 322
44.03312 346
44.05323 360
44.07335 347
44.09346 303
44.11357 341
44.13369 314
44.1538 318
44.17391 319
44.19403 301
44.21414 307
44.23426 299
44.25437 303
44.27448 315
44.2946 285
44.31471 317
44.33482 351
44.35494 289
44.37505 334
44.39516 314
44.41528 348
44.43539 325
44.45551 287
44.47562 321
44.49573 299
44.51585 300
44.53596 333
44.55607 326
44.57619 337
44.5963 336
44.61642 281
44.63653 294
44.65664 310
44.67676 291
44.69687 325
44.71698 310
44.7371 282
44.75721 310
44.77732 291
44.79744 346
44.81755 325
44.83767 310
44.85778 339
44.87789 307
44.89801 337
44.91812 321
44.93823 333
44.95835 307
44.97846 330
44.99858 318
45.01869 321
45.0388 324
45.05892 343
45.07903 361
45.09914 344
45.11926 375
45.13937 353
45.15949 376
45.1796 353
45.19971 392
45.21983 361
45.23994 383
45.26005 366
45.28017 346
45.30028 385
45.32039 378
45.34051 388
45.36062 373
45.38074 397
45.40085 411
45.42096 377
45.44108 435
45.46119 438
45.4813 442
45.50142 454
45.52153 431
45.54165 458
45.56176 494
45.58187 469
45.60199 476
45.6221 549
45.64221 549
45.66233 677
45.68244 700
45.70256 694
45.72267 752
45.74278 757
45.7629 758
45.78301 698
45.80312 633
45.82324 611
45.84335 530
45.86346 559
45.88358 498
45.90369 471
45.92381 422
45.94392 406
45.96403 378
45.98415 385
46.00426 356
46.02437 357
46.04449 364
46.0646 336
46.08472 390
46.10483 329
46.12494 325
46.14506 337
46.16517 353
46.18528 330
46.2054 329
46.22551 359
46.24563 322
46.26574 357
46.28585 347
46.30597 296
46.32608 321
46.34619 320
46.36631 333
46.38642 350
46.40653 317
46.42665 325
46.44676 343
46.46688 327
46.48699 346
46.5071 309
46.52722 334
46.54733 314
46.56744 344
46.58756 302
46.60767 321
46.62779 299
46.6479 299
46.66801 300
46.68813 282
46.70824 345
46.72835 280
46.74847 304
46.76858 306
46.78869 318
46.80881 307
46.82892 300
46.84904 334
46.86915 311
46.88926 316
46.90938 282
46.92949 290
46.9496 318
46.96972 300
46.98983 299
47.00995 304
47.03006 328
47.05017 274
47.07029 290
47.0904 310
47.11051 322
47.13063 248
47.15074 326
47.17086 280
47.19097 294
47.21108 316
47.2312 286
47.25131 313
47.27142 281
47.29154 345
47.31165 327
47.33176 306
47.35188 263
47.37199 325
47.39211 308
47.41222 304
47.43233 288
47.45245 310
47.47256 297
47.49267 302
47.51279 314
47.5329 289
47.55302 322
47.57313 293
47.59324 327
47.61336 333
47.63347 301
47.65358 308
47.6737 303
47.69381 309
47.71393 328
47.73404 311
47.75415 306
47.77427 312
47.79438 355
47.81449 285
47.83461 309
47.85472 316
47.87483 328
47.89495 325
47.91506 301
47.93518 300
47.95529 329
47.9754 340
47.99552 327
48.01563 297
48.03574 296
48.05586 276
48.07597 354
48.09609 294
48.1162 307
48.13631 314
48.15643 282
48.17654 298
48.19665 317
48.21677 316
48.23688 355
48.257 344
48.27711 339
48.29722 341
48.31734 301
48.33745 301
48.35756 305
48.37768 301
48.39779 297
48.4179 303
48.43802 341
48.45813 313
48.47825 306
48.49836 323
48.51847 317
48.53859 317
48.5587 340
48.57881 276
48.59893 312
48.61904 321
48.63916 309
48.65927 315
48.67938 317
48.6995 291
48.71961 316
48.73972 272
48.75984 332
48.77995 330
48.80006 292
48.82018 326
48.84029 317
48.86041 335
48.88052 312
48.90063 309
48.92075 269
48.94086 309
48.96097 316
48.98109 334
49.0012 330
49.02132 314
49.04143 296
49.06154 328
49.08166 341
49.10177 357
49.12188 322
49.142 346
49.16211 357
49.18223 345
49.20234 337
49.22245 330
49.24257 343
49.26268 361
49.28279 373
49.30291 371
49.32302 357
49.34313 337
49.36325 382
49.38336 384
49.40348 364
49.42359 349
49.4437 374
49.46382 362
49.48393 383
49.50404 333
49.52416 359
49.54427 363
49.56439 375
49.5845 368
49.60461 327
49.62473 347
49.64484 355
49.66495 375
49.68507 373
49.70518 355
49.7253 390
49.74541 387
49.76552 418
49.78564 482
49.80575 436
49.82586 510
49.84598 522
49.86609 560
49.8862 624
49.90632 710
49.92643 790
49.94655 926
49.96666 1095
49.98677 1177
50.00689 1437
50.027 1691
50.04711 1772
50.06723 1855
50.08734 1806
50.10746 1770
50.12757 1638
50.14768 1441
50.1678 1282
50.18791 1127
50.20802 1091
50.22814 995
50.24825 915
50.26837 724
50.28848 569
50.30859 518
50.32871 437
50.34882 392
50.36893 390
50.38905 369
50.40916 385
50.42927 374
50.44939 349
50.4695 343
50.48962 356
50.50973 354
50.52984 331
50.54996 397
50.57007 346
50.59018 344
50.6103 355
50.63041 327
50.65053 371
50.67064 360
50.69075 342
50.71087 322
50.73098 325
50.75109 293
50.77121 324
50.79132 283
50.81143 322
50.83155 314
50.85166 296
50.87178 314
50.89189 316
50.912 295
50.93212 332
50.95223 333
50.97234 293
50.99246 335
51.01257 310
51.03269 299
51.0528 300
51.07291 331
51.09303 304
51.11314 322
51.13325 305
51.15337 305
51.17348 311
51.1936 294
51.21371 273
51.23382 299
51.25394 269
51.27405 277
51.29416 295
51.31428 301
51.33439 300
51.3545 286
51.37462 275
51.39473 300
51.41485 275
51.43496 301
51.45507 310
51.47519 315
51.4953 275
51.51541 278
51.53553 298
51.55564 291
51.57576 279
51.59587 302
51.61598 319
51.6361 277
51.65621 296
51.67632 294
51.69644 284
51.71655 285
51.73667 276
51.75678 272
51.77689 310
51.79701 303
51.81712 290
51.83723 287
51.85735 264
51.87746 267
51.89757 307
51.91769 276
51.9378 279
51.95792 305
51.97803 287
51.99814 330
52.01826 296
52.03837 289
52.05848 286
52.0786 266
52.09871 286
52.11883 261
52.13894 291
52.15905 315
52.17917 281
52.19928 270
52.21939 272
52.23951 293
52.25962 298
52.27974 315
52.29985 297
52.31996 320
52.34008 270
52.36019 319
52.3803 314
52.40042 292
52.42053 333
52.44064 292
52.46076 302
52.48087 273
52.50099 312
52.5211 323
52.54121 278
52.56133 291
52.58144 319
52.60155 289
52.62167 281
52.64178 314
52.6619 309
52.68201 293
52.70212 297
52.72224 293
52.74235 297
52.76246 302
52.78258 304
52.80269 327
52.8228 320
52.84292 327
52.86303 312
52.88315 331
52.90326 295
52.92337 312
52.94349 277
52.9636 303
52.98371 332
53.00383 295
53.02394 320
53.04406 327
53.06417 327
53.08428 293
53.1044 300
53.12451 311
53.14462 303
53.16474 321
53.18485 294
53.20497 319
53.22508 325
53.24519 308
53.26531 323
53.28542 308
53.30553 362
53.32565 315
53.34576 326
53.36587 321
53.38599 336
53.4061 339
53.42622 324
53.44633 322
53.46644 350
53.48656 349
53.50667 340
53.52678 353
53.5469 330
53.56701 313
53.58713 347
53.60724 365
53.62735 363
53.64747 349
53.66758 370
53.68769 379
53.70781 379
53.72792 412
53.74804 400
53.76815 401
53.78826 446
53.80838 412
53.82849 418
53.8486 391
53.86872 452
53.88883 421
53.90894 423
53.92906 411
53.94917 436
53.96929 375
53.9894 406
54.00951 409
54.02963 402
54.04974 409
54.06985 443
54.08997 385
54.11008 404
54.1302 418
54.15031 369
54.17042 394
54.19054 379
54.21065 392
54.23076 424
54.25088 403
54.27099 399
54.29111 398
54.31122 364
54.33133 434
54.35145 414
54.37156 371
54.39167 388
54.41179 381
54.4319 395
54.45201 395
54.47213 368
54.49224 395
54.51236 400
54.53247 386
54.55258 403
54.5727 432
54.59281 426
54.61292 434
54.63304 503
54.65315 466
54.67327 571
54.69338 526
54.71349 579
54.73361 667
54.75372 679
54.77383 738
54.79395 800
54.81406 819
54.83417 762
54.85429 740
54.8744 708
54.89452 640
54.91463 600
54.93474 582
54.95486 569
54.97497 578
54.99508 534
55.0152 517
55.03531 477
55.05543 483
55.07554 423
55.09565 413
55.11577 430
55.13588 455
55.15599 464
55.17611 463
55.19622 504
55.21634 523
55.23645 536
55.25656 555
55.27668 543
55.29679 509
55.3169 533
55.33702 508
55.35713 463
55.37724 469
55.39736 456
55.41747 481
55.43759 460
55.4577 400
55.47781 412
55.49793 403
55.51804 396
55.53815 371
55.55827 337
55.57838 407
55.5985 329
55.61861 358
55.63872 356
55.65884 373
55.67895 366
55.69906 377
55.71918 361
55.73929 354
55.75941 344
55.77952 366
55.79963 346
55.81975 363
55.83986 367
55.85997 360
55.88009 357
55.9002 364
55.92031 357
55.94043 339
55.96054 351
55.98066 352
56.00077 345
56.02088 378
56.041 324
56.06111 311
56.08122 343
56.10134 366
56.12145 309
56.14157 301
56.16168 342
56.18179 357
56.20191 318
56.22202 331
56.24213 316
56.26225 338
56.28236 357
56.30248 307
56.32259 285
56.3427 307
56.36282 332
56.38293 349
56.40304 301
56.42316 346
56.44327 310
56.46338 323
56.4835 333
56.50361 357
56.52373 345
56.54384 278
56.56395 339
56.58407 328
56.60418 373
56.62429 332
56.64441 332
56.66452 334
56.68464 309
56.70475 319
56.72486 320
56.74498 318
56.76509 311
56.7852 278
56.80532 335
56.82543 356
56.84554 296
56.86566 316
56.88577 338
56.90589 327
56.926 319
56.94611 327
56.96623 310
56.98634 330
57.00645 327
57.02657 309
57.04668 307
57.0668 330
57.08691 349
57.10702 343
57.12714 317
57.14725 298
57.16736 350
57.18748 318
57.20759 345
57.22771 351
57.24782 328
57.26793 332
57.28805 338
57.30816 314
57.32827 345
57.34839 324
57.3685 311
57.38861 319
57.40873 334
57.42884 305
57.44896 315
57.46907 311
57.48918 338
57.5093 304
57.52941 340
57.54952 301
57.56964 322
57.58975 344
57.60987 312
57.62998 340
57.65009 330
57.67021 349
57.69032 313
57.71043 310
57.73055 324
57.75066 307
57.77078 283
57.79089 292
57.811 304
57.83112 334
57.85123 299
57.87134 310
57.89146 311
57.91157 313
57.93168 299
57.9518 294
57.97191 269
57.99203 286
58.01214 287
58.03225 270
58.05237 300
58.07248 308
58.09259 319
58.11271 269
58.13282 277
58.15294 276
58.17305 279
58.19316 272
58.21328 257
58.23339 274
58.2535 297
58.27362 297
58.29373 309
58.31385 326
58.33396 303
58.35407 294
58.37419 286
58.3943 273
58.41441 297
58.43453 291
58.45464 290
58.47475 280
58.49487 248
58.51498 302
58.5351 320
58.55521 332
58.57532 276
58.59544 311
58.61555 289
58.63566 288
58.65578 282
58.67589 283
58.69601 303
58.71612 263
58.73623 294
58.75635 292
58.77646 277
58.79657 289
58.81669 265
58.8368 302
58.85691 293
58.87703 294
58.89714 294
58.91726 303
58.93737 304
58.95748 321
58.9776 296
58.99771 299
59.01782 311
59.03794 270
59.05805 292
59.07817 288
59.09828 298
59.11839 337
59.13851 333
59.15862 298
59.17873 290
59.19885 319
59.21896 330
59.23908 319
59.25919 319
59.2793 317
59.29942 333
59.31953 335
59.33964 330
59.35976 309
59.37987 346
59.39998 357
59.4201 346
59.44021 394
59.46033 367
59.48044 355
59.50055 353
59.52067 408
59.54078 419
59.56089 405
59.58101 432
59.60112 388
59.62124 446
59.64135 417
59.66146 459
59.68158 507
59.70169 559
59.7218 649
59.74192 706
59.76203 767
59.78215 825
59.80226 896
59.82237 1015
59.84249 1063
59.8626 1266
59.88271 1189
59.90283 1235
59.92294 1155
59.94305 1026
59.96317 946
59.98328 837
60.0034 750
60.02351 764
60.04362 819
60.06374 796
60.08385 615
60.10396 575
60.12408 530
60.14419 470
60.16431 413
60.18442 427
60.20453 351
60.22465 341
60.24476 351
60.26487 332
60.28499 315
60.3051 300
60.32522 335
60.34533 320
60.36544 287
60.38556 291
60.40567 339
60.42578 295
60.4459 312
60.46601 311
60.48612 291
60.50624 317
60.52635 309
60.54647 317
60.56658 317
60.58669 292
60.60681 296
60.62692 285
60.64703 315
60.66715 321
60.68726 296
60.70738 306
60.72749 304
60.7476 303
60.76772 290
60.78783 323
60.80794 306
60.82806 308
60.84817 310
60.86828 305
60.8884 306
60.90851 294
60.92863 295
60.94874 320
60.96885 309
60.98897 319
61.00908 323
61.02919 266
61.04931 275
61.06942 304
61.08954 299
61.10965 298
61.12976 307
61.14988 325
61.16999 281
61.1901 281
61.21022 285
61.23033 304
61.25045 302
61.27056 310
61.29067 315
61.31079 334
61.3309 312
61.35101 290
61.37113 341
61.39124 339
61.41135 325
61.43147 330
61.45158 356
61.4717 329
61.49181 355
61.51192 354
61.53204 377
61.55215 370
61.57226 377
61.59238 401
61.61249 399
61.63261 409
61.65272 440
61.67283 404
61.69295 386
61.71306 423
61.73317 419
61.75329 396
61.7734 422
61.79352 400
61.81363 451
61.83374 412
61.85386 447
61.87397 468
61.89408 384
61.9142 362
61.93431 380
61.95442 380
61.97454 386
61.99465 385
62.01477 387
62.03488 370
62.05499 409
62.07511 408
62.09522 410
62.11533 373
62.13545 399
62.15556 417
62.17568 368
62.19579 379
62.2159 401
62.23602 397
62.25613 410
62.27624 425
62.29636 363
62.31647 402
62.33659 325
62.3567 367
62.37681 359
62.39693 385
62.41704 374
62.43715 339
62.45727 382
62.47738 360
62.49749 348
62.51761 342
62.53772 351
62.55784 351
62.57795 346
62.59806 343
62.61818 328
62.63829 332
62.6584 313
62.67852 315
62.69863 314
62.71875 317
62.73886 302
62.75897 295
62.77909 284
62.7992 291
62.81931 315
62.83943 332
62.85954 285
62.87965 274
62.89977 298
62.91988 312
62.94 319
62.96011 269
62.98022 295
63.00034 313
63.02045 281
63.04056 345
63.06068 316
63.08079 306
63.10091 294
63.12102 288
63.14113 279
63.16125 305
63.18136 285
63.20147 273
63.22159 281
63.2417 273
63.26182 308
63.28193 279
63.30204 281
63.32216 290
63.34227 292
63.36238 314
63.3825 293
63.40261 307
63.42272 303
63.44284 287
63.46295 324
63.48307 317
63.50318 304
63.52329 285
63.54341 325
63.56352 298
63.58363 297
63.60375 324
63.62386 323
63.64398 299
63.66409 332
63.6842 351
63.70432 333
63.72443 345
63.74454 345
63.76466 369
63.78477 403
63.80489 387
63.825 417
63.84511 420
63.86523 448
63.88534 464
63.90545 425
63.92557 442
63.94568 461
63.96579 515
63.98591 427
64.00602 493
64.02614 455
64.04625 422
64.06636 432
64.08648 404
64.10659 399
64.1267 387
64.14682 367
64.16693 372
64.18705 334
64.20716 322
64.22727 343
64.24739 330
64.2675 315
64.28761 289
64.30773 287
64.32784 312
64.34796 313
64.36807 308
64.38818 288
64.4083 295
64.42841 288
64.44852 284
64.46864 262
64.48875 298
64.50886 295
64.52898 265
64.54909 266
64.56921 258
64.58932 273
64.60943 282
64.62955 280
64.64966 290
64.66977 283
64.68989 280
64.71 284
64.73012 258
64.75023 260
64.77034 270
64.79046 257
64.81057 297
64.83068 268
64.8508 287
64.87091 280
64.89102 246
64.91114 308
64.93125 250
64.95137 246
64.97148 266
64.99159 287
65.01171 268
65.03182 281
65.05193 285
65.07205 293
65.09216 310
65.11228 289
65.13239 294
65.1525 268
65.17262 289
65.19273 279
65.21284 314
65.23296 266
65.25307 279
65.27319 304
65.2933 261
65.31341 301
65.33353 272
65.35364 271
65.37375 266
65.39387 270
65.41398 265
65.43409 269
65.45421 274
65.47432 281
65.49444 291
65.51455 307
65.53466 290
65.55478 283
65.57489 265
65.595 298
65.61512 301
65.63523 303
65.65535 305
65.67546 311
65.69557 302
65.71569 329
65.7358 291
65.75591 294
65.77603 289
65.79614 284
65.81626 315
65.83637 310
65.85648 288
65.8766 284
65.89671 287
65.91682 290
65.93694 278
65.95705 287
65.97716 252
65.99728 270
66.01739 271
66.03751 293
66.05762 289
66.07773 257
66.09785 265
66.11796 277
66.13807 255
66.15819 270
66.1783 306
66.19842 287
66.21853 269
66.23864 243
66.25876 288
66.27887 259
66.29898 286
66.3191 287
66.33921 273
66.35933 233
66.37944 251
66.39955 293
66.41967 297
66.43978 286
66.45989 278
66.48001 296
66.50012 282
66.52023 285
66.54035 289
66.56046 276
66.58058 288
66.60069 262
66.6208 277
66.64092 264
66.66103 278
66.68114 286
66.70126 251
66.72137 279
66.74149 284
66.7616 271
66.78171 271
66.80183 271
66.82194 249
66.84205 282
66.86217 283
66.88228 244
66.90239 264
66.92251 321
66.94262 292
66.96274 295
66.98285 251
67.00296 270
67.02308 286
67.04319 282
67.0633 313
67.08342 307
67.10353 272
67.12365 291
67.14376 263
67.16387 309
67.18399 308
67.2041 303
67.22421 306
67.24433 267
67.26444 313
67.28456 314
67.30467 333
67.32478 320
67.3449 323
67.36501 318
67.38512 360
67.40524 377
67.42535 383
67.44546 387
67.46558 376
67.48569 460
67.50581 483
67.52592 486
67.54603 573
67.56615 598
67.58626 619
67.60637 686
67.62649 737
67.6466 829
67.66672 819
67.68683 808
67.70694 798
67.72706 735
67.74717 630
67.76728 628
67.7874 671
67.80751 649
67.82763 731
67.84774 702
67.86785 714
67.88797 673
67.90808 700
67.92819 751
67.94831 709
67.96842 791
67.98853 829
68.00865 901
68.02876 943
68.04888 987
68.06899 1036
68.0891 1041
68.10922 1072
68.12933 929
68.14944 902
68.16956 922
68.18967 908
68.20979 938
68.2299 930
68.25001 889
68.27013 911
68.29024 782
68.31035 732
68.33047 637
68.35058 620
68.3707 616
68.39081 524
68.41092 486
68.43104 496
68.45115 514
68.47126 422
68.49138 432
68.51149 401
68.5316 343
68.55172 324
68.57183 343
68.59195 332
68.61206 285
68.63217 314
68.65229 332
68.6724 293
68.69251 292
68.71263 290
68.73274 294
68.75286 285
68.77297 294
68.79308 305
68.8132 282
68.83331 263
68.85342 281
68.87354 294
68.89365 274
68.91376 301
68.93388 286
68.95399 274
68.97411 304
68.99422 287
69.01433 285
69.03445 303
69.05456 275
69.07467 273
69.09479 288
69.1149 277
69.13502 310
69.15513 285
69.17524 274
69.19536 280
69.21547 297
69.23558 291
69.2557 266
69.27581 274
69.29593 299
69.31604 268
69.33615 270
69.35627 274
69.37638 285
69.39649 243
69.41661 305
69.43672 298
69.45683 304
69.47695 297
69.49706 294
69.51718 316
69.53729 294
69.5574 316
69.57752 309
69.59763 305
69.61774 312
69.63786 274
69.65797 272
69.67809 284
69.6982 275
69.71831 281
69.73843 261
69.75854 274
69.77865 260
69.79877 271
69.81888 275
69.839 246
69.85911 262
69.87922 283
69.89934 261
69.91945 301
69.93956 257
69.95968 277
69.97979 268
69.9999 279
70.02002 289
70.04013 253
70.06025 271
70.08036 269
70.10047 299
70.12059 278
70.1407 287
70.16081 244
70.18093 284
70.20104 258
70.22116 295
70.24127 306
70.26138 259
70.2815 250
70.30161 307
70.32172 259
70.34184 259
70.36195 254
70.38207 260
70.40218 276
70.42229 282
70.44241 271
70.46252 269
70.48263 232
70.50275 251
70.52286 251
70.54297 266
70.56309 255
70.5832 256
70.60332 243
70.62343 269
70.64354 247
70.66366 261
70.68377 249
70.70388 230
70.724 262
70.74411 261
70.76423 232
70.78434 259
70.80445 236
70.82457 234
70.84468 241
70.86479 276
70.88491 239
70.90502 244
70.92513 264
70.94525 244
70.96536 229
70.98548 253
71.00559 261
71.0257 229
71.04582 236
71.06593 263
71.08604 242
71.10616 250
71.12627 223
71.14639 260
71.1665 224
71.18661 258
71.20673 250
71.22684 214
71.24695 244
71.26707 253
71.28718 268
71.3073 250
71.32741 246
71.34752 263
71.36764 237
71.38775 248
71.40786 249
71.42798 252
71.44809 283
71.4682 275
71.48832 252
71.50843 255
71.52855 241
71.54866 276
71.56877 275
71.58889 220
71.609 292
71.62911 277
71.64923 293
71.66934 252
71.68946 292
71.70957 275
71.72968 273
71.7498 234
71.76991 230
71.79002 282
71.81014 263
71.83025 255
71.85037 297
71.87048 237
71.89059 268
71.91071 257
71.93082 246
71.95093 267
71.97105 274
71.99116 239
72.01127 263
72.03139 264
72.0515 266
72.07162 288
72.09173 267
72.11184 257
72.13196 249
72.15207 261
72.17218 265
72.1923 271
72.21241 251
72.23253 275
72.25264 253
72.27275 287
72.29287 274
72.31298 272
72.33309 266
72.35321 266
72.37332 264
72.39344 257
72.41355 254
72.43366 251
72.45378 274
72.47389 318
72.494 283
72.51412 281
72.53423 261
72.55434 241
72.57446 291
72.59457 244
72.61469 308
72.6348 259
72.65491 300
72.67503 273
72.69514 233
72.71525 289
72.73537 299
72.75548 305
72.7756 290
72.79571 298
72.81582 282
72.83594 287
72.85605 285
72.87616 273
72.89628 263
72.91639 295
72.9365 308
72.95662 283
72.97673 338
72.99685 275
73.01696 281
73.03707 323
73.05719 276
73.0773 310
73.09741 306
73.11753 284
73.13764 317
73.15776 323
73.17787 290
73.19798 331
73.2181 330
73.23821 355
73.25832 334
73.27844 386
73.29855 367
73.31867 387
73.33878 424
73.35889 426
73.37901 444
73.39912 439
73.41923 472
73.43935 437
73.45946 417
73.47957 387
73.49969 370
73.5198 335
73.53992 343
73.56003 364
73.58014 348
73.60026 352
73.62037 340
73.64048 344
73.6606 314
73.68071 310
73.70083 320
73.72094 282
73.74105 295
73.76117 298
73.78128 293
73.80139 278
73.82151 271
73.84162 261
73.86174 241
73.88185 246
73.90196 247
73.92208 270
73.94219 263
73.9623 250
73.98242 258
74.00253 258
74.02264 239
74.04276 226
74.06287 246
74.08299 264
74.1031 255
74.12321 264
74.14333 275
74.16344 241
74.18355 284
74.20367 289
74.22378 278
74.2439 250
74.26401 239
74.28412 277
74.30424 259
74.32435 264
74.34446 255
74.36458 273
74.38469 266
74.40481 266
74.42492 275
74.44503 230
74.46515 245
74.48526 232
74.50537 248
74.52549 268
74.5456 287
74.56571 250
74.58583 243
74.60594 264
74.62606 250
74.64617 233
74.66628 269
74.6864 250
74.70651 263
74.72662 259
74.74674 228
74.76685 264
74.78697 245
74.80708 260
74.82719 247
74.84731 284
74.86742 265
74.88753 250
74.90765 260
74.92776 258
74.94787 235
74.96799 271
74.9881 232
75.00822 255
