3.00117 19843
3.02128 19305
3.0414 18752
3.06151 17930
3.08162 17699
3.10174 17011
3.12185 16903
3.14197 16002
3.16208 15723
3.18219 15511
3.20231 14668
3.22242 14708
3.24253 13785
3.26265 13466
3.28276 13208
3.30288 12452
3.32299 12394
3.3431 11873
3.36322 11453
3.38333 10989
3.40344 10598
3.42356 10718
3.44367 10286
3.46379 9667
3.4839 9361
3.50401 9101
3.52413 8776
3.54424 8574
3.56435 7971
3.58447 7713
3.60458 7593
3.62469 7404
3.64481 7038
3.66492 6572
3.68504 6311
3.70515 5984
3.72526 5995
3.74538 5740
3.76549 5387
3.7856 5277
3.80572 4848
3.82583 4852
3.84595 4744
3.86606 4435
3.88617 4158
3.90629 3940
3.9264 3821
3.94651 3825
3.96663 3418
3.98674 3330
4.00686 3097
4.02697 3109
4.04708 3000
4.0672 2697
4.08731 2645
4.10742 2393
4.12754 2499
4.14765 2408
4.16776 2247
4.18788 2000
4.20799 2024
4.22811 1989
4.24822 1945
4.26833 1786
4.28845 1635
4.30856 1702
4.32867 1680
4.34879 1669
4.3689 1467
4.38902 1424
4.40913 1365
4.42924 1334
4.44936 1436
4.46947 1203
4.48958 1308
4.5097 1218
4.52981 1216
4.54992 1237
4.57004 1059
4.59015 1142
4.61027 1129
4.63038 1113
4.65049 1027
4.67061 972
4.69072 1004
4.71083 945
4.73095 930
4.75106 1002
4.77118 828
4.79129 841
4.8114 811
4.83152 858
4.85163 807
4.87174 749
4.89186 775
4.91197 726
4.93209 693
4.9522 718
4.97231 703
4.99243 725
5.01254 670
5.03265 652
5.05277 642
5.07288 644
5.09299 604
5.11311 593
5.13322 571
5.15334 594
5.17345 550
5.19356 526
5.21368 503
5.23379 564
5.2539 487
5.27402 431
5.29413 505
5.31425 461
5.33436 477
5.35447 439
5.37459 412
5.3947 396
5.41481 405
5.43493 407
5.45504 458
5.47516 383
5.49527 353
5.51538 364
5.5355 331
5.55561 356
5.57572 341
5.59584 297
5.61595 341
5.63606 320
5.65618 286
5.67629 331
5.69641 259
5.71652 265
5.73663 311
5.75675 294
5.77686 293
5.79697 288
5.81709 258
5.8372 268
5.85732 250
5.87743 224
5.89754 266
5.91766 303
5.93777 276
5.95788 219
5.978 251
5.99811 251
6.01823 258
6.03834 239
6.05845 245
6.07857 249
6.09868 242
6.11879 231
6.13891 235
6.15902 232
6.17913 244
6.19925 262
6.21936 255
6.23948 224
6.25959 240
6.2797 208
6.29982 250
6.31993 196
6.34004 225
6.36016 183
6.38027 223
6.40039 191
6.4205 227
6.44061 226
6.46073 241
6.48084 194
6.50095 214
6.52107 185
6.54118 213
6.56129 186
6.58141 213
6.60152 215
6.62164 233
6.64175 218
6.66186 195
6.68198 207
6.70209 227
6.7222 173
6.74232 195
6.76243 178
6.78255 183
6.80266 187
6.82277 199
6.84289 193
6.863 195
6.88311 167
6.90323 205
6.92334 200
6.94346 217
6.96357 204
6.98368 207
7.0038 206
7.02391 220
7.04402 193
7.06414 205
7.08425 195
7.10436 225
7.12448 181
7.14459 182
7.16471 204
7.18482 200
7.20493 176
7.22505 190
7.24516 222
7.26527 185
7.28539 196
7.3055 201
7.32562 221
7.34573 189
7.36584 216
7.38596 227
7.40607 205
7.42618 187
7.4463 202
7.46641 181
7.48653 195
7.50664 193
7.52675 194
7.54687 221
7.56698 191
7.58709 204
7.60721 215
7.62732 204
7.64743 217
7.66755 210
7.68766 212
7.70778 216
7.72789 194
7.748 202
7.76812 213
7.78823 195
7.80834 230
7.82846 219
7.84857 205
7.86869 201
7.8888 194
7.90891 202
7.92903 206
7.94914 220
7.96925 224
7.98937 229
8.00948 214
8.0296 231
8.04971 220
8.06982 209
8.08994 207
8.11005 197
8.13016 232
8.15028 209
8.17039 196
8.1905 226
8.21062 212
8.23073 211
8.25085 203
8.27096 231
8.29107 211
8.31119 207
8.3313 225
8.35141 212
8.37153 221
8.39164 230
8.41176 251
8.43187 198
8.45198 200
8.4721 204
8.49221 229
8.51232 206
8.53244 229
8.55255 211
8.57266 232
8.59278 211
8.61289 229
8.63301 237
8.65312 215
8.67323 237
8.69335 240
8.71346 225
8.73357 239
8.75369 230
8.7738 230
8.79392 229
8.81403 233
8.83414 254
8.85426 259
8.87437 262
8.89448 258
8.9146 264
8.93471 250
8.95483 262
8.97494 264
8.99505 215
9.01517 250
9.03528 234
9.05539 231
9.07551 192
9.09562 208
9.11573 201
9.13585 206
9.15596 224
9.17608 227
9.19619 236
9.2163 217
9.23642 224
9.25653 215
9.27664 222
9.29676 232
9.31687 230
9.33699 218
9.3571 193
9.37721 245
9.39733 211
9.41744 217
9.43755 215
9.45767 205
9.47778 237
9.4979 219
9.51801 230
9.53812 244
9.55824 224
9.57835 213
9.59846 235
9.61858 207
9.63869 226
9.6588 220
9.67892 232
9.69903 239
9.71915 249
9.73926 281
9.75937 235
9.77949 242
9.7996 244
9.81971 258
9.83983 243
9.85994 237
9.88006 224
9.90017 208
9.92028 215
9.9404 221
9.96051 203
9.98062 197
10.00074 232
10.02085 245
10.04097 226
10.06108 225
10.08119 241
10.10131 226
10.12142 242
10.14153 214
10.16165 223
10.18176 238
10.20187 251
10.22199 252
10.2421 257
10.26222 240
10.28233 249
10.30244 250
10.32256 220
10.34267 238
10.36278 271
10.3829 259
10.40301 300
10.42313 277
10.44324 311
10.46335 383
10.48347 426
10.50358 361
10.52369 391
10.54381 351
10.56392 340
10.58403 294
10.60415 249
10.62426 255
10.64438 236
10.66449 261
10.6846 234
10.70472 219
10.72483 208
10.74494 224
10.76506 235
10.78517 243
10.80529 232
10.8254 268
10.84551 228
10.86563 199
10.88574 237
10.90585 215
10.92597 213
10.94608 201
10.9662 226
10.98631 212
11.00642 240
11.02654 221
11.04665 213
11.06676 219
11.08688 201
11.10699 218
11.1271 220
11.14722 223
11.16733 214
11.18745 228
11.20756 206
11.22767 229
11.24779 225
11.2679 217
11.28801 200
11.30813 220
11.32824 230
11.34836 236
11.36847 234
11.38858 195
11.4087 193
11.42881 228
11.44892 219
11.46904 222
11.48915 212
11.50927 247
11.52938 228
11.54949 199
11.56961 201
11.58972 235
11.60983 255
11.62995 183
11.65006 242
11.67017 247
11.69029 219
11.7104 239
11.73052 211
11.75063 216
11.77074 207
11.79086 211
11.81097 227
11.83108 221
11.8512 244
11.87131 221
11.89143 206
11.91154 231
11.93165 233
11.95177 218
11.97188 199
11.99199 222
12.01211 213
12.03222 206
12.05234 241
12.07245 265
12.09256 210
12.11268 206
12.13279 217
12.1529 208
12.17302 206
12.19313 205
12.21324 227
12.23336 229
12.25347 242
12.27359 223
12.2937 210
12.31381 219
12.33393 217
12.35404 232
12.37415 237
12.39427 245
12.41438 222
12.4345 213
12.45461 196
12.47472 210
12.49484 222
12.51495 208
12.53506 211
12.55518 213
12.57529 221
12.5954 195
12.61552 225
12.63563 214
12.65575 255
12.67586 227
12.69597 220
12.71609 206
12.7362 242
12.75631 204
12.77643 232
12.79654 214
12.81666 210
12.83677 209
12.85688 219
12.877 190
12.89711 218
12.91722 214
12.93734 205
12.95745 165
12.97757 238
12.99768 239
13.01779 224
13.03791 225
13.05802 229
13.07813 215
13.09825 233
13.11836 235
13.13847 228
13.15859 268
13.1787 223
13.19882 229
13.21893 251
13.23904 205
13.25916 218
13.27927 204
13.29938 213
13.3195 210
13.33961 196
13.35973 214
13.37984 214
13.39995 236
13.42007 260
13.44018 249
13.46029 240
13.48041 222
13.50052 213
13.52064 212
13.54075 240
13.56086 245
13.58098 282
13.60109 274
13.6212 287
13.64132 293
13.66143 301
13.68154 297
13.70166 279
13.72177 278
13.74189 256
13.762 274
13.78211 270
13.80223 331
13.82234 286
13.84245 335
13.86257 333
13.88268 379
13.9028 360
13.92291 299
13.94302 281
13.96314 262
13.98325 251
14.00336 240
14.02348 243
14.04359 202
14.06371 223
14.08382 208
14.10393 217
14.12405 211
14.14416 199
14.16427 224
14.18439 204
14.2045 192
14.22461 196
14.24473 185
14.26484 198
14.28496 196
14.30507 201
14.32518 180
14.3453 218
14.36541 201
14.38552 201
14.40564 193
14.42575 209
14.44587 188
14.46598 182
14.48609 213
14.50621 186
14.52632 193
14.54643 195
14.56655 199
14.58666 178
14.60677 178
14.62689 197
14.647 205
14.66712 186
14.68723 214
14.70734 167
14.72746 210
14.74757 200
14.76768 207
14.7878 204
14.80791 218
14.82803 214
14.84814 188
14.86825 204
14.88837 227
14.90848 228
14.92859 237
14.94871 231
14.96882 240
14.98894 227
15.00905 239
15.02916 263
15.04928 253
15.06939 283
15.0895 297
15.10962 236
15.12973 236
15.14984 233
15.16996 216
15.19007 208
15.21019 212
15.2303 217
15.25041 212
15.27053 212
15.29064 203
15.31075 198
15.33087 206
15.35098 207
15.3711 185
15.39121 227
15.41132 181
15.43144 158
15.45155 195
15.47166 207
15.49178 186
15.51189 196
15.53201 166
15.55212 180
15.57223 159
15.59235 188
15.61246 187
15.63257 208
15.65269 223
15.6728 188
15.69291 220
15.71303 170
15.73314 187
15.75326 208
15.77337 209
15.79348 229
15.8136 248
15.83371 203
15.85382 203
15.87394 194
15.89405 192
15.91417 190
15.93428 207
15.95439 189
15.97451 205
15.99462 196
16.01473 206
16.03485 224
16.05496 196
16.07508 180
16.09519 185
16.1153 194
16.13542 199
16.15553 206
16.17564 191
16.19576 192
16.21587 216
16.23598 181
16.2561 198
16.27621 200
16.29633 182
16.31644 188
16.33655 175
16.35667 192
16.37678 182
16.39689 177
16.41701 193
16.43712 170
16.45724 200
16.47735 199
16.49746 186
16.51758 221
16.53769 197
16.5578 158
16.57792 200
16.59803 195
16.61814 169
16.63826 185
16.65837 172
16.67849 194
16.6986 157
16.71871 177
16.73883 220
16.75894 169
16.77905 184
16.79917 196
16.81928 198
16.8394 181
16.85951 163
16.87962 191
16.89974 176
16.91985 188
16.93996 197
16.96008 170
16.98019 208
17.00031 195
17.02042 178
17.04053 180
17.06065 170
17.08076 204
17.10087 186
17.12099 173
17.1411 181
17.16121 187
17.18133 199
17.20144 178
17.22156 185
17.24167 181
17.26178 196
17.2819 182
17.30201 173
17.32212 169
17.34224 176
17.36235 189
17.38247 187
17.40258 203
17.42269 166
17.44281 228
17.46292 206
17.48303 212
17.50315 205
17.52326 170
17.54338 181
17.56349 213
17.5836 191
17.60372 200
17.62383 190
17.64394 225
17.66406 219
17.68417 187
17.70428 198
17.7244 210
17.74451 189
17.76463 214
17.78474 185
17.80485 195
17.82497 201
17.84508 204
17.86519 222
17.88531 199
17.90542 176
17.92554 173
17.94565 175
17.96576 230
17.98588 190
18.00599 225
18.0261 187
18.04622 180
18.06633 199
18.08645 201
18.10656 202
18.12667 195
18.14679 197
18.1669 206
18.18701 213
18.20713 205
18.22724 181
18.24735 160
18.26747 155
18.28758 160
18.3077 183
18.32781 215
18.34792 192
18.36804 188
18.38815 196
18.40826 184
18.42838 206
18.44849 178
18.46861 207
18.48872 191
18.50883 173
18.52895 146
18.54906 157
18.56917 182
18.58929 179
18.6094 184
18.62951 192
18.64963 197
18.66974 168
18.68986 194
18.70997 195
18.73008 148
18.7502 176
18.77031 208
18.79042 187
18.81054 192
18.83065 194
18.85077 205
18.87088 178
18.89099 193
18.91111 186
18.93122 201
18.95133 206
18.97145 228
18.99156 196
19.01168 192
19.03179 229
19.0519 192
19.07202 178
19.09213 188
19.11224 187
19.13236 178
19.15247 196
19.17258 170
19.1927 198
19.21281 184
19.23293 186
19.25304 210
19.27315 217
19.29327 234
19.31338 235
19.33349 209
19.35361 216
19.37372 197
19.39384 201
19.41395 192
19.43406 222
19.45418 181
19.47429 185
19.4944 195
19.51452 195
19.53463 183
19.55475 238
19.57486 269
19.59497 231
19.61509 238
19.6352 216
19.65531 247
19.67543 223
19.69554 249
19.71565 245
19.73577 244
19.75588 251
19.776 234
19.79611 267
19.81622 267
19.83634 222
19.85645 296
19.87656 211
19.89668 209
19.91679 217
19.93691 235
19.95702 259
19.97713 224
19.99725 226
20.01736 229
20.03747 210
20.05759 225
20.0777 242
20.09782 245
20.11793 241
20.13804 233
20.15816 233
20.17827 218
20.19838 211
20.2185 232
20.23861 265
20.25872 254
20.27884 244
20.29895 244
20.31907 263
20.33918 238
20.35929 258
20.37941 270
20.39952 260
20.41963 285
20.43975 302
20.45986 277
20.47998 290
20.50009 287
20.5202 328
20.54032 289
20.56043 314
20.58054 336
20.60066 356
20.62077 373
20.64088 407
20.661 399
20.68111 514
20.70123 655
20.72134 790
20.74145 1004
20.76157 1422
20.78168 1955
20.80179 2734
20.82191 3625
20.84202 4449
20.86214 4809
20.88225 4414
20.90236 3700
20.92248 2880
20.94259 2152
20.9627 1492
20.98282 1169
21.00293 946
21.02305 946
21.04316 950
21.06327 769
21.08339 685
21.1035 604
21.12361 496
21.14373 397
21.16384 364
21.18395 336
21.20407 346
21.22418 296
21.2443 342
21.26441 300
21.28452 271
21.30464 276
21.32475 264
21.34486 263
21.36498 225
21.38509 288
21.40521 264
21.42532 271
21.44543 247
21.46555 246
21.48566 257
21.50577 270
21.52589 248
21.546 237
21.56612 255
21.58623 255
21.60634 241
21.62646 273
21.64657 281
21.66668 286
21.6868 253
21.70691 243
21.72702 256
21.74714 256
21.76725 261
21.78737 251
21.80748 274
21.82759 336
21.84771 290
21.86782 358
21.88793 399
21.90805 453
21.92816 551
21.94828 682
21.96839 816
21.9885 1018
22.00862 1106
22.02873 1074
22.04884 1015
22.06896 857
22.08907 713
22.10919 537
22.1293 420
22.14941 349
22.16953 314
22.18964 331
22.20975 303
22.22987 307
22.24998 298
22.27009 349
22.29021 365
22.31032 355
22.33044 337
22.35055 321
22.37066 310
22.39078 303
22.41089 280
22.431 317
22.45112 271
22.47123 275
22.49135 296
22.51146 314
22.53157 318
22.55169 324
22.5718 272
22.59191 279
22.61203 267
22.63214 266
22.65225 317
22.67237 284
22.69248 259
22.7126 278
22.73271 261
22.75282 261
22.77294 259
22.79305 255
22.81316 281
22.83328 310
22.85339 318
22.87351 319
22.89362 340
22.91373 359
22.93385 345
22.95396 388
22.97407 375
22.99419 351
23.0143 395
23.03442 391
23.05453 385
23.07464 400
23.09476 421
23.11487 406
23.13498 377
23.1551 382
23.17521 384
23.19532 448
23.21544 439
23.23555 420
23.25567 399
23.27578 399
23.29589 341
23.31601 360
23.33612 343
23.35623 322
23.37635 349
23.39646 346
23.41658 340
23.43669 373
23.4568 446
23.47692 465
23.49703 514
23.51714 570
23.53726 627
23.55737 692
23.57749 719
23.5976 710
23.61771 659
23.63783 616
23.65794 574
23.67805 510
23.69817 455
23.71828 430
23.73839 383
23.75851 428
23.77862 394
23.79874 407
23.81885 398
23.83896 438
23.85908 512
23.87919 484
23.8993 499
23.91942 550
23.93953 587
23.95965 572
23.97976 608
23.99987 598
24.01999 570
24.0401 509
24.06021 527
24.08033 435
24.10044 461
24.12056 454
24.14067 477
24.16078 463
24.1809 484
24.20101 494
24.22112 525
24.24124 607
24.26135 606
24.28146 623
24.30158 668
24.32169 674
24.34181 604
24.36192 514
24.38203 483
24.40215 475
24.42226 381
24.44237 366
24.46249 406
24.4826 373
24.50272 345
24.52283 350
24.54294 313
24.56306 302
24.58317 281
24.60328 286
24.6234 292
24.64351 346
24.66362 310
24.68374 305
24.70385 284
24.72397 327
24.74408 267
24.76419 322
24.78431 290
24.80442 301
24.82453 272
24.84465 273
24.86476 270
24.88488 260
24.90499 249
24.9251 263
24.94522 286
24.96533 281
24.98544 286
25.00556 286
25.02567 273
25.04579 278
25.0659 271
25.08601 284
25.10613 273
25.12624 279
25.14635 270
25.16647 275
25.18658 233
25.20669 270
25.22681 267
25.24692 263
25.26704 309
25.28715 289
25.30726 324
25.32738 312
25.34749 326
25.3676 363
25.38772 392
25.40783 402
25.42795 408
25.44806 470
25.46817 524
25.48829 574
25.5084 644
25.52851 650
25.54863 662
25.56874 732
25.58886 692
25.60897 665
25.62908 702
25.6492 742
25.66931 674
25.68942 684
25.70954 635
25.72965 574
25.74976 530
25.76988 488
25.78999 455
25.81011 398
25.83022 421
25.85033 391
25.87045 412
25.89056 390
25.91067 395
25.93079 418
25.9509 393
25.97102 406
25.99113 418
26.01124 379
26.03136 412
26.05147 402
26.07158 422
26.0917 422
26.11181 497
26.13193 537
26.15204 517
26.17215 564
26.19227 626
26.21238 639
26.23249 686
26.25261 734
26.27272 785
26.29283 849
26.31295 903
26.33306 947
26.35318 1122
26.37329 1276
26.3934 1420
26.41352 1738
26.43363 1925
26.45374 2249
26.47386 2873
26.49397 3617
26.51409 4821
26.5342 6469
26.55431 8793
26.57443 12072
26.59454 15979
26.61465 19392
26.63477 21049
26.65488 20106
26.67499 16826
26.69511 13186
26.71522 10148
26.73534 7004
26.75545 4403
26.77556 2577
26.79568 1768
26.81579 1454
26.8359 1300
26.85602 1188
26.87613 1138
26.89625 1079
26.91636 952
26.93647 968
26.95659 1009
26.9767 945
26.99681 992
27.01693 937
27.03704 1054
27.05716 1065
27.07727 1051
27.09738 952
27.1175 961
27.13761 786
27.15772 787
27.17784 671
27.19795 621
27.21806 597
27.23818 587
27.25829 595
27.27841 620
27.29852 652
27.31863 720
27.33875 766
27.35886 889
27.37897 941
27.39909 1117
27.4192 1195
27.43932 1299
27.45943 1509
27.47954 1492
27.49966 1393
27.51977 1377
27.53988 1190
27.56 1099
27.58011 935
27.60023 891
27.62034 792
27.64045 816
27.66057 887
27.68068 1021
27.70079 1082
27.72091 1277
27.74102 1331
27.76113 1533
27.78125 1622
27.80136 1624
27.82148 1656
27.84159 1601
27.8617 1662
27.88182 1681
27.90193 1708
27.92204 1750
27.94216 1846
27.96227 1797
27.98239 1690
28.0025 1598
28.02261 1534
28.04273 1177
28.06284 1000
28.08295 922
28.10307 775
28.12318 621
28.1433 592
28.16341 571
28.18352 574
28.20364 602
28.22375 581
28.24386 585
28.26398 623
28.28409 628
28.3042 631
28.32432 579
28.34443 568
28.36455 547
28.38466 506
28.40477 447
28.42489 378
28.445 387
28.46511 369
28.48523 326
28.50534 341
28.52546 326
28.54557 331
28.56568 323
28.5858 344
28.60591 306
28.62602 325
28.64614 295
28.66625 318
28.68636 282
28.70648 266
28.72659 277
28.74671 279
28.76682 267
28.78693 242
28.80705 251
28.82716 251
28.84727 262
28.86739 249
28.8875 266
28.90762 265
28.92773 267
28.94784 263
28.96796 254
28.98807 239
29.00818 244
29.0283 251
29.04841 257
29.06853 262
29.08864 253
29.10875 260
29.12887 265
29.14898 255
29.16909 241
29.18921 269
29.20932 261
29.22943 258
29.24955 239
29.26966 260
29.28978 281
29.30989 296
29.33 299
29.35012 328
29.37023 319
29.39034 342
29.41046 334
29.43057 375
29.45069 366
29.4708 372
29.49091 328
29.51103 327
29.53114 363
29.55125 334
29.57137 357
29.59148 325
29.6116 355
29.63171 348
29.65182 378
29.67194 401
29.69205 369
29.71216 400
29.73228 463
29.75239 492
29.7725 435
29.79262 445
29.81273 455
29.83285 448
29.85296 490
29.87307 455
29.89319 446
29.9133 431
29.93341 411
29.95353 393
29.97364 414
29.99376 383
30.01387 398
30.03398 417
30.0541 418
30.07421 439
30.09432 415
30.11444 464
30.13455 471
30.15467 480
30.17478 462
30.19489 467
30.21501 531
30.23512 534
30.25523 526
30.27535 511
30.29546 523
30.31557 499
30.33569 537
30.3558 568
30.37592 606
30.39603 615
30.41614 647
30.43626 597
30.45637 631
30.47648 570
30.4966 523
30.51671 504
30.53683 481
30.55694 430
30.57705 399
30.59717 356
30.61728 335
30.63739 316
30.65751 394
30.67762 423
30.69773 444
30.71785 436
30.73796 446
30.75808 498
30.77819 453
30.7983 472
30.81842 485
30.83853 475
30.85864 497
30.87876 426
30.89887 397
30.91899 346
30.9391 325
30.95921 303
30.97933 277
30.99944 279
31.01955 262
31.03967 241
31.05978 246
31.0799 237
31.10001 235
31.12012 264
31.14024 246
31.16035 250
31.18046 247
31.20058 294
31.22069 291
31.2408 304
31.26092 269
31.28103 303
31.30115 327
31.32126 339
31.34137 341
31.36149 356
31.3816 314
31.40171 333
31.42183 340
31.44194 333
31.46206 265
31.48217 323
31.50228 279
31.5224 271
31.54251 269
31.56262 252
31.58274 268
31.60285 235
31.62297 234
31.64308 274
31.66319 232
31.68331 242
31.70342 267
31.72353 262
31.74365 225
31.76376 218
31.78387 215
31.80399 212
31.8241 244
31.84422 253
31.86433 251
31.88444 222
31.90456 252
31.92467 258
31.94478 262
31.9649 221
31.98501 249
32.00513 218
32.02524 228
32.04535 283
32.06547 266
32.08558 267
32.10569 268
32.12581 257
32.14592 262
32.16604 275
32.18615 265
32.20626 273
32.22638 280
32.24649 261
32.2666 276
32.28672 295
32.30683 306
32.32694 274
32.34706 308
32.36717 305
32.38729 277
32.4074 273
32.42751 295
32.44763 301
32.46774 291
32.48785 264
32.50797 293
32.52808 265
32.5482 243
32.56831 244
32.58842 259
32.60854 245
32.62865 239
32.64876 248
32.66888 220
32.68899 236
32.7091 235
32.72922 215
32.74933 201
32.76945 221
32.78956 232
32.80967 236
32.82979 230
32.8499 204
32.87001 247
32.89013 261
32.91024 247
32.93036 259
32.95047 282
32.97058 300
32.9907 302
33.01081 254
33.03092 274
33.05104 258
33.07115 257
33.09127 239
33.11138 222
33.13149 244
33.15161 213
33.17172 222
33.19183 190
33.21195 225
33.23206 188
33.25217 201
33.27229 210
33.2924 264
33.31252 184
33.33263 228
33.35274 200
33.37286 179
33.39297 181
33.41308 224
33.4332 216
33.45331 208
33.47343 224
33.49354 200
33.51365 203
33.53377 211
33.55388 224
33.57399 225
33.59411 213
33.61422 187
33.63434 214
33.65445 227
33.67456 190
33.69468 198
33.71479 199
33.7349 194
33.75502 240
33.77513 243
33.79524 278
33.81536 249
33.83547 265
33.85559 276
33.8757 296
33.89581 258
33.91593 236
33.93604 224
33.95615 269
33.97627 256
33.99638 253
34.0165 256
34.03661 243
34.05672 214
34.07684 228
34.09695 250
34.11706 259
34.13718 282
34.15729 282
34.17741 272
34.19752 286
34.21763 283
34.23775 317
34.25786 303
34.27797 293
34.29809 322
34.3182 293
34.33831 303
34.35843 305
34.37854 314
34.39866 325
34.41877 332
34.43888 329
34.459 313
34.47911 314
34.49922 317
34.51934 304
34.53945 324
34.55957 315
34.57968 283
34.59979 339
34.61991 320
34.64002 296
34.66013 273
34.68025 314
34.70036 325
34.72047 297
34.74059 308
34.7607 312
34.78082 317
34.80093 361
34.82104 350
34.84116 309
34.86127 345
34.88138 340
34.9015 352
34.92161 354
34.94173 316
34.96184 417
34.98195 376
35.00207 412
35.02218 406
35.04229 390
35.06241 355
35.08252 405
35.10264 367
35.12275 380
35.14286 401
35.16298 371
35.18309 381
35.2032 354
35.22332 384
35.24343 376
35.26354 392
35.28366 365
35.30377 404
35.32389 385
35.344 380
35.36411 417
35.38423 393
35.40434 383
35.42445 408
35.44457 379
35.46468 391
35.4848 390
35.50491 359
35.52502 425
35.54514 395
35.56525 354
35.58536 350
35.60548 315
35.62559 362
35.64571 317
35.66582 297
35.68593 306
35.70605 274
35.72616 248
35.74627 277
35.76639 255
35.7865 262
35.80661 270
35.82673 265
35.84684 246
35.86696 248
35.88707 248
35.90718 246
35.9273 257
35.94741 245
35.96752 284
35.98764 266
36.00775 258
36.02787 263
36.04798 271
36.06809 258
36.08821 272
36.10832 259
36.12843 262
36.14855 299
36.16866 262
36.18878 298
36.20889 256
36.229 270
36.24912 261
36.26923 292
36.28934 310
36.30946 358
36.32957 315
36.34968 381
36.3698 419
36.38991 501
36.41003 568
36.43014 676
36.45025 868
36.47037 1005
36.49048 1222
36.51059 1366
36.53071 1542
36.55082 1422
36.57094 1320
36.59105 1101
36.61116 851
36.63128 904
36.65139 707
36.6715 614
36.69162 447
36.71173 376
36.73184 329
36.75196 325
36.77207 301
36.79219 286
36.8123 295
36.83241 255
36.85253 298
36.87264 297
36.89275 314
36.91287 301
36.93298 306
36.9531 319
36.97321 312
36.99332 268
37.01344 320
37.03355 284
37.05366 319
37.07378 310
37.09389 278
37.11401 255
37.13412 298
37.15423 252
37.17435 231
37.19446 234
37.21457 234
37.23469 230
37.2548 265
37.27491 243
37.29503 265
37.31514 226
37.33526 233
37.35537 240
37.37548 260
37.3956 271
37.41571 226
37.43582 284
37.45594 245
37.47605 291
37.49617 254
37.51628 247
37.53639 261
37.55651 243
37.57662 244
37.59673 272
37.61685 287
37.63696 283
37.65708 253
37.67719 261
37.6973 261
37.71742 227
37.73753 248
37.75764 232
37.77776 260
37.79787 256
37.81798 241
37.8381 213
37.85821 207
37.87833 201
37.89844 199
37.91855 202
37.93867 186
37.95878 199
37.97889 205
37.99901 197
38.01912 208
38.03924 223
38.05935 182
38.07946 195
38.09958 196
38.11969 221
38.1398 207
38.15992 186
38.18003 217
38.20015 199
38.22026 222
38.24037 230
38.26049 220
38.2806 225
38.30071 256
38.32083 236
38.34094 259
38.36105 229
38.38117 263
38.40128 239
38.4214 261
38.44151 231
38.46162 233
38.48174 244
38.50185 282
38.52196 272
38.54208 265
38.56219 291
38.58231 265
38.60242 236
38.62253 287
38.64265 263
38.66276 240
38.68287 235
38.70299 231
38.7231 230
38.74321 223
38.76333 222
38.78344 241
38.80356 248
38.82367 250
38.84378 205
38.8639 212
38.88401 224
38.90412 207
38.92424 209
38.94435 208
38.96447 274
38.98458 235
39.00469 248
39.02481 248
39.04492 283
39.06503 245
39.08515 232
39.10526 246
39.12538 271
39.14549 256
39.1656 276
39.18572 270
39.20583 333
39.22594 336
39.24606 337
39.26617 378
39.28628 392
39.3064 492
39.32651 532
39.34663 629
39.36674 726
39.38685 925
39.40697 1101
39.42708 1236
39.44719 1482
39.46731 1335
39.48742 1239
39.50754 1057
39.52765 886
39.54776 839
39.56788 783
39.58799 692
39.6081 495
39.62822 337
39.64833 287
39.66845 258
39.68856 263
39.70867 299
39.72879 233
39.7489 216
39.76901 218
39.78913 259
39.80924 232
39.82935 245
39.84947 219
39.86958 238
39.8897 222
39.90981 188
39.92992 206
39.95004 236
39.97015 256
39.99026 219
40.01038 220
40.03049 256
40.05061 246
40.07072 253
40.09083 296
40.11095 276
40.13106 319
40.15117 426
40.17129 437
40.1914 452
40.21152 617
40.23163 645
40.25174 795
40.27186 814
40.29197 765
40.31208 693
40.3322 630
40.35231 580
40.37242 496
40.39254 471
40.41265 421
40.43277 381
40.45288 286
40.47299 265
40.49311 226
40.51322 236
40.53333 230
40.55345 212
40.57356 223
40.59368 219
40.61379 200
40.6339 197
40.65402 205
40.67413 202
40.69424 209
40.71436 216
40.73447 215
40.75458 219
40.7747 228
40.79481 214
40.81493 203
40.83504 194
40.85515 191
40.87527 187
40.89538 220
40.91549 211
40.93561 195
40.95572 191
40.97584 188
40.99595 200
41.01606 197
41.03618 209
41.05629 170
41.0764 209
41.09652 202
41.11663 221
41.13675 208
41.15686 203
41.17697 216
41.19709 211
41.2172 230
41.23731 246
41.25743 220
41.27754 251
41.29765 217
41.31777 204
41.33788 208
41.358 197
41.37811 239
41.39822 209
41.41834 206
41.43845 225
41.45856 220
41.47868 225
41.49879 229
41.51891 230
41.53902 239
41.55913 257
41.57925 241
41.59936 273
41.61947 284
41.63959 312
41.6597 286
41.67982 307
41.69993 384
41.72004 413
41.74016 394
41.76027 417
41.78038 424
41.8005 459
41.82061 398
41.84072 374
41.86084 395
41.88095 302
41.90107 319
41.92118 281
41.94129 263
41.96141 295
41.98152 254
42.00163 217
42.02175 231
42.04186 215
42.06198 251
42.08209 244
42.1022 234
42.12232 248
42.14243 236
42.16254 250
42.18266 275
42.20277 281
42.22289 313
42.243 362
42.26311 380
42.28323 401
42.30334 475
42.32345 583
42.34357 660
42.36368 779
42.38379 892
42.40391 1015
42.42402 1095
42.44414 1142
42.46425 1008
42.48436 886
42.50448 747
42.52459 663
42.5447 657
42.56482 602
42.58493 502
42.60505 392
42.62516 390
42.64527 309
42.66539 357
42.6855 310
42.70561 305
42.72573 322
42.74584 318
42.76595 282
42.78607 290
42.80618 310
42.8263 296
42.84641 292
42.86652 280
42.88664 250
42.90675 259
42.92686 229
42.94698 247
42.96709 246
42.98721 241
43.00732 212
43.02743 238
43.04755 215
43.06766 201
43.08777 227
43.10789 203
43.128 193
43.14812 216
43.16823 230
43.18834 205
43.20846 214
43.22857 212
43.24868 209
43.2688 205
43.28891 203
43.30902 192
43.32914 216
43.34925 197
43.36937 195
43.38948 182
43.40959 216
43.42971 200
43.44982 205
43.46993 192
43.49005 186
43.51016 183
43.53028 195
43.55039 200
43.5705 206
43.59062 172
43.61073 236
43.63084 206
43.65096 191
43.67107 203
43.69119 200
43.7113 187
43.73141 189
43.75153 189
43.77164 188
43.79175 173
43.81187 182
43.83198 185
43.85209 194
43.87221 198
43.89232 149
43.91244 203
43.93255 186
43.95266 194
43.97278 181
43.99289 202
44.013 195
44.03312 196
44.05323 196
44.07335 201
44.09346 198
44.11357 204
44.13369 191
44.1538 215
44.17391 194
44.19403 212
44.21414 187
44.23426 216
44.25437 187
44.27448 183
44.2946 184
44.31471 207
44.33482 194
44.35494 158
44.37505 159
44.39516 175
44.41528 174
44.43539 186
44.45551 185
44.47562 183
44.49573 184
44.51585 191
44.53596 195
44.55607 202
44.57619 207
44.5963 188
44.61642 187
44.63653 188
44.65664 195
44.67676 199
44.69687 194
44.71698 192
44.7371 206
44.75721 211
44.77732 197
44.79744 215
44.81755 220
44.83767 197
44.85778 221
44.87789 195
44.89801 216
44.91812 236
44.93823 186
44.95835 208
44.97846 226
44.99858 229
45.01869 228
45.0388 208
45.05892 186
45.07903 201
45.09914 213
45.11926 211
45.13937 188
45.15949 196
45.1796 200
45.19971 207
45.21983 191
45.23994 212
45.26005 218
45.28017 224
45.30028 214
45.32039 214
45.34051 227
45.36062 221
45.38074 199
45.40085 236
45.42096 232
45.44108 217
45.46119 219
45.4813 261
45.50142 274
45.52153 252
45.54165 292
45.56176 301
45.58187 306
45.60199 350
45.6221 351
45.64221 419
45.66233 437
45.68244 501
45.70256 556
45.72267 677
45.74278 766
45.7629 779
45.78301 727
45.80312 711
45.82324 614
45.84335 478
45.86346 482
45.88358 433
45.90369 457
45.92381 382
45.94392 347
45.96403 298
45.98415 246
46.00426 252
46.02437 219
46.04449 202
46.0646 187
46.08472 225
46.10483 200
46.12494 195
46.14506 234
46.16517 230
46.18528 190
46.2054 200
46.22551 219
46.24563 221
46.26574 209
46.28585 195
46.30597 191
46.32608 184
46.34619 196
46.36631 189
46.38642 185
46.40653 171
46.42665 158
46.44676 180
46.46688 193
46.48699 172
46.5071 156
46.52722 186
46.54733 178
46.56744 185
46.58756 178
46.60767 211
46.62779 178
46.6479 183
46.66801 187
46.68813 188
46.70824 180
46.72835 169
46.74847 179
46.76858 176
46.78869 192
46.80881 186
46.82892 193
46.84904 201
46.86915 187
46.88926 186
46.90938 173
46.92949 192
46.9496 168
46.96972 179
46.98983 229
47.00995 190
47.03006 208
47.05017 209
47.07029 247
47.0904 223
47.11051 256
47.13063 220
47.15074 229
47.17086 215
47.19097 233
47.21108 225
47.2312 206
47.25131 181
47.27142 217
47.29154 188
47.31165 207
47.33176 214
47.35188 227
47.37199 213
47.39211 227
47.41222 212
47.43233 225
47.45245 233
47.47256 224
47.49267 221
47.51279 238
47.5329 204
47.55302 212
47.57313 205
47.59324 198
47.61336 196
47.63347 206
47.65358 197
47.6737 189
47.69381 191
47.71393 180
47.73404 168
47.75415 182
47.77427 174
47.79438 155
47.81449 174
47.83461 195
47.85472 177
47.87483 192
47.89495 202
47.91506 173
47.93518 199
47.95529 196
47.9754 194
47.99552 182
48.01563 175
48.03574 188
48.05586 180
48.07597 221
48.09609 207
48.1162 190
48.13631 183
48.15643 188
48.17654 195
48.19665 198
48.21677 218
48.23688 187
48.257 205
48.27711 224
48.29722 225
48.31734 213
48.33745 210
48.35756 188
48.37768 212
48.39779 188
48.4179 209
48.43802 180
48.45813 230
48.47825 189
48.49836 198
48.51847 184
48.53859 198
48.5587 200
48.57881 199
48.59893 193
48.61904 195
48.63916 205
48.65927 224
48.67938 195
48.6995 217
48.71961 215
48.73972 229
48.75984 210
48.77995 238
48.80006 194
48.82018 236
48.84029 219
48.86041 214
48.88052 211
48.90063 233
48.92075 215
48.94086 238
48.96097 246
48.98109 216
49.0012 243
49.02132 255
49.04143 235
49.06154 260
49.08166 288
49.10177 238
49.12188 289
49.142 282
49.16211 280
49.18223 283
49.20234 283
49.22245 293
49.24257 250
49.26268 211
49.28279 244
49.30291 255
49.32302 236
49.34313 228
49.36325 198
49.38336 224
49.40348 196
49.42359 228
49.4437 232
49.46382 215
49.48393 251
49.50404 202
49.52416 200
49.54427 237
49.56439 238
49.5845 227
49.60461 285
49.62473 219
49.64484 259
49.66495 289
49.68507 325
49.70518 293
49.7253 313
49.74541 290
49.76552 361
49.78564 377
49.80575 394
49.82586 407
49.84598 455
49.86609 449
49.8862 486
49.90632 560
49.92643 550
49.94655 652
49.96666 751
49.98677 805
50.00689 977
50.027 1205
50.04711 1384
50.06723 1703
50.08734 1824
50.10746 1956
50.12757 2016
50.14768 1847
50.1678 1573
50.18791 1271
50.20802 1136
50.22814 1105
50.24825 1171
50.26837 979
50.28848 823
50.30859 659
50.32871 472
50.34882 364
50.36893 359
50.38905 368
50.40916 343
50.42927 324
50.44939 347
50.4695 370
50.48962 414
50.50973 411
50.52984 424
50.54996 414
50.57007 409
50.59018 443
50.6103 414
50.63041 433
50.65053 408
50.67064 386
50.69075 339
50.71087 369
50.73098 359
50.75109 381
50.77121 324
50.79132 351
50.81143 301
50.83155 249
50.85166 279
50.87178 282
50.89189 268
50.912 246
50.93212 251
50.95223 241
50.97234 208
50.99246 220
51.01257 224
51.03269 216
51.0528 220
51.07291 249
51.09303 262
51.11314 244
51.13325 259
51.15337 286
51.17348 260
51.1936 255
51.21371 295
51.23382 257
51.25394 278
51.27405 285
51.29416 279
51.31428 260
51.33439 255
51.3545 275
51.37462 271
51.39473 257
51.41485 230
51.43496 223
51.45507 215
51.47519 214
51.4953 217
51.51541 169
51.53553 196
51.55564 181
51.57576 149
51.59587 180
51.61598 175
51.6361 174
51.65621 187
51.67632 160
51.69644 176
51.71655 182
51.73667 162
51.75678 160
51.77689 184
51.79701 191
51.81712 164
51.83723 151
51.85735 152
51.87746 188
51.89757 176
51.91769 148
51.9378 182
51.95792 180
51.97803 162
51.99814 164
52.01826 189
52.03837 174
52.05848 169
52.0786 195
52.09871 173
52.11883 196
52.13894 187
52.15905 167
52.17917 162
52.19928 182
52.21939 178
52.23951 198
52.25962 199
52.27974 195
52.29985 190
52.31996 191
52.34008 167
52.36019 192
52.3803 220
52.40042 203
52.42053 200
52.44064 191
52.46076 228
52.48087 185
52.50099 198
52.5211 216
52.54121 188
52.56133 208
52.58144 209
52.60155 205
52.62167 216
52.64178 191
52.6619 199
52.68201 215
52.70212 205
52.72224 165
52.74235 187
52.76246 187
52.78258 176
52.80269 195
52.8228 183
52.84292 198
52.86303 172
52.88315 194
52.90326 212
52.92337 191
52.94349 216
52.9636 201
52.98371 217
53.00383 219
53.02394 220
53.04406 208
53.06417 221
53.08428 202
53.1044 233
53.12451 223
53.14462 205
53.16474 221
53.18485 201
53.20497 182
53.22508 223
53.24519 207
53.26531 218
53.28542 195
53.30553 220
53.32565 199
53.34576 193
53.36587 176
53.38599 171
53.4061 183
53.42622 196
53.44633 201
53.46644 200
53.48656 165
53.50667 192
53.52678 179
53.5469 182
53.56701 192
53.58713 179
53.60724 169
53.62735 189
53.64747 173
53.66758 186
53.68769 192
53.70781 194
53.72792 177
53.74804 178
53.76815 177
53.78826 175
53.80838 182
53.82849 179
53.8486 199
53.86872 184
53.88883 196
53.90894 195
53.92906 198
53.94917 198
53.96929 204
53.9894 185
54.00951 181
54.02963 196
54.04974 175
54.06985 173
54.08997 170
54.11008 184
54.1302 175
54.15031 221
54.17042 194
54.19054 171
54.21065 179
54.23076 213
54.25088 216
54.27099 208
54.29111 186
54.31122 185
54.33133 202
54.35145 199
54.37156 194
54.39167 229
54.41179 194
54.4319 205
54.45201 188
54.47213 209
54.49224 219
54.51236 213
54.53247 239
54.55258 196
54.5727 197
54.59281 227
54.61292 238
54.63304 261
54.65315 255
54.67327 285
54.69338 329
54.71349 355
54.73361 399
54.75372 435
54.77383 474
54.79395 613
54.81406 602
54.83417 672
54.85429 663
54.8744 635
54.89452 557
54.91463 475
54.93474 428
54.95486 440
54.97497 448
54.99508 402
55.0152 391
55.03531 376
55.05543 294
55.07554 277
55.09565 262
55.11577 225
55.13588 247
55.15599 239
55.17611 274
55.19622 266
55.21634 316
55.23645 343
55.25656 350
55.27668 404
55.29679 391
55.3169 407
55.33702 399
55.35713 300
55.37724 294
55.39736 304
55.41747 282
55.43759 332
55.4577 319
55.47781 275
55.49793 255
55.51804 229
55.53815 213
55.55827 226
55.57838 220
55.5985 193
55.61861 173
55.63872 190
55.65884 179
55.67895 214
55.69906 189
55.71918 173
55.73929 169
55.75941 190
55.77952 150
55.79963 188
55.81975 175
55.83986 164
55.85997 169
55.88009 168
55.9002 199
55.92031 167
55.94043 197
55.96054 170
55.98066 170
56.00077 181
56.02088 186
56.041 200
56.06111 167
56.08122 162
56.10134 141
56.12145 148
56.14157 153
56.16168 189
56.18179 172
56.20191 152
56.22202 142
56.24213 164
56.26225 180
56.28236 170
56.30248 176
56.32259 179
56.3427 160
56.36282 155
56.38293 165
56.40304 170
56.42316 150
56.44327 171
56.46338 169
56.4835 148
56.50361 159
56.52373 162
56.54384 175
56.56395 147
56.58407 180
56.60418 184
56.62429 171
56.64441 186
56.66452 184
56.68464 169
56.70475 154
56.72486 181
56.74498 178
56.76509 186
56.7852 174
56.80532 184
56.82543 149
56.84554 169
56.86566 161
56.88577 186
56.90589 154
56.926 142
56.94611 154
56.96623 152
56.98634 186
57.00645 136
57.02657 182
57.04668 170
57.0668 169
57.08691 166
57.10702 167
57.12714 144
57.14725 162
57.16736 181
57.18748 193
57.20759 176
57.22771 196
57.24782 201
57.26793 171
57.28805 178
57.30816 185
57.32827 195
57.34839 195
57.3685 202
57.38861 183
57.40873 200
57.42884 197
57.44896 179
57.46907 190
57.48918 198
57.5093 175
57.52941 195
57.54952 191
57.56964 158
57.58975 180
57.60987 191
57.62998 174
57.65009 174
57.67021 177
57.69032 188
57.71043 185
57.73055 163
57.75066 164
57.77078 173
57.79089 179
57.811 172
57.83112 174
57.85123 160
57.87134 175
57.89146 188
57.91157 202
57.93168 185
57.9518 175
57.97191 167
57.99203 155
58.01214 179
58.03225 178
58.05237 182
58.07248 185
58.09259 149
58.11271 155
58.13282 181
58.15294 177
58.17305 159
58.19316 186
58.21328 181
58.23339 177
58.2535 172
58.27362 191
58.29373 187
58.31385 171
58.33396 165
58.35407 188
58.37419 176
58.3943 163
58.41441 169
58.43453 195
58.45464 163
58.47475 176
58.49487 163
58.51498 196
58.5351 184
58.55521 190
58.57532 193
58.59544 188
58.61555 204
58.63566 199
58.65578 211
58.67589 200
58.69601 195
58.71612 201
58.73623 209
58.75635 208
58.77646 200
58.79657 201
58.81669 187
58.8368 169
58.85691 185
58.87703 182
58.89714 154
58.91726 164
58.93737 173
58.95748 181
58.9776 158
58.99771 172
59.01782 166
59.03794 172
59.05805 160
59.07817 154
59.09828 157
59.11839 154
59.13851 184
59.15862 170
59.17873 168
59.19885 152
59.21896 174
59.23908 167
59.25919 177
59.2793 186
59.29942 200
59.31953 201
59.33964 170
59.35976 178
59.37987 189
59.39998 196
59.4201 201
59.44021 186
59.46033 205
59.48044 189
59.50055 202
59.52067 213
59.54078 195
59.56089 223
59.58101 229
59.60112 234
59.62124 260
59.64135 273
59.66146 263
59.68158 285
59.70169 347
59.7218 316
59.74192 434
59.76203 417
59.78215 477
59.80226 623
59.82237 694
59.84249 785
59.8626 982
59.88271 1097
59.90283 1192
59.92294 1237
59.94305 1211
59.96317 1042
59.98328 907
60.0034 732
60.02351 747
60.04362 685
60.06374 687
60.08385 746
60.10396 642
60.12408 589
60.14419 520
60.16431 369
60.18442 264
60.20453 262
60.22465 258
60.24476 256
60.26487 236
60.28499 231
60.3051 208
60.32522 195
60.34533 227
60.36544 225
60.38556 202
60.40567 175
60.42578 196
60.4459 201
60.46601 178
60.48612 174
60.50624 195
60.52635 190
60.54647 174
60.56658 178
60.58669 171
60.60681 183
60.62692 198
60.64703 169
60.66715 200
60.68726 191
60.70738 179
60.72749 199
60.7476 181
60.76772 147
60.78783 168
60.80794 174
60.82806 175
60.84817 182
60.86828 169
60.8884 183
60.90851 164
60.92863 159
60.94874 144
60.96885 191
60.98897 163
61.00908 197
61.02919 178
61.04931 215
61.06942 197
61.08954 186
61.10965 177
61.12976 190
61.14988 203
61.16999 191
61.1901 193
61.21022 168
61.23033 161
61.25045 208
61.27056 198
61.29067 198
61.31079 190
61.3309 178
61.35101 211
61.37113 190
61.39124 178
61.41135 171
61.43147 169
61.45158 194
61.4717 183
61.49181 184
61.51192 177
61.53204 180
61.55215 190
61.57226 208
61.59238 185
61.61249 198
61.63261 180
61.65272 193
61.67283 201
61.69295 217
61.71306 201
61.73317 201
61.75329 189
61.7734 184
61.79352 174
61.81363 194
61.83374 178
61.85386 194
61.87397 196
61.89408 180
61.9142 171
61.93431 168
61.95442 163
61.97454 193
61.99465 200
62.01477 209
62.03488 189
62.05499 183
62.07511 191
62.09522 192
62.11533 176
62.13545 199
62.15556 177
62.17568 213
62.19579 177
62.2159 177
62.23602 170
62.25613 188
62.27624 190
62.29636 181
62.31647 184
62.33659 189
62.3567 169
62.37681 182
62.39693 159
62.41704 172
62.43715 147
62.45727 170
62.47738 169
62.49749 184
62.51761 162
62.53772 162
62.55784 152
62.57795 165
62.59806 180
62.61818 166
62.63829 131
62.6584 179
62.67852 170
62.69863 165
62.71875 160
62.73886 185
62.75897 182
62.77909 187
62.7992 178
62.81931 188
62.83943 172
62.85954 191
62.87965 196
62.89977 197
62.91988 175
62.94 181
62.96011 171
62.98022 185
63.00034 167
63.02045 183
63.04056 202
63.06068 178
63.08079 215
63.10091 192
63.12102 184
63.14113 194
63.16125 188
63.18136 190
63.20147 196
63.22159 194
63.2417 197
63.26182 168
63.28193 166
63.30204 171
63.32216 197
63.34227 170
63.36238 174
63.3825 222
63.40261 192
63.42272 199
63.44284 191
63.46295 215
63.48307 171
63.50318 194
63.52329 188
63.54341 218
63.56352 187
63.58363 189
63.60375 193
63.62386 225
63.64398 232
63.66409 188
63.6842 207
63.70432 223
63.72443 218
63.74454 245
63.76466 216
63.78477 259
63.80489 254
63.825 284
63.84511 266
63.86523 281
63.88534 280
63.90545 303
63.92557 329
63.94568 364
63.96579 392
63.98591 403
64.00602 398
64.02614 418
64.04625 381
64.06636 324
64.08648 304
64.10659 281
64.1267 246
64.14682 295
64.16693 247
64.18705 240
64.20716 286
64.22727 242
64.24739 215
64.2675 189
64.28761 204
64.30773 185
64.32784 192
64.34796 194
64.36807 161
64.38818 176
64.4083 173
64.42841 155
64.44852 169
64.46864 182
64.48875 159
64.50886 150
64.52898 162
64.54909 143
64.56921 173
64.58932 150
64.60943 173
64.62955 176
64.64966 177
64.66977 178
64.68989 177
64.71 164
64.73012 176
64.75023 180
64.77034 178
64.79046 202
64.81057 177
64.83068 174
64.8508 169
64.87091 181
64.89102 175
64.91114 161
64.93125 174
64.95137 201
64.97148 182
64.99159 186
65.01171 156
65.03182 166
65.05193 190
65.07205 212
65.09216 184
65.11228 196
65.13239 191
65.1525 184
65.17262 172
65.19273 186
65.21284 185
65.23296 169
65.25307 186
65.27319 228
65.2933 177
65.31341 183
65.33353 192
65.35364 180
65.37375 183
65.39387 199
65.41398 199
65.43409 171
65.45421 175
65.47432 165
65.49444 177
65.51455 184
65.53466 196
65.55478 186
65.57489 175
65.595 188
65.61512 188
65.63523 181
65.65535 187
65.67546 174
65.69557 181
65.71569 213
65.7358 170
65.75591 204
65.77603 190
65.79614 192
65.81626 157
65.83637 168
65.85648 181
65.8766 147
65.89671 181
65.91682 183
65.93694 174
65.95705 213
65.97716 197
65.99728 169
66.01739 164
66.03751 171
66.05762 165
66.07773 143
66.09785 184
66.11796 175
66.13807 169
66.15819 166
66.1783 173
66.19842 178
66.21853 163
66.23864 172
66.25876 189
66.27887 189
66.29898 174
66.3191 173
66.33921 170
66.35933 155
66.37944 178
66.39955 156
66.41967 167
66.43978 167
66.45989 166
66.48001 166
66.50012 171
66.52023 156
66.54035 165
66.56046 167
66.58058 161
66.60069 149
66.6208 160
66.64092 172
66.66103 165
66.68114 155
66.70126 153
66.72137 148
66.74149 174
66.7616 176
66.78171 168
66.80183 167
66.82194 156
66.84205 171
66.86217 167
66.88228 164
66.90239 182
66.92251 159
66.94262 169
66.96274 173
66.98285 153
67.00296 166
67.02308 184
67.04319 180
67.0633 181
67.08342 205
67.10353 200
67.12365 163
67.14376 185
67.16387 170
67.18399 193
67.2041 195
67.22421 177
67.24433 185
67.26444 187
67.28456 208
67.30467 176
67.32478 187
67.3449 204
67.36501 232
67.38512 214
67.40524 237
67.42535 233
67.44546 243
67.46558 289
67.48569 257
67.50581 297
67.52592 342
67.54603 354
67.56615 393
67.58626 405
67.60637 534
67.62649 537
67.6466 569
67.66672 652
67.68683 714
67.70694 752
67.72706 728
67.74717 676
67.76728 599
67.7874 556
67.80751 523
67.82763 516
67.84774 522
67.86785 551
67.88797 599
67.90808 602
67.92819 611
67.94831 622
67.96842 583
67.98853 594
68.00865 612
68.02876 687
68.04888 793
68.06899 824
68.0891 916
68.10922 984
68.12933 1000
68.14944 1001
68.16956 831
68.18967 775
68.20979 737
68.2299 798
68.25001 872
68.27013 873
68.29024 945
68.31035 874
68.33047 786
68.35058 670
68.3707 590
68.39081 491
68.41092 431
68.43104 438
68.45115 452
68.47126 432
68.49138 381
68.51149 355
68.5316 342
68.55172 289
68.57183 234
68.59195 192
68.61206 221
68.63217 215
68.65229 179
68.6724 184
68.69251 201
68.71263 199
68.73274 191
68.75286 182
68.77297 204
68.79308 169
68.8132 177
68.83331 164
68.85342 168
68.87354 172
68.89365 169
68.91376 157
68.93388 164
68.95399 158
68.97411 164
68.99422 176
69.01433 174
69.03445 155
69.05456 175
69.07467 162
69.09479 155
69.1149 193
69.13502 158
69.15513 185
69.17524 169
69.19536 167
69.21547 157
69.23558 183
69.2557 176
69.27581 172
69.29593 186
69.31604 165
69.33615 178
69.35627 177
69.37638 167
69.39649 210
69.41661 170
69.43672 181
69.45683 183
69.47695 167
69.49706 150
69.51718 163
69.53729 185
69.5574 184
69.57752 175
69.59763 186
69.61774 152
69.63786 161
69.65797 174
69.67809 168
69.6982 157
69.71831 170
69.73843 165
69.75854 161
69.77865 166
69.79877 174
69.81888 177
69.839 160
69.85911 143
69.87922 171
69.89934 163
69.91945 168
69.93956 166
69.95968 157
69.97979 151
69.9999 154
70.02002 183
70.04013 165
70.06025 170
70.08036 144
70.10047 182
70.12059 160
70.1407 156
70.16081 129
70.18093 142
70.20104 156
70.22116 146
70.24127 140
70.26138 163
70.2815 170
70.30161 150
70.32172 134
70.34184 161
70.36195 149
70.38207 142
70.40218 139
70.42229 149
70.44241 143
70.46252 125
70.48263 141
70.50275 138
70.52286 152
70.54297 131
70.56309 156
70.5832 148
70.60332 168
70.62343 151
70.64354 141
70.66366 156
70.68377 144
70.70388 156
70.724 149
70.74411 164
70.76423 154
70.78434 158
70.80445 167
70.82457 159
70.84468 168
70.86479 134
70.88491 141
70.90502 159
70.92513 137
70.94525 165
70.96536 138
70.98548 169
71.00559 139
71.0257 155
71.04582 155
71.06593 145
71.08604 145
71.10616 154
71.12627 132
71.14639 125
71.1665 168
71.18661 130
71.20673 138
71.22684 156
71.24695 129
71.26707 137
71.28718 174
71.3073 161
71.32741 140
71.34752 155
71.36764 153
71.38775 146
71.40786 158
71.42798 161
71.44809 144
71.4682 166
71.48832 156
71.50843 162
71.52855 159
71.54866 143
71.56877 162
71.58889 157
71.609 155
71.62911 158
71.64923 162
71.66934 154
71.68946 144
71.70957 162
71.72968 165
71.7498 140
71.76991 166
71.79002 118
71.81014 157
71.83025 143
71.85037 138
71.87048 131
71.89059 145
71.91071 130
71.93082 137
71.95093 149
71.97105 156
71.99116 140
72.01127 162
72.03139 137
72.0515 167
72.07162 150
72.09173 145
72.11184 144
72.13196 153
72.15207 127
72.17218 167
72.1923 158
72.21241 147
72.23253 163
72.25264 133
72.27275 168
72.29287 139
72.31298 141
72.33309 141
72.35321 139
72.37332 163
72.39344 153
72.41355 144
72.43366 134
72.45378 164
72.47389 155
72.494 150
72.51412 158
72.53423 140
72.55434 138
72.57446 138
72.59457 153
72.61469 133
72.6348 140
72.65491 141
72.67503 130
72.69514 141
72.71525 156
72.73537 156
72.75548 136
72.7756 142
72.79571 135
72.81582 152
72.83594 176
72.85605 135
72.87616 154
72.89628 145
72.91639 156
72.9365 176
72.95662 142
72.97673 166
72.99685 156
73.01696 161
73.03707 145
73.05719 178
73.0773 147
73.09741 193
73.11753 181
73.13764 164
73.15776 151
73.17787 185
73.19798 167
73.2181 161
73.23821 194
73.25832 178
73.27844 221
73.29855 227
73.31867 216
73.33878 280
73.35889 280
73.37901 298
73.39912 305
73.41923 328
73.43935 283
73.45946 320
73.47957 281
73.49969 260
73.5198 246
73.53992 232
73.56003 228
73.58014 218
73.60026 248
73.62037 230
73.64048 259
73.6606 222
73.68071 256
73.70083 209
73.72094 219
73.74105 168
73.76117 177
73.78128 156
73.80139 166
73.82151 182
73.84162 166
73.86174 154
73.88185 159
73.90196 166
73.92208 173
73.94219 158
73.9623 154
73.98242 165
74.00253 161
74.02264 167
74.04276 155
74.06287 149
74.08299 146
74.1031 154
74.12321 152
74.14333 171
74.16344 156
74.18355 156
74.20367 147
74.22378 155
74.2439 139
74.26401 146
74.28412 171
74.30424 173
74.32435 132
74.34446 159
74.36458 158
74.38469 149
74.40481 161
74.42492 154
74.44503 146
74.46515 167
74.48526 155
74.50537 147
74.52549 147
74.5456 158
74.56571 141
74.58583 145
74.60594 134
74.62606 141
74.64617 142
74.66628 160
74.6864 156
74.70651 162
74.72662 154
74.74674 166
74.76685 169
74.78697 172
74.80708 166
74.82719 155
74.84731 166
74.86742 166
74.88753 167
74.90765 155
74.92776 154
74.94787 138
74.96799 153
74.9881 136
75.00822 171
