3.00117 20966.9850033687
3.02128 20381.4331533828
3.0414 19987
3.06151 19266.6217959455
3.08162 18596.4106426148
3.10174 18135.4770976408
3.12185 17884.2259429887
3.14197 17141.1157489948
3.16208 16712.0304926074
3.18219 16659.2858778156
3.20231 15693.640345869
3.22242 15452.8509264939
3.24253 15032.0120988291
3.26265 14365.8528648145
3.28276 14036.9492948447
3.30288 13491.2509531559
3.32299 13376.2464937358
3.3431 12466
3.36322 12137.1380126688
3.38333 12252.4721731479
3.40344 11559.0874504795
3.42356 11390.7882432062
3.44367 10650.0215179686
3.46379 10329.0251634705
3.4839 10208
3.50401 9621.84031313696
3.52413 9530.53811877159
3.54424 8969.20461737927
3.56435 8773.8976498248
3.58447 8234.53580287976
3.60458 8200.92136979909
3.62469 8042.26529930244
3.64481 7339.73749136276
3.66492 7148.96624943669
3.68504 7002.30727962426
3.70515 6615.56742155288
3.72526 6577.45968071405
3.74538 6117.3942509225
3.76549 5931.06092713882
3.7856 5726
3.80572 5473.90072045712
3.82583 5408.60543400128
3.84595 4959.03897624764
3.86606 4760.26535747342
3.88617 4596.25138299223
3.90629 4412.11787255214
3.9264 4165
3.94651 4016.87999250111
3.96663 3764.91306840219
3.98674 3863.02748270005
4.00686 3681.49112979724
4.02697 3478.26831916727
4.04708 3241.35231790277
4.0672 2960
4.08731 3191.01631518608
4.10742 2930.73946089341
4.12754 2792.64382956919
4.14765 2599.04131721384
4.16776 2683.1653132185
4.18788 2425.17005718309
4.20799 2426.00235382079
4.22811 2301.91087267196
4.24822 2142.87310068282
4.26833 2083.0487022727
4.28845 2122.84384845448
4.30856 1973.21992952722
4.32867 1937.07731059275
4.34879 1842.03732748206
4.3689 1834
4.38902 1871.99332058833
4.40913 1821.92189432965
4.42924 1761.77310120614
4.44936 1622.17912380185
4.46947 1591.05571067582
4.48958 1552.96780676266
4.5097 1615
4.52981 1509.96057745504
4.54992 1487.95689089289
4.57004 1416.94714370466
4.59015 1444.94883459102
4.61027 1416.0873747153
4.63038 1353.06187093645
4.65049 1291.03370232344
4.67061 1235.99114167136
4.69072 1258.0398878655
4.71083 1270.94382351044
4.73095 1217.97580352524
4.75106 1233.07368740164
4.77118 1152.03967626674
4.79129 1161.00978453586
4.8114 1100
4.83152 1116.03402051949
4.85163 1116.92752832457
4.87174 1069.03758965485
4.89186 1134.94713150122
4.91197 1070.18278082603
4.93209 967.020087611602
4.9522 983
4.97231 979.994108485023
4.99243 978.014345286361
5.01254 950.773549791445
5.03265 832.971961389983
5.05277 935.963788458634
5.07288 850.056366836239
5.09299 893.962163702542
5.11311 892.94093063926
5.13322 765.011797864071
5.15334 875.035444374375
5.17345 765.797008447817
5.19356 787.905041841764
5.21368 792.030804625654
5.23379 760.003829846474
5.2539 779
5.27402 767.941193157874
5.29413 696.951656639698
5.31425 718.097230257369
5.33436 730.049741589968
5.35447 697.998949710595
5.37459 713.01448187498
5.3947 653
5.41481 670.989949129424
5.43493 629.041787347479
5.45504 696.973565188455
5.47516 600.121572525974
5.49527 619.959218926117
5.51538 614.00611660891
5.5355 605
5.55561 547.999623126623
5.57572 589.002907254222
5.59584 548.983828610118
5.61595 571.060299935707
5.63606 512.011345054392
5.65618 569.956900594688
5.67629 555.019142318706
5.69641 537.005810286845
5.71652 550.979863433277
5.73663 509.982277806234
5.75675 531.019867786963
5.77686 503.081296571924
5.79697 481.987163071753
5.81709 516.976023354916
5.8372 539
5.85732 481.9687682386
5.87743 489.009303084971
5.89754 487.042595264271
5.91766 523.97446611694
5.93777 502.041810193892
5.95788 487.011723794681
5.978 457
5.99811 410.010104877041
6.01823 487.102619644285
6.03834 491.900900911229
6.05845 440.025495509777
6.07857 464.984849625345
6.09868 441.027070021634
6.11879 436.992711253179
6.13891 462.015696291478
6.15902 480.991151203245
6.17913 459.996905462763
6.19925 459.886092330643
6.21936 388.060294244866
6.23948 424.937798328203
6.25959 463.995963145136
6.2797 450
6.29982 428.966555454803
6.31993 403.019901420604
6.34004 453.104701133332
6.36016 474.021929336837
6.38027 450.026643119533
6.40039 444.003809211047
6.4205 435
6.44061 452.008846094006
6.46073 451.964687068992
6.48084 417.949714587717
6.50095 407.024958868957
6.52107 405.95581357515
6.54118 453.967778796838
6.56129 439.029847477622
6.58141 387.003373224505
6.60152 436.02390060738
6.62164 405.908200929631
6.64175 398.116304013089
6.66186 457.970506424849
6.68198 425.025380710221
6.70209 432.993941637346
6.7222 414
6.74232 373.032659412721
6.76243 442.013756872021
6.78255 388.94482588061
6.80266 418.978868903579
6.82277 389.030227292976
6.84289 396.997895348202
6.863 387
6.88311 399.006234423143
6.90323 401.996319011594
6.92334 409.054489043725
6.94346 423.087504281114
6.96357 362.984437083819
6.98368 441.941654788036
7.0038 427
7.02391 399.011745936727
7.04402 431.973498007066
7.06414 363.955661730474
7.08425 409.876893490421
7.10436 422.997650113732
7.12448 416.03593263025
7.14459 387.980905255931
7.16471 453.998163832098
7.18482 371.928444144658
7.20493 365.036792764978
7.22505 398.128028106873
7.24516 437.029400408664
7.26527 387.038395221471
7.28539 398.998314406997
7.3055 388
7.32562 423.00789916219
7.34573 398.978913265515
7.36584 409.013427655304
7.38596 401.013513859263
7.40607 397.023192034691
7.42618 379.99401125225
7.4463 400
7.46641 374.988903392475
7.48653 376.025339116232
7.50664 383.962933738656
7.52675 356.005787349048
7.54687 390.926904167613
7.56698 415.016526574732
7.58709 379.009117682032
7.60721 394.013362084357
7.62732 404.988876444934
7.64743 390.00866963414
7.66755 420.082443289999
7.68766 430.036777412461
7.70778 407.995392003106
7.72789 432.995610203441
7.748 410
7.76812 396.015670259328
7.78823 424.019367894658
7.80834 403.912644097958
7.82846 366.021945608613
7.84857 389.93076703046
7.86869 422.003302879584
7.8888 393
7.90891 394.984334511089
7.92903 355.033898207873
7.94914 423.050025206346
7.96925 372.178556131242
7.98937 353.917654776346
8.00948 439.945722808051
8.0296 434
8.04971 417.004521197688
8.06982 433.996820396084
8.08994 408.959366966743
8.11005 407.010074411647
8.13016 411.973843637404
8.15028 427.993769029787
8.17039 416.012999420171
8.1905 396
8.21062 401.975011771233
8.23073 371.034425713939
8.25085 432.057671759557
8.27096 397.075179403535
8.29107 401.943320984901
8.31119 436.997182983276
8.3313 420
8.35141 425.993796996119
8.37153 402.003607917485
8.39164 430.029960340303
8.41176 422.999330655293
8.43187 435.002164309037
8.45198 422.994451855226
8.4721 444
8.49221 413.971781704202
8.51232 387.049693095091
8.53244 480.109853873548
8.55255 468.069369908521
8.57266 468.954065238503
8.59278 491.992658714677
8.61289 470.024620924261
8.63301 441.018762400677
8.65312 520.048531856452
8.67323 520.005859480529
8.69335 561.14615494338
8.71346 592.046106779824
8.73357 558.958957084969
8.75369 660.940512194845
8.7738 734
8.79392 751.073788426559
8.81403 895.250294590864
8.83414 1031.1889244831
8.85426 1114.77909965798
8.87437 1264.75890296905
8.89448 1356.03383169437
8.9146 1237
8.93471 1151.92899514312
8.95483 941.693295936511
8.97494 768.633758374696
8.99505 612.115808081885
9.01517 621.107681820458
9.03528 472.083819841009
9.05539 501.974307601849
9.07551 499.980894563968
9.09562 459.976115835578
9.11573 469.062071532852
9.13585 499.944374251318
9.15596 440.077283733741
9.17608 440.998846941666
9.19619 420.012839344696
9.2163 420
9.23642 471.022285541588
9.25653 442.910498245462
9.27664 392.967028722595
9.29676 421.874802208998
9.31687 462.042231193806
9.33699 389.023952289439
9.3571 399
9.37721 405.985900424196
9.39733 364.96939657133
9.41744 378.053017576625
9.43755 384.072057205636
9.45767 359.947462877839
9.47778 428.977375656982
9.4979 397
9.51801 410.991347504666
9.53812 369.000307374223
9.55824 414.050502905251
9.57835 391.917125751822
9.59846 378.994007676394
9.61858 384.002479349655
9.63869 375.002490841805
9.6588 385
9.67892 401.983997488359
9.69903 371.999558435053
9.71915 393.983702883995
9.73926 358.030620229208
9.75937 385.933965164703
9.77949 410.002807308915
9.7996 399
9.81971 430.999471129162
9.83983 396.971288655671
9.85994 410.030420122784
9.88006 402.053234118978
9.90017 377.010790418244
9.92028 385.992523463317
9.9404 384
9.96051 391.007318225731
9.98062 389.961109366482
10.00074 348.025106844643
10.02085 402.932046565392
10.04097 383.025488774864
10.06108 391.992094095065
10.08119 387.0013333948
10.10131 389.998387600501
10.12142 378.99165363874
10.14153 393.068503613823
10.16165 436.99711078718
10.18176 386.123232181664
10.20187 356.986193695667
10.22199 387.984766759938
10.2421 401
10.26222 393.986438560683
10.28233 393.04524417694
10.30244 425.977083402611
10.32256 380.045621627236
10.34267 396.975314533039
10.36278 393.004147317337
10.3829 406
10.40301 425.99734938331
10.42313 402.977852918226
10.44324 394.943818605079
10.46335 365.958021583147
10.48347 406.009280747526
10.50358 355.024516339986
10.52369 392.967382044303
10.54381 424.986201813288
10.56392 367.970439354658
10.58403 389.057964284831
10.60415 414.030669261176
10.62426 417.00848932128
10.64438 402.031145606479
10.66449 370.005697581155
10.6846 384
10.70472 390.982292577088
10.72483 363.982180233047
10.74494 389.119041673906
10.76506 439.999510960648
10.78517 393.073558398202
10.80529 378.993129712038
10.8254 397
10.84551 381.985774149249
10.86563 378.07693905768
10.88574 443.011236842091
10.90585 382.153366985175
10.92597 383.904178878544
10.94608 442.015454772655
10.9662 371
10.98631 391.012465308244
11.00642 384.982376289462
11.02654 374.995647786437
11.04665 373.023487493251
11.06676 376.908587637475
11.08688 435.985790470448
11.10699 395.024283201659
11.1271 387
11.14722 414.972902932307
11.16733 370.035473022201
11.18745 439.011329200371
11.20756 380.023978468012
11.22767 423.006202780968
11.24779 358.018311309374
11.2679 386
11.28801 390.987193904059
11.30813 366.003912669506
11.32824 391.03081272475
11.34836 389.985369454351
11.36847 398.035761753512
11.38858 360.001271131215
11.4087 405
11.42881 415.985022306527
11.44892 390.025486878376
11.46904 438.993565305002
11.48915 385.0681993392
11.50927 402.992476936062
11.52938 373.028472472833
11.54949 382.975445296519
11.56961 427.998025387968
11.58972 384.972521704884
11.60983 395.023318258215
11.62995 399.017609257406
11.65006 418.944662758996
11.67017 439.993327343466
11.69029 422.018174725611
11.7104 406
11.73052 463.00051651342
11.75063 404.932551290082
11.77074 415.072858385755
11.79086 441.981068919738
11.81097 430.044734309675
11.83108 412.976672887491
11.8512 447
11.87131 409.008339949716
11.89143 485.089747208885
11.91154 481.922831800506
11.93165 455.979932322991
11.95177 478.007899679117
11.97188 446.016597660052
11.99199 462.986618699965
12.01211 478.002518171388
12.03222 480.00383604425
12.05234 490.0309458359
12.07245 497.969922495934
12.09256 489.935066611621
12.11268 537.998515716643
12.13279 511.986261025594
12.1529 589
12.17302 580.012799694998
12.19313 630.046146295418
12.21324 615.942565125143
12.23336 600.010585709484
12.25347 602.983031277214
12.27359 621.987177460479
12.2937 644
12.31381 648.009048197975
12.33393 664.972688541899
12.35404 622.9596905456
12.37415 618.102712225925
12.39427 568.964430060932
12.41438 636.000554617471
12.4345 567
12.45461 619.028949557603
12.47472 624.968369570245
12.49484 557.772582083074
12.51495 473.909384350991
12.53506 572.971899323361
12.55518 481.070375774348
12.57529 498.976777314773
12.5954 507
12.61552 454.973806620411
12.63563 468.039711486618
12.65575 475.957242160213
12.67586 445.052956531634
12.69597 426.038836476651
12.71609 407.990177107697
12.7362 447
12.75631 420.989789120383
12.77643 428.022731003332
12.79654 424.943277988068
12.81666 390.029659785847
12.83677 390.024614966857
12.85688 367.985087428311
12.877 411
12.89711 385.98096954857
12.91722 362.989802916358
12.93734 361.008560376504
12.95745 361.032044718313
12.97757 360.929523029939
12.99768 421.99334213159
13.01779 378.011276208992
13.03791 384.986496069029
13.05802 329.987171219293
13.07813 366.032830700791
13.09825 356.006721603286
13.11836 382.964086012471
13.13847 374.031384750722
13.15859 362.996956080965
13.1787 374
13.19882 356.989938542888
13.21893 366.029936796993
13.23904 375.973839004287
13.25916 352.018507314903
13.27927 367.960421273759
13.29938 381.00974479945
13.3195 363
13.33961 377.003307607431
13.35973 372.003872930747
13.37984 386.020056564103
13.39995 390.965316744848
13.42007 400.03579818208
13.44018 354.028609186409
13.46029 359.990614660126
13.48041 372.003609164968
13.50052 379.009076087766
13.52064 380.966598929584
13.54075 358.994749773021
13.56086 367.033060029875
13.58098 338.991397149854
13.60109 370.004546750947
13.6212 324
13.64132 362.052781524111
13.66143 380.96359865899
13.68154 345.992671233443
13.70166 382.910928419931
13.72177 393.051642663349
13.74189 356.992056331508
13.762 397
13.78211 326.981899826084
13.80223 353.046388703401
13.82234 360.02163449285
13.84245 369.065948276235
13.86257 325.014451891855
13.88268 365.944357900716
13.9028 388
13.92291 350.999661983335
13.94302 395.048652407336
13.96314 405.940124168455
13.98325 353.134264424443
14.00336 327.975140237081
14.02348 357.981464740194
14.04359 351.008924163546
14.06371 337.996596335886
14.08382 328.979397790221
14.10393 326.080185006151
14.12405 389.97253975739
14.14416 325.025007695353
14.16427 377.961817161758
14.18439 341.020590194407
14.2045 333
14.22461 335.001602250175
14.24473 349.044963015164
14.26484 364.932815394791
14.28496 315.987712950417
14.30507 376.932270848399
14.32518 361.052151074556
14.3453 318
14.36541 347.030179485953
14.38552 387.979955166898
14.40564 331.949682915414
14.42575 352.959464319439
14.44587 338.032488318912
14.46598 335.980316196757
14.48609 365.986803238725
14.50621 372.992594104941
14.52632 346.97611268004
14.54643 341.022382852
14.56655 368.067535241556
14.58666 371.066792717356
14.60677 332.001411473458
14.62689 363.992045660341
14.647 348
14.66712 356.019945026763
14.68723 366.987733548587
14.70734 343.95359940116
14.72746 332.006668860518
14.74757 329.012051533262
14.76768 327.976459309313
14.7878 365
14.80791 360.995101015
14.82803 349.959822318471
14.84814 330.048776369844
14.86825 373.99829572388
14.88837 329.045267610049
14.90848 346.96074371556
14.92859 371.999281297722
14.94871 355.99096811764
14.96882 351.008186351331
14.98894 363.012485652762
15.00905 354.946611578901
15.02916 344.949228098744
15.04928 373.026405765006
15.06939 309.01347806934
15.0895 338
15.10962 333.98296366495
15.12973 324.999610180508
15.14984 336.048277607041
15.16996 347.061178408059
15.19007 304.991604016312
15.21019 351.988662508475
15.2303 346
15.25041 391.996134527226
15.27053 330.939889041484
15.29064 352.098224863957
15.31075 378.040462807033
15.33087 345.008200724814
15.35098 366.994997155368
15.3711 345
15.39121 352.003951219478
15.41132 347.991717548403
15.43144 341.990761483904
15.45155 335.029799043606
15.47166 330.960947567987
15.49178 364.97689028619
15.51189 372.993270376982
15.53201 393.003301260826
15.55212 373.963026574754
15.57223 342.988056856761
15.59235 352.008263928687
15.61246 344.004564630218
15.63257 350.000201962061
15.65269 338.0075075231
15.6728 331
15.69291 338.000506818058
15.71303 328.979672307308
15.73314 329.052805412484
15.75326 366.957963802228
15.77337 369.982736389483
15.79348 381.025312620379
15.8136 321
15.83371 307.014841472582
15.85382 347.015203404748
15.87394 335.991872903137
15.89405 345.012229629712
15.91417 320.036022180204
15.93428 322.964786221582
15.95439 362.994316662296
15.97451 342.989560251915
15.99462 339.000590578254
16.01473 335.996418706133
16.03485 342.04493541572
16.05496 362.978186536604
16.07508 349.040880961426
16.09519 314.995272516678
16.1153 362
16.13542 359.95784643438
16.15553 325.024637631072
16.17564 382.085036956469
16.19576 383.026934693202
16.21587 376.010108842749
16.23598 362.022242112709
16.2561 334
16.27621 318.004700901406
16.29633 339.010427723011
16.31644 332.008877729792
16.33655 350.972604602802
16.35667 348.000894998932
16.37678 351.008581534668
16.39689 328.012352744529
16.41701 322.010429547256
16.43712 352.012932487196
16.45724 334.93211191405
16.47735 316.038595836333
16.49746 350.960422551191
16.51758 349.993375280633
16.53769 361.008226583651
16.5578 327
16.57792 353.030123005025
16.59803 359.980908008499
16.61814 344.993672946555
16.63826 353.985158228531
16.65837 355.990613338179
16.67849 354.016239563566
16.6986 313
16.71871 349.018010729514
16.73883 354.978711746149
16.75894 346.023565934467
16.77905 368.978247496567
16.79917 354.034187564258
16.81928 335.018971887579
16.8394 333
16.85951 369.989703973141
16.87962 307.971621493912
16.89974 337.071766676742
16.91985 340.049169354316
16.93996 323.992316911308
16.96008 347.972060861635
16.98019 356.010040942155
17.00031 318.98295799892
17.02042 314.031149644115
17.04053 357.034536465198
17.06065 338.877665729615
17.08076 312.917296744115
17.10087 373.022092806157
17.12099 299.011764551014
17.1411 355
17.16121 353.98371873106
17.18133 336.027838909844
17.20144 373.030526513848
17.22156 352.063330037194
17.24167 334.007340294042
17.26178 330.01451291851
17.2819 322
17.30201 362.000619471232
17.32212 328.98864451156
17.34224 363.094787176202
17.36235 388.998512326257
17.38247 372.034790130963
17.40258 363.982441945129
17.42269 390.995225290544
17.44281 381.999021742966
17.46292 373.947534379477
17.48303 302.963775237306
17.50315 341.12762195001
17.52326 367.972842706667
17.54338 356.060996207764
17.56349 306.975740424641
17.5836 421
17.60372 384.941641486111
17.62383 367.017720217701
17.64394 389.046387567879
17.66406 404.982744595358
17.68417 406.010763272668
17.70428 402.985859473251
17.7244 449
17.74451 525.017254907003
17.76463 520.996890828582
17.78474 545.067365542332
17.80485 577.907442164185
17.82497 586.089664987789
17.84508 495.045186041551
17.86519 506.997794302946
17.88531 467.973486683657
17.90542 421.954021356713
17.92554 386.990447998409
17.94565 406.044091180926
17.96576 400.053744587928
17.98588 370.017559488484
18.00599 368.99774889075
18.0261 380
18.04622 405.988337423413
18.06633 354.913588350574
18.08645 323.993679299324
18.10656 347.906764621303
18.12667 385.003134726471
18.14679 361.998068016744
18.1669 394
18.18701 375.992046731233
18.20713 371.976778930637
18.22724 341.9523983365
18.24735 343.932402821246
18.26747 367.014601473379
18.28758 340.996825941835
18.3077 370
18.32781 347.997260574078
18.34792 372.022184129404
18.36804 362.922725065545
18.38815 324.026491865701
18.40826 348.92102432076
18.42838 375.992196105373
18.44849 359.02036370328
18.46861 330.008951985144
18.48872 380.031904670919
18.50883 364.938077829202
18.52895 340.03466888909
18.54906 369.004463328962
18.56917 335.030005562138
18.58929 349.987331882491
18.6094 359
18.62951 339.991933471576
18.64963 341.030934348878
18.66974 374.07051629626
18.68986 386.054768534541
18.70997 345.018631353999
18.73008 368.973956193957
18.7502 369
18.77031 355.006290768787
18.79042 373.984708522435
18.81054 335.983512838055
18.83065 374.872753838345
18.85077 404.984485156245
18.87088 397.026417590487
18.89099 363.014976115615
18.91111 347.999976796448
18.93122 356.009258720777
18.95133 371.047543214471
18.97145 384.876041756378
18.99156 315.000606674225
19.01168 376.972659403062
19.03179 341.015638592131
19.0519 359
19.07202 394.013324279508
19.09213 375.929878827157
19.11224 332.983027112026
19.13236 355.95825157344
19.15247 354.018651131283
19.17258 355.971118584617
19.1927 390
19.21281 373.002506231433
19.23293 394.986013039396
19.25304 361.99836873066
19.27315 397.946713928266
19.29327 376.064031994547
19.31338 350.990757580402
19.33349 380.989769939017
19.35361 379.997759760072
19.37372 379.994509708631
19.39384 375.023052822519
19.41395 395.010761920283
19.43406 378.039402359723
19.45418 371.994059540062
19.47429 392.979683928929
19.4944 421
19.51452 372.988789307093
19.53463 416.078775043317
19.55475 443.024927433554
19.57486 453.958517958334
19.59497 478.978509685448
19.61509 482.995688860179
19.6352 513
19.65531 567.015695332596
19.67543 567.978775814199
19.69554 568.05650866184
19.71565 629.786550572471
19.73577 699.964802424201
19.75588 713.92819676982
19.776 832
19.79611 858.01304049341
19.81622 915.060561176143
19.83634 971.137974537615
19.85645 1047.85115477152
19.87656 1090.8997339966
19.89668 1114.06306008309
19.91679 975.071839765232
19.93691 886.980100905328
19.95702 861.965571389561
19.97713 783.804763518623
19.99725 663.909997358338
20.01736 698.958423337572
20.03747 656.106322376722
20.05759 597.020798640649
20.0777 580
20.09782 600.009108910525
20.11793 603.032718265718
20.13804 627.974598068696
20.15816 592.007303661593
20.17827 618.998973206746
20.19838 585.019722341434
20.2185 593
20.23861 583.005924148188
20.25872 608.999942861603
20.27884 588.00641530316
20.29895 611.017020074873
20.31907 569.048875179752
20.33918 566.994308671184
20.35929 569.993613543348
20.37941 584.998450063456
20.39952 578.023484484333
20.41963 621.025134891855
20.43975 601.952143955181
20.45986 591.058837222166
20.47998 561.982293575227
20.50009 617.980526474949
20.5202 614
20.54032 600.9832116771
20.56043 591.025102293373
20.58054 643.151021367754
20.60066 705.952383844819
20.62077 693.033348052133
20.64088 695.964750386998
20.661 752
20.68111 790.00830995599
20.70123 813.087737354989
20.72134 917.257809594213
20.74145 1067.5378965406
20.76157 1328.46161006495
20.78168 1765.53780993706
20.80179 2270.69796465376
20.82191 2915.27548348041
20.84202 3317.3139174799
20.86214 3555.20648526689
20.88225 3442.11760141403
20.90236 2902.2746028511
20.92248 2252.64566867226
20.94259 1615.30941959844
20.9627 1072
20.98282 821.857354593486
21.00293 731.936041013499
21.02305 697.858047888345
21.04316 635.03850139846
21.06327 650.01328368297
21.08339 593.035202123029
21.1035 560
21.12361 609.015266950667
21.14373 586.904588149505
21.16384 545.065780185188
21.18395 616.946968783114
21.20407 576.038195766626
21.22418 579.032897682919
21.2443 533
21.26441 605.998834750275
21.28452 516.93234599215
21.30464 516.009184584862
21.32475 515.884944888498
21.34486 586.954182169262
21.36498 554.023582174519
21.38509 558.007585172498
21.40521 517.988443480015
21.42532 540.054058296778
21.44543 584.005845186027
21.46555 554.9370897469
21.48566 557.961619032266
21.50577 577.97433388946
21.52589 583.006482790291
21.546 570
21.56612 600.019974519299
21.58623 611.047224935234
21.60634 644.976992081191
21.62646 594.071595198066
21.64657 600.96440448772
21.66668 603.032293280352
21.6868 547
21.70691 521.004894150358
21.72702 544.007481666514
21.74714 529.974086639677
21.76725 523.045353958465
21.78737 483.081709155151
21.80748 450.978858478725
21.82759 504.982353836821
21.84771 498.990517727021
21.86782 495.010794384703
21.88793 499.968152145392
21.90805 457.908749925093
21.92816 455.928156650731
21.94828 500.978788756601
21.96839 485.017029486894
21.9885 449
22.00862 437.051453203807
22.02873 500.984563722613
22.04884 436.978340840017
22.06896 491.947187379152
22.08907 465.017212130164
22.10919 482.005288139666
22.1293 446
22.14941 486.017057744228
22.16953 485.978607001474
22.18964 475.986183613001
22.20975 467.036628846994
22.22987 456.986601903974
22.24998 476.991366791412
22.27009 471.999308984694
22.29021 478.995885967512
22.31032 457.989688238217
22.33044 466.021520964241
22.35055 458.925295971207
22.37066 433.973383086441
22.39078 484.945621628074
22.41089 516.991539303365
22.431 505
22.45112 431.978734871987
22.47123 475.087338387467
22.49135 501.99290719361
22.51146 482.05176704201
22.53157 480.934300330805
22.55169 521.016611980273
22.5718 447
22.59191 507.020145469269
22.61203 473.897139476747
22.63214 421.960642692772
22.65225 424.004448885838
22.67237 422.955150177736
22.69248 465.992655396003
22.7126 456
22.73271 526.006943351868
22.75282 491.009313649567
22.77294 553.05939750328
22.79305 533.999734783037
22.81316 563.994996328222
22.83328 556.941139875709
22.85339 653.984797431486
22.87351 608.987498874856
22.89362 646.045992420191
22.91373 644.922447810816
22.93385 600.058634502633
22.95396 650.054025278679
22.97407 562.043479886395
22.99419 597.007936224847
23.0143 507
23.03442 496.000983361748
23.05453 477.971526386064
23.07464 476.030686107159
23.09476 491.007311439595
23.11487 465.050465781977
23.13498 444.999076877434
23.1551 450
23.17521 431.008539647106
23.19532 475.021335377276
23.21544 452.926060357862
23.23555 427.041014994205
23.25567 421.984398729274
23.27578 433.007384137789
23.29589 419.993372017676
23.31601 465.0248968718
23.33612 479.966540623581
23.35623 424.946709943489
23.37635 443.163788465676
23.39646 505.97039541293
23.41658 460.074535213227
23.43669 411.000053741915
23.4568 435
23.47692 407.990405750323
23.49703 431.039675760758
23.51714 456.094153836715
23.53726 500.018274829864
23.55737 459.002986505905
23.57749 492.003585990926
23.5976 435
23.61771 466.046616947547
23.63783 556.043630544027
23.65794 519.902035107194
23.67805 501.98546123992
23.69817 514.983388954476
23.71828 530.963555856914
23.73839 569.996383497267
23.75851 557.006182627243
23.77862 619.089754515454
23.79874 673.955393372449
23.81885 626.04954017241
23.83896 697.970993322262
23.85908 623.087023266391
23.87919 592.989895513624
23.8993 614
23.91942 564.979582371425
23.93953 571.965998039463
23.95965 528.001203309998
23.97976 570.964564425082
23.99987 555.981985167026
24.01999 592.001676803551
24.0401 560
24.06021 609.000204697143
24.08033 571.026608548905
24.10044 649.097252821538
24.12056 621.125436794094
24.14067 577.018873513577
24.16078 579.012555078539
24.1809 546
24.20101 532.996893646552
24.22112 522.98580890951
24.24124 508.98267031253
24.26135 496.078617270971
24.28146 452.070757362719
24.30158 438.997346374347
24.32169 448.992143111127
24.34181 461.000067916942
24.36192 463.025537307552
24.38203 493.994422095915
24.40215 461.965281442482
24.42226 483.94132078751
24.44237 500.980746882706
24.46249 508.004505311911
24.4826 494
24.50272 490.948758114187
24.52283 423.990242894579
24.54294 483.107898670234
24.56306 496.983334325078
24.58317 512.997175399301
24.60328 489.039584879052
24.6234 472
24.64351 532.015665133041
24.66362 529.010581234137
24.68374 559.014032664472
24.70385 544.977439683086
24.72397 580.966421180278
24.74408 572.017829915648
24.76419 574.984484016889
24.78431 613.007990657034
24.80442 614.021398285341
24.82453 636.955156821069
24.84465 562.863916797255
24.86476 573.880818736913
24.88488 624.998818973115
24.90499 589.009638622535
24.9251 610
24.94522 630.017226810628
24.96533 625.92149376723
24.98544 561.977851897642
25.00556 603.938553729838
25.02567 584.069467149817
25.04579 552.99878964404
25.0659 576
25.08601 562.988403859744
25.10613 534.936557993839
25.12624 495.984692380147
25.14635 513.974506897904
25.16647 517.951257597899
25.18658 566.98216670808
25.20669 531.032401730931
25.22681 485.99985513334
25.24692 517.024266569482
25.26704 517.997281898786
25.28715 526.020290854555
25.30726 530.984797741353
25.32738 541.990874187293
25.34749 563.972806006853
25.3676 616
25.38772 562.966202286791
25.40783 595.118142839907
25.42795 680.170398592897
25.44806 714.987622264943
25.46817 721.952237421742
25.48829 771.981815334806
25.5084 764
25.52851 708.99167677514
25.54863 718.976342824352
25.56874 666.908056662244
25.58886 660.946823494776
25.60897 662.112513635298
25.62908 554.045404066747
25.6492 592
25.66931 573.957986389075
25.68942 496.002324854778
25.70954 568.114397163209
25.72965 563.078022608339
25.74976 538.044164296281
25.76988 525.990960342115
25.78999 555.980234924545
25.81011 574.989525072679
25.83022 531.972562922991
25.85033 532.003728711952
25.87045 523.9839125191
25.89056 534.93593820876
25.91067 565.994658449011
25.93079 542.01256114173
25.9509 542
25.97102 549.947621738179
25.99113 478.993928156037
26.01124 556.17432162614
26.03136 585.056895082646
26.05147 545.01005463881
26.07158 572.98086174628
26.0917 578
26.11181 614.995621654737
26.13193 572.986955031678
26.15204 622.129859768073
26.17215 636.15710907978
26.19227 571.944290539784
26.21238 694.910401297072
26.23249 693.017028341172
26.25261 704.036814626662
26.27272 787.020149972266
26.29283 758.009978041959
26.31295 812.07051885235
26.33306 805.953202362336
26.35318 884.904302442095
26.37329 964.965830390134
26.3934 1028
26.41352 1107.12423524507
26.43363 1279.29212243048
26.45374 1521.66587589416
26.47386 1915.26046773844
26.49397 2386.84493276981
26.51409 3420.48004396287
26.5342 4472
26.55431 6235.0968791869
26.57443 8771.13398789583
26.59454 11625.7217488371
26.61465 14192.0660445267
26.63477 15284.7711105718
26.65488 14551.5216083802
26.67499 12362.394998466
26.69511 9490.79269277589
26.71522 7522.01129524827
26.73534 5311.80597077047
26.75545 3528.15863625123
26.77556 2261.71970626086
26.79568 1785.22145662778
26.81579 1620.08311897198
26.8359 1449
26.85602 1376.90709101772
26.87613 1251.84987820803
26.89625 1177.74848676116
26.91636 1042.2454941896
26.93647 933.207002560981
26.95659 789.040106138455
26.9767 776
26.99681 737.983879413342
27.01693 699.867990059981
27.03704 591.896322862135
27.05716 615.910849957865
27.07727 611.104429932009
27.09738 519.055196000207
27.1175 531
27.13761 563.992013842463
27.15772 523.991581700003
27.17784 560.075860814227
27.19795 567.037623943552
27.21806 546.039316539436
27.23818 535.001883160095
27.25829 525.017764168094
27.27841 484.997427864234
27.29852 523.05028501885
27.31863 547.987953088976
27.33875 533.028952441946
27.35886 562.987190450419
27.37897 536.04258828422
27.39909 554.958404100416
27.4192 639
27.43932 557.914272693342
27.45943 528.013512499488
27.47954 542.004156309755
27.49966 531.016583903296
27.51977 524.033812180964
27.53988 495.008892996175
27.56 521
27.58011 543.97948728055
27.60023 488.024909811233
27.62034 550.992073061208
27.64045 484.031054181893
27.66057 550.919606444926
27.68068 539.03759281968
27.70079 526.987394863638
27.72091 574.020551048286
27.74102 609.055114429681
27.76113 669.033109745355
27.78125 651.96156710919
27.80136 671.90374694023
27.82148 706.016108677349
27.84159 671.991726138938
27.8617 745
27.88182 754.96638318198
27.90193 715.972491332629
27.92204 701.89770363064
27.94216 630.066155486524
27.96227 638.010289874168
27.98239 590.029332747338
28.0025 544
28.02261 515.99690329696
28.04273 506.929933782643
28.06284 445.967738421743
28.08295 479.923819091971
28.10307 482.993063298817
28.12318 491.016126339122
28.1433 465
28.16341 497.00440846825
28.18352 460.94634974476
28.20364 422.969895173365
28.22375 425.016554561654
28.24386 425.01087266171
28.26398 410.029639493373
28.28409 383.999165672071
28.3042 411
28.32432 422.008277432237
28.34443 427.987652137846
28.36455 415.009257382949
28.38466 434.971553537268
28.40477 433.010491117408
28.42489 420.015495232092
28.445 392
28.46511 441.029603723347
28.48523 469.980905768261
28.50534 437.965053209461
28.52546 451.942496452002
28.54557 476.971816004785
28.56568 480.020243547088
28.5858 449
28.60591 440.994448328498
28.62602 424.994019716334
28.64614 425.980560851352
28.66625 408.014403881081
28.68636 418.976101918845
28.70648 426.985299153844
28.72659 435.011502063864
28.74671 384.976025051511
28.76682 377.04181624148
28.78693 436.049610592799
28.80705 427.94453079951
28.82716 417.001865323762
28.84727 424.974324089789
28.86739 427.018863634228
28.8875 382
28.90762 427.015472126416
28.92773 397.970043844735
28.94784 402.985889554502
28.96796 387.963275761861
28.98807 435.9518375769
29.00818 429.024197047554
29.0283 410
29.04841 402.99901015246
29.06853 398.981894081928
29.08864 381.975041030749
29.10875 388.920055038094
29.12887 425.976371414836
29.14898 411.029113798142
29.16909 397.991419949798
29.18921 425.001072595635
29.20932 401.986102726252
29.22943 413.026621576384
29.24955 416.969028183049
29.26966 403.990096778106
29.28978 420.995403304072
29.30989 404.01163450978
29.33 386
29.35012 378.009596751995
29.37023 401.033682289914
29.39034 403.95615644837
29.41046 382.976851971956
29.43057 411.004950573595
29.45069 377.007986382229
29.4708 403
29.49091 427.997485957935
29.51103 400.956183414834
29.53114 394.041052431822
29.55125 430.909309689196
29.57137 441.038495000855
29.59148 410.993090705496
29.6116 451
29.63171 442.989000350066
29.65182 451.060451911297
29.67194 525.050101341131
29.69205 508.022316679835
29.71216 546.990447464431
29.73228 518.99534737116
29.75239 575.9684973483
29.7725 608
29.79262 612.008574673037
29.81273 648.114391892899
29.83285 720.022004332117
29.85296 687.98469514274
29.87307 747.933830080977
29.89319 743.009838505717
29.9133 730
29.93341 705.992718436592
29.95353 688.932323184725
29.97364 625.912055689556
29.99376 596.111893185012
30.01387 531.022849855132
30.03398 558.993992229976
30.0541 508
30.07421 454.996372040102
30.09432 486.040735910767
30.11444 502.97497313456
30.13455 466.124882311555
30.15467 437.971981608888
30.17478 470.01313849502
30.19489 417.014275433415
30.21501 438.015866735962
30.23512 436.961177023763
30.25523 392.98372704779
30.27535 421.08693357891
30.29546 432.023929509283
30.31557 415.007540852866
30.33569 422.997455501411
30.3558 421
30.37592 418.972630170569
30.39603 388.012501390393
30.41614 424.018478638937
30.43626 398.030571093589
30.45637 409.984676958642
30.47648 395.034445711863
30.4966 371
30.51671 403.006653977145
30.53683 398.02413429499
30.55694 419.946412888782
30.57705 363.032640620144
30.59717 406.939449601335
30.61728 412.002074580796
30.63739 416.002590248603
30.65751 411.009931729664
30.67762 430.970515116941
30.69773 381.012538800906
30.71785 443.080763729523
30.73796 412.090012306839
30.75808 395.992519267666
30.77819 414.988050245516
30.7983 424
30.81842 391.985537606064
30.83853 408.044674336467
30.85864 420.96367751671
30.87876 388.033166053342
30.89887 396.980296052446
30.91899 404.992607350739
30.9391 416
30.95921 390.001376699294
30.97933 426.05173631272
30.99944 440.016752929578
31.01955 447.013452663202
31.03967 430.025035427938
31.05978 422.999518436444
31.0799 442
31.10001 496.007599106052
31.12012 481.004988626482
31.14024 517.055356933542
31.16035 537.865288807868
31.18046 609.932370200067
31.20058 586.045312608438
31.22069 566.990409837255
31.2408 609
31.26092 610.963559549586
31.28103 567.979254158972
31.30115 568.916308146459
31.32126 515.020406794492
31.34137 543.004349188883
31.36149 501.009824314684
31.3816 504
31.40171 441.991654271232
31.42183 473.013899414158
31.44194 440.952546596749
31.46206 439.031378501181
31.48217 400.053487684047
31.50228 390.985059049476
31.5224 412
31.54251 403.988744731106
31.56262 386.000856484674
31.58274 396.996489520937
31.60285 383.006854735927
31.62297 403.949627734671
31.64308 422.015212295044
31.66319 387.011650474629
31.68331 392.009414563286
31.70342 400.989724806158
31.72353 378.975077389417
31.74365 374.998029275118
31.76376 377.966612237193
31.78387 403.969280979187
31.80399 403.011950125656
31.8241 377
31.84422 391.009652006289
31.86433 402.062090821382
31.88444 460.061861913193
31.90456 451.037749433714
31.92467 456.946755203636
31.94478 491.003879754741
31.9649 456
31.98501 458.999647294923
32.00513 460.056283552928
32.02524 530.125747043234
32.04535 550.051479170596
32.06547 530.966761534134
32.08558 564.026511569719
32.10569 485.026541214091
32.12581 497.019379656583
32.14592 532.038280602865
32.16604 534.842670032243
32.18615 422.87597709734
32.20626 454.923043254845
32.22638 448.029561158996
32.24649 420.012289536626
32.2666 405
32.28672 416.014594379078
32.30683 416.966803362821
32.32694 384.962531337344
32.34706 388.97301453422
32.36717 404.963301099074
32.38729 422.006451741258
32.4074 386
32.42751 387.013204260921
32.44763 424.055967662058
32.46774 433.928941761076
32.48785 381.057901756246
32.50797 387.017622631053
32.52808 370.959615570745
32.5482 434
32.56831 359.983086604628
32.58842 414.085726795018
32.60854 453.942627358865
32.62865 389.112814052207
32.64876 389.962845168546
32.66888 405.978550300421
32.68899 428.993989974167
32.7091 434
32.72922 437.958438195877
32.74933 372.954833323435
32.76945 396.092601567009
32.78956 420.950294859627
32.80967 427.066389426999
32.82979 383.978941227272
32.8499 484
32.87001 450.987471327953
32.89013 464.996802797619
32.91024 440.001033723132
32.93036 482.893372672222
32.95047 524.940718261636
32.97058 558.984502175203
32.9907 572
33.01081 646.044317851236
33.03092 723.057268460602
33.05104 766.080821025114
33.07115 822.803283724001
33.09127 900.929568777441
33.11138 902.030376085496
33.13149 843.049200672085
33.15161 735.964308252512
33.17172 695.945249177616
33.19183 623.933940520348
33.21195 598.853778650392
33.23206 516.087374883335
33.25217 528.962433777811
33.27229 517.026744481152
33.2924 461
33.31252 474.983784579125
33.33263 427.970094383543
33.35274 443.001459459294
33.37286 423.989676078528
33.39297 443.031923937971
33.41308 383.042064740968
33.4332 395
33.45331 434.004891569989
33.47343 410.943640897536
33.49354 394.042419022087
33.51365 424.021304661674
33.53377 390.994201660298
33.55388 426.99825758348
33.57399 384.015755756032
33.59411 392.009892203808
33.61422 398.997078384118
33.63434 401.03757816256
33.65445 415.946403597917
33.67456 386.949817532421
33.69468 437.016167899676
33.71479 355.027803013896
33.7349 363
33.75502 371.032892942396
33.77513 417.018180694535
33.79524 390.955998665656
33.81536 395.973680966648
33.83547 393.036867663169
33.85559 367.000627497124
33.8757 385
33.89581 378.005729558622
33.91593 398.985435096416
33.93604 376.042431527248
33.95615 424.994428784954
33.97627 381.022928390045
33.99638 407.992068901247
34.0165 380
34.03661 391.009215688085
34.05672 397.999230778532
34.07684 392.981165926792
34.09695 381.030385450836
34.11706 384.931553733717
34.13718 418.014556659874
34.15729 378.996840265292
34.17741 425.004992159201
34.19752 391.992364285216
34.21763 411.972870515054
34.23775 363.990415912506
34.25786 414.915618333867
34.27797 418.006036622173
34.29809 425.996629260132
34.3182 422
34.33831 403.98581350911
34.35843 393.05703993688
34.37854 467.129383844687
34.39866 490.015168466851
34.41877 479.993976697031
34.43888 501.972793704666
34.459 524
34.47911 539.004650484068
34.49922 548.015950924166
34.51934 581.104730889986
34.53945 628.960265017691
34.55957 612.035711411776
34.57968 599.010178048428
34.59979 590.000582984228
34.61991 595.001436606961
34.64002 598.013546879261
34.66013 618.017460305456
34.68025 605.908987410879
34.70036 569.023998317172
34.72047 573.020538480432
34.74059 567.968036429488
34.7607 661
34.78082 598.946684153842
34.80093 612.070349949044
34.82104 676.191536499111
34.84116 777.871318282896
34.86127 801.967368904283
34.88138 845.948425095165
34.9015 900
34.92161 958.01245496956
34.94173 978.103165123088
34.96184 1078.11710109352
34.98195 1050.21934580118
35.00207 984.977582513512
35.02218 1025.04720142693
35.04229 894.048633554249
35.06241 869.986722620427
35.08252 803.934638343431
35.10264 766.961340359648
35.12275 741.894058611801
35.14286 692.069024489864
35.16298 662.057764703917
35.18309 589.020881386928
35.2032 587
35.22332 581.014519731493
35.24343 614.032707088711
35.26354 598.903480993246
35.28366 565.943842832288
35.30377 620.001579555158
35.32389 566.011662807074
35.344 586
35.36411 553.006582260849
35.38423 602.003459886361
35.40434 570.055908453743
35.42445 651.913629804872
35.44457 618.034763361474
35.46468 648.950953180284
35.4848 691
35.50491 736.015659781155
35.52502 757.026870720605
35.54514 781.996971911654
35.56525 776.903481218816
35.58536 861.828997979348
35.60548 861.129570201842
35.62559 711.008669628609
35.64571 821.039518495509
35.66582 772.885746166994
35.68593 688.975979811968
35.70605 693.85685504356
35.72616 583.141113906715
35.74627 579.004219434957
35.76639 555.000842379808
35.7865 588
35.80661 601.998205960126
35.82673 577.922060219982
35.84684 535.022809386952
35.86696 583.952120091433
35.88707 564.031395428938
35.90718 573.970155648692
35.9273 584
35.94741 545.019515700611
35.96752 627.011203495969
35.98764 545.837336328475
36.00775 538.871194616069
36.02787 581.03005560402
36.04798 525.012710311762
36.06809 554.004986755209
36.08821 500.990566761445
36.10832 531.016987566357
36.12843 515.993295154377
36.14855 534.024982882878
36.16866 511.100310842479
36.18878 474.985266762486
36.20889 519.991086139265
36.229 510
36.24912 542.976688958006
36.26923 490.022156120994
36.28934 569.08484571142
36.30946 551.998966326252
36.32957 600.923801219294
36.34968 612.024502245675
36.3698 598
36.38991 688.048802049917
36.41003 744.010211219803
36.43014 770.239854789833
36.45025 979.461356173034
36.47037 1128.86866030645
36.49048 1206.88765640523
36.51059 1351.93573288454
36.53071 1419.00318659756
36.55082 1381.93542770725
36.57094 1243.4581296233
36.59105 949.645019764751
36.61116 966.973344266177
36.63128 895.074535191128
36.65139 839.048604764138
36.6715 701
36.69162 615.893943740665
36.71173 502.923027750398
36.73184 517.032730814499
36.75196 509.986473603478
36.77207 530.007029849841
36.79219 497.01328588937
36.8123 499
36.83241 495.974867882213
36.85253 438.000836821089
36.87264 494.085204527542
36.89275 487.061718960236
36.91287 466.04130467112
36.93298 439.008419421573
36.9531 446
36.97321 434.995437809347
36.99332 435.00229512157
37.01344 440.02978618617
37.03355 442.101937471782
37.05366 404.912438569438
37.07378 484.009837554325
37.09389 398.012447466373
37.11401 470.033696343635
37.13412 463.952021990448
37.15423 417.95386404421
37.17435 422.114776363044
37.19446 476.954304144701
37.21457 467.005279624955
37.23469 468.017862639401
37.2548 412
37.27491 449.024859044618
37.29503 462.9563588659
37.31514 422.977736522933
37.33526 455.895251480684
37.35537 479.047133432593
37.37548 441.968135714981
37.3956 509
37.41571 427.97700225035
37.43582 460.04487860449
37.45594 479.037271099529
37.47605 507.941226748112
37.49617 513.017152586649
37.51628 495.016447526837
37.53639 485.003186582457
37.55651 496.022469879013
37.57662 536.981825409678
37.59673 482.983057818499
37.61685 523.054879052627
37.63696 500.051506352706
37.65708 505.969692882777
37.67719 544.980643939871
37.6973 568
37.71742 564.018379628005
37.73753 587.979505076672
37.75764 531.880775757378
37.77776 503.996583811616
37.79787 525.947108416202
37.81798 548.011449065296
37.8381 509
37.85821 494.005177403284
37.87833 507.99339242821
37.89844 478.924551844345
37.91855 465.925175227187
37.93867 499.033332023217
37.95878 434.036141518753
37.97889 444.997302405352
37.99901 418.984906273882
38.01912 409.007981277672
38.03924 421.008534955883
38.05935 424.049183040203
38.07946 447.01087428599
38.09958 426.989121994445
38.11969 473.97881989963
38.1398 479
38.15992 458.010285364915
38.18003 482.994005743813
38.20015 450.96145333545
38.22026 468.952302441596
38.24037 474.017027275294
38.26049 470.986186885013
38.2806 512
38.30071 482.975695258019
38.32083 456.019758956822
38.34094 491.040093123641
38.36105 476.083738703286
38.38117 462.954420641145
38.40128 502.010720215154
38.4214 464
38.44151 516.996144842277
38.46162 452.982029328177
38.48174 487.986526978263
38.50185 437.006735888171
38.52196 492.93512012677
38.54208 472.022150041227
38.56219 477.994300127202
38.58231 475.994236187851
38.60242 464.995915073035
38.62253 463.988105804655
38.64265 449.977444736251
38.66276 441.048782459473
38.68287 410.018923115648
38.70299 422.989534172958
38.7231 431
38.74321 412.991553695576
38.76333 415.042528226836
38.78344 429.908446329248
38.80356 360.017891966794
38.82367 417.930603287982
38.84378 415.011717382429
38.8639 421
38.88401 415.988194490085
38.90412 394.004284506409
38.92424 432.108846439896
38.94435 468.996160883051
38.96447 440.05549000739
38.98458 429.969986233671
39.00469 471.993867963612
39.02481 438.973943534788
39.04492 401.987313329042
39.06503 407.011178587521
39.08515 415.054267074398
39.10526 449.932589434093
39.12538 468.995725698773
39.14549 470.994019798254
39.1656 490
39.18572 486.993632974402
39.20583 490.022463747128
39.22594 505.000461025755
39.24606 486.055251406908
39.26617 487.910575583338
39.28628 562.981377668029
39.3064 534
39.32651 604.044768645178
39.34663 680.111075156766
39.36674 783.297537612274
39.38685 944.700096404049
39.40697 1023.86666707461
39.42708 1150.86071787613
39.44719 1250.98420178899
39.46731 1209.95532103593
39.48742 1099.87507683541
39.50754 969.745187912168
39.52765 870.877987802123
39.54776 848.081451731548
39.56788 768.09506349772
39.58799 669.056621683257
39.6081 557
39.62822 491.911913693247
39.64833 412.00188021909
39.66845 479.112111154957
39.68856 461.068934792108
39.70867 430.079894572094
39.72879 379.997047138069
39.7489 432
39.76901 423.991762228431
39.78913 418.987480074735
39.80924 404.986178139315
39.82935 409.977272758147
39.84947 411.017300948576
39.86958 399.99273093091
39.8897 424
39.90981 419.98389799682
39.92992 393.015148303206
39.95004 448.110827892204
39.97015 471.010726186627
39.99026 452.05323817897
40.01038 439.981755703073
40.03049 467.999373017888
40.05061 444.995885631078
40.07072 471.040749302236
40.09083 490.9737107409
40.11095 462.005867146852
40.13106 511.859236124368
40.15117 557.001102061289
40.17129 550.975340104691
40.1914 645
40.21152 668.035906754742
40.23163 751.160588811159
40.25174 840.09850342345
40.27186 846.041456226555
40.29197 820.039337938676
40.31208 775.086253456799
40.3322 671
40.35231 646.99868606583
40.37242 637.985271982125
40.39254 617.949876818925
40.41265 581.136470507556
40.43277 520.072766481733
40.45288 484.041018642008
40.47299 441.011604692222
40.49311 461.032582264513
40.51322 504.953511955192
40.53333 401.916423811519
40.55345 428.100269293551
40.57356 434.018656108614
40.59368 430.994083197228
40.61379 438.001221051792
40.6339 436
40.65402 472.02869312757
40.67413 477.9874939289
40.69424 457.925507474131
40.71436 447.864824697876
40.73447 550.933317204998
40.75458 522.023947494822
40.7747 539
40.79481 528.991565106454
40.81493 527.024456561289
40.83504 522.867339439433
40.85515 445.980887981848
40.87527 525.932551959405
40.89538 498.031946360353
40.91549 498.998903985427
40.93561 485.993680830101
40.95572 476.982715873741
40.97584 445.924597428881
40.99595 436.114719252091
41.01606 491.023280967922
41.03618 422.041413908509
41.05629 435.993508908064
41.0764 413
41.09652 411.062021515701
41.11663 477.975151697096
41.13675 410.001986797724
41.15686 477.973193118411
41.17697 416.055056958924
41.19709 433.99914188389
41.2172 416
41.23731 480.008136047493
41.25743 436.951452899273
41.27754 451.053982351284
41.29765 451.084125778198
41.31777 412.013118102846
41.33788 423.015168444239
41.358 395
41.37811 447.00568935183
41.39822 400.953363242783
41.41834 389.004369877373
41.43845 385.024389549172
41.45856 378.985966823283
41.47868 395.985623391757
41.49879 398.003893895872
41.51891 383.990490423497
41.53902 371.00328911446
41.55913 383.004410927622
41.57925 374.992017061252
41.59936 379.004135429216
41.61947 374.982804383396
41.63959 393.999573636044
41.6597 370
41.67982 372.05261588684
41.69993 436.024648803029
41.72004 393.893673779691
41.74016 383.918046657535
41.76027 426.022508817463
41.78038 377.998426634815
41.8005 428
41.82061 386.983937937016
41.84072 395.015778377737
41.86084 409.069414103046
41.88095 454.93985920673
41.90107 442.04912071004
41.92118 419.997432703277
41.94129 445.98286303358
41.96141 469.00328499788
41.98152 465.999122236196
42.00163 467.990957980741
42.02175 449.942837004907
42.04186 444.942420662107
42.06198 480.002729083663
42.08209 440.01629985512
42.1022 454
42.12232 504.001551272658
42.14243 460.938360805328
42.16254 447.991658063825
42.18266 446.968042440757
42.20277 463.022460586232
42.22289 434.995819675838
42.243 492
42.26311 542.019457509225
42.28323 577.04505334255
42.30334 613.105809862351
42.32345 666.933961966722
42.34357 708.809052303738
42.36368 903.828829179056
42.38379 989.986472761108
42.40391 1026.04250477619
42.42402 1140.08076915263
42.44414 1136.8456023689
42.46425 1017.65813453178
42.48436 897.18126604654
42.50448 831.057246199258
42.52459 782.011868357939
42.5447 764
42.56482 687.934693758957
42.58493 640.913110445859
42.60505 547.697125599546
42.62516 442.100589305389
42.64527 433.029442234492
42.66539 397.002685349328
42.6855 413
42.70561 375.007161893746
42.72573 442.072051579469
42.74584 425.89055716566
42.76595 379.04203630252
42.78607 385.995444686162
42.80618 373.013197769161
42.8263 368
42.84641 373.014583785733
42.86652 403.994788863555
42.88664 367.953176107372
42.90675 370.006216012969
42.92686 357.992646565833
42.94698 381.976617154579
42.96709 383.01128289527
42.98721 357.997665046515
43.00732 373.011465545747
43.02743 369.991838048187
43.04755 366.980977144051
43.06766 367.940495200689
43.08777 397.032830830356
43.10789 337.017140417601
43.128 350
43.14812 353.007277525768
43.16823 370.017958857928
43.18834 360.937146161481
43.20846 332.993031130849
43.22857 360.973379126511
43.24868 357.002706380042
43.2688 365
43.28891 367.006295244179
43.30902 384.001378770949
43.32914 366.963594142914
43.34925 360.000249187834
43.36937 354.030072295883
43.38948 341.973380178263
43.40959 384.997045339088
43.42971 356.997334172233
43.44982 374.985680792149
43.46993 337.004130360336
43.49005 395.158584996848
43.51016 403.118992395209
43.53028 334.007659647551
43.55039 380.98792600777
43.5705 363
43.59062 388.005922367716
43.61073 365.981060821474
43.63084 384.065703616298
43.65096 399.040649407588
43.67107 352.07077124439
43.69119 338.985065277339
43.7113 384
43.73141 362.974699698655
43.75153 322.995937347554
43.77164 358.09370295635
43.79175 384.007121824013
43.81187 363.031185526274
43.83198 348.021452733553
43.85209 327.998924682072
43.87221 354.01534388408
43.89232 371.003394195457
43.91244 363.97103466399
43.93255 355.016973695279
43.95266 368.995554918125
43.97278 376.950138051195
43.99289 437.997944520436
44.013 378
44.03312 367.036659696295
44.05323 414.036095442762
44.07335 410.995535589489
44.09346 410.057343066809
44.11357 371.999727356566
44.13369 396.007096937109
44.1538 339
44.17391 354.028126225889
44.19403 394.975852831211
44.21414 341.943835289811
44.23426 368.89891919692
44.25437 395.023983342779
44.27448 349.045947486717
44.2946 338
44.31471 378.00702523893
44.33482 354.964832958063
44.35494 328.960747967977
44.37505 324.939751487201
44.39516 363.944711543346
44.41528 358.035948324726
44.43539 327.995585020819
44.45551 365.010689625265
44.47562 361.004049244583
44.49573 370.970559123201
44.51585 346.074050834991
44.53596 409.965328516462
44.55607 366.059480445137
44.57619 364.996600554449
44.5963 364
44.61642 370.98535833823
44.63653 340.975051933868
44.65664 348.025387076539
44.67676 354.984885320399
44.69687 357.024239651641
44.71698 333.008458433291
44.7371 340
44.75721 342.019381091717
44.77732 393.004056439791
44.79744 355.973187329322
44.81755 385.928752067434
44.83767 382.034519662332
44.85778 364.999015265252
44.87789 372.005432835372
44.89801 341.986943825063
44.91812 343.028849564654
44.93823 384.054273438527
44.95835 390.923735223118
44.97846 355.00120044445
44.99858 381.993695576407
45.01869 356.010764786118
45.0388 363
45.05892 370.973895134362
45.07903 345.04132789158
45.09914 407.047446480803
45.11926 378.047602290478
45.13937 394.946465275982
45.15949 415.004297895487
45.1796 389
45.19971 397.015708442602
45.21983 435.046178047531
45.23994 444.977139949295
45.26005 424.044311696075
45.28017 438.903236998015
45.30028 504.998826304903
45.32039 451.016505812395
45.34051 488.040036429339
45.36062 540.981247476543
45.38074 495.031358076844
45.40085 563.056071180765
45.42096 528.013999247516
45.44108 572.964679505027
45.46119 562.016367076638
45.4813 541
45.50142 555.011183287811
45.52153 559.013181967831
45.54165 557.906361925457
45.56176 493.110795034707
45.58187 494.892698919877
45.60199 570.999203053422
45.6221 505
45.64221 517.014394469701
45.66233 544.07373691606
45.68244 610.104738689633
45.70256 633.980785977716
45.72267 668.87284624528
45.74278 777.919201931108
45.7629 822
45.78301 853.975121441815
45.80312 732.884188111046
45.82324 679.987811894806
45.84335 670.118446338922
45.86346 597.103451379253
45.88358 591.978917065449
45.90369 595.019349601594
45.92381 528.972901726278
45.94392 506.992927809831
45.96403 491.958036749108
45.98415 459.946564727345
46.00426 448.035114207804
46.02437 429.996564735256
46.04449 449.992910562195
46.0646 435
46.08472 400.013001469163
46.10483 440.01081356344
46.12494 411.98735285
46.14506 431.017612539201
46.16517 386.054044239591
46.18528 397.945778686661
46.2054 436
46.22551 362.984318891511
46.24563 385.007731326703
46.26574 363.020944974102
46.28585 400.998623175448
46.30597 360.032438651884
46.32608 387.953065554192
46.34619 403.018895696909
46.36631 347.992516738844
46.38642 388.053081511161
46.40653 406.967939935452
46.42665 368.938746420017
46.44676 380.916623498404
46.46688 415.005008293118
46.48699 380.01221658364
46.5071 390
46.52722 411.00458805254
46.54733 398.970496728535
46.56744 396.058775491467
46.58756 432.993291378446
46.60767 398.055675151474
46.62779 386.996129754644
46.6479 403
46.66801 408.986935035415
46.68813 374.999916108151
46.70824 399.999524326107
46.72835 374.00471722217
46.74847 386.050964674909
46.76858 330.990265622579
46.78869 402.977298041284
46.80881 382.981984358229
46.82892 378.0242439414
46.84904 399.97960858733
46.86915 357.891111150433
46.88926 347.941459417513
46.90938 382.99874179849
46.92949 358.002142561996
46.9496 382
46.96972 370.991743903447
46.98983 372.990096975402
47.00995 357.989493857594
47.03006 367.983042308324
47.05017 366.008789879497
47.07029 365.995498834414
47.0904 369
47.11051 334.991683629776
47.13063 346.028760236711
47.15074 354.999160888554
47.17086 352.993272675456
47.19097 350.041878737014
47.21108 316.99898608611
47.2312 358
47.25131 387.008893665783
47.27142 378.943940432445
47.29154 318.000901839681
47.31165 369.932059114886
47.33176 347.045422048116
47.35188 345.01107254074
47.37199 328.993353552331
47.39211 370.016209276755
47.41222 371.985268737492
47.43233 358.9904806568
47.45245 363.033339945247
47.47256 378.974912589904
47.49267 379.023864072773
47.51279 356.008719083388
47.5329 353
47.55302 361.000165446359
47.57313 345.955474363892
47.59324 319.992320533505
47.61336 339.946093161515
47.63347 357.986075132141
47.65358 364.989401128181
47.6737 374
47.69381 362.999604247769
47.71393 372.001733705881
47.73404 358.968214035505
47.75415 357.948608431169
47.77427 371.045754639494
47.79438 328.984832264865
47.81449 398.973461157956
47.83461 394.984794059457
47.85472 367.976086681635
47.87483 347.978683565335
47.89495 345.030484665198
47.91506 359.99760091462
47.93518 345.017088929491
47.95529 345.987318650346
47.9754 372
47.99552 347.996002009847
48.01563 369.016568096286
48.03574 362.002940790958
48.05586 367.04563330132
48.07597 330.008503730207
48.09609 356.992334128636
48.1162 352
48.13631 379.005150577662
48.15643 354.936455245516
48.17654 342.097698231671
48.19665 412.950919987759
48.21677 364.093030722185
48.23688 332.013290999618
48.257 333
48.27711 361.004800821423
48.29722 348.986733072083
48.31734 341.97353332297
48.33745 337.076008980802
48.35756 385.954703255455
48.37768 370.02287556412
48.39779 362.001372179855
48.4179 349
48.43802 331.025681353764
48.45813 384.04619755618
48.47825 373.94795982512
48.49836 364.014176720772
48.51847 356.006544551156
48.53859 355.999688087173
48.5587 364
48.57881 385.992963152241
48.59893 351.992065655039
48.61904 381.04125899237
48.63916 366.070483115763
48.65927 350.953777528813
48.67938 398.989834649895
48.6995 369
48.71961 383.006043238851
48.73972 373.984001304922
48.75984 366.002385211619
48.77995 371.986944491716
48.80006 365.050112318466
48.82018 345.982468757159
48.84029 381.997250555972
48.86041 349.986263495696
48.88052 347.000027965369
48.90063 350.041068233495
48.92075 384.00245045536
48.94086 348.074186987431
48.96097 344.953233812287
48.98109 380.994677037837
49.0012 365
49.02132 373.021512216775
49.04143 400.04868906134
49.06154 419.977780961495
49.08166 386.059018759785
49.10177 376.002817998577
49.12188 376.989898371024
49.142 393
49.16211 390.991508565759
49.18223 386.052414549841
49.20234 429.987617038003
49.22245 389.995392101405
49.24257 439.957097368465
49.26268 428.999645621377
49.28279 453.994157782269
49.30291 451.009323879478
49.32302 488.015296701553
49.34313 488.045768632938
49.36325 525.940391684544
49.38336 455.066736873765
49.40348 478.982544116104
49.42359 466.001802406057
49.4437 478
49.46382 448.977067192007
49.48393 447.008057789185
49.50404 444.978966115196
49.52416 428.039616154411
49.54427 412.012815272948
49.56439 407.004382335574
49.5845 398
49.60461 411.006718619241
49.62473 419.010659065839
49.64484 420.975922498031
49.66495 397.060891814781
49.68507 383.005587963449
49.70518 391.975771428208
49.7253 401
49.74541 349.002817077918
49.76552 417.064953786391
49.78564 428.946205998661
49.80575 400.98681398342
49.82586 425.922293309839
49.84598 458.977240240514
49.86609 471.996259121118
49.8862 486
49.90632 528.047975445409
49.92643 558.997005994708
49.94655 549.056464527724
49.96666 625.778452494159
49.98677 735.862634816623
50.00689 832.929518382009
50.027 1016
50.04711 1175.07939997299
50.06723 1382.41587492357
50.08734 1655.33040750457
50.10746 1715.88524322684
50.12757 1771.07461998965
50.14768 1579.26630098779
50.1678 1316
50.18791 1120.93541688546
50.20802 1064.00755425376
50.22814 1084.98321339773
50.24825 1050.03893216688
50.26837 1023.1711370728
50.28848 831.1810741919
50.30859 680.092791614703
50.32871 493.958822202769
50.34882 491.954102251104
50.36893 393.950713294104
50.38905 444.086689883271
50.40916 413.098036154914
50.42927 393.981718876922
50.44939 416.994012486951
50.4695 399
50.48962 361.001530105609
50.50973 400.06337225987
50.52984 410.957108476509
50.54996 379.037788860542
50.57007 382.97938051158
50.59018 387.012239445364
50.6103 374
50.63041 397.004163443879
50.65053 382.977590905723
50.67064 380.001548930072
50.69075 378.007597490788
50.71087 375.005286931936
50.73098 368.012700086712
50.75109 353.005658829364
50.77121 354.008088932885
50.79132 362.976430737347
50.81143 332.018519439487
50.83155 372.003227778234
50.85166 337.005288061509
50.87178 373.984701958927
50.89189 358.996392280192
50.912 405
50.93212 408.948690286233
50.95223 335.926193968768
50.97234 344.10901449929
50.99246 390.015817314325
51.01257 343.039441112844
51.03269 356.99284220037
51.0528 349
51.07291 347.004126139278
51.09303 352.988015449874
51.11314 341.011452159014
51.13325 347.08160773975
51.15337 306.964708861151
51.17348 373.98133820789
51.1936 335
51.21371 367.008749205448
51.23382 346.979954126651
51.25394 342.982204551592
51.27405 328.995046942389
51.29416 352.938374255592
51.31428 368.008811218411
51.33439 338.020101229121
51.3545 313
51.37462 343.033218760362
51.39473 354.980368617381
51.41485 339.017809548893
51.43496 363.977248425796
51.45507 346.04777439495
51.47519 326.997181285837
51.4953 348
51.51541 348.999618555228
51.53553 347.981765784231
51.55564 336.021088305563
51.57576 365.953138838994
51.59587 368.013505100098
51.61598 358.011229123644
51.6361 351
51.65621 349.987302004817
51.67632 317.999876205433
51.69644 349.046138362034
51.71655 351.977135627625
51.73667 363.027104385866
51.75678 326.01426613955
51.77689 348.983406708487
51.79701 362.995962276319
51.81712 339.972213505954
51.83723 320.990821140876
51.85735 326.026442173968
51.87746 334.988989552666
51.89757 328.040057000934
51.91769 307.989574397486
51.9378 349
51.95792 314.976554560736
51.97803 333.060581693164
51.99814 358.986435919693
52.01826 340.978786483498
52.03837 378.963848054101
52.05848 361.047103150521
52.0786 319
52.09871 341.023003982683
52.11883 370.978631246341
52.13894 329.955687114835
52.15905 340.966725937109
52.17917 337.015134572032
52.19928 331.002763349681
52.21939 337.987950337384
52.23951 361.999413702083
52.25962 341.992463168231
52.27974 357.033008137501
52.29985 359.987841195204
52.31996 357.988219405846
52.34008 367.994817539479
52.36019 362.007324107006
52.3803 348
52.40042 343.985958494026
52.42053 329.008532773802
52.44064 352.030664609307
52.46076 353.985004502524
52.48087 371.978642375248
52.50099 373.003837783192
52.5211 357
52.54121 338.008170332956
52.56133 373.01604743214
52.58144 351.964732313521
52.60155 358.955092375999
52.62167 368.009659735986
52.64178 351.01595992026
52.6619 352
52.68201 369.991312243193
52.70212 339.008154084206
52.72224 385.059455039229
52.74235 369.093495281777
52.76246 343.010961498217
52.78258 353.985685420968
52.80269 368.987098112229
52.8228 399
52.84292 399.999671360911
52.86303 407.012712074461
52.88315 414.020545480528
52.90326 408.076321483386
52.92337 368.984704209143
52.94349 413.992580205938
52.9636 371
52.98371 343.013742214176
53.00383 400.060346467961
53.02394 400.968810329041
53.04406 391.009306698943
53.06417 393.979842230281
53.08428 403.013328886594
53.1044 373
53.12451 361.990823174277
53.14462 346.015494500639
53.16474 384.044335293373
53.18485 378.021773719369
53.20497 380.994598742532
53.22508 372.023581688238
53.24519 354.993415230531
53.26531 386.00628889493
53.28542 377.002099962959
53.30553 399.026900239112
53.32565 391.926930072535
53.34576 363.016547522171
53.36587 375.97772848068
53.38599 382.995698910936
53.4061 398
53.42622 400.9794143826
53.44633 369.973392915287
53.46644 381.064093585152
53.48656 414.952970916209
53.50667 425.988294713104
53.52678 426.021850773045
53.5469 390
53.56701 391.014169659262
53.58713 417.996882838574
53.60724 395.989361726342
53.62735 417.942091004489
53.64747 425.001301822926
53.66758 430.980847667324
53.68769 441.01401278324
53.70781 398.998793470484
53.72792 448.058759385804
53.74804 470.964265253691
53.76815 447.023783041436
53.78826 478.992705384558
53.80838 453.006319909532
53.82849 480.986248658155
53.8486 485
53.86872 497.053006590726
53.88883 551.99431563222
53.90894 496.923345776641
53.92906 523.853730838389
53.94917 579.014378339759
53.96929 535.999213863474
53.9894 583
54.00951 542.979325969732
54.02963 525.970212812345
54.04974 508.032559973584
54.06985 546.95709340828
54.08997 518.08278521315
54.11008 487.972407403542
54.1302 532
54.15031 458.970368592534
54.17042 448.000185239283
54.19054 443.021544454901
54.21065 461.011306933484
54.23076 436.027196733904
54.25088 441.997985570823
54.27099 446.98081574115
54.29111 495.001285563706
54.31122 457.984033313745
54.33133 468.975753198714
54.35145 428.984701161151
54.37156 455.002067276547
54.39167 426.99363479216
54.41179 460.999178321317
54.4319 429
54.45201 456.00131068235
54.47213 421.959996652161
54.49224 429.047438547195
54.51236 442.017120780852
54.53247 423.011302187251
54.55258 437.973375678408
54.5727 450
54.59281 425.004140126809
54.61292 461.01821596756
54.63304 458.034545071526
54.65315 491.987418331288
54.67327 463.03384192304
54.69338 475.962655706869
54.71349 509.993310715689
54.73361 514.011329285927
54.75372 564.057280714996
54.77383 617.083508186009
54.79395 679.158394260786
54.81406 732.92716449315
54.83417 768.911761492474
54.85429 828.99266926566
54.8744 791
54.89452 729.896539664239
54.91463 619.932468643309
54.93474 641.036916688215
54.95486 616.080834246496
54.97497 608.928348905113
54.99508 665.004734419159
55.0152 608
55.03531 607.980159970253
55.05543 526.922406813524
55.07554 533.046400839198
55.09565 532.064978483288
55.11577 497.039957823173
55.13588 493.980993883024
55.15599 516.994894359027
55.17611 518.005921878609
55.19622 538.005138912057
55.21634 547.108411134012
55.23645 620.057933994778
55.25656 583.078815039511
55.27668 595.937138352828
55.29679 650.006138022017
55.3169 602
55.33702 646.985824279456
55.35713 554.867325218853
55.37724 522.99634664268
55.39736 531.945898926005
55.41747 561.985144363895
55.43759 536.027255057506
55.4577 495
55.47781 531.003289438991
55.49793 496.956973362352
55.51804 489.971917197086
55.53815 453.114968652609
55.55827 434.94876818243
55.57838 482.004414111825
55.5985 441
55.61861 483.000213632408
55.63872 427.957563847931
55.65884 439.076464284802
55.67895 482.867287519587
55.69906 516.042523864064
55.71918 467.015224513181
55.73929 485.005266601459
55.75941 448.000388169531
55.77952 485.007580352167
55.79963 468.04267533821
55.81975 530.033041698773
55.83986 475.120386356379
55.85997 455.989548666824
55.88009 477.97945453487
55.9002 512
55.92031 472.980453951925
55.94043 467.039576437996
55.96054 494.998630059221
55.98066 459.094287836367
56.00077 442.948529933652
56.02088 491.991945246441
56.041 449
56.06111 427.99718668666
56.08122 426.002204652355
56.10134 443.083346725583
56.12145 468.108724364944
56.14157 386.056637044473
56.16168 407.984963059214
56.18179 393.999217532988
56.20191 419.005733942514
56.22202 400.973341489469
56.24213 390.012984463793
56.26225 404.002658009696
56.28236 394.996064352572
56.30248 409.991037562806
56.32259 411.993524960481
56.3427 423
56.36282 380.982524341751
56.38293 407.066589781744
56.40304 424.942286704164
56.42316 382.00669867018
56.44327 421.949585214289
56.46338 419.020496095758
56.4835 401
56.50361 398.007380372138
56.52373 406.959579018398
56.54384 365.994608423871
56.56395 401.943493531381
56.58407 392.015275594853
56.60418 400.984876526018
56.62429 412.993823212699
56.64441 424.00205580235
56.66452 421.998045451497
56.68464 417.971556025242
56.70475 397.96777352124
56.72486 392.023283105716
56.74498 378.997100317361
56.76509 403.982115461245
56.7852 432
56.80532 423.975117111131
56.82543 399.987699347588
56.84554 400.978259361265
56.86566 382.997879918491
56.88577 398.998807573425
56.90589 384.000547964982
56.926 401
56.94611 393.996386526281
56.96623 390.984280323746
56.98634 380.014643854079
57.00645 399.980166395321
57.02657 395.987088207247
57.04668 416.991712519326
57.0668 388
57.08691 330.998630270576
57.10702 378.046799454623
57.12714 397.02487804828
57.14725 410.002897828899
57.16736 397.015733875861
57.18748 400.994333824521
57.20759 398.005909092596
57.22771 388.001419373274
57.24782 409.033357429818
57.26793 435.006022704978
57.28805 428.017967442204
57.30816 443.017708866125
57.32827 414.020394184203
57.34839 418.005777871221
57.3685 400
57.38861 441.003997599343
57.40873 419.009959972106
57.42884 458.033024490693
57.44896 416.162162358343
57.46907 363.958671036923
57.48918 435.970033044593
57.5093 406
57.52941 419.003161920611
57.54952 395.966500174414
57.56964 380.022677340558
57.58975 398.01474819956
57.60987 379.981661713947
57.62998 420.974584613155
57.65009 415.004646821932
57.67021 411.992444102791
57.69032 381.971177048751
57.71043 370.00766143991
57.73055 383.028674494696
57.75066 384.018437314682
57.77078 364.031311373292
57.79089 343.992449903064
57.811 366
57.83112 321.00923771169
57.85123 380.0426218431
57.87134 354.956375619048
57.89146 360.001703993989
57.91157 346.002315474429
57.93168 360.990111533225
57.9518 358
57.97191 357.994866258385
57.99203 342.997653545359
58.01214 355.015402560193
58.03225 352.005947466776
58.05237 353.006289746889
58.07248 345.998725407604
58.09259 358.991524545164
58.11271 362.990820153201
58.13282 344.01171186182
58.15294 383.06271993828
58.17305 371.865126564046
58.19316 322.988890283769
58.21328 361.99770452074
58.23339 323.007281400864
58.2535 352
58.27362 352.999963380209
58.29373 352.965683236803
58.31385 325.019764114233
58.33396 366.934324836446
58.35407 360.052548894311
58.37419 330.999997541463
58.3943 349
58.41441 335.001769270943
58.43453 363.03839416404
58.45464 374.020750530088
58.47475 373.092708667172
58.49487 324.016622106235
58.51498 358.96071379152
58.5351 373
58.55521 377.006800540732
58.57532 380.969225491992
58.59544 345.027903369157
58.61555 387.017951324183
58.63566 329.065962618778
58.65578 344.986697697288
58.67589 342.989225917571
58.69601 386.011396160731
58.71612 375.98566117013
58.73623 368.975764865566
58.75635 342.95096001937
58.77646 347.936251777045
58.79657 380.991705691045
58.81669 355.016415658753
58.8368 344
58.85691 369.006505832471
58.87703 376.042127711569
58.89714 412.006263456307
58.91726 381.050923896885
58.93737 380.99043164254
58.95748 375.017965298183
58.9776 358
58.99771 358.991315887803
59.01782 332.997929682031
59.03794 363.075520626041
59.05805 382.999879002654
59.07817 372.016986058401
59.09828 370.990590967677
59.11839 381.998255115908
59.13851 372.991311063696
59.15862 365.015311743262
59.17873 404.073212246147
59.19885 430.965850316509
59.21896 390.071448012149
59.23908 383.983407533007
59.25919 396.006423875523
59.2793 373
59.29942 408.04052274871
59.31953 416.950579357714
59.33964 374.985160533639
59.35976 403.952727344776
59.37987 395.041330930546
59.39998 371.011827912926
59.4201 374
59.44021 388.007067200135
59.46033 399.008957559281
59.48044 396.977565623087
59.50055 395.925529771093
59.52067 425.0366840893
59.54078 377.985335653105
59.56089 443.98891817116
59.58101 406.991713822111
59.60112 434.014473461639
59.62124 424.018655933476
59.64135 457.042917434429
59.66146 442.048432421331
59.68158 427.009809277484
59.70169 430.984716294183
59.7218 475
59.74192 491.025576152331
59.76203 543.105131737918
59.78215 616.168175510527
59.80226 663.957339043487
59.82237 682.929985794568
59.84249 794.908655319843
59.8626 996
59.88271 1088.03264617335
59.90283 1166.13452415451
59.92294 1261.1849061223
59.94305 1319.00857475322
59.96317 1212.33786747312
59.98328 943.217098986981
60.0034 829
60.02351 785.974168063905
60.04362 741.99698976028
60.06374 779.086070054413
60.08385 808.924045222731
60.10396 824.061307932709
60.12408 753.074394789487
60.14419 686.041832105287
60.16431 567.928427415509
60.18442 439.921984379372
60.20453 422.029594492176
60.22465 438.990470640934
60.24476 405.10974092717
60.26487 374.951184458234
60.28499 430.000591462844
60.3051 378
60.32522 401.992520705629
60.34533 359.992000065412
60.36544 401.052423454182
60.38556 381.073241189182
60.40567 360.998590781715
60.42578 377.976264620094
60.4459 398
60.46601 407.0023392931
60.48612 401.978658640216
60.50624 372.958295826869
60.52635 378.910077830923
60.54647 407.032403406652
60.56658 368.979083239591
60.58669 437.984930942317
60.60681 419.003975343113
60.62692 452.982974720005
60.64703 386.946501160763
60.66715 402.019524435332
60.68726 385.003121941138
60.70738 406.986673997655
60.72749 393.013905381904
60.7476 397
60.76772 480.014932962021
60.78783 415.892563520736
60.80794 394.030242552668
60.82806 416.97200050371
60.84817 406.05322022551
60.86828 383.970480614924
60.8884 435
60.90851 385.98089838923
60.92863 383.99551937693
60.94874 361.956714871889
60.96885 373.851555660193
60.98897 432.010748650608
61.00908 371.039153165841
61.02919 382.991331544974
61.04931 375.992359341386
61.06942 378.028934543356
61.08954 413.020060233308
61.10965 403.01323357796
61.12976 408.091724925778
61.14988 342.00372351992
61.16999 396.986196909463
61.1901 365
61.21022 362.019836294602
61.23033 387.036484470111
61.25045 390.923229359943
61.27056 363.940430244852
61.29067 429.957841636869
61.31079 394.026112182621
61.3309 375
61.35101 399.000119892577
61.37113 375.97788926698
61.39124 386.040230130759
61.41135 409.911462806156
61.43147 441.992494835513
61.45158 427.004472357645
61.4717 439
61.49181 435.0064801187
61.51192 464.01899022026
61.53204 474.054926561748
61.55215 506.009154129196
61.57226 477.0080478561
61.59238 502.989547169901
61.61249 493.993490105178
61.63261 540.023917934626
61.65272 566.010464988648
61.67283 565.98176940388
61.69295 556.020732464279
61.71306 575.982494820118
61.73317 565.024841319353
61.75329 554.004081986395
61.7734 543
61.79352 523.984490260924
61.81363 513.98795982004
61.83374 503.975819304444
61.85386 493.012323515734
61.87397 500.958184550935
61.89408 518.030805510993
61.9142 454
61.93431 454.009231163343
61.95442 462.997643307993
61.97454 463.035680377964
61.99465 480.045628633154
62.01477 446.988868908638
62.03488 490.97891027676
62.05499 464.020430016987
62.07511 448.007025661574
62.09522 486.050387424023
62.11533 507.945091995171
62.13545 449.970816130962
62.15556 480.994265519045
62.17568 458.972937802864
62.19579 533.976574384939
62.2159 515
62.23602 483.992856622027
62.25613 504.064664340811
62.27624 551.069592401233
62.29636 561.024615033632
62.31647 533.059145721351
62.33659 512.98660325206
62.3567 550
62.37681 493.992522277059
62.39693 529.021557870366
62.41704 503.97392670289
62.43715 516.002575888806
62.45727 494.01882794445
62.47738 488.032394149407
62.49749 445.002003072121
62.51761 474.003236628241
62.53772 445.980951836686
62.55784 442.954479501817
62.57795 402.953723747376
62.59806 417.955648015388
62.61818 416.03137111329
62.63829 383.999021228334
62.6584 413
62.67852 401.99383565163
62.69863 418.037847574847
62.71875 422.919510595326
62.73886 382.007481282337
62.75897 415.960147673661
62.77909 408.012386716691
62.7992 385
62.81931 377.005996349989
62.83943 396.007206107463
62.85954 384.985043219776
62.87965 397.922839852483
62.89977 418.026398973282
62.91988 369.046724765416
62.94 360
62.96011 385.986052967634
62.98022 335.005561181197
63.00034 401.101468442381
63.02045 388.125507023524
63.04056 340.06400433882
63.06068 334.980224659128
63.08079 364.986306362669
63.10091 371.990557571048
63.12102 356.021302721771
63.14113 390.98575995166
63.16125 344.958831945405
63.18136 361.027853284998
63.20147 322.9900911994
63.22159 377.981100135104
63.2417 376
63.26182 387.990442617442
63.28193 361.993868552077
63.30204 385.034357688145
63.32216 385.986162973269
63.34227 391.040536258021
63.36238 361.97026695268
63.3825 422
63.40261 350.968181334426
63.42272 342.015658640863
63.44284 352.007991890547
63.46295 354.982318849185
63.48307 359.0171768
63.50318 340.00593393346
63.52329 364.973503365443
63.54341 396.981984615382
63.56352 330.989535950052
63.58363 385.06365418553
63.60375 372.914347838378
63.62386 362.942204712755
63.64398 398.006600657524
63.66409 358.008605821331
63.6842 391
63.70432 419.984247528241
63.72443 389.003636944128
63.74454 418.000682126631
63.76466 391.989501573185
63.78477 435.951338141962
63.80489 443.98981246725
63.825 483
63.84511 487.001283663277
63.86523 509.06158918051
63.88534 541.994744780639
63.90545 520.986875424088
63.92557 564.924759408188
63.94568 581.026757725101
63.96579 552.989378793896
63.98591 613.018561129121
64.00602 613.009212671463
64.02614 625.929628171136
64.04625 549.857316264139
64.06636 531.039112693861
64.08648 498.019373542499
64.10659 497.00225502541
64.1267 481
64.14682 480.00706812582
64.16693 481.982023463782
64.18705 477.079867681703
64.20716 511.058380668481
64.22727 429.087860979481
64.24739 422.999757231309
64.2675 398
64.28761 379.006053719753
64.30773 400.994747447122
64.32784 377.997400686303
64.34796 396.012523366901
64.36807 366.01426808696
64.38818 392.964875417184
64.4083 395
64.42841 335.986264606397
64.44852 351.023102816399
64.46864 353.977417653456
64.48875 350.94511913847
64.50886 384.96812900735
64.52898 380.995901492377
64.54909 405.984843251052
64.56921 407.977597941093
64.58932 346.972740950632
64.60943 361.020664409829
64.62955 348.944932061521
64.64966 336.000337197677
64.66977 342.992551953701
64.68989 345.994908064315
64.71 363
64.73012 365.993563059547
64.75023 356.990750365163
64.77034 359.020528231201
64.79046 363.033862891999
64.81057 336.016790419922
64.83068 343.995161294312
64.8508 341
64.87091 363.012342148818
64.89102 364.966033392185
64.91114 327.00738285608
64.93125 358.996881741057
64.95137 318.053226105584
64.97148 320.972846296186
64.99159 345.994826728349
65.01171 336.989631290496
65.03182 333.033860478377
65.05193 376.002714936646
65.07205 338.941223506368
65.09216 349.970601894195
65.11228 350.002380689887
65.13239 357.990643589477
65.1525 370
65.17262 343.990741327999
65.19273 355.00779452268
65.21284 344.98270140955
65.23296 344.006779732878
65.25307 343.971112571684
65.27319 368.001079265499
65.2933 346
65.31341 360.999820583272
65.33353 342.995567312207
65.35364 358.006800830937
65.37375 336.078208721337
65.39387 319.987304258602
65.41398 339.99081434862
65.43409 336.997196993473
65.45421 355.006564933577
65.47432 352.98957596799
65.49444 353.045294830248
65.51455 383.023856267667
65.53466 359.085422173395
65.55478 334.981797068178
65.57489 375.989787179414
65.595 355
65.61512 328.999916869209
65.63523 354.056459156225
65.65535 369.929472713915
65.67546 333.969021411836
65.69557 393.942899562548
65.71569 389.001648645205
65.7358 403
65.75591 379.98415362859
65.77603 358.990163824883
65.79614 366.032502810277
65.81626 377.009572718783
65.83637 361.018201727397
65.85648 355.012388349802
65.8766 344
65.89671 367.002123182695
65.91682 356.007800679407
65.93694 387.048731594329
65.95705 386.039353440722
65.97716 367.042270574815
65.99728 357.983317872186
66.01739 380.003454618502
66.03751 337.975674938846
66.05762 328.046432602562
66.07773 382.996054254927
66.09785 337.983939688648
66.11796 375.9850358017
66.13807 333.057710869494
66.15819 331.992535093365
66.1783 343
66.19842 347.998710448456
66.21853 339.981453245135
66.23864 335.023945150212
66.25876 356.969965572816
66.27887 362.983037842446
66.29898 377.997605773956
66.3191 363
66.33921 344.991163309635
66.35933 337.020891502566
66.37944 361.019699735451
66.39955 350.036137074687
66.41967 336.039898930628
66.43978 307.007430542875
66.45989 322.99130768621
66.48001 331.004767863906
66.50012 344.007179338294
66.52023 346.009736783066
66.54035 360.03667983117
66.56046 357.064452675846
66.58058 334.960354596364
66.60069 394.008095697254
66.6208 314
66.64092 358.05813110863
66.66103 376.988974998469
66.68114 356.936261037987
66.70126 324.045973620414
66.72137 316.99278874543
66.74149 334.981752408249
66.7616 366
66.78171 335.992410262158
66.80183 350.026417595298
66.82194 345.948876387567
66.84205 313.063685865866
66.86217 314.947197535798
66.88228 351.99912820463
66.90239 324.005809615324
66.92251 337.000378077612
66.94262 323.005535185094
66.96274 349.026042799223
66.98285 339.982193116188
67.00296 336.046318004654
67.02308 309.989621899727
67.04319 354.980915054612
67.0633 360
67.08342 347.996108975062
67.10353 355.021728499069
67.12365 364.991697779039
67.14376 351.026124460067
67.16387 346.997074178458
67.18399 344.007833162481
67.2041 335
67.22421 374.002733699004
67.24433 353.010339801329
67.26444 385.000135215495
67.28456 344.067345596915
67.30467 353.936516137328
67.32478 393.986549541066
67.3449 375
67.36501 358.006118342876
67.38512 376.990313140494
67.40524 350.005096108892
67.42535 380.971736443014
67.44546 363.018064284578
67.46558 382.969406212274
67.48569 400.999981201402
67.50581 402.013025009683
67.52592 441.015214951691
67.54603 436.021685486105
67.56615 475.071577412803
67.58626 482.977974796163
67.60637 512.939341833824
67.62649 556.975971385876
67.6466 603
67.66672 663.124563092001
67.68683 810.125828637229
67.70694 807.944060973408
67.72706 788.074828793876
67.74717 707.184964643474
67.76728 597.039282024339
67.7874 594
67.80751 489.974546427117
67.82763 513.029001156528
67.84774 520.125926363794
67.86785 615.911295593836
67.88797 592.981389512615
67.90808 646.992831510101
67.92819 595.017407054013
67.94831 591.983906676618
67.96842 543.008241104116
67.98853 605.057529249088
68.00865 602.03546965375
68.02876 661.85117120673
68.04888 722.951294875447
68.06899 775.964440570654
68.0891 887
68.10922 1013.01086384719
68.12933 931.900924005665
68.14944 907.880402557027
68.16956 779.299542921768
68.18967 686.003565661681
68.20979 750.962531899086
68.2299 803
68.25001 866.030593675897
68.27013 924.096973075451
68.29024 969.981160673539
68.31035 901.23716918718
68.33047 796.194463454606
68.35058 657.114747914943
68.3707 576
68.39081 499.959504335457
68.41092 449.013194758016
68.43104 501.062852758728
68.45115 503.054836351202
68.47126 537.023628816777
68.49138 487.022554866665
68.51149 491.017695037268
68.5316 402
68.55172 358.999444047788
68.57183 367.985464939657
68.59195 337.941174234688
68.61206 330.01874755958
68.63217 323.970872647252
68.65229 352.99992777102
68.6724 317
68.69251 296.998023822149
68.71263 307.040259094146
68.73274 330.996229222067
68.75286 310.020452968855
68.77297 315.007234591681
68.79308 297.00918960749
68.8132 303
68.83331 294.99021005538
68.85342 288.027890005743
68.87354 333.043098111203
68.89365 322.031586570972
68.91376 326.978033805379
68.93388 331.004450450077
68.95399 319.008505114916
68.97411 310.004917304959
68.99422 329.007550987307
69.01433 330.029424819272
69.03445 354.979115942767
69.05456 321.025974154334
69.07467 331.016674451451
69.09479 297.006982397125
69.1149 316
69.13502 323.00286339818
69.15513 331.016770019698
69.17524 343.024264313538
69.19536 346.029846466799
69.21547 334.964574583707
69.23558 372.999196343065
69.2557 343
69.27581 372.003525187969
69.29593 345.975066987942
69.31604 346.969962048854
69.33615 320.994453143123
69.35627 348.981769099802
69.37638 343.982065898512
69.39649 379.995741216446
69.41661 349.983001306389
69.43672 346.026105122802
69.45683 371.992938669476
69.47695 344.973858859851
69.49706 355.008166617342
69.51718 340.985085513868
69.53729 375.996511525791
69.5574 337
69.57752 314.026770412108
69.59763 362.033578710335
69.61774 354.005664569502
69.63786 372.007932659393
69.65797 338.052137704949
69.67809 326.995693032618
69.6982 338
69.71831 331.001204876726
69.73843 336.980703532067
69.75854 306.954470326288
69.77865 305.971437560245
69.79877 323.958221042122
69.81888 349.991547277852
69.839 342
69.85911 335.990530302932
69.87922 315.002976041903
69.89934 338.026221372363
69.91945 330.98031035846
69.93956 335.975285585796
69.95968 337.023639167722
69.97979 310.996157343254
69.9999 340
70.02002 304.96739891424
70.04013 311.063446770142
70.06025 358.054316740902
70.08036 336.108857998552
70.10047 291.005795762588
70.12059 328.975694881516
70.1407 356
70.16081 339.98534673811
70.18093 322.018611025872
70.20104 350.019428738984
70.22116 335.024752824289
70.24127 334.011851756508
70.26138 326.979860982127
70.2815 361
70.30161 332.983330315943
70.32172 320.003262851123
70.34184 336.058662016878
70.36195 359.010841779298
70.38207 331.040533303273
70.40218 320.004021693284
70.42229 314.003832680876
70.44241 309.000928913563
70.46252 319.015184310983
70.48263 332.009089077668
70.50275 330.990842947444
70.52286 318.065908621375
70.54297 291.971160381834
70.56309 336.993812723567
70.5832 315
70.60332 346.014522864727
70.62343 321.943872018295
70.64354 304.019709408341
70.66366 320.015953144386
70.68377 293.016298578548
70.70388 309.978589805497
70.724 312
70.74411 295.003047385744
70.76423 313.999496012843
70.78434 301.02600920934
70.80445 331.995267366387
70.82457 301.030918547489
70.84468 308.988209341749
70.86479 305.007301760718
70.88491 289.994971854367
70.90502 290.010085329413
70.92513 299.999370292547
70.94525 296.023667849428
70.96536 314.985537907493
70.98548 300.026558457465
71.00559 277.007183644284
71.0257 280
71.04582 310.015631608904
71.06593 301.968057571178
71.08604 289.013743449613
71.10616 299.030203008544
71.12627 271.000340005854
71.14639 295.996608742483
71.1665 290
71.18661 344.008575084139
71.20673 313.959640447962
71.22684 309.978353559334
71.24695 294.966191360152
71.26707 323.006749233601
71.28718 292.004238967818
71.3073 327
71.32741 316.972988021608
71.34752 262.991854790232
71.36764 304.096138048439
71.38775 316.065033163766
71.40786 280.031612138719
71.42798 291.982686131205
71.44809 297.001366772613
71.4682 297
71.48832 305.99529855101
71.50843 306.055644244261
71.52855 335.864643214339
71.54866 241.028476744006
71.56877 312.935402743735
71.58889 284.014621018742
71.609 291
71.62911 295.014427286672
71.64923 339.029362232864
71.66934 329.994108357036
71.68946 335.039332005124
71.70957 301.007332432137
71.72968 326.984926157644
71.7498 312
71.76991 307.007585345598
71.79002 327.006578170146
71.81014 319.994505823943
71.83025 328.974241050135
71.85037 331.008499305351
71.87048 324.999528031724
71.89059 324.008571931202
71.91071 298.995279479465
71.93082 315.028133434701
71.95093 327.975136982939
71.97105 300.990638120616
71.99116 316.008322777553
72.01127 291.014175764407
72.03139 304.99552545396
72.0515 303
72.07162 325.012881401435
72.09173 315.966531927968
72.11184 303.021422564248
72.13196 328.963891197397
72.15207 319.053028088783
72.17218 293.981003328869
72.1923 329
72.21241 275.985734954652
72.23253 297.044681167918
72.25264 305.997579772861
72.27275 305.002740109763
72.29287 304.996068465499
72.31298 310.991503037899
72.33309 321.992938787872
72.35321 336.004813266948
72.37332 332.98016766874
72.39344 308.97815456871
72.41355 306.965116151732
72.43366 291.968029990082
72.45378 327.9872801973
72.47389 314.999048374011
72.494 331
72.51412 294.984119409075
72.53423 315.041111053945
72.55434 328.009389010956
72.57446 327.020721417581
72.59457 314.007530745019
72.61469 316.999742820201
72.6348 319
72.65491 346.007247904754
72.67503 346.007043417105
72.69514 350.963359220834
72.71525 322.999805138935
72.73537 352.963942381881
72.75548 356.994676747062
72.7756 367
72.79571 349.994023303775
72.81582 342.979755818786
72.83594 321.012728905789
72.85605 344.005655007898
72.87616 308.072164775803
72.89628 307.961009746643
72.91639 349.997350332336
72.9365 323
72.95662 342.032059799356
72.97673 358.991675431989
72.99685 346.004966375725
73.01696 359.998804460509
73.03707 343.020054861112
73.05719 337.007915813664
73.0773 323
73.09741 356.002238358155
73.11753 325.960931644474
73.13764 334.068568729491
73.15776 357.037271065671
73.17787 314.029459645359
73.19798 337.959789966685
73.2181 358
73.23821 344.008710995169
73.25832 377.999982035762
73.27844 334.911123417061
73.29855 338.847089086513
73.31867 407.973680011509
73.33878 382.002590767799
73.35889 425.976812919558
73.37901 440.996599949634
73.39912 439.019666996914
73.41923 469.017688292709
73.43935 463.011663326466
73.45946 488.941965988762
73.47957 478.114099457209
73.49969 388.012872478301
73.5198 418
73.53992 370.975835349509
73.56003 390.020347056607
73.58014 374.963320021392
73.60026 371.987825362415
73.62037 376.999920257895
73.64048 374.997309269823
73.6606 379
73.68071 361.989003005876
73.70083 345.991558107624
73.72094 338.951741645762
73.74105 309.020143777123
73.76117 326.968944237428
73.78128 334.000130940367
73.80139 331.004101886279
73.82151 316.991107184055
73.84162 298.98382732599
73.86174 298.051698925884
73.88185 326.991244244116
73.90196 298.023575392687
73.92208 303.020835651356
73.94219 276.983731200312
73.9623 349
73.98242 310.957653765177
74.00253 308.029107921995
74.02264 321.995190168625
74.04276 315.971950678113
74.06287 335.022311156875
74.08299 293.011435331239
74.1031 304
74.12321 300.99576312112
74.14333 301.016759551074
74.16344 312.999275144351
74.18355 303.009286433917
74.20367 301.030830262796
74.22378 278.985609165002
74.2439 317
74.26401 291.991153013729
74.28412 307.030507497854
74.30424 323.982259922069
74.32435 295.076434944551
74.34446 282.981990867409
74.36458 299.990722181505
74.38469 296.003633750568
74.40481 294.000946387137
74.42492 298.005669474123
74.44503 306.01689449097
74.46515 313.992551742458
74.48526 302.022429012971
74.50537 293.022091604704
74.52549 284.990291317182
74.5456 307
74.56571 255.989469070448
74.58583 282.046452219614
74.60594 293.014976896935
74.62606 299.020437912711
74.64617 285.981338581603
74.66628 310.006894740886
74.6864 276
74.70651 299.016065118834
74.72662 307.981434263314
74.74674 279.970702484143
74.76685 284.978661031463
74.78697 293.966524715458
74.80708 308.029194949361
74.82719 258.006387914632
74.84731 298.025160688623
74.86742 316.987468906875
74.88753 294.986138347638
74.90765 303.019590782261
74.92776 301.008419442632
74.94787 298.008912763709
74.96799 281.015841608901
74.9881 257
75.00822 308.070952248939
