3.00117 21056
3.02128 20746
3.0414 19707
3.06151 19776
3.08162 19129
3.10174 18219
3.12185 17746
3.14197 17329
3.16208 16973
3.18219 16326
3.20231 15887
3.22242 15647
3.24253 14818
3.26265 14389
3.28276 13942
3.30288 13608
3.32299 13412
3.3431 12641
3.36322 12293
3.38333 12116
3.40344 11409
3.42356 11175
3.44367 10535
3.46379 10587
3.4839 10205
3.50401 9692
3.52413 9492
3.54424 9123
3.56435 8807
3.58447 8510
3.60458 8382
3.62469 8006
3.64481 7491
3.66492 7515
3.68504 7079
3.70515 6832
3.72526 6630
3.74538 6124
3.76549 6003
3.7856 5893
3.80572 5391
3.82583 5428
3.84595 4962
3.86606 4796
3.88617 4671
3.90629 4559
3.9264 4492
3.94651 4125
3.96663 3889
3.98674 3894
4.00686 3555
4.02697 3623
4.04708 3156
4.0672 3232
4.08731 3055
4.10742 2974
4.12754 2943
4.14765 2610
4.16776 2707
4.18788 2568
4.20799 2449
4.22811 2376
4.24822 2152
4.26833 2140
4.28845 2025
4.30856 2099
4.32867 2097
4.34879 1882
4.3689 1858
4.38902 1787
4.40913 1746
4.42924 1781
4.44936 1519
4.46947 1586
4.48958 1564
4.5097 1478
4.52981 1527
4.54992 1358
4.57004 1393
4.59015 1397
4.61027 1370
4.63038 1329
4.65049 1201
4.67061 1241
4.69072 1329
4.71083 1218
4.73095 1231
4.75106 1118
4.77118 1097
4.79129 1141
4.8114 1110
4.83152 1081
4.85163 968
4.87174 975
4.89186 981
4.91197 982
4.93209 883
4.9522 879
4.97231 881
4.99243 866
5.01254 905
5.03265 826
5.05277 883
5.07288 760
5.09299 825
5.11311 759
5.13322 772
5.15334 800
5.17345 696
5.19356 754
5.21368 746
5.23379 680
5.2539 697
5.27402 629
5.29413 657
5.31425 686
5.33436 587
5.35447 615
5.37459 589
5.3947 577
5.41481 603
5.43493 629
5.45504 604
5.47516 547
5.49527 578
5.51538 530
5.5355 488
5.55561 556
5.57572 497
5.59584 567
5.61595 486
5.63606 512
5.65618 512
5.67629 531
5.69641 501
5.71652 481
5.73663 466
5.75675 422
5.77686 445
5.79697 460
5.81709 469
5.8372 459
5.85732 454
5.87743 452
5.89754 456
5.91766 457
5.93777 443
5.95788 445
5.978 435
5.99811 458
6.01823 440
6.03834 401
6.05845 370
6.07857 422
6.09868 412
6.11879 407
6.13891 388
6.15902 422
6.17913 468
6.19925 476
6.21936 453
6.23948 464
6.25959 403
6.2797 451
6.29982 386
6.31993 403
6.34004 400
6.36016 378
6.38027 390
6.40039 360
6.4205 394
6.44061 370
6.46073 414
6.48084 358
6.50095 365
6.52107 399
6.54118 354
6.56129 397
6.58141 384
6.60152 360
6.62164 370
6.64175 384
6.66186 355
6.68198 355
6.70209 367
6.7222 357
6.74232 339
6.76243 361
6.78255 376
6.80266 393
6.82277 389
6.84289 348
6.863 366
6.88311 321
6.90323 395
6.92334 403
6.94346 324
6.96357 344
6.98368 391
7.0038 336
7.02391 345
7.04402 358
7.06414 340
7.08425 362
7.10436 341
7.12448 332
7.14459 340
7.16471 336
7.18482 321
7.20493 430
7.22505 319
7.24516 336
7.26527 371
7.28539 398
7.3055 340
7.32562 361
7.34573 351
7.36584 351
7.38596 324
7.40607 349
7.42618 390
7.4463 336
7.46641 323
7.48653 386
7.50664 360
7.52675 346
7.54687 352
7.56698 352
7.58709 330
7.60721 321
7.62732 321
7.64743 344
7.66755 313
7.68766 308
7.70778 321
7.72789 353
7.748 364
7.76812 335
7.78823 335
7.80834 362
7.82846 293
7.84857 352
7.86869 330
7.8888 349
7.90891 332
7.92903 364
7.94914 326
7.96925 340
7.98937 324
8.00948 326
8.0296 340
8.04971 308
8.06982 344
8.08994 339
8.11005 338
8.13016 355
8.15028 324
8.17039 338
8.1905 336
8.21062 295
8.23073 321
8.25085 350
8.27096 345
8.29107 297
8.31119 351
8.3313 354
8.35141 343
8.37153 360
8.39164 353
8.41176 358
8.43187 352
8.45198 374
8.4721 349
8.49221 314
8.51232 346
8.53244 331
8.55255 347
8.57266 332
8.59278 317
8.61289 339
8.63301 373
8.65312 337
8.67323 311
8.69335 336
8.71346 346
8.73357 371
8.75369 378
8.7738 373
8.79392 348
8.81403 355
8.83414 353
8.85426 352
8.87437 369
8.89448 334
8.9146 328
8.93471 353
8.95483 349
8.97494 341
8.99505 337
9.01517 309
9.03528 328
9.05539 352
9.07551 357
9.09562 323
9.11573 318
9.13585 358
9.15596 320
9.17608 340
9.19619 302
9.2163 320
9.23642 309
9.25653 315
9.27664 304
9.29676 313
9.31687 306
9.33699 324
9.3571 330
9.37721 312
9.39733 296
9.41744 338
9.43755 321
9.45767 295
9.47778 363
9.4979 338
9.51801 324
9.53812 297
9.55824 307
9.57835 305
9.59846 320
9.61858 347
9.63869 335
9.6588 328
9.67892 329
9.69903 320
9.71915 355
9.73926 337
9.75937 305
9.77949 307
9.7996 367
9.81971 316
9.83983 301
9.85994 328
9.88006 347
9.90017 300
9.92028 330
9.9404 279
9.96051 318
9.98062 347
10.00074 317
10.02085 308
10.04097 288
10.06108 326
10.08119 300
10.10131 274
10.12142 276
10.14153 344
10.16165 290
10.18176 272
10.20187 287
10.22199 327
10.2421 310
10.26222 340
10.28233 338
10.30244 326
10.32256 293
10.34267 313
10.36278 339
10.3829 293
10.40301 356
10.42313 332
10.44324 318
10.46335 322
10.48347 339
10.50358 338
10.52369 307
10.54381 324
10.56392 308
10.58403 347
10.60415 323
10.62426 360
10.64438 338
10.66449 356
10.6846 325
10.70472 337
10.72483 345
10.74494 335
10.76506 330
10.78517 308
10.80529 324
10.8254 313
10.84551 335
10.86563 386
10.88574 342
10.90585 340
10.92597 379
10.94608 334
10.9662 366
10.98631 312
11.00642 343
11.02654 356
11.04665 306
11.06676 366
11.08688 356
11.10699 327
11.1271 386
11.14722 328
11.16733 340
11.18745 326
11.20756 373
11.22767 382
11.24779 332
11.2679 345
11.28801 321
11.30813 378
11.32824 361
11.34836 366
11.36847 343
11.38858 363
11.4087 381
11.42881 348
11.44892 353
11.46904 378
11.48915 358
11.50927 364
11.52938 411
11.54949 368
11.56961 414
11.58972 400
11.60983 365
11.62995 367
11.65006 375
11.67017 385
11.69029 418
11.7104 398
11.73052 451
11.75063 434
11.77074 432
11.79086 425
11.81097 435
11.83108 515
11.8512 497
11.87131 501
11.89143 526
11.91154 495
11.93165 582
11.95177 562
11.97188 551
11.99199 611
12.01211 592
12.03222 588
12.05234 621
12.07245 632
12.09256 633
12.11268 659
12.13279 659
12.1529 748
12.17302 688
12.19313 781
12.21324 746
12.23336 783
12.25347 754
12.27359 724
12.2937 798
12.31381 792
12.33393 748
12.35404 739
12.37415 726
12.39427 677
12.41438 629
12.4345 655
12.45461 635
12.47472 550
12.49484 557
12.51495 589
12.53506 553
12.55518 507
12.57529 528
12.5954 476
12.61552 466
12.63563 401
12.65575 390
12.67586 398
12.69597 386
12.71609 356
12.7362 360
12.75631 376
12.77643 370
12.79654 357
12.81666 372
12.83677 346
12.85688 339
12.877 358
12.89711 352
12.91722 371
12.93734 304
12.95745 363
12.97757 324
12.99768 340
13.01779 346
13.03791 300
13.05802 340
13.07813 317
13.09825 309
13.11836 327
13.13847 363
13.15859 315
13.1787 329
13.19882 301
13.21893 326
13.23904 313
13.25916 354
13.27927 322
13.29938 311
13.3195 328
13.33961 320
13.35973 317
13.37984 306
13.39995 303
13.42007 299
13.44018 321
13.46029 311
13.48041 322
13.50052 282
13.52064 334
13.54075 348
13.56086 291
13.58098 357
13.60109 316
13.6212 345
13.64132 296
13.66143 291
13.68154 301
13.70166 305
13.72177 312
13.74189 291
13.762 282
13.78211 305
13.80223 302
13.82234 305
13.84245 311
13.86257 336
13.88268 299
13.9028 324
13.92291 303
13.94302 278
13.96314 272
13.98325 272
14.00336 278
14.02348 291
14.04359 274
14.06371 307
14.08382 274
14.10393 310
14.12405 294
14.14416 288
14.16427 268
14.18439 333
14.2045 294
14.22461 275
14.24473 326
14.26484 260
14.28496 291
14.30507 282
14.32518 302
14.3453 299
14.36541 297
14.38552 298
14.40564 300
14.42575 263
14.44587 271
14.46598 296
14.48609 293
14.50621 305
14.52632 302
14.54643 316
14.56655 296
14.58666 278
14.60677 278
14.62689 317
14.647 303
14.66712 302
14.68723 273
14.70734 289
14.72746 292
14.74757 306
14.76768 315
14.7878 288
14.80791 308
14.82803 298
14.84814 293
14.86825 292
14.88837 300
14.90848 296
14.92859 298
14.94871 285
14.96882 269
14.98894 287
15.00905 273
15.02916 288
15.04928 288
15.06939 289
15.0895 297
15.10962 296
15.12973 253
15.14984 311
15.16996 262
15.19007 277
15.21019 300
15.2303 276
15.25041 274
15.27053 270
15.29064 312
15.31075 294
15.33087 251
15.35098 259
15.3711 278
15.39121 307
15.41132 275
15.43144 326
15.45155 274
15.47166 263
15.49178 262
15.51189 235
15.53201 263
15.55212 277
15.57223 261
15.59235 272
15.61246 276
15.63257 273
15.65269 277
15.6728 278
15.69291 297
15.71303 306
15.73314 312
15.75326 257
15.77337 248
15.79348 293
15.8136 292
15.83371 275
15.85382 223
15.87394 282
15.89405 281
15.91417 275
15.93428 288
15.95439 294
15.97451 287
15.99462 283
16.01473 259
16.03485 266
16.05496 274
16.07508 272
16.09519 273
16.1153 263
16.13542 276
16.15553 269
16.17564 258
16.19576 301
16.21587 233
16.23598 292
16.2561 270
16.27621 279
16.29633 273
16.31644 275
16.33655 280
16.35667 260
16.37678 282
16.39689 240
16.41701 265
16.43712 270
16.45724 260
16.47735 266
16.49746 267
16.51758 276
16.53769 282
16.5578 284
16.57792 284
16.59803 267
16.61814 265
16.63826 285
16.65837 284
16.67849 266
16.6986 292
16.71871 267
16.73883 264
16.75894 267
16.77905 268
16.79917 294
16.81928 279
16.8394 265
16.85951 266
16.87962 274
16.89974 271
16.91985 279
16.93996 275
16.96008 275
16.98019 304
17.00031 275
17.02042 311
17.04053 289
17.06065 257
17.08076 276
17.10087 288
17.12099 242
17.1411 325
17.16121 290
17.18133 268
17.20144 298
17.22156 270
17.24167 288
17.26178 270
17.2819 258
17.30201 280
17.32212 276
17.34224 305
17.36235 288
17.38247 277
17.40258 259
17.42269 290
17.44281 313
17.46292 314
17.48303 264
17.50315 303
17.52326 274
17.54338 296
17.56349 319
17.5836 304
17.60372 320
17.62383 309
17.64394 269
17.66406 313
17.68417 306
17.70428 314
17.7244 275
17.74451 298
17.76463 346
17.78474 305
17.80485 309
17.82497 296
17.84508 328
17.86519 309
17.88531 313
17.90542 333
17.92554 285
17.94565 309
17.96576 303
17.98588 301
18.00599 328
18.0261 346
18.04622 334
18.06633 338
18.08645 357
18.10656 398
18.12667 420
18.14679 414
18.1669 429
18.18701 497
18.20713 476
18.22724 515
18.24735 490
18.26747 501
18.28758 462
18.3077 417
18.32781 458
18.34792 422
18.36804 372
18.38815 385
18.40826 342
18.42838 325
18.44849 333
18.46861 311
18.48872 316
18.50883 315
18.52895 324
18.54906 269
18.56917 319
18.58929 285
18.6094 293
18.62951 287
18.64963 281
18.66974 279
18.68986 290
18.70997 298
18.73008 318
18.7502 321
18.77031 312
18.79042 283
18.81054 299
18.83065 304
18.85077 288
18.87088 276
18.89099 275
18.91111 322
18.93122 292
18.95133 330
18.97145 280
18.99156 259
19.01168 319
19.03179 279
19.0519 314
19.07202 309
19.09213 289
19.11224 306
19.13236 323
19.15247 305
19.17258 308
19.1927 319
19.21281 290
19.23293 339
19.25304 365
19.27315 350
19.29327 331
19.31338 368
19.33349 363
19.35361 356
19.37372 322
19.39384 321
19.41395 331
19.43406 381
19.45418 368
19.47429 383
19.4944 407
19.51452 409
19.53463 429
19.55475 449
19.57486 465
19.59497 540
19.61509 511
19.6352 543
19.65531 584
19.67543 629
19.69554 692
19.71565 683
19.73577 721
19.75588 753
19.776 762
19.79611 832
19.81622 817
19.83634 772
19.85645 748
19.87656 782
19.89668 765
19.91679 777
19.93691 720
19.95702 737
19.97713 712
19.99725 735
20.01736 700
20.03747 716
20.05759 699
20.0777 708
20.09782 728
20.11793 692
20.13804 723
20.15816 751
20.17827 748
20.19838 735
20.2185 795
20.23861 791
20.25872 805
20.27884 822
20.29895 851
20.31907 806
20.33918 777
20.35929 792
20.37941 760
20.39952 810
20.41963 788
20.43975 833
20.45986 819
20.47998 829
20.50009 887
20.5202 871
20.54032 914
20.56043 972
20.58054 1040
20.60066 1088
20.62077 1201
20.64088 1372
20.661 1541
20.68111 1722
20.70123 1913
20.72134 2153
20.74145 2371
20.76157 2510
20.78168 2673
20.80179 2716
20.82191 2583
20.84202 2502
20.86214 2229
20.88225 2005
20.90236 1686
20.92248 1417
20.94259 1218
20.9627 1059
20.98282 949
21.00293 956
21.02305 841
21.04316 830
21.06327 774
21.08339 777
21.1035 766
21.12361 709
21.14373 732
21.16384 725
21.18395 660
21.20407 641
21.22418 733
21.2443 649
21.26441 685
21.28452 674
21.30464 671
21.32475 679
21.34486 653
21.36498 615
21.38509 613
21.40521 679
21.42532 640
21.44543 605
21.46555 588
21.48566 608
21.50577 568
21.52589 600
21.546 582
21.56612 556
21.58623 547
21.60634 545
21.62646 608
21.64657 533
21.66668 563
21.6868 558
21.70691 552
21.72702 557
21.74714 483
21.76725 544
21.78737 560
21.80748 565
21.82759 523
21.84771 523
21.86782 513
21.88793 502
21.90805 509
21.92816 486
21.94828 542
21.96839 532
21.9885 462
22.00862 566
22.02873 474
22.04884 515
22.06896 457
22.08907 497
22.10919 514
22.1293 508
22.14941 470
22.16953 515
22.18964 490
22.20975 476
22.22987 505
22.24998 541
22.27009 516
22.29021 509
22.31032 507
22.33044 488
22.35055 501
22.37066 501
22.39078 481
22.41089 498
22.431 559
22.45112 466
22.47123 505
22.49135 454
22.51146 452
22.53157 451
22.55169 462
22.5718 497
22.59191 458
22.61203 483
22.63214 421
22.65225 482
22.67237 482
22.69248 457
22.7126 441
22.73271 486
22.75282 444
22.77294 448
22.79305 450
22.81316 415
22.83328 478
22.85339 433
22.87351 440
22.89362 474
22.91373 474
22.93385 458
22.95396 477
22.97407 514
22.99419 495
23.0143 511
23.03442 511
23.05453 530
23.07464 497
23.09476 483
23.11487 480
23.13498 539
23.1551 512
23.17521 564
23.19532 479
23.21544 517
23.23555 523
23.25567 472
23.27578 474
23.29589 446
23.31601 420
23.33612 430
23.35623 436
23.37635 394
23.39646 396
23.41658 399
23.43669 395
23.4568 426
23.47692 431
23.49703 389
23.51714 408
23.53726 415
23.55737 428
23.57749 435
23.5976 427
23.61771 456
23.63783 403
23.65794 450
23.67805 428
23.69817 462
23.71828 424
23.73839 491
23.75851 462
23.77862 506
23.79874 506
23.81885 490
23.83896 548
23.85908 543
23.87919 531
23.8993 569
23.91942 568
23.93953 546
23.95965 617
23.97976 548
23.99987 490
24.01999 499
24.0401 453
24.06021 499
24.08033 463
24.10044 476
24.12056 450
24.14067 464
24.16078 526
24.1809 480
24.20101 529
24.22112 506
24.24124 549
24.26135 536
24.28146 513
24.30158 544
24.32169 517
24.34181 566
24.36192 527
24.38203 549
24.40215 540
24.42226 580
24.44237 580
24.46249 609
24.4826 572
24.50272 586
24.52283 612
24.54294 637
24.56306 598
24.58317 587
24.60328 656
24.6234 717
24.64351 688
24.66362 695
24.68374 732
24.70385 765
24.72397 736
24.74408 774
24.76419 744
24.78431 776
24.80442 705
24.82453 747
24.84465 674
24.86476 770
24.88488 736
24.90499 712
24.9251 706
24.94522 700
24.96533 683
24.98544 702
25.00556 633
25.02567 649
25.04579 706
25.0659 653
25.08601 617
25.10613 613
25.12624 557
25.14635 583
25.16647 555
25.18658 580
25.20669 615
25.22681 605
25.24692 576
25.26704 593
25.28715 611
25.30726 578
25.32738 584
25.34749 590
25.3676 586
25.38772 575
25.40783 590
25.42795 603
25.44806 591
25.46817 618
25.48829 618
25.5084 678
25.52851 597
25.54863 614
25.56874 550
25.58886 553
25.60897 609
25.62908 586
25.6492 524
25.66931 559
25.68942 492
25.70954 567
25.72965 502
25.74976 549
25.76988 535
25.78999 577
25.81011 547
25.83022 506
25.85033 444
25.87045 519
25.89056 563
25.91067 512
25.93079 513
25.9509 549
25.97102 555
25.99113 584
26.01124 660
26.03136 627
26.05147 627
26.07158 669
26.0917 787
26.11181 773
26.13193 813
26.15204 892
26.17215 929
26.19227 1042
26.21238 1247
26.23249 1314
26.25261 1505
26.27272 1656
26.29283 1760
26.31295 2055
26.33306 2499
26.35318 2716
26.37329 3249
26.3934 3811
26.41352 4484
26.43363 5212
26.45374 6141
26.47386 6974
26.49397 7992
26.51409 8999
26.5342 9595
26.55431 10118
26.57443 10132
26.59454 10091
26.61465 9248
26.63477 8243
26.65488 6696
26.67499 5148
26.69511 3770
26.71522 2839
26.73534 2020
26.75545 1552
26.77556 1199
26.79568 1053
26.81579 865
26.8359 878
26.85602 791
26.87613 786
26.89625 812
26.91636 771
26.93647 749
26.95659 764
26.9767 701
26.99681 735
27.01693 694
27.03704 713
27.05716 689
27.07727 682
27.09738 678
27.1175 665
27.13761 594
27.15772 594
27.17784 611
27.19795 606
27.21806 687
27.23818 689
27.25829 714
27.27841 805
27.29852 715
27.31863 744
27.33875 812
27.35886 809
27.37897 794
27.39909 826
27.4192 797
27.43932 808
27.45943 755
27.47954 661
27.49966 619
27.51977 632
27.53988 532
27.56 432
27.58011 477
27.60023 421
27.62034 450
27.64045 398
27.66057 403
27.68068 426
27.70079 422
27.72091 388
27.74102 379
27.76113 437
27.78125 422
27.80136 437
27.82148 426
27.84159 415
27.8617 420
27.88182 398
27.90193 408
27.92204 392
27.94216 393
27.96227 414
27.98239 403
28.0025 406
28.02261 380
28.04273 390
28.06284 383
28.08295 409
28.10307 352
28.12318 365
28.1433 407
28.16341 416
28.18352 353
28.20364 359
28.22375 376
28.24386 368
28.26398 355
28.28409 375
28.3042 380
28.32432 373
28.34443 360
28.36455 375
28.38466 378
28.40477 389
28.42489 356
28.445 378
28.46511 326
28.48523 336
28.50534 347
28.52546 383
28.54557 340
28.56568 378
28.5858 355
28.60591 344
28.62602 370
28.64614 360
28.66625 327
28.68636 413
28.70648 362
28.72659 353
28.74671 366
28.76682 364
28.78693 361
28.80705 346
28.82716 375
28.84727 358
28.86739 365
28.8875 367
28.90762 380
28.92773 363
28.94784 412
28.96796 353
28.98807 333
29.00818 392
29.0283 373
29.04841 356
29.06853 374
29.08864 369
29.10875 350
29.12887 387
29.14898 359
29.16909 388
29.18921 357
29.20932 360
29.22943 402
29.24955 381
29.26966 401
29.28978 398
29.30989 383
29.33 392
29.35012 408
29.37023 388
29.39034 380
29.41046 368
29.43057 382
29.45069 399
29.4708 404
29.49091 377
29.51103 396
29.53114 363
29.55125 366
29.57137 348
29.59148 355
29.6116 334
29.63171 332
29.65182 352
29.67194 377
29.69205 381
29.71216 322
29.73228 326
29.75239 307
29.7725 361
29.79262 357
29.81273 381
29.83285 363
29.85296 336
29.87307 381
29.89319 367
29.9133 393
29.93341 393
29.95353 355
29.97364 383
29.99376 383
30.01387 396
30.03398 398
30.0541 426
30.07421 382
30.09432 431
30.11444 427
30.13455 403
30.15467 415
30.17478 425
30.19489 390
30.21501 394
30.23512 351
30.25523 387
30.27535 327
30.29546 333
30.31557 366
30.33569 320
30.3558 326
30.37592 346
30.39603 327
30.41614 359
30.43626 381
30.45637 343
30.47648 395
30.4966 337
30.51671 366
30.53683 347
30.55694 386
30.57705 346
30.59717 416
30.61728 371
30.63739 391
30.65751 374
30.67762 410
30.69773 417
30.71785 419
30.73796 380
30.75808 410
30.77819 372
30.7983 363
30.81842 379
30.83853 364
30.85864 371
30.87876 376
30.89887 355
30.91899 340
30.9391 348
30.95921 346
30.97933 325
30.99944 344
31.01955 315
31.03967 310
31.05978 320
31.0799 326
31.10001 300
31.12012 332
31.14024 306
31.16035 324
31.18046 309
31.20058 287
31.22069 302
31.2408 319
31.26092 327
31.28103 299
31.30115 316
31.32126 315
31.34137 309
31.36149 339
31.3816 328
31.40171 288
31.42183 314
31.44194 316
31.46206 296
31.48217 308
31.50228 315
31.5224 319
31.54251 336
31.56262 293
31.58274 309
31.60285 316
31.62297 325
31.64308 314
31.66319 302
31.68331 313
31.70342 297
31.72353 328
31.74365 287
31.76376 321
31.78387 287
31.80399 323
31.8241 318
31.84422 310
31.86433 295
31.88444 315
31.90456 290
31.92467 342
31.94478 334
31.9649 301
31.98501 317
32.00513 327
32.02524 318
32.04535 337
32.06547 375
32.08558 334
32.10569 304
32.12581 317
32.14592 333
32.16604 338
32.18615 280
32.20626 328
32.22638 312
32.24649 325
32.2666 359
32.28672 349
32.30683 325
32.32694 315
32.34706 370
32.36717 351
32.38729 348
32.4074 343
32.42751 338
32.44763 336
32.46774 343
32.48785 346
32.50797 324
32.52808 338
32.5482 338
32.56831 314
32.58842 320
32.60854 322
32.62865 320
32.64876 294
32.66888 326
32.68899 305
32.7091 324
32.72922 306
32.74933 322
32.76945 318
32.78956 348
32.80967 308
32.82979 311
32.8499 336
32.87001 336
32.89013 363
32.91024 319
32.93036 360
32.95047 328
32.97058 321
32.9907 334
33.01081 323
33.03092 318
33.05104 341
33.07115 358
33.09127 330
33.11138 365
33.13149 322
33.15161 346
33.17172 341
33.19183 386
33.21195 364
33.23206 348
33.25217 339
33.27229 329
33.2924 336
33.31252 336
33.33263 346
33.35274 298
33.37286 308
33.39297 325
33.41308 379
33.4332 337
33.45331 366
33.47343 360
33.49354 329
33.51365 354
33.53377 331
33.55388 325
33.57399 323
33.59411 303
33.61422 341
33.63434 335
33.65445 357
33.67456 352
33.69468 318
33.71479 305
33.7349 328
33.75502 335
33.77513 309
33.79524 334
33.81536 377
33.83547 333
33.85559 352
33.8757 371
33.89581 335
33.91593 327
33.93604 340
33.95615 326
33.97627 337
33.99638 339
34.0165 336
34.03661 394
34.05672 378
34.07684 342
34.09695 385
34.11706 381
34.13718 394
34.15729 397
34.17741 393
34.19752 364
34.21763 383
34.23775 404
34.25786 397
34.27797 402
34.29809 386
34.3182 374
34.33831 385
34.35843 393
34.37854 384
34.39866 392
34.41877 388
34.43888 412
34.459 434
34.47911 445
34.49922 452
34.51934 434
34.53945 439
34.55957 478
34.57968 436
34.59979 466
34.61991 481
34.64002 493
34.66013 576
34.68025 529
34.70036 521
34.72047 532
34.74059 598
34.7607 595
34.78082 592
34.80093 582
34.82104 627
34.84116 631
34.86127 638
34.88138 636
34.9015 664
34.92161 672
34.94173 608
34.96184 594
34.98195 623
35.00207 632
35.02218 526
35.04229 594
35.06241 594
35.08252 549
35.10264 536
35.12275 559
35.14286 502
35.16298 546
35.18309 570
35.2032 483
35.22332 516
35.24343 530
35.26354 520
35.28366 569
35.30377 560
35.32389 539
35.344 557
35.36411 521
35.38423 573
35.40434 525
35.42445 519
35.44457 517
35.46468 561
35.4848 537
35.50491 508
35.52502 536
35.54514 497
35.56525 530
35.58536 546
35.60548 520
35.62559 546
35.64571 552
35.66582 531
35.68593 554
35.70605 497
35.72616 500
35.74627 595
35.76639 586
35.7865 568
35.80661 552
35.82673 561
35.84684 560
35.86696 611
35.88707 574
35.90718 565
35.9273 554
35.94741 530
35.96752 545
35.98764 534
36.00775 548
36.02787 509
36.04798 562
36.06809 517
36.08821 503
36.10832 496
36.12843 516
36.14855 495
36.16866 504
36.18878 523
36.20889 587
36.229 585
36.24912 622
36.26923 570
36.28934 713
36.30946 709
36.32957 750
36.34968 856
36.3698 930
36.38991 965
36.41003 984
36.43014 994
36.45025 1044
36.47037 1053
36.49048 1023
36.51059 989
36.53071 955
36.55082 906
36.57094 777
36.59105 737
36.61116 650
36.63128 608
36.65139 566
36.6715 534
36.69162 503
36.71173 503
36.73184 464
36.75196 428
36.77207 448
36.79219 424
36.8123 450
36.83241 461
36.85253 440
36.87264 419
36.89275 449
36.91287 460
36.93298 462
36.9531 468
36.97321 466
36.99332 407
37.01344 413
37.03355 461
37.05366 445
37.07378 399
37.09389 418
37.11401 435
37.13412 421
37.15423 442
37.17435 410
37.19446 411
37.21457 400
37.23469 388
37.2548 451
37.27491 427
37.29503 437
37.31514 437
37.33526 404
37.35537 451
37.37548 428
37.3956 436
37.41571 440
37.43582 437
37.45594 419
37.47605 446
37.49617 447
37.51628 454
37.53639 479
37.55651 416
37.57662 474
37.59673 454
37.61685 474
37.63696 466
37.65708 446
37.67719 474
37.6973 450
37.71742 455
37.73753 449
37.75764 462
37.77776 448
37.79787 434
37.81798 430
37.8381 417
37.85821 431
37.87833 466
37.89844 499
37.91855 417
37.93867 474
37.95878 458
37.97889 463
37.99901 461
38.01912 470
38.03924 539
38.05935 510
38.07946 486
38.09958 503
38.11969 525
38.1398 547
38.15992 536
38.18003 525
38.20015 564
38.22026 570
38.24037 575
38.26049 575
38.2806 591
38.30071 548
38.32083 595
38.34094 575
38.36105 595
38.38117 585
38.40128 569
38.4214 570
38.44151 560
38.46162 548
38.48174 526
38.50185 573
38.52196 551
38.54208 553
38.56219 517
38.58231 512
38.60242 504
38.62253 492
38.64265 447
38.66276 449
38.68287 487
38.70299 451
38.7231 438
38.74321 440
38.76333 444
38.78344 431
38.80356 423
38.82367 437
38.84378 441
38.8639 450
38.88401 422
38.90412 465
38.92424 474
38.94435 494
38.96447 475
38.98458 471
39.00469 504
39.02481 492
39.04492 529
39.06503 479
39.08515 598
39.10526 531
39.12538 568
39.14549 593
39.1656 611
39.18572 625
39.20583 660
39.22594 680
39.24606 758
39.26617 781
39.28628 834
39.3064 864
39.32651 919
39.34663 951
39.36674 967
39.38685 982
39.40697 980
39.42708 937
39.44719 857
39.46731 801
39.48742 755
39.50754 645
39.52765 573
39.54776 534
39.56788 551
39.58799 484
39.6081 418
39.62822 393
39.64833 403
39.66845 389
39.68856 397
39.70867 338
39.72879 363
39.7489 397
39.76901 371
39.78913 356
39.80924 356
39.82935 385
39.84947 372
39.86958 402
39.8897 408
39.90981 394
39.92992 433
39.95004 428
39.97015 463
39.99026 476
40.01038 482
40.03049 471
40.05061 477
40.07072 513
40.09083 568
40.11095 548
40.13106 576
40.15117 607
40.17129 650
40.1914 669
40.21152 612
40.23163 575
40.25174 617
40.27186 596
40.29197 527
40.31208 491
40.3322 504
40.35231 485
40.37242 457
40.39254 423
40.41265 402
40.43277 402
40.45288 407
40.47299 385
40.49311 399
40.51322 358
40.53333 352
40.55345 391
40.57356 308
40.59368 360
40.61379 362
40.6339 373
40.65402 370
40.67413 356
40.69424 369
40.71436 352
40.73447 340
40.75458 329
40.7747 342
40.79481 393
40.81493 348
40.83504 374
40.85515 363
40.87527 346
40.89538 332
40.91549 336
40.93561 401
40.95572 369
40.97584 397
40.99595 347
41.01606 390
41.03618 371
41.05629 361
41.0764 384
41.09652 368
41.11663 352
41.13675 370
41.15686 361
41.17697 352
41.19709 375
41.2172 332
41.23731 329
41.25743 334
41.27754 341
41.29765 334
41.31777 333
41.33788 385
41.358 356
41.37811 391
41.39822 355
41.41834 361
41.43845 361
41.45856 377
41.47868 377
41.49879 365
41.51891 367
41.53902 366
41.55913 380
41.57925 440
41.59936 386
41.61947 373
41.63959 441
41.6597 411
41.67982 389
41.69993 423
41.72004 409
41.74016 411
41.76027 392
41.78038 405
41.8005 382
41.82061 388
41.84072 381
41.86084 414
41.88095 416
41.90107 374
41.92118 375
41.94129 384
41.96141 331
41.98152 373
42.00163 412
42.02175 350
42.04186 366
42.06198 396
42.08209 410
42.1022 402
42.12232 435
42.14243 422
42.16254 463
42.18266 465
42.20277 511
42.22289 542
42.243 548
42.26311 638
42.28323 640
42.30334 695
42.32345 710
42.34357 718
42.36368 729
42.38379 725
42.40391 710
42.42402 743
42.44414 630
42.46425 604
42.48436 515
42.50448 474
42.52459 458
42.5447 422
42.56482 390
42.58493 391
42.60505 380
42.62516 324
42.64527 316
42.66539 311
42.6855 305
42.70561 308
42.72573 324
42.74584 317
42.76595 291
42.78607 315
42.80618 283
42.8263 314
42.84641 287
42.86652 316
42.88664 283
42.90675 328
42.92686 317
42.94698 293
42.96709 294
42.98721 274
43.00732 310
43.02743 293
43.04755 303
43.06766 307
43.08777 299
43.10789 295
43.128 304
43.14812 300
43.16823 305
43.18834 308
43.20846 304
43.22857 290
43.24868 302
43.2688 288
43.28891 290
43.30902 313
43.32914 294
43.34925 292
43.36937 316
43.38948 283
43.40959 296
43.42971 315
43.44982 302
43.46993 310
43.49005 310
43.51016 319
43.53028 288
43.55039 307
43.5705 291
43.59062 284
43.61073 301
43.63084 299
43.65096 306
43.67107 285
43.69119 284
43.7113 303
43.73141 322
43.75153 269
43.77164 290
43.79175 312
43.81187 314
43.83198 301
43.85209 316
43.87221 310
43.89232 333
43.91244 322
43.93255 297
43.95266 322
43.97278 293
43.99289 306
44.013 340
44.03312 318
44.05323 329
44.07335 313
44.09346 302
44.11357 283
44.13369 353
44.1538 284
44.17391 290
44.19403 332
44.21414 306
44.23426 301
44.25437 308
44.27448 325
44.2946 294
44.31471 326
44.33482 296
44.35494 298
44.37505 304
44.39516 335
44.41528 305
44.43539 322
44.45551 345
44.47562 323
44.49573 304
44.51585 299
44.53596 293
44.55607 320
44.57619 293
44.5963 297
44.61642 298
44.63653 313
44.65664 303
44.67676 301
44.69687 307
44.71698 313
44.7371 330
44.75721 336
44.77732 324
44.79744 326
44.81755 300
44.83767 283
44.85778 337
44.87789 326
44.89801 334
44.91812 360
44.93823 335
44.95835 355
44.97846 340
44.99858 308
45.01869 372
45.0388 328
45.05892 364
45.07903 354
45.09914 373
45.11926 358
45.13937 348
45.15949 359
45.1796 393
45.19971 379
45.21983 379
45.23994 367
45.26005 381
45.28017 399
45.30028 391
45.32039 457
45.34051 438
45.36062 406
45.38074 450
45.40085 424
45.42096 438
45.44108 442
45.46119 509
45.4813 477
45.50142 471
45.52153 478
45.54165 513
45.56176 520
45.58187 545
45.60199 641
45.6221 634
45.64221 559
45.66233 624
45.68244 627
45.70256 627
45.72267 589
45.74278 598
45.7629 579
45.78301 557
45.80312 495
45.82324 500
45.84335 462
45.86346 447
45.88358 424
45.90369 409
45.92381 387
45.94392 379
45.96403 359
45.98415 353
46.00426 337
46.02437 315
46.04449 343
46.0646 352
46.08472 303
46.10483 307
46.12494 333
46.14506 329
46.16517 358
46.18528 335
46.2054 322
46.22551 334
46.24563 317
46.26574 326
46.28585 342
46.30597 323
46.32608 328
46.34619 299
46.36631 319
46.38642 299
46.40653 341
46.42665 322
46.44676 323
46.46688 339
46.48699 294
46.5071 284
46.52722 287
46.54733 357
46.56744 290
46.58756 318
46.60767 319
46.62779 306
46.6479 279
46.66801 301
46.68813 309
46.70824 301
46.72835 326
46.74847 282
46.76858 338
46.78869 324
46.80881 319
46.82892 336
46.84904 282
46.86915 339
46.88926 308
46.90938 326
46.92949 328
46.9496 355
46.96972 358
46.98983 334
47.00995 302
47.03006 360
47.05017 316
47.07029 325
47.0904 312
47.11051 322
47.13063 320
47.15074 316
47.17086 353
47.19097 330
47.21108 301
47.2312 328
47.25131 300
47.27142 321
47.29154 329
47.31165 338
47.33176 302
47.35188 307
47.37199 320
47.39211 325
47.41222 312
47.43233 303
47.45245 304
47.47256 318
47.49267 302
47.51279 347
47.5329 309
47.55302 299
47.57313 318
47.59324 313
47.61336 320
47.63347 326
47.65358 313
47.6737 285
47.69381 333
47.71393 311
47.73404 298
47.75415 379
47.77427 339
47.79438 297
47.81449 308
47.83461 334
47.85472 308
47.87483 339
47.89495 318
47.91506 330
47.93518 329
47.95529 338
47.9754 282
47.99552 315
48.01563 310
48.03574 336
48.05586 310
48.07597 305
48.09609 299
48.1162 299
48.13631 267
48.15643 289
48.17654 263
48.19665 330
48.21677 323
48.23688 309
48.257 275
48.27711 279
48.29722 310
48.31734 286
48.33745 323
48.35756 276
48.37768 287
48.39779 312
48.4179 290
48.43802 329
48.45813 280
48.47825 278
48.49836 303
48.51847 267
48.53859 310
48.5587 324
48.57881 269
48.59893 299
48.61904 292
48.63916 326
48.65927 329
48.67938 304
48.6995 316
48.71961 314
48.73972 303
48.75984 329
48.77995 295
48.80006 335
48.82018 311
48.84029 321
48.86041 313
48.88052 303
48.90063 321
48.92075 321
48.94086 304
48.96097 301
48.98109 319
49.0012 291
49.02132 316
49.04143 331
49.06154 300
49.08166 314
49.10177 327
49.12188 361
49.142 336
49.16211 332
49.18223 317
49.20234 345
49.22245 346
49.24257 304
49.26268 315
49.28279 322
49.30291 303
49.32302 334
49.34313 289
49.36325 289
49.38336 337
49.40348 314
49.42359 333
49.4437 316
49.46382 306
49.48393 308
49.50404 318
49.52416 337
49.54427 306
49.56439 381
49.5845 336
49.60461 383
49.62473 372
49.64484 396
49.66495 376
49.68507 398
49.70518 432
49.7253 461
49.74541 481
49.76552 501
49.78564 575
49.80575 565
49.82586 632
49.84598 677
49.86609 773
49.8862 791
49.90632 867
49.92643 897
49.94655 1059
49.96666 1123
49.98677 1149
50.00689 1261
50.027 1281
50.04711 1321
50.06723 1289
50.08734 1256
50.10746 1164
50.12757 1071
50.14768 915
50.1678 874
50.18791 801
50.20802 722
50.22814 725
50.24825 627
50.26837 572
50.28848 510
50.30859 451
50.32871 408
50.34882 422
50.36893 440
50.38905 423
50.40916 396
50.42927 392
50.44939 433
50.4695 459
50.48962 387
50.50973 408
50.52984 396
50.54996 394
50.57007 406
50.59018 405
50.6103 398
50.63041 371
50.65053 340
50.67064 349
50.69075 329
50.71087 309
50.73098 332
50.75109 328
50.77121 329
50.79132 329
50.81143 328
50.83155 325
50.85166 314
50.87178 316
50.89189 326
50.912 340
50.93212 274
50.95223 298
50.97234 334
50.99246 324
51.01257 328
51.03269 309
51.0528 321
51.07291 301
51.09303 274
51.11314 299
51.13325 279
51.15337 308
51.17348 290
51.1936 271
51.21371 302
51.23382 278
51.25394 302
51.27405 318
51.29416 321
51.31428 284
51.33439 253
51.3545 293
51.37462 284
51.39473 262
51.41485 268
51.43496 290
51.45507 258
51.47519 247
51.4953 238
51.51541 269
51.53553 265
51.55564 259
51.57576 272
51.59587 272
51.61598 278
51.6361 280
51.65621 284
51.67632 280
51.69644 281
51.71655 263
51.73667 261
51.75678 291
51.77689 247
51.79701 302
51.81712 288
51.83723 273
51.85735 268
51.87746 297
51.89757 281
51.91769 253
51.9378 223
51.95792 288
51.97803 253
51.99814 258
52.01826 290
52.03837 266
52.05848 307
52.0786 295
52.09871 285
52.11883 273
52.13894 288
52.15905 280
52.17917 266
52.19928 275
52.21939 291
52.23951 291
52.25962 276
52.27974 287
52.29985 290
52.31996 274
52.34008 298
52.36019 276
52.3803 259
52.40042 301
52.42053 263
52.44064 315
52.46076 290
52.48087 268
52.50099 300
52.5211 286
52.54121 292
52.56133 287
52.58144 295
52.60155 288
52.62167 311
52.64178 292
52.6619 307
52.68201 270
52.70212 286
52.72224 294
52.74235 299
52.76246 302
52.78258 299
52.80269 307
52.8228 284
52.84292 307
52.86303 289
52.88315 304
52.90326 283
52.92337 291
52.94349 316
52.9636 296
52.98371 259
53.00383 276
53.02394 317
53.04406 347
53.06417 320
53.08428 281
53.1044 316
53.12451 280
53.14462 298
53.16474 282
53.18485 327
53.20497 294
53.22508 314
53.24519 283
53.26531 308
53.28542 321
53.30553 330
53.32565 323
53.34576 313
53.36587 301
53.38599 341
53.4061 295
53.42622 292
53.44633 328
53.46644 289
53.48656 321
53.50667 333
53.52678 335
53.5469 349
53.56701 331
53.58713 308
53.60724 325
53.62735 340
53.64747 337
53.66758 356
53.68769 351
53.70781 345
53.72792 354
53.74804 366
53.76815 385
53.78826 342
53.80838 341
53.82849 363
53.8486 338
53.86872 385
53.88883 331
53.90894 381
53.92906 364
53.94917 350
53.96929 336
53.9894 353
54.00951 389
54.02963 383
54.04974 396
54.06985 373
54.08997 374
54.11008 407
54.1302 364
54.15031 369
54.17042 399
54.19054 429
54.21065 381
54.23076 402
54.25088 397
54.27099 381
54.29111 406
54.31122 418
54.33133 416
54.35145 414
54.37156 436
54.39167 429
54.41179 424
54.4319 443
54.45201 443
54.47213 446
54.49224 422
54.51236 421
54.53247 468
54.55258 490
54.5727 488
54.59281 536
54.61292 488
54.63304 541
54.65315 594
54.67327 597
54.69338 580
54.71349 672
54.73361 668
54.75372 677
54.77383 703
54.79395 720
54.81406 724
54.83417 653
54.85429 658
54.8744 596
54.89452 658
54.91463 592
54.93474 558
54.95486 552
54.97497 493
54.99508 490
55.0152 513
55.03531 511
55.05543 493
55.07554 515
55.09565 455
55.11577 512
55.13588 515
55.15599 498
55.17611 504
55.19622 505
55.21634 532
55.23645 537
55.25656 514
55.27668 520
55.29679 507
55.3169 518
55.33702 492
55.35713 455
55.37724 415
55.39736 425
55.41747 427
55.43759 417
55.4577 375
55.47781 407
55.49793 395
55.51804 379
55.53815 371
55.55827 365
55.57838 380
55.5985 369
55.61861 355
55.63872 394
55.65884 359
55.67895 369
55.69906 296
55.71918 346
55.73929 358
55.75941 334
55.77952 321
55.79963 357
55.81975 362
55.83986 329
55.85997 324
55.88009 325
55.9002 339
55.92031 347
55.94043 345
55.96054 330
55.98066 370
56.00077 330
56.02088 324
56.041 344
56.06111 340
56.08122 358
56.10134 357
56.12145 318
56.14157 331
56.16168 353
56.18179 323
56.20191 303
56.22202 327
56.24213 377
56.26225 322
56.28236 335
56.30248 343
56.32259 340
56.3427 364
56.36282 331
56.38293 354
56.40304 303
56.42316 327
56.44327 295
56.46338 329
56.4835 350
56.50361 322
56.52373 302
56.54384 327
56.56395 324
56.58407 314
56.60418 328
56.62429 318
56.64441 305
56.66452 346
56.68464 312
56.70475 334
56.72486 318
56.74498 320
56.76509 345
56.7852 311
56.80532 292
56.82543 339
56.84554 316
56.86566 334
56.88577 333
56.90589 325
56.926 322
56.94611 327
56.96623 311
56.98634 312
57.00645 282
57.02657 332
57.04668 298
57.0668 321
57.08691 326
57.10702 325
57.12714 301
57.14725 326
57.16736 337
57.18748 335
57.20759 348
57.22771 322
57.24782 295
57.26793 287
57.28805 318
57.30816 299
57.32827 327
57.34839 321
57.3685 293
57.38861 324
57.40873 285
57.42884 298
57.44896 267
57.46907 301
57.48918 320
57.5093 299
57.52941 305
57.54952 305
57.56964 294
57.58975 277
57.60987 284
57.62998 305
57.65009 301
57.67021 301
57.69032 314
57.71043 314
57.73055 312
57.75066 313
57.77078 277
57.79089 318
57.811 274
57.83112 328
57.85123 329
57.87134 308
57.89146 274
57.91157 289
57.93168 284
57.9518 318
57.97191 289
57.99203 294
58.01214 313
58.03225 294
58.05237 274
58.07248 270
58.09259 294
58.11271 289
58.13282 288
58.15294 267
58.17305 312
58.19316 294
58.21328 298
58.23339 294
58.2535 307
58.27362 315
58.29373 304
58.31385 282
58.33396 304
58.35407 312
58.37419 298
58.3943 279
58.41441 326
58.43453 312
58.45464 303
58.47475 324
58.49487 285
58.51498 274
58.5351 323
58.55521 302
58.57532 269
58.59544 294
58.61555 280
58.63566 292
58.65578 308
58.67589 297
58.69601 280
58.71612 255
58.73623 300
58.75635 274
58.77646 285
58.79657 279
58.81669 249
58.8368 287
58.85691 286
58.87703 268
58.89714 296
58.91726 271
58.93737 297
58.95748 296
58.9776 298
58.99771 276
59.01782 278
59.03794 318
59.05805 316
59.07817 298
59.09828 300
59.11839 289
59.13851 301
59.15862 292
59.17873 311
59.19885 310
59.21896 299
59.23908 323
59.25919 324
59.2793 340
59.29942 339
59.31953 348
59.33964 326
59.35976 364
59.37987 377
59.39998 365
59.4201 385
59.44021 307
59.46033 362
59.48044 422
59.50055 392
59.52067 412
59.54078 443
59.56089 468
59.58101 476
59.60112 500
59.62124 529
59.64135 551
59.66146 639
59.68158 638
59.70169 690
59.7218 755
59.74192 724
59.76203 796
59.78215 844
59.80226 860
59.82237 922
59.84249 918
59.8626 969
59.88271 927
59.90283 922
59.92294 866
59.94305 805
59.96317 741
59.98328 702
60.0034 652
60.02351 605
60.04362 581
60.06374 582
60.08385 524
60.10396 481
60.12408 453
60.14419 390
60.16431 358
60.18442 372
60.20453 334
60.22465 366
60.24476 331
60.26487 292
60.28499 308
60.3051 325
60.32522 298
60.34533 295
60.36544 300
60.38556 288
60.40567 312
60.42578 297
60.4459 299
60.46601 320
60.48612 302
60.50624 292
60.52635 283
60.54647 292
60.56658 325
60.58669 293
60.60681 319
60.62692 298
60.64703 285
60.66715 279
60.68726 302
60.70738 280
60.72749 268
60.7476 279
60.76772 333
60.78783 281
60.80794 308
60.82806 302
60.84817 274
60.86828 276
60.8884 300
60.90851 268
60.92863 285
60.94874 284
60.96885 316
60.98897 303
61.00908 287
61.02919 332
61.04931 328
61.06942 335
61.08954 337
61.10965 322
61.12976 324
61.14988 310
61.16999 311
61.1901 317
61.21022 327
61.23033 327
61.25045 290
61.27056 311
61.29067 317
61.31079 321
61.3309 310
61.35101 327
61.37113 306
61.39124 316
61.41135 328
61.43147 305
61.45158 323
61.4717 331
61.49181 320
61.51192 336
61.53204 314
61.55215 337
61.57226 348
61.59238 344
61.61249 334
61.63261 346
61.65272 336
61.67283 364
61.69295 399
61.71306 357
61.73317 336
61.75329 369
61.7734 388
61.79352 389
61.81363 389
61.83374 367
61.85386 368
61.87397 380
61.89408 387
61.9142 424
61.93431 425
61.95442 451
61.97454 434
61.99465 415
62.01477 446
62.03488 435
62.05499 434
62.07511 443
62.09522 428
62.11533 481
62.13545 487
62.15556 449
62.17568 437
62.19579 453
62.2159 475
62.23602 475
62.25613 433
62.27624 452
62.29636 454
62.31647 432
62.33659 447
62.3567 429
62.37681 446
62.39693 439
62.41704 425
62.43715 396
62.45727 379
62.47738 407
62.49749 327
62.51761 370
62.53772 377
62.55784 365
62.57795 340
62.59806 317
62.61818 328
62.63829 342
62.6584 341
62.67852 367
62.69863 339
62.71875 302
62.73886 310
62.75897 311
62.77909 315
62.7992 273
62.81931 323
62.83943 299
62.85954 350
62.87965 300
62.89977 305
62.91988 320
62.94 299
62.96011 308
62.98022 317
63.00034 300
63.02045 298
63.04056 306
63.06068 304
63.08079 306
63.10091 289
63.12102 322
63.14113 306
63.16125 322
63.18136 286
63.20147 300
63.22159 317
63.2417 281
63.26182 306
63.28193 313
63.30204 319
63.32216 286
63.34227 323
63.36238 312
63.3825 335
63.40261 308
63.42272 290
63.44284 304
63.46295 327
63.48307 292
63.50318 344
63.52329 314
63.54341 347
63.56352 306
63.58363 305
63.60375 340
63.62386 396
63.64398 337
63.66409 341
63.6842 338
63.70432 344
63.72443 380
63.74454 380
63.76466 390
63.78477 396
63.80489 383
63.825 428
63.84511 437
63.86523 405
63.88534 468
63.90545 438
63.92557 421
63.94568 440
63.96579 452
63.98591 408
64.00602 414
64.02614 435
64.04625 404
64.06636 386
64.08648 355
64.10659 355
64.1267 359
64.14682 359
64.16693 341
64.18705 346
64.20716 329
64.22727 313
64.24739 327
64.2675 292
64.28761 308
64.30773 296
64.32784 286
64.34796 320
64.36807 297
64.38818 298
64.4083 300
64.42841 284
64.44852 259
64.46864 301
64.48875 277
64.50886 272
64.52898 280
64.54909 260
64.56921 266
64.58932 274
64.60943 272
64.62955 287
64.64966 284
64.66977 298
64.68989 281
64.71 296
64.73012 282
64.75023 278
64.77034 297
64.79046 283
64.81057 305
64.83068 284
64.8508 307
64.87091 276
64.89102 295
64.91114 303
64.93125 291
64.95137 312
64.97148 285
64.99159 293
65.01171 321
65.03182 284
65.05193 273
65.07205 301
65.09216 291
65.11228 295
65.13239 255
65.1525 261
65.17262 279
65.19273 274
65.21284 271
65.23296 300
65.25307 303
65.27319 278
65.2933 294
65.31341 273
65.33353 282
65.35364 280
65.37375 277
65.39387 297
65.41398 303
65.43409 278
65.45421 266
65.47432 299
65.49444 287
65.51455 284
65.53466 270
65.55478 304
65.57489 292
65.595 256
65.61512 280
65.63523 290
65.65535 278
65.67546 273
65.69557 315
65.71569 287
65.7358 290
65.75591 277
65.77603 298
65.79614 275
65.81626 282
65.83637 283
65.85648 286
65.8766 306
65.89671 271
65.91682 295
65.93694 304
65.95705 306
65.97716 264
65.99728 303
66.01739 279
66.03751 311
66.05762 271
66.07773 253
66.09785 271
66.11796 261
66.13807 293
66.15819 292
66.1783 280
66.19842 279
66.21853 289
66.23864 288
66.25876 290
66.27887 280
66.29898 282
66.3191 306
66.33921 301
66.35933 275
66.37944 298
66.39955 284
66.41967 288
66.43978 269
66.45989 297
66.48001 285
66.50012 278
66.52023 295
66.54035 276
66.56046 302
66.58058 282
66.60069 318
66.6208 298
66.64092 270
66.66103 275
66.68114 307
66.70126 304
66.72137 283
66.74149 270
66.7616 290
66.78171 273
66.80183 313
66.82194 299
66.84205 280
66.86217 275
66.88228 276
66.90239 294
66.92251 296
66.94262 271
66.96274 283
66.98285 305
67.00296 290
67.02308 303
67.04319 320
67.0633 296
67.08342 297
67.10353 320
67.12365 334
67.14376 328
67.16387 309
67.18399 290
67.2041 328
67.22421 328
67.24433 348
67.26444 327
67.28456 359
67.30467 360
67.32478 367
67.3449 364
67.36501 388
67.38512 442
67.40524 420
67.42535 456
67.44546 462
67.46558 472
67.48569 501
67.50581 514
67.52592 564
67.54603 618
67.56615 636
67.58626 675
67.60637 701
67.62649 688
67.6466 718
67.66672 745
67.68683 742
67.70694 665
67.72706 682
67.74717 622
67.76728 650
67.7874 618
67.80751 691
67.82763 679
67.84774 684
67.86785 724
67.88797 741
67.90808 707
67.92819 747
67.94831 785
67.96842 771
67.98853 853
68.00865 892
68.02876 901
68.04888 872
68.06899 935
68.0891 879
68.10922 841
68.12933 861
68.14944 785
68.16956 786
68.18967 817
68.20979 788
68.2299 767
68.25001 693
68.27013 683
68.29024 644
68.31035 607
68.33047 565
68.35058 528
68.3707 497
68.39081 474
68.41092 449
68.43104 395
68.45115 399
68.47126 378
68.49138 345
68.51149 348
68.5316 321
68.55172 294
68.57183 318
68.59195 293
68.61206 288
68.63217 313
68.65229 280
68.6724 314
68.69251 304
68.71263 298
68.73274 302
68.75286 282
68.77297 278
68.79308 318
68.8132 266
68.83331 247
68.85342 288
68.87354 284
68.89365 291
68.91376 284
68.93388 287
68.95399 295
68.97411 253
68.99422 270
69.01433 279
69.03445 285
69.05456 268
69.07467 265
69.09479 268
69.1149 284
69.13502 275
69.15513 258
69.17524 295
69.19536 262
69.21547 254
69.23558 278
69.2557 250
69.27581 229
69.29593 272
69.31604 244
69.33615 259
69.35627 258
69.37638 287
69.39649 280
69.41661 281
69.43672 278
69.45683 308
69.47695 286
69.49706 271
69.51718 253
69.53729 270
69.5574 269
69.57752 294
69.59763 271
69.61774 271
69.63786 283
69.65797 271
69.67809 277
69.6982 281
69.71831 275
69.73843 251
69.75854 279
69.77865 265
69.79877 272
69.81888 275
69.839 251
69.85911 274
69.87922 247
69.89934 278
69.91945 259
69.93956 283
69.95968 265
69.97979 274
69.9999 278
70.02002 295
70.04013 287
70.06025 285
70.08036 233
70.10047 273
70.12059 315
70.1407 303
70.16081 273
70.18093 271
70.20104 254
70.22116 287
70.24127 286
70.26138 268
70.2815 255
70.30161 282
70.32172 281
70.34184 274
70.36195 278
70.38207 270
70.40218 276
70.42229 279
70.44241 274
70.46252 246
70.48263 262
70.50275 271
70.52286 281
70.54297 274
70.56309 280
70.5832 274
70.60332 267
70.62343 269
70.64354 267
70.66366 281
70.68377 285
70.70388 251
70.724 255
70.74411 267
70.76423 259
70.78434 271
70.80445 304
70.82457 266
70.84468 253
70.86479 269
70.88491 282
70.90502 211
70.92513 252
70.94525 233
70.96536 264
70.98548 248
71.00559 241
71.0257 236
71.04582 270
71.06593 259
71.08604 269
71.10616 245
71.12627 298
71.14639 260
71.1665 232
71.18661 265
71.20673 269
71.22684 265
71.24695 240
71.26707 284
71.28718 304
71.3073 247
71.32741 254
71.34752 279
71.36764 269
71.38775 278
71.40786 263
71.42798 276
71.44809 303
71.4682 267
71.48832 260
71.50843 301
71.52855 282
71.54866 286
71.56877 288
71.58889 272
71.609 270
71.62911 284
71.64923 311
71.66934 287
71.68946 272
71.70957 252
71.72968 278
71.7498 284
71.76991 276
71.79002 258
71.81014 284
71.83025 303
71.85037 295
71.87048 279
71.89059 271
71.91071 268
71.93082 270
71.95093 284
71.97105 282
71.99116 304
72.01127 269
72.03139 241
72.0515 289
72.07162 290
72.09173 295
72.11184 277
72.13196 264
72.15207 327
72.17218 305
72.1923 295
72.21241 298
72.23253 321
72.25264 273
72.27275 285
72.29287 274
72.31298 286
72.33309 253
72.35321 262
72.37332 271
72.39344 270
72.41355 302
72.43366 285
72.45378 280
72.47389 276
72.494 256
72.51412 272
72.53423 290
72.55434 310
72.57446 274
72.59457 279
72.61469 300
72.6348 299
72.65491 280
72.67503 273
72.69514 269
72.71525 274
72.73537 278
72.75548 285
72.7756 269
72.79571 275
72.81582 261
72.83594 311
72.85605 301
72.87616 292
72.89628 294
72.91639 303
72.9365 268
72.95662 313
72.97673 302
72.99685 302
73.01696 301
73.03707 312
73.05719 328
73.0773 313
73.09741 346
73.11753 339
73.13764 364
73.15776 370
73.17787 336
73.19798 339
73.2181 352
73.23821 402
73.25832 416
73.27844 396
73.29855 453
73.31867 470
73.33878 414
73.35889 427
73.37901 449
73.39912 434
73.41923 420
73.43935 421
73.45946 430
73.47957 377
73.49969 381
73.5198 360
73.53992 364
73.56003 376
73.58014 350
73.60026 345
73.62037 372
73.64048 335
73.6606 334
73.68071 313
73.70083 335
73.72094 294
73.74105 324
73.76117 285
73.78128 286
73.80139 298
73.82151 269
73.84162 282
73.86174 289
73.88185 279
73.90196 281
73.92208 263
73.94219 291
73.9623 280
73.98242 256
74.00253 254
74.02264 267
74.04276 254
74.06287 244
74.08299 255
74.1031 262
74.12321 270
74.14333 268
74.16344 270
74.18355 278
74.20367 246
74.22378 242
74.2439 262
74.26401 261
74.28412 292
74.30424 255
74.32435 241
74.34446 261
74.36458 265
74.38469 227
74.40481 249
74.42492 273
74.44503 275
74.46515 256
74.48526 267
74.50537 256
74.52549 267
74.5456 296
74.56571 260
74.58583 274
74.60594 284
74.62606 280
74.64617 286
74.66628 275
74.6864 269
74.70651 294
74.72662 291
74.74674 268
74.76685 273
74.78697 264
74.80708 286
74.82719 278
74.84731 262
74.86742 266
74.88753 269
74.90765 305
74.92776 284
74.94787 299
74.96799 267
74.9881 268
75.00822 320
