3.00117 22571
3.02128 22139
3.0414 21747
3.06151 21144
3.08162 20149
3.10174 20065
3.12185 19306
3.14197 18586
3.16208 18711
3.18219 17368
3.20231 17271
3.22242 16739
3.24253 15930
3.26265 15577
3.28276 14906
3.30288 14761
3.32299 14412
3.3431 13733
3.36322 13497
3.38333 12770
3.40344 12334
3.42356 11888
3.44367 11642
3.46379 11394
3.4839 10618
3.50401 10497
3.52413 10004
3.54424 9535
3.56435 9422
3.58447 8970
3.60458 9004
3.62469 8379
3.64481 8098
3.66492 8000
3.68504 7272
3.70515 7125
3.72526 6925
3.74538 6621
3.76549 6586
3.7856 6096
3.80572 5899
3.82583 5724
3.84595 5393
3.86606 5356
3.88617 4880
3.90629 4792
3.9264 4557
3.94651 4379
3.96663 4416
3.98674 3869
4.00686 3770
4.02697 3781
4.04708 3684
4.0672 3548
4.08731 3059
4.10742 3005
4.12754 3036
4.14765 2797
4.16776 2820
4.18788 2477
4.20799 2458
4.22811 2461
4.24822 2341
4.26833 2341
4.28845 2057
4.30856 2049
4.32867 2063
4.34879 1936
4.3689 1970
4.38902 1851
4.40913 1795
4.42924 1823
4.44936 1685
4.46947 1780
4.48958 1532
4.5097 1581
4.52981 1547
4.54992 1579
4.57004 1542
4.59015 1405
4.61027 1352
4.63038 1465
4.65049 1364
4.67061 1333
4.69072 1349
4.71083 1256
4.73095 1234
4.75106 1262
4.77118 1291
4.79129 1080
4.8114 1109
4.83152 1177
4.85163 996
4.87174 1068
4.89186 989
4.91197 976
4.93209 987
4.9522 970
4.97231 964
4.99243 902
5.01254 865
5.03265 940
5.05277 897
5.07288 845
5.09299 808
5.11311 786
5.13322 877
5.15334 801
5.17345 771
5.19356 756
5.21368 746
5.23379 766
5.2539 715
5.27402 666
5.29413 689
5.31425 693
5.33436 647
5.35447 706
5.37459 664
5.3947 642
5.41481 582
5.43493 630
5.45504 594
5.47516 576
5.49527 583
5.51538 595
5.5355 548
5.55561 557
5.57572 527
5.59584 528
5.61595 502
5.63606 492
5.65618 492
5.67629 527
5.69641 490
5.71652 471
5.73663 507
5.75675 455
5.77686 486
5.79697 454
5.81709 476
5.8372 439
5.85732 466
5.87743 432
5.89754 460
5.91766 448
5.93777 432
5.95788 456
5.978 376
5.99811 455
6.01823 461
6.03834 418
6.05845 441
6.07857 411
6.09868 419
6.11879 395
6.13891 437
6.15902 405
6.17913 419
6.19925 390
6.21936 414
6.23948 377
6.25959 405
6.2797 384
6.29982 370
6.31993 367
6.34004 386
6.36016 393
6.38027 381
6.40039 355
6.4205 338
6.44061 356
6.46073 364
6.48084 358
6.50095 327
6.52107 375
6.54118 357
6.56129 355
6.58141 336
6.60152 358
6.62164 346
6.64175 348
6.66186 360
6.68198 363
6.70209 397
6.7222 379
6.74232 351
6.76243 365
6.78255 362
6.80266 342
6.82277 338
6.84289 335
6.863 316
6.88311 326
6.90323 353
6.92334 329
6.94346 296
6.96357 369
6.98368 355
7.0038 353
7.02391 339
7.04402 345
7.06414 357
7.08425 331
7.10436 391
7.12448 377
7.14459 332
7.16471 332
7.18482 356
7.20493 380
7.22505 345
7.24516 369
7.26527 347
7.28539 355
7.3055 341
7.32562 319
7.34573 372
7.36584 332
7.38596 332
7.40607 332
7.42618 393
7.4463 342
7.46641 372
7.48653 376
7.50664 325
7.52675 324
7.54687 341
7.56698 329
7.58709 330
7.60721 337
7.62732 324
7.64743 350
7.66755 324
7.68766 339
7.70778 315
7.72789 365
7.748 347
7.76812 301
7.78823 314
7.80834 334
7.82846 328
7.84857 355
7.86869 326
7.8888 366
7.90891 338
7.92903 355
7.94914 352
7.96925 353
7.98937 348
8.00948 358
8.0296 341
8.04971 359
8.06982 323
8.08994 360
8.11005 333
8.13016 351
8.15028 308
8.17039 348
8.1905 317
8.21062 309
8.23073 359
8.25085 335
8.27096 334
8.29107 379
8.31119 368
8.3313 361
8.35141 361
8.37153 394
8.39164 363
8.41176 334
8.43187 370
8.45198 345
8.4721 328
8.49221 321
8.51232 339
8.53244 367
8.55255 313
8.57266 355
8.59278 370
8.61289 388
8.63301 368
8.65312 374
8.67323 356
8.69335 383
8.71346 341
8.73357 333
8.75369 343
8.7738 380
8.79392 326
8.81403 340
8.83414 343
8.85426 366
8.87437 356
8.89448 361
8.9146 340
8.93471 336
8.95483 379
8.97494 325
8.99505 311
9.01517 345
9.03528 320
9.05539 334
9.07551 322
9.09562 350
9.11573 311
9.13585 336
9.15596 324
9.17608 337
9.19619 330
9.2163 333
9.23642 328
9.25653 301
9.27664 339
9.29676 291
9.31687 332
9.33699 328
9.3571 339
9.37721 322
9.39733 340
9.41744 350
9.43755 317
9.45767 278
9.47778 329
9.4979 301
9.51801 335
9.53812 347
9.55824 359
9.57835 308
9.59846 365
9.61858 336
9.63869 345
9.6588 315
9.67892 344
9.69903 306
9.71915 355
9.73926 334
9.75937 336
9.77949 317
9.7996 319
9.81971 347
9.83983 341
9.85994 365
9.88006 305
9.90017 319
9.92028 348
9.9404 338
9.96051 359
9.98062 342
10.00074 320
10.02085 324
10.04097 338
10.06108 326
10.08119 325
10.10131 315
10.12142 298
10.14153 320
10.16165 329
10.18176 324
10.20187 333
10.22199 330
10.2421 287
10.26222 331
10.28233 328
10.30244 343
10.32256 348
10.34267 360
10.36278 303
10.3829 331
10.40301 363
10.42313 350
10.44324 306
10.46335 363
10.48347 350
10.50358 323
10.52369 343
10.54381 317
10.56392 324
10.58403 332
10.60415 329
10.62426 352
10.64438 326
10.66449 358
10.6846 335
10.70472 345
10.72483 309
10.74494 320
10.76506 346
10.78517 348
10.80529 354
10.8254 320
10.84551 329
10.86563 307
10.88574 340
10.90585 330
10.92597 354
10.94608 314
10.9662 308
10.98631 315
11.00642 369
11.02654 342
11.04665 360
11.06676 374
11.08688 341
11.10699 365
11.1271 344
11.14722 336
11.16733 344
11.18745 334
11.20756 362
11.22767 360
11.24779 357
11.2679 356
11.28801 350
11.30813 372
11.32824 343
11.34836 363
11.36847 355
11.38858 371
11.4087 390
11.42881 358
11.44892 381
11.46904 391
11.48915 372
11.50927 350
11.52938 403
11.54949 363
11.56961 447
11.58972 360
11.60983 406
11.62995 390
11.65006 402
11.67017 367
11.69029 439
11.7104 452
11.73052 442
11.75063 388
11.77074 404
11.79086 445
11.81097 489
11.83108 515
11.8512 533
11.87131 509
11.89143 537
11.91154 556
11.93165 474
11.95177 530
11.97188 554
11.99199 500
12.01211 586
12.03222 556
12.05234 541
12.07245 594
12.09256 606
12.11268 626
12.13279 647
12.1529 633
12.17302 623
12.19313 630
12.21324 622
12.23336 687
12.25347 615
12.27359 674
12.2937 672
12.31381 647
12.33393 618
12.35404 621
12.37415 554
12.39427 552
12.41438 622
12.4345 529
12.45461 558
12.47472 508
12.49484 521
12.51495 533
12.53506 518
12.55518 424
12.57529 466
12.5954 461
12.61552 427
12.63563 401
12.65575 455
12.67586 379
12.69597 442
12.71609 415
12.7362 363
12.75631 366
12.77643 377
12.79654 342
12.81666 364
12.83677 349
12.85688 388
12.877 350
12.89711 360
12.91722 369
12.93734 324
12.95745 319
12.97757 345
12.99768 324
13.01779 354
13.03791 319
13.05802 363
13.07813 337
13.09825 324
13.11836 325
13.13847 302
13.15859 312
13.1787 297
13.19882 291
13.21893 300
13.23904 304
13.25916 300
13.27927 316
13.29938 296
13.3195 334
13.33961 275
13.35973 298
13.37984 273
13.39995 257
13.42007 272
13.44018 282
13.46029 277
13.48041 340
13.50052 309
13.52064 310
13.54075 278
13.56086 299
13.58098 281
13.60109 330
13.6212 285
13.64132 313
13.66143 304
13.68154 329
13.70166 291
13.72177 313
13.74189 324
13.762 347
13.78211 335
13.80223 314
13.82234 325
13.84245 293
13.86257 309
13.88268 325
13.9028 301
13.92291 275
13.94302 286
13.96314 285
13.98325 275
14.00336 279
14.02348 280
14.04359 291
14.06371 260
14.08382 319
14.10393 269
14.12405 294
14.14416 259
14.16427 254
14.18439 281
14.2045 284
14.22461 301
14.24473 248
14.26484 299
14.28496 302
14.30507 294
14.32518 296
14.3453 267
14.36541 256
14.38552 246
14.40564 278
14.42575 268
14.44587 290
14.46598 267
14.48609 250
14.50621 268
14.52632 277
14.54643 297
14.56655 262
14.58666 289
14.60677 282
14.62689 244
14.647 266
14.66712 259
14.68723 266
14.70734 272
14.72746 233
14.74757 275
14.76768 270
14.7878 266
14.80791 285
14.82803 268
14.84814 266
14.86825 252
14.88837 325
14.90848 280
14.92859 272
14.94871 293
14.96882 240
14.98894 300
15.00905 280
15.02916 283
15.04928 274
15.06939 272
15.0895 287
15.10962 316
15.12973 287
15.14984 291
15.16996 251
15.19007 270
15.21019 255
15.2303 247
15.25041 285
15.27053 266
15.29064 237
15.31075 239
15.33087 266
15.35098 285
15.3711 252
15.39121 243
15.41132 308
15.43144 256
15.45155 277
15.47166 248
15.49178 290
15.51189 273
15.53201 272
15.55212 247
15.57223 268
15.59235 284
15.61246 275
15.63257 250
15.65269 294
15.6728 252
15.69291 233
15.71303 239
15.73314 268
15.75326 270
15.77337 273
15.79348 244
15.8136 284
15.83371 282
15.85382 236
15.87394 242
15.89405 263
15.91417 276
15.93428 268
15.95439 265
15.97451 256
15.99462 232
16.01473 261
16.03485 264
16.05496 233
16.07508 245
16.09519 255
16.1153 246
16.13542 291
16.15553 258
16.17564 289
16.19576 276
16.21587 208
16.23598 241
16.2561 259
16.27621 271
16.29633 242
16.31644 308
16.33655 267
16.35667 231
16.37678 245
16.39689 241
16.41701 277
16.43712 265
16.45724 268
16.47735 259
16.49746 272
16.51758 249
16.53769 247
16.5578 263
16.57792 280
16.59803 302
16.61814 247
16.63826 266
16.65837 238
16.67849 257
16.6986 271
16.71871 262
16.73883 251
16.75894 244
16.77905 271
16.79917 252
16.81928 264
16.8394 268
16.85951 260
16.87962 250
16.89974 239
16.91985 249
16.93996 260
16.96008 264
16.98019 261
17.00031 263
17.02042 266
17.04053 269
17.06065 258
17.08076 274
17.10087 254
17.12099 282
17.1411 262
17.16121 270
17.18133 261
17.20144 262
17.22156 248
17.24167 251
17.26178 277
17.2819 255
17.30201 248
17.32212 263
17.34224 271
17.36235 246
17.38247 231
17.40258 245
17.42269 222
17.44281 248
17.46292 255
17.48303 247
17.50315 247
17.52326 234
17.54338 236
17.56349 261
17.5836 228
17.60372 285
17.62383 293
17.64394 277
17.66406 245
17.68417 275
17.70428 269
17.7244 265
17.74451 260
17.76463 268
17.78474 287
17.80485 293
17.82497 272
17.84508 257
17.86519 280
17.88531 285
17.90542 258
17.92554 272
17.94565 260
17.96576 287
17.98588 247
18.00599 252
18.0261 263
18.04622 244
18.06633 269
18.08645 265
18.10656 260
18.12667 261
18.14679 240
18.1669 257
18.18701 268
18.20713 256
18.22724 254
18.24735 282
18.26747 247
18.28758 277
18.3077 244
18.32781 255
18.34792 220
18.36804 255
18.38815 242
18.40826 244
18.42838 259
18.44849 246
18.46861 238
18.48872 249
18.50883 299
18.52895 277
18.54906 280
18.56917 247
18.58929 251
18.6094 291
18.62951 256
18.64963 251
18.66974 265
18.68986 300
18.70997 290
18.73008 283
18.7502 305
18.77031 263
18.79042 280
18.81054 288
18.83065 291
18.85077 241
18.87088 276
18.89099 260
18.91111 266
18.93122 266
18.95133 281
18.97145 281
18.99156 271
19.01168 253
19.03179 266
19.0519 255
19.07202 292
19.09213 250
19.11224 278
19.13236 285
19.15247 273
19.17258 292
19.1927 290
19.21281 287
19.23293 276
19.25304 317
19.27315 326
19.29327 290
19.31338 342
19.33349 318
19.35361 321
19.37372 330
19.39384 295
19.41395 313
19.43406 347
19.45418 348
19.47429 364
19.4944 378
19.51452 375
19.53463 384
19.55475 354
19.57486 366
19.59497 419
19.61509 404
19.6352 413
19.65531 470
19.67543 434
19.69554 454
19.71565 564
19.73577 590
19.75588 590
19.776 646
19.79611 706
19.81622 671
19.83634 768
19.85645 782
19.87656 720
19.89668 735
19.91679 775
19.93691 753
19.95702 777
19.97713 726
19.99725 676
20.01736 727
20.03747 701
20.05759 701
20.0777 709
20.09782 705
20.11793 652
20.13804 661
20.15816 711
20.17827 687
20.19838 689
20.2185 663
20.23861 694
20.25872 683
20.27884 726
20.29895 659
20.31907 703
20.33918 672
20.35929 670
20.37941 700
20.39952 699
20.41963 695
20.43975 703
20.45986 694
20.47998 736
20.50009 788
20.5202 792
20.54032 833
20.56043 856
20.58054 927
20.60066 981
20.62077 1142
20.64088 1248
20.661 1570
20.68111 1849
20.70123 2312
20.72134 2834
20.74145 3504
20.76157 4170
20.78168 4603
20.80179 4961
20.82191 4809
20.84202 4561
20.86214 3736
20.88225 2992
20.90236 2359
20.92248 1732
20.94259 1361
20.9627 1026
20.98282 1012
21.00293 907
21.02305 793
21.04316 795
21.06327 770
21.08339 732
21.1035 676
21.12361 696
21.14373 581
21.16384 616
21.18395 614
21.20407 567
21.22418 584
21.2443 612
21.26441 569
21.28452 580
21.30464 589
21.32475 559
21.34486 558
21.36498 571
21.38509 541
21.40521 577
21.42532 535
21.44543 571
21.46555 597
21.48566 584
21.50577 536
21.52589 510
21.546 518
21.56612 524
21.58623 540
21.60634 519
21.62646 512
21.64657 541
21.66668 548
21.6868 524
21.70691 521
21.72702 513
21.74714 506
21.76725 505
21.78737 503
21.80748 549
21.82759 539
21.84771 575
21.86782 603
21.88793 597
21.90805 675
21.92816 646
21.94828 657
21.96839 639
21.9885 635
22.00862 565
22.02873 541
22.04884 516
22.06896 499
22.08907 435
22.10919 489
22.1293 437
22.14941 485
22.16953 427
22.18964 520
22.20975 456
22.22987 423
22.24998 435
22.27009 480
22.29021 402
22.31032 441
22.33044 442
22.35055 412
22.37066 481
22.39078 476
22.41089 455
22.431 444
22.45112 415
22.47123 480
22.49135 460
22.51146 380
22.53157 450
22.55169 431
22.5718 424
22.59191 413
22.61203 396
22.63214 396
22.65225 428
22.67237 392
22.69248 404
22.7126 401
22.73271 395
22.75282 412
22.77294 413
22.79305 425
22.81316 404
22.83328 416
22.85339 450
22.87351 447
22.89362 479
22.91373 440
22.93385 482
22.95396 418
22.97407 430
22.99419 440
23.0143 460
23.03442 481
23.05453 439
23.07464 427
23.09476 459
23.11487 454
23.13498 452
23.1551 441
23.17521 418
23.19532 434
23.21544 406
23.23555 436
23.25567 411
23.27578 384
23.29589 394
23.31601 374
23.33612 403
23.35623 438
23.37635 431
23.39646 420
23.41658 418
23.43669 421
23.4568 427
23.47692 492
23.49703 471
23.51714 462
23.53726 472
23.55737 486
23.57749 478
23.5976 485
23.61771 433
23.63783 494
23.65794 449
23.67805 459
23.69817 425
23.71828 446
23.73839 409
23.75851 428
23.77862 471
23.79874 523
23.81885 513
23.83896 524
23.85908 541
23.87919 589
23.8993 613
23.91942 556
23.93953 615
23.95965 592
23.97976 551
23.99987 576
24.01999 547
24.0401 497
24.06021 494
24.08033 485
24.10044 492
24.12056 473
24.14067 456
24.16078 541
24.1809 511
24.20101 516
24.22112 585
24.24124 563
24.26135 596
24.28146 555
24.30158 556
24.32169 546
24.34181 524
24.36192 527
24.38203 550
24.40215 535
24.42226 545
24.44237 520
24.46249 547
24.4826 533
24.50272 523
24.52283 508
24.54294 539
24.56306 541
24.58317 567
24.60328 578
24.6234 521
24.64351 590
24.66362 598
24.68374 606
24.70385 623
24.72397 627
24.74408 650
24.76419 578
24.78431 653
24.80442 628
24.82453 595
24.84465 615
24.86476 611
24.88488 638
24.90499 633
24.9251 571
24.94522 626
24.96533 654
24.98544 592
25.00556 572
25.02567 596
25.04579 598
25.0659 597
25.08601 626
25.10613 584
25.12624 612
25.14635 606
25.16647 563
25.18658 599
25.20669 573
25.22681 537
25.24692 498
25.26704 500
25.28715 540
25.30726 508
25.32738 559
25.34749 505
25.3676 564
25.38772 562
25.40783 542
25.42795 542
25.44806 500
25.46817 566
25.48829 548
25.5084 541
25.52851 579
25.54863 580
25.56874 576
25.58886 582
25.60897 548
25.62908 607
25.6492 522
25.66931 568
25.68942 569
25.70954 600
25.72965 549
25.74976 578
25.76988 638
25.78999 610
25.81011 585
25.83022 573
25.85033 566
25.87045 560
25.89056 613
25.91067 611
25.93079 629
25.9509 592
25.97102 600
25.99113 652
26.01124 659
26.03136 589
26.05147 701
26.07158 660
26.0917 764
26.11181 771
26.13193 801
26.15204 883
26.17215 992
26.19227 1052
26.21238 1024
26.23249 1209
26.25261 1289
26.27272 1398
26.29283 1569
26.31295 1718
26.33306 2076
26.35318 2476
26.37329 3060
26.3934 3668
26.41352 4660
26.43363 5846
26.45374 7482
26.47386 9387
26.49397 12030
26.51409 14990
26.5342 17653
26.55431 19593
26.57443 21033
26.59454 20834
26.61465 19251
26.63477 16465
26.65488 13064
26.67499 10160
26.69511 7251
26.71522 4973
26.73534 3423
26.75545 2368
26.77556 1864
26.79568 1515
26.81579 1363
26.8359 1143
26.85602 1068
26.87613 1113
26.89625 1045
26.91636 939
26.93647 830
26.95659 812
26.9767 758
26.99681 757
27.01693 764
27.03704 717
27.05716 703
27.07727 733
27.09738 660
27.1175 621
27.13761 588
27.15772 581
27.17784 611
27.19795 573
27.21806 623
27.23818 582
27.25829 595
27.27841 592
27.29852 589
27.31863 629
27.33875 706
27.35886 679
27.37897 737
27.39909 732
27.4192 699
27.43932 684
27.45943 690
27.47954 673
27.49966 608
27.51977 605
27.53988 622
27.56 592
27.58011 559
27.60023 577
27.62034 615
27.64045 699
27.66057 735
27.68068 676
27.70079 725
27.72091 799
27.74102 800
27.76113 843
27.78125 774
27.80136 792
27.82148 746
27.84159 753
27.8617 697
27.88182 735
27.90193 729
27.92204 729
27.94216 673
27.96227 631
27.98239 630
28.0025 548
28.02261 511
28.04273 531
28.06284 447
28.08295 430
28.10307 421
28.12318 453
28.1433 447
28.16341 437
28.18352 445
28.20364 509
28.22375 457
28.24386 448
28.26398 420
28.28409 412
28.3042 382
28.32432 437
28.34443 425
28.36455 406
28.38466 406
28.40477 409
28.42489 408
28.445 367
28.46511 389
28.48523 367
28.50534 358
28.52546 360
28.54557 366
28.56568 370
28.5858 392
28.60591 373
28.62602 344
28.64614 363
28.66625 331
28.68636 387
28.70648 364
28.72659 346
28.74671 350
28.76682 349
28.78693 374
28.80705 402
28.82716 361
28.84727 346
28.86739 322
28.8875 309
28.90762 347
28.92773 358
28.94784 355
28.96796 345
28.98807 334
29.00818 351
29.0283 312
29.04841 323
29.06853 339
29.08864 358
29.10875 347
29.12887 322
29.14898 335
29.16909 325
29.18921 357
29.20932 327
29.22943 352
29.24955 360
29.26966 364
29.28978 329
29.30989 358
29.33 372
29.35012 372
29.37023 375
29.39034 341
29.41046 388
29.43057 329
29.45069 337
29.4708 360
29.49091 327
29.51103 354
29.53114 355
29.55125 369
29.57137 399
29.59148 383
29.6116 344
29.63171 354
29.65182 363
29.67194 393
29.69205 367
29.71216 331
29.73228 369
29.75239 382
29.7725 390
29.79262 407
29.81273 347
29.83285 363
29.85296 347
29.87307 371
29.89319 349
29.9133 368
29.93341 371
29.95353 370
29.97364 375
29.99376 365
30.01387 366
30.03398 354
30.0541 354
30.07421 319
30.09432 388
30.11444 376
30.13455 376
30.15467 335
30.17478 378
30.19489 409
30.21501 371
30.23512 353
30.25523 440
30.27535 413
30.29546 434
30.31557 381
30.33569 391
30.3558 405
30.37592 443
30.39603 420
30.41614 399
30.43626 380
30.45637 401
30.47648 382
30.4966 352
30.51671 362
30.53683 356
30.55694 342
30.57705 355
30.59717 341
30.61728 349
30.63739 328
30.65751 336
30.67762 384
30.69773 352
30.71785 355
30.73796 356
30.75808 394
30.77819 336
30.7983 344
30.81842 349
30.83853 341
30.85864 322
30.87876 338
30.89887 317
30.91899 300
30.9391 302
30.95921 306
30.97933 295
30.99944 300
31.01955 317
31.03967 351
31.05978 302
31.0799 340
31.10001 333
31.12012 323
31.14024 279
31.16035 328
31.18046 307
31.20058 314
31.22069 344
31.2408 321
31.26092 337
31.28103 320
31.30115 367
31.32126 333
31.34137 329
31.36149 327
31.3816 346
31.40171 346
31.42183 335
31.44194 322
31.46206 289
31.48217 316
31.50228 314
31.5224 310
31.54251 304
31.56262 318
31.58274 309
31.60285 291
31.62297 297
31.64308 300
31.66319 314
31.68331 286
31.70342 298
31.72353 309
31.74365 327
31.76376 313
31.78387 320
31.80399 305
31.8241 307
31.84422 301
31.86433 257
31.88444 308
31.90456 277
31.92467 267
31.94478 294
31.9649 318
31.98501 286
32.00513 290
32.02524 288
32.04535 300
32.06547 322
32.08558 325
32.10569 328
32.12581 313
32.14592 301
32.16604 319
32.18615 337
32.20626 316
32.22638 312
32.24649 309
32.2666 308
32.28672 310
32.30683 311
32.32694 364
32.34706 304
32.36717 323
32.38729 325
32.4074 280
32.42751 323
32.44763 309
32.46774 325
32.48785 310
32.50797 279
32.52808 291
32.5482 322
32.56831 313
32.58842 294
32.60854 310
32.62865 332
32.64876 305
32.66888 333
32.68899 345
32.7091 311
32.72922 302
32.74933 324
32.76945 316
32.78956 324
32.80967 309
32.82979 338
32.8499 337
32.87001 325
32.89013 358
32.91024 357
32.93036 326
32.95047 317
32.97058 372
32.9907 351
33.01081 367
33.03092 368
33.05104 370
33.07115 359
33.09127 339
33.11138 391
33.13149 368
33.15161 364
33.17172 346
33.19183 353
33.21195 354
33.23206 355
33.25217 384
33.27229 354
33.2924 361
33.31252 370
33.33263 323
33.35274 345
33.37286 328
33.39297 344
33.41308 352
33.4332 321
33.45331 324
33.47343 310
33.49354 300
33.51365 341
33.53377 320
33.55388 353
33.57399 318
33.59411 326
33.61422 305
33.63434 289
33.65445 316
33.67456 292
33.69468 313
33.71479 321
33.7349 331
33.75502 360
33.77513 369
33.79524 313
33.81536 351
33.83547 288
33.85559 316
33.8757 312
33.89581 299
33.91593 300
33.93604 320
33.95615 284
33.97627 309
33.99638 311
34.0165 341
34.03661 347
34.05672 342
34.07684 323
34.09695 339
34.11706 335
34.13718 383
34.15729 385
34.17741 368
34.19752 344
34.21763 350
34.23775 348
34.25786 346
34.27797 369
34.29809 368
34.3182 326
34.33831 336
34.35843 350
34.37854 348
34.39866 346
34.41877 345
34.43888 337
34.459 347
34.47911 374
34.49922 359
34.51934 371
34.53945 377
34.55957 404
34.57968 337
34.59979 402
34.61991 368
34.64002 387
34.66013 417
34.68025 406
34.70036 439
34.72047 415
34.74059 433
34.7607 419
34.78082 506
34.80093 475
34.82104 490
34.84116 521
34.86127 485
34.88138 499
34.9015 524
34.92161 480
34.94173 488
34.96184 446
34.98195 450
35.00207 508
35.02218 510
35.04229 481
35.06241 508
35.08252 483
35.10264 476
35.12275 528
35.14286 447
35.16298 470
35.18309 448
35.2032 528
35.22332 525
35.24343 484
35.26354 528
35.28366 488
35.30377 478
35.32389 446
35.344 498
35.36411 496
35.38423 517
35.40434 493
35.42445 480
35.44457 514
35.46468 520
35.4848 483
35.50491 472
35.52502 507
35.54514 489
35.56525 538
35.58536 521
35.60548 525
35.62559 507
35.64571 540
35.66582 509
35.68593 586
35.70605 565
35.72616 520
35.74627 560
35.76639 508
35.7865 531
35.80661 522
35.82673 506
35.84684 545
35.86696 475
35.88707 516
35.90718 462
35.9273 476
35.94741 495
35.96752 512
35.98764 465
36.00775 487
36.02787 510
36.04798 518
36.06809 501
36.08821 500
36.10832 480
36.12843 515
36.14855 496
36.16866 556
36.18878 559
36.20889 594
36.229 573
36.24912 599
36.26923 610
36.28934 729
36.30946 770
36.32957 871
36.34968 974
36.3698 1103
36.38991 1233
36.41003 1342
36.43014 1504
36.45025 1677
36.47037 1675
36.49048 1678
36.51059 1585
36.53071 1532
36.55082 1334
36.57094 1148
36.59105 1015
36.61116 891
36.63128 761
36.65139 623
36.6715 548
36.69162 489
36.71173 494
36.73184 449
36.75196 477
36.77207 489
36.79219 490
36.8123 476
36.83241 471
36.85253 473
36.87264 441
36.89275 438
36.91287 460
36.93298 442
36.9531 439
36.97321 464
36.99332 429
37.01344 435
37.03355 421
37.05366 434
37.07378 408
37.09389 432
37.11401 441
37.13412 425
37.15423 401
37.17435 396
37.19446 410
37.21457 388
37.23469 410
37.2548 393
37.27491 386
37.29503 373
37.31514 399
37.33526 405
37.35537 387
37.37548 400
37.3956 430
37.41571 399
37.43582 403
37.45594 424
37.47605 413
37.49617 410
37.51628 408
37.53639 373
37.55651 388
37.57662 415
37.59673 424
37.61685 418
37.63696 440
37.65708 389
37.67719 377
37.6973 415
37.71742 411
37.73753 371
37.75764 401
37.77776 424
37.79787 382
37.81798 444
37.8381 424
37.85821 407
37.87833 385
37.89844 396
37.91855 405
37.93867 394
37.95878 415
37.97889 438
37.99901 428
38.01912 452
38.03924 455
38.05935 405
38.07946 480
38.09958 457
38.11969 430
38.1398 463
38.15992 443
38.18003 438
38.20015 462
38.22026 462
38.24037 464
38.26049 426
38.2806 446
38.30071 463
38.32083 423
38.34094 428
38.36105 468
38.38117 475
38.40128 469
38.4214 454
38.44151 471
38.46162 506
38.48174 478
38.50185 438
38.52196 433
38.54208 418
38.56219 452
38.58231 452
38.60242 405
38.62253 451
38.64265 414
38.66276 431
38.68287 420
38.70299 426
38.7231 381
38.74321 432
38.76333 417
38.78344 420
38.80356 404
38.82367 436
38.84378 393
38.8639 437
38.88401 434
38.90412 415
38.92424 403
38.94435 463
38.96447 418
38.98458 430
39.00469 474
39.02481 446
39.04492 448
39.06503 479
39.08515 465
39.10526 491
39.12538 512
39.14549 508
39.1656 566
39.18572 588
39.20583 713
39.22594 690
39.24606 789
39.26617 884
39.28628 955
39.3064 1093
39.32651 1306
39.34663 1446
39.36674 1558
39.38685 1508
39.40697 1601
39.42708 1474
39.44719 1403
39.46731 1248
39.48742 1117
39.50754 980
39.52765 870
39.54776 754
39.56788 597
39.58799 493
39.6081 467
39.62822 403
39.64833 411
39.66845 371
39.68856 395
39.70867 388
39.72879 387
39.7489 367
39.76901 368
39.78913 369
39.80924 356
39.82935 331
39.84947 360
39.86958 351
39.8897 384
39.90981 371
39.92992 367
39.95004 401
39.97015 424
39.99026 382
40.01038 438
40.03049 431
40.05061 482
40.07072 535
40.09083 574
40.11095 660
40.13106 682
40.15117 765
40.17129 826
40.1914 851
40.21152 906
40.23163 929
40.25174 841
40.27186 787
40.29197 753
40.31208 672
40.3322 614
40.35231 615
40.37242 541
40.39254 476
40.41265 436
40.43277 377
40.45288 376
40.47299 372
40.49311 335
40.51322 358
40.53333 338
40.55345 346
40.57356 349
40.59368 320
40.61379 366
40.6339 329
40.65402 352
40.67413 323
40.69424 338
40.71436 338
40.73447 360
40.75458 316
40.7747 311
40.79481 346
40.81493 364
40.83504 350
40.85515 354
40.87527 303
40.89538 339
40.91549 325
40.93561 366
40.95572 359
40.97584 339
40.99595 339
41.01606 318
41.03618 330
41.05629 344
41.0764 348
41.09652 332
41.11663 367
41.13675 331
41.15686 325
41.17697 332
41.19709 330
41.2172 317
41.23731 285
41.25743 338
41.27754 332
41.29765 334
41.31777 321
41.33788 359
41.358 328
41.37811 347
41.39822 321
41.41834 318
41.43845 319
41.45856 337
41.47868 351
41.49879 370
41.51891 338
41.53902 339
41.55913 350
41.57925 313
41.59936 334
41.61947 378
41.63959 338
41.6597 330
41.67982 368
41.69993 342
41.72004 371
41.74016 376
41.76027 320
41.78038 321
41.8005 352
41.82061 354
41.84072 337
41.86084 340
41.88095 329
41.90107 284
41.92118 324
41.94129 318
41.96141 321
41.98152 351
42.00163 333
42.02175 335
42.04186 354
42.06198 373
42.08209 378
42.1022 383
42.12232 440
42.14243 418
42.16254 488
42.18266 519
42.20277 580
42.22289 545
42.243 685
42.26311 716
42.28323 869
42.30334 968
42.32345 986
42.34357 1064
42.36368 1133
42.38379 1154
42.40391 1111
42.42402 1072
42.44414 907
42.46425 823
42.48436 760
42.50448 691
42.52459 599
42.5447 557
42.56482 485
42.58493 388
42.60505 382
42.62516 383
42.64527 381
42.66539 344
42.6855 340
42.70561 362
42.72573 350
42.74584 328
42.76595 318
42.78607 336
42.80618 299
42.8263 285
42.84641 308
42.86652 320
42.88664 331
42.90675 300
42.92686 320
42.94698 299
42.96709 309
42.98721 288
43.00732 295
43.02743 299
43.04755 305
43.06766 276
43.08777 248
43.10789 284
43.128 295
43.14812 276
43.16823 251
43.18834 265
43.20846 303
43.22857 285
43.24868 269
43.2688 267
43.28891 277
43.30902 249
43.32914 281
43.34925 276
43.36937 288
43.38948 282
43.40959 290
43.42971 271
43.44982 278
43.46993 256
43.49005 282
43.51016 275
43.53028 292
43.55039 275
43.5705 306
43.59062 273
43.61073 263
43.63084 270
43.65096 265
43.67107 285
43.69119 280
43.7113 267
43.73141 286
43.75153 252
43.77164 271
43.79175 259
43.81187 285
43.83198 258
43.85209 272
43.87221 285
43.89232 277
43.91244 268
43.93255 305
43.95266 271
43.97278 271
43.99289 266
44.013 275
44.03312 248
44.05323 294
44.07335 265
44.09346 278
44.11357 262
44.13369 300
44.1538 252
44.17391 289
44.19403 239
44.21414 287
44.23426 260
44.25437 262
44.27448 264
44.2946 268
44.31471 275
44.33482 308
44.35494 258
44.37505 255
44.39516 262
44.41528 280
44.43539 266
44.45551 291
44.47562 279
44.49573 240
44.51585 264
44.53596 279
44.55607 264
44.57619 266
44.5963 294
44.61642 283
44.63653 303
44.65664 294
44.67676 275
44.69687 280
44.71698 288
44.7371 290
44.75721 327
44.77732 292
44.79744 268
44.81755 293
44.83767 270
44.85778 316
44.87789 309
44.89801 327
44.91812 304
44.93823 300
44.95835 281
44.97846 294
44.99858 313
45.01869 302
45.0388 313
45.05892 314
45.07903 295
45.09914 319
45.11926 308
45.13937 306
45.15949 311
45.1796 325
45.19971 320
45.21983 317
45.23994 306
45.26005 347
45.28017 343
45.30028 332
45.32039 341
45.34051 356
45.36062 384
45.38074 323
45.40085 346
45.42096 402
45.44108 387
45.46119 399
45.4813 457
45.50142 424
45.52153 444
45.54165 477
45.56176 526
45.58187 543
45.60199 624
45.6221 695
45.64221 782
45.66233 774
45.68244 793
45.70256 832
45.72267 895
45.74278 809
45.7629 789
45.78301 773
45.80312 666
45.82324 638
45.84335 548
45.86346 554
45.88358 502
45.90369 451
45.92381 422
45.94392 336
45.96403 324
45.98415 307
46.00426 319
46.02437 333
46.04449 301
46.0646 292
46.08472 306
46.10483 315
46.12494 290
46.14506 285
46.16517 313
46.18528 328
46.2054 259
46.22551 302
46.24563 256
46.26574 280
46.28585 288
46.30597 303
46.32608 282
46.34619 275
46.36631 288
46.38642 300
46.40653 299
46.42665 284
46.44676 251
46.46688 303
46.48699 319
46.5071 286
46.52722 288
46.54733 312
46.56744 304
46.58756 258
46.60767 283
46.62779 340
46.6479 310
46.66801 304
46.68813 274
46.70824 289
46.72835 321
46.74847 317
46.76858 291
46.78869 292
46.80881 289
46.82892 298
46.84904 279
46.86915 272
46.88926 295
46.90938 281
46.92949 281
46.9496 312
46.96972 303
46.98983 305
47.00995 347
47.03006 299
47.05017 293
47.07029 302
47.0904 281
47.11051 330
47.13063 307
47.15074 309
47.17086 284
47.19097 303
47.21108 296
47.2312 287
47.25131 287
47.27142 292
47.29154 310
47.31165 298
47.33176 312
47.35188 274
47.37199 354
47.39211 273
47.41222 281
47.43233 306
47.45245 276
47.47256 358
47.49267 312
47.51279 311
47.5329 290
47.55302 297
47.57313 314
47.59324 306
47.61336 280
47.63347 299
47.65358 278
47.6737 293
47.69381 286
47.71393 315
47.73404 272
47.75415 294
47.77427 325
47.79438 292
47.81449 272
47.83461 302
47.85472 297
47.87483 269
47.89495 309
47.91506 328
47.93518 305
47.95529 293
47.9754 291
47.99552 323
48.01563 286
48.03574 304
48.05586 300
48.07597 282
48.09609 292
48.1162 299
48.13631 308
48.15643 321
48.17654 306
48.19665 284
48.21677 295
48.23688 267
48.257 307
48.27711 312
48.29722 297
48.31734 313
48.33745 302
48.35756 317
48.37768 283
48.39779 278
48.4179 292
48.43802 307
48.45813 299
48.47825 280
48.49836 301
48.51847 294
48.53859 275
48.5587 263
48.57881 293
48.59893 302
48.61904 305
48.63916 290
48.65927 285
48.67938 293
48.6995 312
48.71961 321
48.73972 313
48.75984 344
48.77995 306
48.80006 285
48.82018 306
48.84029 295
48.86041 301
48.88052 278
48.90063 341
48.92075 301
48.94086 316
48.96097 334
48.98109 342
49.0012 303
49.02132 315
49.04143 324
49.06154 349
49.08166 325
49.10177 340
49.12188 333
49.142 321
49.16211 334
49.18223 309
49.20234 322
49.22245 313
49.24257 302
49.26268 318
49.28279 305
49.30291 320
49.32302 304
49.34313 303
49.36325 334
49.38336 316
49.40348 329
49.42359 287
49.4437 330
49.46382 325
49.48393 356
49.50404 347
49.52416 360
49.54427 378
49.56439 364
49.5845 364
49.60461 396
49.62473 393
49.64484 399
49.66495 431
49.68507 476
49.70518 516
49.7253 470
49.74541 518
49.76552 579
49.78564 598
49.80575 632
49.82586 654
49.84598 791
49.86609 824
49.8862 902
49.90632 1058
49.92643 1160
49.94655 1388
49.96666 1577
49.98677 1821
50.00689 2019
50.027 2223
50.04711 2274
50.06723 2276
50.08734 2170
50.10746 2004
50.12757 1832
50.14768 1585
50.1678 1465
50.18791 1308
50.20802 1230
50.22814 1008
50.24825 840
50.26837 724
50.28848 597
50.30859 510
50.32871 459
50.34882 423
50.36893 412
50.38905 398
50.40916 391
50.42927 425
50.44939 447
50.4695 389
50.48962 416
50.50973 400
50.52984 407
50.54996 404
50.57007 378
50.59018 385
50.6103 363
50.63041 369
50.65053 364
50.67064 352
50.69075 345
50.71087 371
50.73098 352
50.75109 338
50.77121 350
50.79132 281
50.81143 336
50.83155 319
50.85166 283
50.87178 309
50.89189 271
50.912 321
50.93212 282
50.95223 289
50.97234 302
50.99246 331
51.01257 288
51.03269 272
51.0528 307
51.07291 331
51.09303 322
51.11314 282
51.13325 286
51.15337 300
51.17348 305
51.1936 317
51.21371 288
51.23382 292
51.25394 301
51.27405 304
51.29416 273
51.31428 311
51.33439 292
51.3545 281
51.37462 294
51.39473 268
51.41485 275
51.43496 269
51.45507 317
51.47519 258
51.4953 267
51.51541 263
51.53553 258
51.55564 257
51.57576 304
51.59587 247
51.61598 276
51.6361 319
51.65621 285
51.67632 277
51.69644 294
51.71655 252
51.73667 273
51.75678 256
51.77689 270
51.79701 256
51.81712 237
51.83723 288
51.85735 229
51.87746 263
51.89757 282
51.91769 244
51.9378 244
51.95792 268
51.97803 269
51.99814 248
52.01826 271
52.03837 261
52.05848 276
52.0786 258
52.09871 266
52.11883 268
52.13894 275
52.15905 260
52.17917 257
52.19928 300
52.21939 257
52.23951 254
52.25962 278
52.27974 244
52.29985 277
52.31996 272
52.34008 232
52.36019 259
52.3803 255
52.40042 285
52.42053 266
52.44064 257
52.46076 272
52.48087 285
52.50099 280
52.5211 305
52.54121 233
52.56133 283
52.58144 284
52.60155 283
52.62167 280
52.64178 285
52.6619 266
52.68201 279
52.70212 291
52.72224 255
52.74235 275
52.76246 266
52.78258 302
52.80269 273
52.8228 246
52.84292 275
52.86303 271
52.88315 274
52.90326 276
52.92337 291
52.94349 282
52.9636 302
52.98371 252
53.00383 287
53.02394 301
53.04406 324
53.06417 302
53.08428 282
53.1044 264
53.12451 269
53.14462 297
53.16474 271
53.18485 268
53.20497 271
53.22508 286
53.24519 302
53.26531 301
53.28542 284
53.30553 281
53.32565 302
53.34576 273
53.36587 284
53.38599 274
53.4061 310
53.42622 268
53.44633 309
53.46644 280
53.48656 318
53.50667 277
53.52678 307
53.5469 296
53.56701 283
53.58713 337
53.60724 298
53.62735 286
53.64747 319
53.66758 289
53.68769 341
53.70781 334
53.72792 318
53.74804 355
53.76815 312
53.78826 307
53.80838 307
53.82849 323
53.8486 343
53.86872 315
53.88883 334
53.90894 361
53.92906 355
53.94917 313
53.96929 354
53.9894 358
54.00951 355
54.02963 346
54.04974 363
54.06985 346
54.08997 380
54.11008 358
54.1302 332
54.15031 378
54.17042 369
54.19054 369
54.21065 367
54.23076 390
54.25088 376
54.27099 383
54.29111 382
54.31122 366
54.33133 383
54.35145 387
54.37156 378
54.39167 363
54.41179 408
54.4319 431
54.45201 373
54.47213 387
54.49224 380
54.51236 438
54.53247 436
54.55258 419
54.5727 472
54.59281 505
54.61292 506
54.63304 556
54.65315 599
54.67327 668
54.69338 735
54.71349 798
54.73361 845
54.75372 869
54.77383 879
54.79395 878
54.81406 858
54.83417 852
54.85429 780
54.8744 731
54.89452 753
54.91463 687
54.93474 609
54.95486 644
54.97497 589
54.99508 579
55.0152 516
55.03531 488
55.05543 471
55.07554 483
55.09565 474
55.11577 480
55.13588 474
55.15599 516
55.17611 535
55.19622 550
55.21634 616
55.23645 590
55.25656 613
55.27668 564
55.29679 533
55.3169 518
55.33702 451
55.35713 469
55.37724 447
55.39736 437
55.41747 445
55.43759 412
55.4577 409
55.47781 358
55.49793 343
55.51804 360
55.53815 332
55.55827 343
55.57838 322
55.5985 307
55.61861 373
55.63872 336
55.65884 335
55.67895 321
55.69906 317
55.71918 318
55.73929 304
55.75941 305
55.77952 295
55.79963 308
55.81975 306
55.83986 318
55.85997 325
55.88009 324
55.9002 280
55.92031 295
55.94043 297
55.96054 280
55.98066 318
56.00077 300
56.02088 320
56.041 287
56.06111 316
56.08122 275
56.10134 289
56.12145 275
56.14157 305
56.16168 299
56.18179 275
56.20191 296
56.22202 292
56.24213 285
56.26225 306
56.28236 271
56.30248 278
56.32259 311
56.3427 321
56.36282 294
56.38293 294
56.40304 265
56.42316 280
56.44327 261
56.46338 295
56.4835 275
56.50361 260
56.52373 288
56.54384 299
56.56395 244
56.58407 287
56.60418 280
56.62429 303
56.64441 295
56.66452 271
56.68464 291
56.70475 286
56.72486 318
56.74498 280
56.76509 295
56.7852 278
56.80532 266
56.82543 288
56.84554 290
56.86566 271
56.88577 299
56.90589 250
56.926 296
56.94611 294
56.96623 323
56.98634 282
57.00645 293
57.02657 287
57.04668 331
57.0668 302
57.08691 316
57.10702 294
57.12714 306
57.14725 320
57.16736 274
57.18748 339
57.20759 305
57.22771 327
57.24782 286
57.26793 284
57.28805 294
57.30816 282
57.32827 306
57.34839 290
57.3685 273
57.38861 312
57.40873 315
57.42884 293
57.44896 301
57.46907 286
57.48918 297
57.5093 315
57.52941 304
57.54952 289
57.56964 288
57.58975 279
57.60987 302
57.62998 305
57.65009 265
57.67021 278
57.69032 263
57.71043 281
57.73055 276
57.75066 267
57.77078 263
57.79089 282
57.811 271
57.83112 268
57.85123 258
57.87134 267
57.89146 272
57.91157 305
57.93168 302
57.9518 263
57.97191 282
57.99203 259
58.01214 252
58.03225 302
58.05237 268
58.07248 278
58.09259 290
58.11271 304
58.13282 262
58.15294 263
58.17305 261
58.19316 239
58.21328 268
58.23339 238
58.2535 311
58.27362 295
58.29373 259
58.31385 261
58.33396 278
58.35407 265
58.37419 302
58.3943 278
58.41441 295
58.43453 286
58.45464 238
58.47475 302
58.49487 276
58.51498 274
58.5351 272
58.55521 290
58.57532 285
58.59544 288
58.61555 316
58.63566 311
58.65578 265
58.67589 265
58.69601 306
58.71612 267
58.73623 293
58.75635 264
58.77646 292
58.79657 277
58.81669 265
58.8368 292
58.85691 254
58.87703 251
58.89714 274
58.91726 275
58.93737 259
58.95748 280
58.9776 286
58.99771 262
59.01782 281
59.03794 269
59.05805 277
59.07817 275
59.09828 292
59.11839 277
59.13851 261
59.15862 276
59.17873 290
59.19885 285
59.21896 279
59.23908 275
59.25919 298
59.2793 280
59.29942 318
59.31953 310
59.33964 329
59.35976 356
59.37987 326
59.39998 320
59.4201 301
59.44021 353
59.46033 357
59.48044 377
59.50055 396
59.52067 428
59.54078 397
59.56089 382
59.58101 457
59.60112 491
59.62124 502
59.64135 545
59.66146 582
59.68158 681
59.70169 760
59.7218 840
59.74192 919
59.76203 989
59.78215 1146
59.80226 1239
59.82237 1355
59.84249 1443
59.8626 1536
59.88271 1544
59.90283 1394
59.92294 1370
59.94305 1221
59.96317 1121
59.98328 1013
60.0034 965
60.02351 956
60.04362 832
60.06374 804
60.08385 743
60.10396 635
60.12408 504
60.14419 454
60.16431 441
60.18442 414
60.20453 366
60.22465 331
60.24476 333
60.26487 360
60.28499 381
60.3051 317
60.32522 333
60.34533 280
60.36544 306
60.38556 314
60.40567 293
60.42578 323
60.4459 295
60.46601 307
60.48612 314
60.50624 281
60.52635 297
60.54647 257
60.56658 277
60.58669 307
60.60681 258
60.62692 268
60.64703 288
60.66715 318
60.68726 287
60.70738 282
60.72749 299
60.7476 304
60.76772 298
60.78783 258
60.80794 296
60.82806 285
60.84817 266
60.86828 274
60.8884 276
60.90851 265
60.92863 276
60.94874 286
60.96885 278
60.98897 270
61.00908 265
61.02919 289
61.04931 284
61.06942 265
61.08954 284
61.10965 296
61.12976 266
61.14988 313
61.16999 268
61.1901 315
61.21022 288
61.23033 300
61.25045 287
61.27056 269
61.29067 266
61.31079 294
61.3309 283
61.35101 301
61.37113 257
61.39124 303
61.41135 269
61.43147 260
61.45158 279
61.4717 261
61.49181 318
61.51192 294
61.53204 316
61.55215 280
61.57226 296
61.59238 300
61.61249 313
61.63261 313
61.65272 316
61.67283 302
61.69295 314
61.71306 301
61.73317 320
61.75329 301
61.7734 315
61.79352 324
61.81363 315
61.83374 316
61.85386 349
61.87397 365
61.89408 373
61.9142 358
61.93431 380
61.95442 349
61.97454 374
61.99465 387
62.01477 376
62.03488 421
62.05499 396
62.07511 399
62.09522 425
62.11533 430
62.13545 433
62.15556 440
62.17568 463
62.19579 436
62.2159 444
62.23602 435
62.25613 464
62.27624 419
62.29636 427
62.31647 406
62.33659 441
62.3567 401
62.37681 381
62.39693 389
62.41704 372
62.43715 384
62.45727 351
62.47738 375
62.49749 343
62.51761 336
62.53772 298
62.55784 356
62.57795 361
62.59806 338
62.61818 343
62.63829 333
62.6584 307
62.67852 318
62.69863 339
62.71875 334
62.73886 285
62.75897 299
62.77909 310
62.7992 278
62.81931 307
62.83943 298
62.85954 307
62.87965 297
62.89977 303
62.91988 335
62.94 298
62.96011 295
62.98022 313
63.00034 278
63.02045 293
63.04056 307
63.06068 289
63.08079 301
63.10091 276
63.12102 324
63.14113 289
63.16125 297
63.18136 299
63.20147 301
63.22159 303
63.2417 322
63.26182 315
63.28193 290
63.30204 305
63.32216 305
63.34227 313
63.36238 298
63.3825 289
63.40261 287
63.42272 282
63.44284 275
63.46295 288
63.48307 294
63.50318 307
63.52329 301
63.54341 312
63.56352 297
63.58363 309
63.60375 330
63.62386 313
63.64398 354
63.66409 357
63.6842 336
63.70432 374
63.72443 363
63.74454 400
63.76466 390
63.78477 398
63.80489 431
63.825 416
63.84511 413
63.86523 436
63.88534 516
63.90545 510
63.92557 531
63.94568 581
63.96579 489
63.98591 489
64.00602 505
64.02614 485
64.04625 444
64.06636 406
64.08648 438
64.10659 420
64.1267 430
64.14682 411
64.16693 383
64.18705 368
64.20716 363
64.22727 320
64.24739 294
64.2675 334
64.28761 299
64.30773 308
64.32784 282
64.34796 261
64.36807 295
64.38818 260
64.4083 274
64.42841 296
64.44852 256
64.46864 281
64.48875 300
64.50886 260
64.52898 282
64.54909 285
64.56921 252
64.58932 295
64.60943 260
64.62955 268
64.64966 226
64.66977 256
64.68989 256
64.71 281
64.73012 246
64.75023 286
64.77034 298
64.79046 279
64.81057 270
64.83068 259
64.8508 272
64.87091 246
64.89102 276
64.91114 276
64.93125 264
64.95137 267
64.97148 253
64.99159 262
65.01171 258
65.03182 255
65.05193 255
65.07205 264
65.09216 255
65.11228 267
65.13239 283
65.1525 268
65.17262 257
65.19273 289
65.21284 266
65.23296 274
65.25307 269
65.27319 265
65.2933 288
65.31341 298
65.33353 264
65.35364 264
65.37375 291
65.39387 261
65.41398 274
65.43409 276
65.45421 309
65.47432 264
65.49444 289
65.51455 281
65.53466 246
65.55478 277
65.57489 271
65.595 265
65.61512 293
65.63523 306
65.65535 344
65.67546 298
65.69557 336
65.71569 304
65.7358 323
65.75591 291
65.77603 271
65.79614 242
65.81626 289
65.83637 239
65.85648 280
65.8766 287
65.89671 278
65.91682 293
65.93694 280
65.95705 289
65.97716 282
65.99728 241
66.01739 250
66.03751 258
66.05762 287
66.07773 296
66.09785 267
66.11796 271
66.13807 251
66.15819 274
66.1783 274
66.19842 242
66.21853 280
66.23864 255
66.25876 231
66.27887 240
66.29898 254
66.3191 250
66.33921 236
66.35933 276
66.37944 253
66.39955 282
66.41967 255
66.43978 290
66.45989 271
66.48001 286
66.50012 252
66.52023 266
66.54035 261
66.56046 292
66.58058 245
66.60069 254
66.6208 270
66.64092 277
66.66103 247
66.68114 270
66.70126 275
66.72137 270
66.74149 253
66.7616 256
66.78171 270
66.80183 268
66.82194 255
66.84205 265
66.86217 271
66.88228 271
66.90239 264
66.92251 255
66.94262 280
66.96274 272
66.98285 258
67.00296 288
67.02308 265
67.04319 252
67.0633 299
67.08342 273
67.10353 304
67.12365 288
67.14376 300
67.16387 306
67.18399 335
67.2041 351
67.22421 340
67.24433 319
67.26444 320
67.28456 326
67.30467 380
67.32478 376
67.3449 400
67.36501 400
67.38512 420
67.40524 449
67.42535 432
67.44546 490
67.46558 521
67.48569 553
67.50581 592
67.52592 710
67.54603 741
67.56615 788
67.58626 855
67.60637 923
67.62649 977
67.6466 1037
67.66672 1068
67.68683 1032
67.70694 958
67.72706 889
67.74717 810
67.76728 811
67.7874 814
67.80751 820
67.82763 901
67.84774 877
67.86785 916
67.88797 912
67.90808 1000
67.92819 998
67.94831 1079
67.96842 1102
67.98853 1155
68.00865 1240
68.02876 1327
68.04888 1368
68.06899 1394
68.0891 1341
68.10922 1213
68.12933 1194
68.14944 1201
68.16956 1104
68.18967 1248
68.20979 1243
68.2299 1233
68.25001 1208
68.27013 1126
68.29024 968
68.31035 809
68.33047 732
68.35058 671
68.3707 637
68.39081 618
68.41092 557
68.43104 573
68.45115 512
68.47126 439
68.49138 435
68.51149 410
68.5316 338
68.55172 340
68.57183 319
68.59195 321
68.61206 282
68.63217 310
68.65229 298
68.6724 300
68.69251 273
68.71263 285
68.73274 274
68.75286 301
68.77297 278
68.79308 317
68.8132 298
68.83331 280
68.85342 260
68.87354 285
68.89365 265
68.91376 305
68.93388 277
68.95399 264
68.97411 258
68.99422 271
69.01433 256
69.03445 272
69.05456 275
69.07467 260
69.09479 272
69.1149 305
69.13502 265
69.15513 282
69.17524 275
69.19536 292
69.21547 226
69.23558 267
69.2557 302
69.27581 261
69.29593 249
69.31604 257
69.33615 278
69.35627 253
69.37638 271
69.39649 267
69.41661 248
69.43672 257
69.45683 253
69.47695 265
69.49706 258
69.51718 258
69.53729 284
69.5574 246
69.57752 283
69.59763 274
69.61774 244
69.63786 247
69.65797 269
69.67809 256
69.6982 281
69.71831 239
69.73843 259
69.75854 259
69.77865 261
69.79877 271
69.81888 258
69.839 282
69.85911 253
69.87922 249
69.89934 271
69.91945 258
69.93956 259
69.95968 264
69.97979 245
69.9999 251
70.02002 243
70.04013 246
70.06025 247
70.08036 242
70.10047 229
70.12059 245
70.1407 234
70.16081 250
70.18093 253
70.20104 264
70.22116 245
70.24127 244
70.26138 240
70.2815 217
70.30161 248
70.32172 245
70.34184 284
70.36195 234
70.38207 228
70.40218 267
70.42229 240
70.44241 227
70.46252 253
70.48263 267
70.50275 240
70.52286 235
70.54297 257
70.56309 227
70.5832 240
70.60332 235
70.62343 250
70.64354 253
70.66366 236
70.68377 252
70.70388 248
70.724 262
70.74411 236
70.76423 254
70.78434 248
70.80445 256
70.82457 245
70.84468 247
70.86479 238
70.88491 262
70.90502 242
70.92513 271
70.94525 239
70.96536 258
70.98548 252
71.00559 248
71.0257 259
71.04582 265
71.06593 266
71.08604 247
71.10616 238
71.12627 253
71.14639 243
71.1665 269
71.18661 260
71.20673 269
71.22684 247
71.24695 245
71.26707 271
71.28718 251
71.3073 276
71.32741 245
71.34752 270
71.36764 279
71.38775 259
71.40786 262
71.42798 260
71.44809 226
71.4682 275
71.48832 266
71.50843 236
71.52855 272
71.54866 236
71.56877 274
71.58889 267
71.609 247
71.62911 251
71.64923 229
71.66934 252
71.68946 265
71.70957 238
71.72968 250
71.7498 214
71.76991 261
71.79002 246
71.81014 241
71.83025 256
71.85037 266
71.87048 231
71.89059 263
71.91071 240
71.93082 230
71.95093 241
71.97105 218
71.99116 255
72.01127 250
72.03139 256
72.0515 251
72.07162 279
72.09173 257
72.11184 262
72.13196 266
72.15207 257
72.17218 257
72.1923 284
72.21241 243
72.23253 234
72.25264 280
72.27275 242
72.29287 264
72.31298 264
72.33309 272
72.35321 254
72.37332 235
72.39344 237
72.41355 268
72.43366 238
72.45378 236
72.47389 244
72.494 248
72.51412 271
72.53423 238
72.55434 247
72.57446 263
72.59457 245
72.61469 247
72.6348 260
72.65491 249
72.67503 280
72.69514 248
72.71525 258
72.73537 260
72.75548 239
72.7756 264
72.79571 253
72.81582 250
72.83594 231
72.85605 275
72.87616 269
72.89628 277
72.91639 264
72.9365 246
72.95662 279
72.97673 288
72.99685 307
73.01696 288
73.03707 317
73.05719 293
73.0773 305
73.09741 300
73.11753 309
73.13764 317
73.15776 324
73.17787 357
73.19798 366
73.2181 365
73.23821 427
73.25832 398
73.27844 422
73.29855 506
73.31867 475
73.33878 527
73.35889 488
73.37901 514
73.39912 503
73.41923 482
73.43935 446
73.45946 403
73.47957 404
73.49969 372
73.5198 382
73.53992 412
73.56003 429
73.58014 393
73.60026 377
73.62037 394
73.64048 380
73.6606 345
73.68071 354
73.70083 326
73.72094 289
73.74105 279
73.76117 290
73.78128 290
73.80139 291
73.82151 242
73.84162 254
73.86174 289
73.88185 290
73.90196 280
73.92208 244
73.94219 280
73.9623 231
73.98242 276
74.00253 255
74.02264 248
74.04276 272
74.06287 240
74.08299 247
74.1031 255
74.12321 254
74.14333 249
74.16344 257
74.18355 256
74.20367 257
74.22378 253
74.2439 280
74.26401 271
74.28412 260
74.30424 251
74.32435 257
74.34446 242
74.36458 240
74.38469 243
74.40481 263
74.42492 249
74.44503 286
74.46515 253
74.48526 256
74.50537 259
74.52549 254
74.5456 255
74.56571 258
74.58583 256
74.60594 233
74.62606 265
74.64617 272
74.66628 262
74.6864 270
74.70651 284
74.72662 267
74.74674 257
74.76685 262
74.78697 238
74.80708 273
74.82719 251
74.84731 257
74.86742 238
74.88753 277
74.90765 295
74.92776 250
74.94787 237
74.96799 245
74.9881 310
75.00822 281
