3.00117 20108
3.02128 19671
3.0414 18733
3.06151 18831
3.08162 18025
3.10174 17615
3.12185 17046
3.14197 16383
3.16208 16356
3.18219 15554
3.20231 15172
3.22242 14946
3.24253 14250
3.26265 14156
3.28276 13302
3.30288 12930
3.32299 12526
3.3431 12143
3.36322 11905
3.38333 11169
3.40344 10947
3.42356 11098
3.44367 10176
3.46379 10104
3.4839 9517
3.50401 9160
3.52413 8705
3.54424 8563
3.56435 8383
3.58447 7700
3.60458 7886
3.62469 7496
3.64481 7061
3.66492 6977
3.68504 6595
3.70515 6268
3.72526 6146
3.74538 5871
3.76549 5855
3.7856 5331
3.80572 5130
3.82583 4997
3.84595 4779
3.86606 4662
3.88617 4483
3.90629 4134
3.9264 4063
3.94651 3875
3.96663 3677
3.98674 3338
4.00686 3295
4.02697 3254
4.04708 3030
4.0672 3047
4.08731 2809
4.10742 2631
4.12754 2582
4.14765 2437
4.16776 2444
4.18788 2122
4.20799 2159
4.22811 2178
4.24822 2049
4.26833 1980
4.28845 1835
4.30856 1854
4.32867 1877
4.34879 1763
4.3689 1562
4.38902 1484
4.40913 1519
4.42924 1616
4.44936 1542
4.46947 1466
4.48958 1450
4.5097 1379
4.52981 1346
4.54992 1356
4.57004 1241
4.59015 1243
4.61027 1227
4.63038 1318
4.65049 1152
4.67061 1104
4.69072 1093
4.71083 1096
4.73095 1105
4.75106 1069
4.77118 947
4.79129 979
4.8114 967
4.83152 1006
4.85163 920
4.87174 907
4.89186 928
4.91197 856
4.93209 905
4.9522 904
4.97231 782
4.99243 809
5.01254 801
5.03265 792
5.05277 765
5.07288 715
5.09299 738
5.11311 710
5.13322 718
5.15334 685
5.17345 651
5.19356 655
5.21368 674
5.23379 669
5.2539 717
5.27402 639
5.29413 637
5.31425 536
5.33436 591
5.35447 579
5.37459 470
5.3947 549
5.41481 537
5.43493 486
5.45504 510
5.47516 524
5.49527 476
5.51538 495
5.5355 503
5.55561 480
5.57572 457
5.59584 473
5.61595 461
5.63606 424
5.65618 467
5.67629 407
5.69641 409
5.71652 414
5.73663 393
5.75675 412
5.77686 406
5.79697 395
5.81709 393
5.8372 355
5.85732 387
5.87743 388
5.89754 372
5.91766 353
5.93777 361
5.95788 371
5.978 392
5.99811 355
6.01823 346
6.03834 340
6.05845 363
6.07857 327
6.09868 318
6.11879 366
6.13891 306
6.15902 316
6.17913 312
6.19925 364
6.21936 326
6.23948 298
6.25959 330
6.2797 310
6.29982 295
6.31993 323
6.34004 322
6.36016 317
6.38027 315
6.40039 353
6.4205 285
6.44061 340
6.46073 327
6.48084 310
6.50095 286
6.52107 297
6.54118 269
6.56129 293
6.58141 296
6.60152 280
6.62164 284
6.64175 294
6.66186 278
6.68198 317
6.70209 323
6.7222 348
6.74232 241
6.76243 293
6.78255 281
6.80266 287
6.82277 300
6.84289 305
6.863 283
6.88311 330
6.90323 272
6.92334 291
6.94346 266
6.96357 289
6.98368 269
7.0038 298
7.02391 290
7.04402 288
7.06414 292
7.08425 301
7.10436 282
7.12448 282
7.14459 282
7.16471 316
7.18482 298
7.20493 280
7.22505 295
7.24516 269
7.26527 292
7.28539 253
7.3055 293
7.32562 283
7.34573 308
7.36584 273
7.38596 296
7.40607 285
7.42618 281
7.4463 265
7.46641 287
7.48653 320
7.50664 289
7.52675 286
7.54687 258
7.56698 279
7.58709 281
7.60721 289
7.62732 268
7.64743 286
7.66755 305
7.68766 324
7.70778 264
7.72789 269
7.748 287
7.76812 326
7.78823 292
7.80834 320
7.82846 273
7.84857 287
7.86869 289
7.8888 274
7.90891 271
7.92903 293
7.94914 327
7.96925 290
7.98937 288
8.00948 319
8.0296 277
8.04971 325
8.06982 312
8.08994 320
8.11005 284
8.13016 311
8.15028 301
8.17039 305
8.1905 280
8.21062 285
8.23073 278
8.25085 306
8.27096 314
8.29107 308
8.31119 312
8.3313 305
8.35141 282
8.37153 313
8.39164 303
8.41176 336
8.43187 293
8.45198 322
8.4721 316
8.49221 307
8.51232 286
8.53244 244
8.55255 303
8.57266 324
8.59278 302
8.61289 290
8.63301 347
8.65312 306
8.67323 292
8.69335 280
8.71346 308
8.73357 303
8.75369 308
8.7738 323
8.79392 294
8.81403 298
8.83414 307
8.85426 330
8.87437 315
8.89448 286
8.9146 303
8.93471 346
8.95483 292
8.97494 301
8.99505 273
9.01517 285
9.03528 300
9.05539 302
9.07551 284
9.09562 304
9.11573 309
9.13585 302
9.15596 315
9.17608 302
9.19619 335
9.2163 317
9.23642 301
9.25653 272
9.27664 306
9.29676 285
9.31687 301
9.33699 305
9.3571 312
9.37721 287
9.39733 284
9.41744 303
9.43755 319
9.45767 330
9.47778 307
9.4979 314
9.51801 288
9.53812 271
9.55824 313
9.57835 288
9.59846 306
9.61858 286
9.63869 276
9.6588 295
9.67892 284
9.69903 302
9.71915 279
9.73926 292
9.75937 327
9.77949 294
9.7996 305
9.81971 315
9.83983 288
9.85994 309
9.88006 305
9.90017 282
9.92028 300
9.9404 313
9.96051 286
9.98062 293
10.00074 292
10.02085 291
10.04097 293
10.06108 268
10.08119 315
10.10131 295
10.12142 321
10.14153 304
10.16165 297
10.18176 278
10.20187 288
10.22199 284
10.2421 303
10.26222 288
10.28233 292
10.30244 295
10.32256 241
10.34267 330
10.36278 283
10.3829 293
10.40301 314
10.42313 292
10.44324 300
10.46335 273
10.48347 308
10.50358 280
10.52369 285
10.54381 313
10.56392 306
10.58403 279
10.60415 314
10.62426 288
10.64438 312
10.66449 318
10.6846 296
10.70472 313
10.72483 319
10.74494 283
10.76506 301
10.78517 314
10.80529 309
10.8254 292
10.84551 303
10.86563 272
10.88574 282
10.90585 294
10.92597 301
10.94608 322
10.9662 292
10.98631 253
11.00642 308
11.02654 290
11.04665 315
11.06676 304
11.08688 303
11.10699 321
11.1271 275
11.14722 316
11.16733 322
11.18745 312
11.20756 310
11.22767 310
11.24779 286
11.2679 331
11.28801 286
11.30813 291
11.32824 312
11.34836 306
11.36847 282
11.38858 298
11.4087 314
11.42881 312
11.44892 341
11.46904 316
11.48915 270
11.50927 313
11.52938 289
11.54949 281
11.56961 299
11.58972 284
11.60983 293
11.62995 307
11.65006 292
11.67017 307
11.69029 319
11.7104 313
11.73052 298
11.75063 311
11.77074 305
11.79086 279
11.81097 278
11.83108 317
11.8512 310
11.87131 303
11.89143 341
11.91154 323
11.93165 307
11.95177 286
11.97188 320
11.99199 341
12.01211 326
12.03222 332
12.05234 320
12.07245 329
12.09256 302
12.11268 297
12.13279 285
12.1529 306
12.17302 310
12.19313 328
12.21324 343
12.23336 302
12.25347 315
12.27359 339
12.2937 327
12.31381 272
12.33393 304
12.35404 324
12.37415 319
12.39427 316
12.41438 314
12.4345 275
12.45461 317
12.47472 274
12.49484 283
12.51495 311
12.53506 320
12.55518 270
12.57529 287
12.5954 271
12.61552 270
12.63563 288
12.65575 272
12.67586 260
12.69597 261
12.71609 328
12.7362 294
12.75631 272
12.77643 283
12.79654 286
12.81666 271
12.83677 279
12.85688 254
12.877 288
12.89711 240
12.91722 277
12.93734 273
12.95745 275
12.97757 271
12.99768 242
13.01779 253
13.03791 247
13.05802 253
13.07813 266
13.09825 305
13.11836 265
13.13847 250
13.15859 277
13.1787 242
13.19882 244
13.21893 265
13.23904 298
13.25916 274
13.27927 268
13.29938 258
13.3195 258
13.33961 267
13.35973 278
13.37984 250
13.39995 271
13.42007 263
13.44018 247
13.46029 237
13.48041 250
13.50052 271
13.52064 252
13.54075 262
13.56086 293
13.58098 291
13.60109 257
13.6212 295
13.64132 286
13.66143 276
13.68154 253
13.70166 257
13.72177 248
13.74189 246
13.762 242
13.78211 244
13.80223 240
13.82234 211
13.84245 275
13.86257 236
13.88268 255
13.9028 249
13.92291 236
13.94302 246
13.96314 263
13.98325 243
14.00336 281
14.02348 250
14.04359 269
14.06371 230
14.08382 219
14.10393 244
14.12405 234
14.14416 276
14.16427 245
14.18439 223
14.2045 229
14.22461 222
14.24473 241
14.26484 229
14.28496 251
14.30507 234
14.32518 245
14.3453 255
14.36541 262
14.38552 243
14.40564 238
14.42575 227
14.44587 254
14.46598 243
14.48609 243
14.50621 228
14.52632 232
14.54643 237
14.56655 223
14.58666 242
14.60677 248
14.62689 246
14.647 243
14.66712 258
14.68723 251
14.70734 232
14.72746 254
14.74757 241
14.76768 225
14.7878 222
14.80791 253
14.82803 239
14.84814 241
14.86825 261
14.88837 246
14.90848 275
14.92859 242
14.94871 236
14.96882 236
14.98894 246
15.00905 271
15.02916 258
15.04928 249
15.06939 255
15.0895 271
15.10962 225
15.12973 225
15.14984 238
15.16996 253
15.19007 194
15.21019 245
15.2303 238
15.25041 238
15.27053 260
15.29064 237
15.31075 231
15.33087 239
15.35098 195
15.3711 235
15.39121 240
15.41132 207
15.43144 226
15.45155 224
15.47166 220
15.49178 244
15.51189 229
15.53201 236
15.55212 244
15.57223 248
15.59235 213
15.61246 199
15.63257 197
15.65269 230
15.6728 245
15.69291 224
15.71303 234
15.73314 207
15.75326 230
15.77337 238
15.79348 205
15.8136 220
15.83371 210
15.85382 217
15.87394 245
15.89405 234
15.91417 230
15.93428 202
15.95439 210
15.97451 247
15.99462 234
16.01473 241
16.03485 256
16.05496 245
16.07508 240
16.09519 214
16.1153 253
16.13542 224
16.15553 255
16.17564 203
16.19576 219
16.21587 219
16.23598 210
16.2561 245
16.27621 259
16.29633 223
16.31644 240
16.33655 237
16.35667 200
16.37678 230
16.39689 230
16.41701 228
16.43712 272
16.45724 246
16.47735 215
16.49746 203
16.51758 256
16.53769 215
16.5578 254
16.57792 240
16.59803 237
16.61814 234
16.63826 249
16.65837 246
16.67849 218
16.6986 224
16.71871 235
16.73883 197
16.75894 233
16.77905 231
16.79917 225
16.81928 237
16.8394 226
16.85951 241
16.87962 259
16.89974 198
16.91985 219
16.93996 265
16.96008 233
16.98019 229
17.00031 225
17.02042 260
17.04053 250
17.06065 211
17.08076 224
17.10087 250
17.12099 224
17.1411 251
17.16121 217
17.18133 250
17.20144 221
17.22156 257
17.24167 231
17.26178 239
17.2819 242
17.30201 220
17.32212 237
17.34224 237
17.36235 260
17.38247 238
17.40258 235
17.42269 255
17.44281 256
17.46292 231
17.48303 225
17.50315 231
17.52326 241
17.54338 219
17.56349 238
17.5836 239
17.60372 256
17.62383 256
17.64394 250
17.66406 270
17.68417 246
17.70428 237
17.7244 227
17.74451 215
17.76463 246
17.78474 248
17.80485 247
17.82497 266
17.84508 246
17.86519 241
17.88531 235
17.90542 265
17.92554 230
17.94565 218
17.96576 236
17.98588 255
18.00599 231
18.0261 253
18.04622 245
18.06633 239
18.08645 247
18.10656 229
18.12667 237
18.14679 240
18.1669 233
18.18701 248
18.20713 234
18.22724 213
18.24735 288
18.26747 253
18.28758 255
18.3077 268
18.32781 254
18.34792 235
18.36804 266
18.38815 234
18.40826 268
18.42838 237
18.44849 245
18.46861 251
18.48872 254
18.50883 253
18.52895 238
18.54906 243
18.56917 250
18.58929 239
18.6094 255
18.62951 243
18.64963 228
18.66974 255
18.68986 279
18.70997 265
18.73008 244
18.7502 246
18.77031 275
18.79042 259
18.81054 273
18.83065 267
18.85077 264
18.87088 274
18.89099 266
18.91111 262
18.93122 249
18.95133 227
18.97145 267
18.99156 282
19.01168 261
19.03179 253
19.0519 256
19.07202 220
19.09213 272
19.11224 252
19.13236 258
19.15247 234
19.17258 253
19.1927 266
19.21281 288
19.23293 303
19.25304 260
19.27315 235
19.29327 251
19.31338 287
19.33349 299
19.35361 290
19.37372 268
19.39384 284
19.41395 277
19.43406 309
19.45418 299
19.47429 305
19.4944 307
19.51452 294
19.53463 322
19.55475 295
19.57486 352
19.59497 353
19.61509 372
19.6352 378
19.65531 414
19.67543 448
19.69554 445
19.71565 383
19.73577 457
19.75588 512
19.776 480
19.79611 511
19.81622 471
19.83634 511
19.85645 518
19.87656 536
19.89668 508
19.91679 522
19.93691 479
19.95702 524
19.97713 450
19.99725 485
20.01736 458
20.03747 479
20.05759 468
20.0777 422
20.09782 475
20.11793 472
20.13804 484
20.15816 499
20.17827 462
20.19838 473
20.2185 488
20.23861 453
20.25872 516
20.27884 503
20.29895 495
20.31907 424
20.33918 491
20.35929 433
20.37941 498
20.39952 487
20.41963 497
20.43975 524
20.45986 525
20.47998 518
20.50009 511
20.5202 586
20.54032 510
20.56043 544
20.58054 616
20.60066 630
20.62077 695
20.64088 743
20.661 880
20.68111 1059
20.70123 1266
20.72134 1676
20.74145 2439
20.76157 3030
20.78168 4220
20.80179 5239
20.82191 6164
20.84202 6565
20.86214 6229
20.88225 5345
20.90236 4008
20.92248 2786
20.94259 1843
20.9627 1260
20.98282 952
21.00293 816
21.02305 746
21.04316 714
21.06327 663
21.08339 657
21.1035 643
21.12361 586
21.14373 531
21.16384 505
21.18395 520
21.20407 510
21.22418 502
21.2443 472
21.26441 438
21.28452 465
21.30464 466
21.32475 460
21.34486 443
21.36498 445
21.38509 460
21.40521 436
21.42532 429
21.44543 439
21.46555 383
21.48566 406
21.50577 426
21.52589 387
21.546 398
21.56612 399
21.58623 388
21.60634 349
21.62646 389
21.64657 359
21.66668 399
21.6868 361
21.70691 356
21.72702 347
21.74714 370
21.76725 376
21.78737 349
21.80748 369
21.82759 369
21.84771 378
21.86782 365
21.88793 392
21.90805 385
21.92816 380
21.94828 385
21.96839 397
21.9885 382
22.00862 412
22.02873 417
22.04884 384
22.06896 414
22.08907 398
22.10919 358
22.1293 371
22.14941 381
22.16953 354
22.18964 365
22.20975 346
22.22987 366
22.24998 377
22.27009 369
22.29021 414
22.31032 396
22.33044 368
22.35055 387
22.37066 362
22.39078 377
22.41089 330
22.431 373
22.45112 371
22.47123 358
22.49135 365
22.51146 353
22.53157 375
22.55169 357
22.5718 352
22.59191 336
22.61203 367
22.63214 375
22.65225 384
22.67237 351
22.69248 329
22.7126 351
22.73271 324
22.75282 326
22.77294 358
22.79305 325
22.81316 335
22.83328 334
22.85339 332
22.87351 327
22.89362 338
22.91373 337
22.93385 345
22.95396 402
22.97407 345
22.99419 336
23.0143 341
23.03442 394
23.05453 376
23.07464 335
23.09476 358
23.11487 365
23.13498 385
23.1551 356
23.17521 383
23.19532 395
23.21544 387
23.23555 353
23.25567 351
23.27578 347
23.29589 347
23.31601 328
23.33612 308
23.35623 353
23.37635 344
23.39646 373
23.41658 352
23.43669 333
23.4568 363
23.47692 372
23.49703 335
23.51714 352
23.53726 345
23.55737 342
23.57749 389
23.5976 377
23.61771 366
23.63783 298
23.65794 323
23.67805 343
23.69817 384
23.71828 341
23.73839 349
23.75851 338
23.77862 351
23.79874 338
23.81885 351
23.83896 348
23.85908 403
23.87919 404
23.8993 384
23.91942 392
23.93953 393
23.95965 422
23.97976 434
23.99987 427
24.01999 406
24.0401 421
24.06021 385
24.08033 340
24.10044 327
24.12056 329
24.14067 352
24.16078 363
24.1809 325
24.20101 317
24.22112 352
24.24124 328
24.26135 361
24.28146 319
24.30158 346
24.32169 360
24.34181 343
24.36192 370
24.38203 349
24.40215 319
24.42226 353
24.44237 349
24.46249 317
24.4826 301
24.50272 340
24.52283 335
24.54294 361
24.56306 361
24.58317 316
24.60328 351
24.6234 370
24.64351 359
24.66362 359
24.68374 362
24.70385 382
24.72397 363
24.74408 358
24.76419 363
24.78431 331
24.80442 337
24.82453 345
24.84465 388
24.86476 344
24.88488 380
24.90499 400
24.9251 396
24.94522 390
24.96533 404
24.98544 365
25.00556 352
25.02567 351
25.04579 374
25.0659 371
25.08601 371
25.10613 402
25.12624 366
25.14635 371
25.16647 381
25.18658 385
25.20669 415
25.22681 411
25.24692 417
25.26704 402
25.28715 423
25.30726 427
25.32738 400
25.34749 411
25.3676 406
25.38772 399
25.40783 373
25.42795 364
25.44806 407
25.46817 403
25.48829 427
25.5084 451
25.52851 482
25.54863 455
25.56874 492
25.58886 478
25.60897 493
25.62908 467
25.6492 504
25.66931 464
25.68942 522
25.70954 528
25.72965 504
25.74976 494
25.76988 454
25.78999 520
25.81011 495
25.83022 508
25.85033 486
25.87045 486
25.89056 530
25.91067 514
25.93079 530
25.9509 527
25.97102 564
25.99113 577
26.01124 530
26.03136 612
26.05147 557
26.07158 665
26.0917 667
26.11181 658
26.13193 676
26.15204 747
26.17215 793
26.19227 810
26.21238 846
26.23249 905
26.25261 989
26.27272 1045
26.29283 1098
26.31295 1216
26.33306 1385
26.35318 1563
26.37329 1712
26.3934 1986
26.41352 2464
26.43363 3096
26.45374 3993
26.47386 5345
26.49397 7375
26.51409 9945
26.5342 13664
26.55431 17810
26.57443 22908
26.59454 26913
26.61465 28957
26.63477 27404
26.65488 23491
26.67499 18595
26.69511 13952
26.71522 9915
26.73534 6375
26.75545 3722
26.77556 2345
26.79568 1838
26.81579 1609
26.8359 1375
26.85602 1241
26.87613 1143
26.89625 1112
26.91636 1071
26.93647 924
26.95659 924
26.9767 847
26.99681 851
27.01693 773
27.03704 790
27.05716 788
27.07727 684
27.09738 646
27.1175 613
27.13761 560
27.15772 566
27.17784 503
27.19795 546
27.21806 544
27.23818 507
27.25829 525
27.27841 549
27.29852 571
27.31863 564
27.33875 641
27.35886 664
27.37897 663
27.39909 672
27.4192 744
27.43932 646
27.45943 682
27.47954 669
27.49966 620
27.51977 587
27.53988 537
27.56 496
27.58011 469
27.60023 502
27.62034 417
27.64045 388
27.66057 425
27.68068 404
27.70079 392
27.72091 399
27.74102 382
27.76113 398
27.78125 430
27.80136 379
27.82148 401
27.84159 374
27.8617 410
27.88182 396
27.90193 435
27.92204 379
27.94216 376
27.96227 330
27.98239 388
28.0025 381
28.02261 384
28.04273 368
28.06284 379
28.08295 333
28.10307 352
28.12318 362
28.1433 373
28.16341 338
28.18352 361
28.20364 328
28.22375 329
28.24386 321
28.26398 327
28.28409 354
28.3042 333
28.32432 334
28.34443 308
28.36455 325
28.38466 328
28.40477 297
28.42489 320
28.445 326
28.46511 301
28.48523 283
28.50534 279
28.52546 312
28.54557 325
28.56568 307
28.5858 278
28.60591 296
28.62602 321
28.64614 314
28.66625 283
28.68636 330
28.70648 279
28.72659 294
28.74671 294
28.76682 287
28.78693 319
28.80705 300
28.82716 272
28.84727 274
28.86739 328
28.8875 313
28.90762 288
28.92773 308
28.94784 330
28.96796 302
28.98807 282
29.00818 302
29.0283 289
29.04841 281
29.06853 310
29.08864 276
29.10875 293
29.12887 280
29.14898 281
29.16909 284
29.18921 263
29.20932 315
29.22943 276
29.24955 301
29.26966 300
29.28978 288
29.30989 306
29.33 309
29.35012 281
29.37023 310
29.39034 312
29.41046 298
29.43057 331
29.45069 299
29.4708 310
29.49091 323
29.51103 326
29.53114 305
29.55125 299
29.57137 301
29.59148 258
29.6116 300
29.63171 292
29.65182 313
29.67194 281
29.69205 279
29.71216 295
29.73228 266
29.75239 296
29.7725 283
29.79262 298
29.81273 282
29.83285 307
29.85296 291
29.87307 290
29.89319 293
29.9133 319
29.93341 279
29.95353 269
29.97364 283
29.99376 287
30.01387 320
30.03398 311
30.0541 305
30.07421 329
30.09432 298
30.11444 318
30.13455 312
30.15467 324
30.17478 292
30.19489 321
30.21501 317
30.23512 331
30.25523 269
30.27535 302
30.29546 295
30.31557 277
30.33569 281
30.3558 259
30.37592 299
30.39603 305
30.41614 282
30.43626 282
30.45637 260
30.47648 286
30.4966 283
30.51671 303
30.53683 274
30.55694 285
30.57705 269
30.59717 266
30.61728 284
30.63739 279
30.65751 293
30.67762 284
30.69773 316
30.71785 312
30.73796 316
30.75808 301
30.77819 288
30.7983 340
30.81842 289
30.83853 286
30.85864 303
30.87876 296
30.89887 260
30.91899 253
30.9391 291
30.95921 306
30.97933 272
30.99944 255
31.01955 259
31.03967 247
31.05978 275
31.0799 262
31.10001 275
31.12012 277
31.14024 252
31.16035 263
31.18046 257
31.20058 245
31.22069 254
31.2408 260
31.26092 242
31.28103 262
31.30115 268
31.32126 250
31.34137 250
31.36149 246
31.3816 259
31.40171 276
31.42183 259
31.44194 244
31.46206 241
31.48217 249
31.50228 253
31.5224 257
31.54251 236
31.56262 257
31.58274 244
31.60285 253
31.62297 251
31.64308 236
31.66319 250
31.68331 232
31.70342 257
31.72353 229
31.74365 248
31.76376 265
31.78387 262
31.80399 239
31.8241 269
31.84422 248
31.86433 228
31.88444 243
31.90456 216
31.92467 260
31.94478 266
31.9649 265
31.98501 220
32.00513 227
32.02524 271
32.04535 292
32.06547 263
32.08558 239
32.10569 273
32.12581 272
32.14592 264
32.16604 241
32.18615 239
32.20626 260
32.22638 283
32.24649 236
32.2666 240
32.28672 230
32.30683 253
32.32694 256
32.34706 221
32.36717 266
32.38729 259
32.4074 253
32.42751 302
32.44763 282
32.46774 252
32.48785 276
32.50797 243
32.52808 259
32.5482 271
32.56831 246
32.58842 269
32.60854 246
32.62865 254
32.64876 251
32.66888 255
32.68899 234
32.7091 237
32.72922 252
32.74933 241
32.76945 234
32.78956 240
32.80967 232
32.82979 254
32.8499 238
32.87001 235
32.89013 242
32.91024 239
32.93036 201
32.95047 249
32.97058 232
32.9907 249
33.01081 231
33.03092 241
33.05104 247
33.07115 210
33.09127 244
33.11138 243
33.13149 234
33.15161 220
33.17172 234
33.19183 230
33.21195 251
33.23206 232
33.25217 243
33.27229 253
33.2924 256
33.31252 229
33.33263 246
33.35274 249
33.37286 264
33.39297 221
33.41308 231
33.4332 240
33.45331 239
33.47343 217
33.49354 275
33.51365 205
33.53377 207
33.55388 223
33.57399 240
33.59411 226
33.61422 230
33.63434 226
33.65445 254
33.67456 238
33.69468 243
33.71479 203
33.7349 199
33.75502 200
33.77513 241
33.79524 203
33.81536 241
33.83547 217
33.85559 219
33.8757 219
33.89581 210
33.91593 231
33.93604 188
33.95615 219
33.97627 208
33.99638 226
34.0165 240
34.03661 245
34.05672 205
34.07684 262
34.09695 227
34.11706 251
34.13718 260
34.15729 232
34.17741 293
34.19752 255
34.21763 256
34.23775 250
34.25786 252
34.27797 235
34.29809 243
34.3182 243
34.33831 264
34.35843 236
34.37854 271
34.39866 282
34.41877 258
34.43888 268
34.459 255
34.47911 280
34.49922 279
34.51934 319
34.53945 303
34.55957 298
34.57968 317
34.59979 315
34.61991 308
34.64002 296
34.66013 320
34.68025 302
34.70036 342
34.72047 307
34.74059 319
34.7607 345
34.78082 345
34.80093 328
34.82104 364
34.84116 343
34.86127 344
34.88138 317
34.9015 334
34.92161 351
34.94173 375
34.96184 324
34.98195 346
35.00207 332
35.02218 296
35.04229 330
35.06241 313
35.08252 296
35.10264 351
35.12275 328
35.14286 308
35.16298 338
35.18309 318
35.2032 330
35.22332 332
35.24343 299
35.26354 327
35.28366 320
35.30377 282
35.32389 311
35.344 309
35.36411 317
35.38423 285
35.40434 321
35.42445 317
35.44457 310
35.46468 321
35.4848 370
35.50491 346
35.52502 308
35.54514 335
35.56525 345
35.58536 333
35.60548 303
35.62559 360
35.64571 309
35.66582 293
35.68593 311
35.70605 266
35.72616 305
35.74627 319
35.76639 309
35.7865 265
35.80661 288
35.82673 295
35.84684 297
35.86696 308
35.88707 282
35.90718 335
35.9273 317
35.94741 313
35.96752 320
35.98764 308
36.00775 317
36.02787 309
36.04798 330
36.06809 303
36.08821 304
36.10832 328
36.12843 288
36.14855 306
36.16866 335
36.18878 345
36.20889 346
36.229 370
36.24912 349
36.26923 402
36.28934 384
36.30946 456
36.32957 526
36.34968 574
36.3698 716
36.38991 816
36.41003 1063
36.43014 1276
36.45025 1573
36.47037 1751
36.49048 2078
36.51059 2208
36.53071 1928
36.55082 1803
36.57094 1471
36.59105 1328
36.61116 1151
36.63128 945
36.65139 746
36.6715 569
36.69162 496
36.71173 401
36.73184 381
36.75196 368
36.77207 337
36.79219 359
36.8123 346
36.83241 333
36.85253 337
36.87264 340
36.89275 366
36.91287 361
36.93298 302
36.9531 310
36.97321 302
36.99332 299
37.01344 292
37.03355 296
37.05366 280
37.07378 311
37.09389 292
37.11401 314
37.13412 275
37.15423 272
37.17435 295
37.19446 286
37.21457 272
37.23469 285
37.2548 279
37.27491 280
37.29503 244
37.31514 261
37.33526 249
37.35537 283
37.37548 278
37.3956 254
37.41571 279
37.43582 264
37.45594 239
37.47605 271
37.49617 274
37.51628 245
37.53639 302
37.55651 276
37.57662 287
37.59673 268
37.61685 246
37.63696 276
37.65708 247
37.67719 299
37.6973 295
37.71742 284
37.73753 314
37.75764 283
37.77776 299
37.79787 254
37.81798 261
37.8381 262
37.85821 267
37.87833 278
37.89844 286
37.91855 299
37.93867 281
37.95878 268
37.97889 298
37.99901 254
38.01912 255
38.03924 289
38.05935 287
38.07946 240
38.09958 289
38.11969 315
38.1398 253
38.15992 286
38.18003 318
38.20015 280
38.22026 281
38.24037 299
38.26049 297
38.2806 287
38.30071 291
38.32083 272
38.34094 269
38.36105 299
38.38117 252
38.40128 297
38.4214 278
38.44151 292
38.46162 337
38.48174 281
38.50185 286
38.52196 304
38.54208 281
38.56219 284
38.58231 266
38.60242 294
38.62253 253
38.64265 264
38.66276 274
38.68287 298
38.70299 312
38.7231 246
38.74321 266
38.76333 265
38.78344 271
38.80356 274
38.82367 296
38.84378 273
38.8639 269
38.88401 249
38.90412 304
38.92424 239
38.94435 288
38.96447 293
38.98458 272
39.00469 280
39.02481 273
39.04492 272
39.06503 326
39.08515 280
39.10526 284
39.12538 353
39.14549 347
39.1656 345
39.18572 347
39.20583 432
39.22594 466
39.24606 507
39.26617 554
39.28628 637
39.3064 750
39.32651 929
39.34663 1113
39.36674 1356
39.38685 1667
39.40697 1728
39.42708 1894
39.44719 1831
39.46731 1661
39.48742 1404
39.50754 1189
39.52765 1087
39.54776 953
39.56788 849
39.58799 627
39.6081 459
39.62822 373
39.64833 317
39.66845 319
39.68856 328
39.70867 297
39.72879 274
39.7489 279
39.76901 281
39.78913 278
39.80924 264
39.82935 289
39.84947 291
39.86958 245
39.8897 270
39.90981 255
39.92992 271
39.95004 289
39.97015 284
39.99026 309
40.01038 321
40.03049 319
40.05061 337
40.07072 390
40.09083 418
40.11095 449
40.13106 512
40.15117 645
40.17129 689
40.1914 762
40.21152 922
40.23163 1018
40.25174 997
40.27186 1010
40.29197 880
40.31208 821
40.3322 702
40.35231 616
40.37242 592
40.39254 498
40.41265 410
40.43277 333
40.45288 317
40.47299 299
40.49311 298
40.51322 301
40.53333 261
40.55345 280
40.57356 254
40.59368 269
40.61379 267
40.6339 237
40.65402 230
40.67413 262
40.69424 239
40.71436 253
40.73447 270
40.75458 250
40.7747 264
40.79481 248
40.81493 259
40.83504 218
40.85515 252
40.87527 242
40.89538 230
40.91549 258
40.93561 224
40.95572 236
40.97584 222
40.99595 266
41.01606 251
41.03618 258
41.05629 252
41.0764 235
41.09652 221
41.11663 241
41.13675 267
41.15686 242
41.17697 229
41.19709 215
41.2172 231
41.23731 240
41.25743 244
41.27754 246
41.29765 227
41.31777 248
41.33788 247
41.358 254
41.37811 231
41.39822 277
41.41834 255
41.43845 236
41.45856 239
41.47868 241
41.49879 232
41.51891 276
41.53902 239
41.55913 236
41.57925 244
41.59936 252
41.61947 253
41.63959 243
41.6597 257
41.67982 283
41.69993 265
41.72004 263
41.74016 267
41.76027 318
41.78038 309
41.8005 287
41.82061 271
41.84072 307
41.86084 271
41.88095 234
41.90107 290
41.92118 255
41.94129 262
41.96141 257
41.98152 256
42.00163 242
42.02175 249
42.04186 265
42.06198 246
42.08209 288
42.1022 293
42.12232 286
42.14243 281
42.16254 338
42.18266 330
42.20277 372
42.22289 422
42.243 428
42.26311 499
42.28323 605
42.30334 713
42.32345 906
42.34357 1017
42.36368 1221
42.38379 1396
42.40391 1415
42.42402 1401
42.44414 1199
42.46425 1101
42.48436 963
42.50448 869
42.52459 792
42.5447 721
42.56482 615
42.58493 455
42.60505 353
42.62516 326
42.64527 310
42.66539 280
42.6855 261
42.70561 279
42.72573 262
42.74584 254
42.76595 273
42.78607 237
42.80618 251
42.8263 271
42.84641 222
42.86652 255
42.88664 226
42.90675 242
42.92686 218
42.94698 230
42.96709 231
42.98721 213
43.00732 241
43.02743 238
43.04755 257
43.06766 209
43.08777 229
43.10789 241
43.128 215
43.14812 211
43.16823 222
43.18834 212
43.20846 212
43.22857 227
43.24868 239
43.2688 215
43.28891 222
43.30902 226
43.32914 219
43.34925 230
43.36937 218
43.38948 232
43.40959 224
43.42971 217
43.44982 235
43.46993 198
43.49005 226
43.51016 216
43.53028 204
43.55039 246
43.5705 207
43.59062 238
43.61073 237
43.63084 218
43.65096 209
43.67107 211
43.69119 209
43.7113 218
43.73141 192
43.75153 207
43.77164 236
43.79175 192
43.81187 198
43.83198 201
43.85209 202
43.87221 240
43.89232 219
43.91244 203
43.93255 239
43.95266 214
43.97278 220
43.99289 218
44.013 214
44.03312 217
44.05323 236
44.07335 210
44.09346 230
44.11357 220
44.13369 217
44.1538 227
44.17391 223
44.19403 190
44.21414 202
44.23426 237
44.25437 172
44.27448 207
44.2946 200
44.31471 210
44.33482 227
44.35494 194
44.37505 225
44.39516 213
44.41528 207
44.43539 213
44.45551 225
44.47562 210
44.49573 204
44.51585 210
44.53596 204
44.55607 186
44.57619 209
44.5963 210
44.61642 206
44.63653 209
44.65664 209
44.67676 240
44.69687 205
44.71698 218
44.7371 201
44.75721 220
44.77732 209
44.79744 192
44.81755 234
44.83767 189
44.85778 212
44.87789 208
44.89801 198
44.91812 209
44.93823 221
44.95835 228
44.97846 241
44.99858 226
45.01869 232
45.0388 208
45.05892 201
45.07903 223
45.09914 215
45.11926 208
45.13937 224
45.15949 214
45.1796 221
45.19971 235
45.21983 223
45.23994 225
45.26005 229
45.28017 209
45.30028 234
45.32039 246
45.34051 220
45.36062 218
45.38074 220
45.40085 260
45.42096 272
45.44108 286
45.46119 269
45.4813 269
45.50142 286
45.52153 334
45.54165 329
45.56176 368
45.58187 363
45.60199 418
45.6221 515
45.64221 568
45.66233 643
45.68244 698
45.70256 843
45.72267 861
45.74278 944
45.7629 1043
45.78301 900
45.80312 806
45.82324 693
45.84335 644
45.86346 590
45.88358 531
45.90369 530
45.92381 429
45.94392 357
45.96403 289
45.98415 277
46.00426 240
46.02437 259
46.04449 240
46.0646 221
46.08472 234
46.10483 236
46.12494 212
46.14506 231
46.16517 214
46.18528 203
46.2054 202
46.22551 209
46.24563 225
46.26574 237
46.28585 230
46.30597 217
46.32608 241
46.34619 232
46.36631 203
46.38642 192
46.40653 202
46.42665 227
46.44676 217
46.46688 203
46.48699 218
46.5071 200
46.52722 212
46.54733 210
46.56744 227
46.58756 177
46.60767 209
46.62779 212
46.6479 209
46.66801 187
46.68813 207
46.70824 189
46.72835 193
46.74847 207
46.76858 209
46.78869 224
46.80881 208
46.82892 191
46.84904 193
46.86915 199
46.88926 183
46.90938 221
46.92949 221
46.9496 206
46.96972 194
46.98983 230
47.00995 215
47.03006 201
47.05017 202
47.07029 190
47.0904 209
47.11051 202
47.13063 213
47.15074 217
47.17086 175
47.19097 224
47.21108 227
47.2312 203
47.25131 178
47.27142 205
47.29154 197
47.31165 206
47.33176 215
47.35188 210
47.37199 228
47.39211 243
47.41222 202
47.43233 216
47.45245 204
47.47256 252
47.49267 193
47.51279 224
47.5329 216
47.55302 200
47.57313 207
47.59324 198
47.61336 225
47.63347 209
47.65358 168
47.6737 191
47.69381 196
47.71393 196
47.73404 215
47.75415 200
47.77427 184
47.79438 208
47.81449 206
47.83461 220
47.85472 210
47.87483 204
47.89495 219
47.91506 204
47.93518 227
47.95529 220
47.9754 199
47.99552 194
48.01563 218
48.03574 197
48.05586 179
48.07597 190
48.09609 193
48.1162 186
48.13631 204
48.15643 205
48.17654 227
48.19665 184
48.21677 167
48.23688 203
48.257 199
48.27711 200
48.29722 186
48.31734 199
48.33745 217
48.35756 230
48.37768 186
48.39779 210
48.4179 180
48.43802 203
48.45813 196
48.47825 178
48.49836 179
48.51847 224
48.53859 197
48.5587 212
48.57881 216
48.59893 219
48.61904 190
48.63916 200
48.65927 216
48.67938 198
48.6995 209
48.71961 207
48.73972 201
48.75984 203
48.77995 226
48.80006 224
48.82018 215
48.84029 212
48.86041 238
48.88052 205
48.90063 229
48.92075 219
48.94086 205
48.96097 207
48.98109 197
49.0012 208
49.02132 216
49.04143 204
49.06154 220
49.08166 192
49.10177 196
49.12188 231
49.142 210
49.16211 218
49.18223 217
49.20234 200
49.22245 196
49.24257 190
49.26268 234
49.28279 200
49.30291 185
49.32302 227
49.34313 237
49.36325 204
49.38336 229
49.40348 193
49.42359 241
49.4437 230
49.46382 238
49.48393 248
49.50404 218
49.52416 242
49.54427 231
49.56439 244
49.5845 246
49.60461 257
49.62473 239
49.64484 262
49.66495 300
49.68507 276
49.70518 275
49.7253 299
49.74541 305
49.76552 361
49.78564 351
49.80575 351
49.82586 388
49.84598 433
49.86609 540
49.8862 590
49.90632 696
49.92643 795
49.94655 942
49.96666 1153
49.98677 1366
50.00689 1589
50.027 1997
50.04711 2401
50.06723 2675
50.08734 2773
50.10746 2771
50.12757 2608
50.14768 2145
50.1678 1806
50.18791 1620
50.20802 1549
50.22814 1539
50.24825 1381
50.26837 1195
50.28848 817
50.30859 605
50.32871 444
50.34882 394
50.36893 341
50.38905 388
50.40916 362
50.42927 318
50.44939 319
50.4695 367
50.48962 340
50.50973 364
50.52984 341
50.54996 338
50.57007 337
50.59018 319
50.6103 336
50.63041 318
50.65053 271
50.67064 319
50.69075 250
50.71087 271
50.73098 236
50.75109 282
50.77121 261
50.79132 228
50.81143 211
50.83155 243
50.85166 223
50.87178 217
50.89189 222
50.912 211
50.93212 214
50.95223 218
50.97234 205
50.99246 201
51.01257 188
51.03269 214
51.0528 221
51.07291 189
51.09303 208
51.11314 206
51.13325 216
51.15337 205
51.17348 193
51.1936 217
51.21371 204
51.23382 198
51.25394 202
51.27405 187
51.29416 212
51.31428 193
51.33439 184
51.3545 184
51.37462 183
51.39473 204
51.41485 192
51.43496 146
51.45507 176
51.47519 205
51.4953 211
51.51541 221
51.53553 187
51.55564 181
51.57576 170
51.59587 197
51.61598 179
51.6361 209
51.65621 201
51.67632 168
51.69644 199
51.71655 177
51.73667 181
51.75678 180
51.77689 203
51.79701 200
51.81712 197
51.83723 185
51.85735 172
51.87746 180
51.89757 221
51.91769 191
51.9378 200
51.95792 210
51.97803 187
51.99814 200
52.01826 200
52.03837 194
52.05848 208
52.0786 187
52.09871 186
52.11883 186
52.13894 189
52.15905 205
52.17917 179
52.19928 179
52.21939 187
52.23951 192
52.25962 198
52.27974 196
52.29985 186
52.31996 206
52.34008 189
52.36019 178
52.3803 206
52.40042 206
52.42053 182
52.44064 192
52.46076 185
52.48087 180
52.50099 197
52.5211 179
52.54121 186
52.56133 185
52.58144 195
52.60155 203
52.62167 215
52.64178 178
52.6619 211
52.68201 208
52.70212 199
52.72224 200
52.74235 214
52.76246 187
52.78258 213
52.80269 185
52.8228 195
52.84292 203
52.86303 208
52.88315 189
52.90326 202
52.92337 198
52.94349 207
52.9636 200
52.98371 219
53.00383 203
53.02394 195
53.04406 198
53.06417 196
53.08428 183
53.1044 231
53.12451 205
53.14462 213
53.16474 197
53.18485 202
53.20497 195
53.22508 218
53.24519 203
53.26531 198
53.28542 196
53.30553 230
53.32565 209
53.34576 234
53.36587 223
53.38599 215
53.4061 212
53.42622 220
53.44633 243
53.46644 252
53.48656 187
53.50667 239
53.52678 221
53.5469 217
53.56701 238
53.58713 215
53.60724 223
53.62735 208
53.64747 208
53.66758 219
53.68769 210
53.70781 215
53.72792 209
53.74804 221
53.76815 190
53.78826 237
53.80838 203
53.82849 241
53.8486 201
53.86872 210
53.88883 242
53.90894 203
53.92906 212
53.94917 216
53.96929 228
53.9894 240
54.00951 245
54.02963 211
54.04974 187
54.06985 211
54.08997 242
54.11008 248
54.1302 218
54.15031 226
54.17042 223
54.19054 232
54.21065 208
54.23076 268
54.25088 232
54.27099 248
54.29111 231
54.31122 247
54.33133 252
54.35145 254
54.37156 260
54.39167 251
54.41179 259
54.4319 253
54.45201 241
54.47213 254
54.49224 295
54.51236 244
54.53247 303
54.55258 307
54.5727 310
54.59281 331
54.61292 327
54.63304 350
54.65315 411
54.67327 462
54.69338 473
54.71349 556
54.73361 607
54.75372 721
54.77383 855
54.79395 932
54.81406 920
54.83417 989
54.85429 914
54.8744 792
54.89452 677
54.91463 639
54.93474 631
54.95486 682
54.97497 581
54.99508 603
55.0152 537
55.03531 452
55.05543 375
55.07554 356
55.09565 336
55.11577 322
55.13588 349
55.15599 367
55.17611 413
55.19622 453
55.21634 477
55.23645 502
55.25656 551
55.27668 609
55.29679 610
55.3169 532
55.33702 481
55.35713 385
55.37724 380
55.39736 413
55.41747 380
55.43759 398
55.4577 370
55.47781 328
55.49793 285
55.51804 285
55.53815 244
55.55827 235
55.57838 253
55.5985 207
55.61861 216
55.63872 234
55.65884 216
55.67895 215
55.69906 224
55.71918 224
55.73929 231
55.75941 213
55.77952 213
55.79963 215
55.81975 229
55.83986 222
55.85997 208
55.88009 225
55.9002 224
55.92031 197
55.94043 226
55.96054 201
55.98066 221
56.00077 215
56.02088 177
56.041 201
56.06111 199
56.08122 179
56.10134 192
56.12145 200
56.14157 235
56.16168 203
56.18179 200
56.20191 205
56.22202 192
56.24213 199
56.26225 201
56.28236 220
56.30248 226
56.32259 190
56.3427 202
56.36282 213
56.38293 190
56.40304 174
56.42316 191
56.44327 192
56.46338 182
56.4835 204
56.50361 196
56.52373 209
56.54384 182
56.56395 211
56.58407 202
56.60418 189
56.62429 201
56.64441 216
56.66452 202
56.68464 204
56.70475 188
56.72486 211
56.74498 199
56.76509 202
56.7852 221
56.80532 193
56.82543 198
56.84554 203
56.86566 207
56.88577 171
56.90589 209
56.926 228
56.94611 186
56.96623 193
56.98634 183
57.00645 219
57.02657 186
57.04668 228
57.0668 205
57.08691 231
57.10702 241
57.12714 246
57.14725 232
57.16736 189
57.18748 245
57.20759 235
57.22771 236
57.24782 216
57.26793 190
57.28805 223
57.30816 213
57.32827 235
57.34839 223
57.3685 222
57.38861 205
57.40873 206
57.42884 220
57.44896 182
57.46907 194
57.48918 208
57.5093 192
57.52941 192
57.54952 189
57.56964 207
57.58975 205
57.60987 202
57.62998 209
57.65009 174
57.67021 195
57.69032 188
57.71043 201
57.73055 197
57.75066 198
57.77078 189
57.79089 194
57.811 173
57.83112 182
57.85123 203
57.87134 175
57.89146 179
57.91157 191
57.93168 208
57.9518 202
57.97191 182
57.99203 196
58.01214 203
58.03225 205
58.05237 206
58.07248 183
58.09259 203
58.11271 200
58.13282 185
58.15294 185
58.17305 188
58.19316 214
58.21328 205
58.23339 207
58.2535 205
58.27362 161
58.29373 196
58.31385 192
58.33396 207
58.35407 191
58.37419 183
58.3943 210
58.41441 185
58.43453 176
58.45464 186
58.47475 193
58.49487 185
58.51498 197
58.5351 216
58.55521 173
58.57532 204
58.59544 210
58.61555 201
58.63566 186
58.65578 173
58.67589 202
58.69601 196
58.71612 195
58.73623 212
58.75635 174
58.77646 217
58.79657 195
58.81669 180
58.8368 167
58.85691 201
58.87703 208
58.89714 193
58.91726 190
58.93737 223
58.95748 169
58.9776 187
58.99771 197
59.01782 187
59.03794 188
59.05805 184
59.07817 178
59.09828 198
59.11839 225
59.13851 209
59.15862 208
59.17873 200
59.19885 220
59.21896 228
59.23908 227
59.25919 204
59.2793 246
59.29942 229
59.31953 211
59.33964 194
59.35976 217
59.37987 234
59.39998 234
59.4201 216
59.44021 230
59.46033 242
59.48044 268
59.50055 275
59.52067 261
59.54078 293
59.56089 301
59.58101 310
59.60112 326
59.62124 369
59.64135 394
59.66146 439
59.68158 434
59.70169 496
59.7218 554
59.74192 623
59.76203 752
59.78215 895
59.80226 1022
59.82237 1242
59.84249 1451
59.8626 1641
59.88271 1767
59.90283 1872
59.92294 1759
59.94305 1637
59.96317 1370
59.98328 1132
60.0034 1040
60.02351 1013
60.04362 1053
60.06374 1049
60.08385 969
60.10396 801
60.12408 715
60.14419 527
60.16431 415
60.18442 330
60.20453 323
60.22465 285
60.24476 284
60.26487 287
60.28499 229
60.3051 237
60.32522 223
60.34533 223
60.36544 237
60.38556 221
60.40567 210
60.42578 220
60.4459 210
60.46601 237
60.48612 195
60.50624 202
60.52635 195
60.54647 215
60.56658 191
60.58669 198
60.60681 185
60.62692 200
60.64703 197
60.66715 191
60.68726 228
60.70738 192
60.72749 198
60.7476 203
60.76772 230
60.78783 197
60.80794 176
60.82806 195
60.84817 191
60.86828 198
60.8884 222
60.90851 182
60.92863 196
60.94874 209
60.96885 208
60.98897 193
61.00908 189
61.02919 210
61.04931 203
61.06942 200
61.08954 208
61.10965 222
61.12976 173
61.14988 211
61.16999 211
61.1901 227
61.21022 207
61.23033 209
61.25045 208
61.27056 199
61.29067 213
61.31079 204
61.3309 201
61.35101 215
61.37113 263
61.39124 220
61.41135 203
61.43147 234
61.45158 236
61.4717 230
61.49181 232
61.51192 226
61.53204 242
61.55215 209
61.57226 214
61.59238 245
61.61249 219
61.63261 220
61.65272 252
61.67283 259
61.69295 221
61.71306 222
61.73317 254
61.75329 200
61.7734 214
61.79352 249
61.81363 257
61.83374 237
61.85386 231
61.87397 245
61.89408 231
61.9142 253
61.93431 256
61.95442 215
61.97454 245
61.99465 237
62.01477 212
62.03488 242
62.05499 236
62.07511 223
62.09522 259
62.11533 236
62.13545 243
62.15556 212
62.17568 222
62.19579 256
62.2159 215
62.23602 257
62.25613 225
62.27624 239
62.29636 224
62.31647 217
62.33659 232
62.3567 223
62.37681 196
62.39693 199
62.41704 239
62.43715 215
62.45727 202
62.47738 222
62.49749 209
62.51761 187
62.53772 226
62.55784 189
62.57795 167
62.59806 198
62.61818 193
62.63829 199
62.6584 202
62.67852 212
62.69863 199
62.71875 198
62.73886 187
62.75897 168
62.77909 183
62.7992 182
62.81931 185
62.83943 206
62.85954 216
62.87965 184
62.89977 197
62.91988 203
62.94 187
62.96011 189
62.98022 207
63.00034 208
63.02045 201
63.04056 192
63.06068 193
63.08079 221
63.10091 199
63.12102 187
63.14113 192
63.16125 218
63.18136 185
63.20147 218
63.22159 195
63.2417 209
63.26182 213
63.28193 192
63.30204 181
63.32216 183
63.34227 183
63.36238 194
63.3825 203
63.40261 220
63.42272 218
63.44284 203
63.46295 183
63.48307 216
63.50318 183
63.52329 185
63.54341 182
63.56352 202
63.58363 182
63.60375 221
63.62386 186
63.64398 210
63.66409 215
63.6842 220
63.70432 209
63.72443 236
63.74454 224
63.76466 266
63.78477 264
63.80489 290
63.825 310
63.84511 318
63.86523 292
63.88534 353
63.90545 391
63.92557 408
63.94568 459
63.96579 456
63.98591 448
64.00602 479
64.02614 423
64.04625 347
64.06636 318
64.08648 312
64.10659 322
64.1267 339
64.14682 319
64.16693 340
64.18705 302
64.20716 267
64.22727 268
64.24739 213
64.2675 225
64.28761 200
64.30773 199
64.32784 206
64.34796 199
64.36807 176
64.38818 166
64.4083 176
64.42841 197
64.44852 212
64.46864 182
64.48875 197
64.50886 166
64.52898 182
64.54909 191
64.56921 181
64.58932 162
64.60943 187
64.62955 177
64.64966 184
64.66977 162
64.68989 181
64.71 171
64.73012 177
64.75023 173
64.77034 196
64.79046 199
64.81057 160
64.83068 171
64.8508 177
64.87091 169
64.89102 185
64.91114 191
64.93125 170
64.95137 190
64.97148 170
64.99159 182
65.01171 178
65.03182 164
65.05193 197
65.07205 184
65.09216 169
65.11228 171
65.13239 178
65.1525 173
65.17262 202
65.19273 174
65.21284 189
65.23296 184
65.25307 186
65.27319 179
65.2933 178
65.31341 164
65.33353 196
65.35364 185
65.37375 199
65.39387 179
65.41398 176
65.43409 197
65.45421 175
65.47432 198
65.49444 203
65.51455 203
65.53466 200
65.55478 210
65.57489 205
65.595 206
65.61512 243
65.63523 212
65.65535 216
65.67546 265
65.69557 262
65.71569 279
65.7358 246
65.75591 254
65.77603 270
65.79614 214
65.81626 214
65.83637 223
65.85648 239
65.8766 194
65.89671 228
65.91682 214
65.93694 218
65.95705 228
65.97716 216
65.99728 200
66.01739 186
66.03751 190
66.05762 188
66.07773 183
66.09785 185
66.11796 195
66.13807 190
66.15819 188
66.1783 190
66.19842 182
66.21853 189
66.23864 170
66.25876 186
66.27887 189
66.29898 188
66.3191 179
66.33921 176
66.35933 188
66.37944 188
66.39955 184
66.41967 195
66.43978 181
66.45989 172
66.48001 187
66.50012 187
66.52023 197
66.54035 196
66.56046 179
66.58058 172
66.60069 206
66.6208 191
66.64092 161
66.66103 186
66.68114 188
66.70126 173
66.72137 178
66.74149 191
66.7616 198
66.78171 194
66.80183 216
66.82194 186
66.84205 181
66.86217 192
66.88228 201
66.90239 183
66.92251 197
66.94262 207
66.96274 173
66.98285 186
67.00296 199
67.02308 175
67.04319 209
67.0633 207
67.08342 214
67.10353 193
67.12365 186
67.14376 193
67.16387 235
67.18399 236
67.2041 217
67.22421 222
67.24433 243
67.26444 242
67.28456 232
67.30467 229
67.32478 266
67.3449 237
67.36501 258
67.38512 265
67.40524 323
67.42535 288
67.44546 324
67.46558 371
67.48569 415
67.50581 481
67.52592 521
67.54603 555
67.56615 604
67.58626 743
67.60637 860
67.62649 876
67.6466 1007
67.66672 1145
67.68683 1120
67.70694 1149
67.72706 984
67.74717 916
67.76728 813
67.7874 753
67.80751 745
67.82763 779
67.84774 786
67.86785 858
67.88797 915
67.90808 893
67.92819 896
67.94831 903
67.96842 860
67.98853 975
68.00865 1043
68.02876 1220
68.04888 1370
68.06899 1453
68.0891 1483
68.10922 1457
68.12933 1335
68.14944 1314
68.16956 1182
68.18967 1186
68.20979 1226
68.2299 1339
68.25001 1387
68.27013 1400
68.29024 1239
68.31035 1134
68.33047 972
68.35058 793
68.3707 655
68.39081 588
68.41092 596
68.43104 607
68.45115 567
68.47126 527
68.49138 455
68.51149 397
68.5316 370
68.55172 331
68.57183 278
68.59195 242
68.61206 249
68.63217 236
68.65229 226
68.6724 221
68.69251 210
68.71263 221
68.73274 223
68.75286 219
68.77297 206
68.79308 229
68.8132 215
68.83331 209
68.85342 192
68.87354 221
68.89365 199
68.91376 191
68.93388 177
68.95399 194
68.97411 202
68.99422 173
69.01433 205
69.03445 184
69.05456 162
69.07467 182
69.09479 188
69.1149 186
69.13502 188
69.15513 191
69.17524 177
69.19536 203
69.21547 207
69.23558 185
69.2557 150
69.27581 176
69.29593 208
69.31604 176
69.33615 208
69.35627 187
69.37638 186
69.39649 165
69.41661 165
69.43672 174
69.45683 187
69.47695 168
69.49706 196
69.51718 171
69.53729 194
69.5574 179
69.57752 197
69.59763 175
69.61774 190
69.63786 177
69.65797 198
69.67809 184
69.6982 207
69.71831 159
69.73843 177
69.75854 163
69.77865 173
69.79877 168
69.81888 192
69.839 147
69.85911 192
69.87922 174
69.89934 175
69.91945 173
69.93956 181
69.95968 201
69.97979 192
69.9999 189
70.02002 185
70.04013 175
70.06025 152
70.08036 157
70.10047 177
70.12059 177
70.1407 163
70.16081 167
70.18093 156
70.20104 178
70.22116 173
70.24127 179
70.26138 183
70.2815 167
70.30161 165
70.32172 178
70.34184 147
70.36195 157
70.38207 181
70.40218 187
70.42229 174
70.44241 148
70.46252 175
70.48263 168
70.50275 170
70.52286 177
70.54297 178
70.56309 173
70.5832 156
70.60332 172
70.62343 158
70.64354 173
70.66366 157
70.68377 181
70.70388 181
70.724 158
70.74411 188
70.76423 177
70.78434 167
70.80445 165
70.82457 163
70.84468 165
70.86479 162
70.88491 172
70.90502 185
70.92513 181
70.94525 162
70.96536 159
70.98548 162
71.00559 154
71.0257 162
71.04582 183
71.06593 173
71.08604 179
71.10616 126
71.12627 163
71.14639 152
71.1665 165
71.18661 172
71.20673 186
71.22684 157
71.24695 169
71.26707 163
71.28718 155
71.3073 180
71.32741 175
71.34752 182
71.36764 177
71.38775 178
71.40786 158
71.42798 171
71.44809 148
71.4682 159
71.48832 186
71.50843 169
71.52855 185
71.54866 173
71.56877 177
71.58889 179
71.609 159
71.62911 178
71.64923 142
71.66934 182
71.68946 174
71.70957 175
71.72968 157
71.7498 160
71.76991 177
71.79002 180
71.81014 169
71.83025 191
71.85037 171
71.87048 191
71.89059 154
71.91071 160
71.93082 154
71.95093 178
71.97105 176
71.99116 168
72.01127 168
72.03139 177
72.0515 158
72.07162 171
72.09173 160
72.11184 150
72.13196 173
72.15207 155
72.17218 170
72.1923 172
72.21241 190
72.23253 177
72.25264 189
72.27275 167
72.29287 160
72.31298 167
72.33309 165
72.35321 174
72.37332 163
72.39344 169
72.41355 172
72.43366 175
72.45378 186
72.47389 159
72.494 179
72.51412 183
72.53423 201
72.55434 165
72.57446 175
72.59457 187
72.61469 160
72.6348 179
72.65491 153
72.67503 191
72.69514 172
72.71525 179
72.73537 176
72.75548 200
72.7756 174
72.79571 184
72.81582 197
72.83594 168
72.85605 173
72.87616 178
72.89628 178
72.91639 198
72.9365 172
72.95662 191
72.97673 191
72.99685 201
73.01696 180
73.03707 217
73.05719 188
73.0773 211
73.09741 209
73.11753 235
73.13764 228
73.15776 225
73.17787 238
73.19798 236
73.2181 271
73.23821 302
73.25832 291
73.27844 289
73.29855 346
73.31867 324
73.33878 375
73.35889 434
73.37901 473
73.39912 476
73.41923 500
73.43935 485
73.45946 443
73.47957 399
73.49969 337
73.5198 299
73.53992 338
73.56003 298
73.58014 310
73.60026 325
73.62037 356
73.64048 308
73.6606 330
73.68071 297
73.70083 247
73.72094 231
73.74105 208
73.76117 195
73.78128 197
73.80139 199
73.82151 193
73.84162 175
73.86174 192
73.88185 204
73.90196 178
73.92208 175
73.94219 171
73.9623 165
73.98242 171
74.00253 180
74.02264 176
74.04276 161
74.06287 168
74.08299 161
74.1031 179
74.12321 180
74.14333 163
74.16344 174
74.18355 162
74.20367 155
74.22378 171
74.2439 169
74.26401 166
74.28412 173
74.30424 169
74.32435 168
74.34446 153
74.36458 180
74.38469 164
74.40481 163
74.42492 166
74.44503 174
74.46515 178
74.48526 162
74.50537 179
74.52549 173
74.5456 162
74.56571 174
74.58583 196
74.60594 164
74.62606 177
74.64617 164
74.66628 166
74.6864 159
74.70651 164
74.72662 174
74.74674 167
74.76685 196
74.78697 179
74.80708 187
74.82719 162
74.84731 168
74.86742 200
74.88753 168
74.90765 187
74.92776 193
74.94787 184
74.96799 204
74.9881 177
75.00822 183
