3.00117 21452
3.02128 20693
3.0414 20085
3.06151 19515
3.08162 18967
3.10174 19000
3.12185 18026
3.14197 17856
3.16208 17182
3.18219 16432
3.20231 15953
3.22242 15494
3.24253 15310
3.26265 14861
3.28276 14260
3.30288 13916
3.32299 13245
3.3431 13121
3.36322 12150
3.38333 12059
3.40344 12120
3.42356 11229
3.44367 10931
3.46379 10456
3.4839 10000
3.50401 9922
3.52413 9447
3.54424 9245
3.56435 8550
3.58447 8390
3.60458 8288
3.62469 7618
3.64481 7804
3.66492 7126
3.68504 7039
3.70515 6885
3.72526 6357
3.74538 6113
3.76549 5858
3.7856 5554
3.80572 5494
3.82583 5283
3.84595 5104
3.86606 4777
3.88617 4548
3.90629 4535
3.9264 4273
3.94651 4025
3.96663 3707
3.98674 3532
4.00686 3623
4.02697 3288
4.04708 3190
4.0672 3098
4.08731 2942
4.10742 2846
4.12754 2703
4.14765 2505
4.16776 2381
4.18788 2420
4.20799 2259
4.22811 2150
4.24822 2126
4.26833 1993
4.28845 1895
4.30856 2005
4.32867 1881
4.34879 1757
4.3689 1800
4.38902 1617
4.40913 1699
4.42924 1700
4.44936 1551
4.46947 1526
4.48958 1446
4.5097 1497
4.52981 1591
4.54992 1297
4.57004 1364
4.59015 1365
4.61027 1363
4.63038 1301
4.65049 1217
4.67061 1202
4.69072 1163
4.71083 1155
4.73095 1189
4.75106 1079
4.77118 1090
4.79129 1112
4.8114 1123
4.83152 1079
4.85163 1018
4.87174 1026
4.89186 1004
4.91197 1006
4.93209 1014
4.9522 953
4.97231 898
4.99243 871
5.01254 833
5.03265 896
5.05277 762
5.07288 823
5.09299 794
5.11311 781
5.13322 794
5.15334 725
5.17345 730
5.19356 749
5.21368 677
5.23379 734
5.2539 657
5.27402 686
5.29413 685
5.31425 606
5.33436 647
5.35447 594
5.37459 590
5.3947 576
5.41481 572
5.43493 579
5.45504 541
5.47516 568
5.49527 570
5.51538 573
5.5355 549
5.55561 534
5.57572 536
5.59584 510
5.61595 493
5.63606 507
5.65618 487
5.67629 502
5.69641 495
5.71652 470
5.73663 479
5.75675 454
5.77686 467
5.79697 481
5.81709 469
5.8372 474
5.85732 460
5.87743 474
5.89754 467
5.91766 455
5.93777 430
5.95788 420
5.978 453
5.99811 423
6.01823 416
6.03834 402
6.05845 416
6.07857 429
6.09868 398
6.11879 433
6.13891 358
6.15902 427
6.17913 388
6.19925 413
6.21936 358
6.23948 416
6.25959 352
6.2797 359
6.29982 390
6.31993 377
6.34004 392
6.36016 383
6.38027 360
6.40039 393
6.4205 375
6.44061 369
6.46073 353
6.48084 360
6.50095 387
6.52107 360
6.54118 344
6.56129 374
6.58141 342
6.60152 372
6.62164 348
6.64175 354
6.66186 365
6.68198 349
6.70209 298
6.7222 351
6.74232 308
6.76243 363
6.78255 344
6.80266 358
6.82277 305
6.84289 338
6.863 325
6.88311 361
6.90323 337
6.92334 338
6.94346 352
6.96357 355
6.98368 315
7.0038 326
7.02391 312
7.04402 316
7.06414 316
7.08425 314
7.10436 326
7.12448 362
7.14459 346
7.16471 328
7.18482 281
7.20493 336
7.22505 309
7.24516 318
7.26527 332
7.28539 303
7.3055 372
7.32562 341
7.34573 289
7.36584 343
7.38596 311
7.40607 351
7.42618 373
7.4463 321
7.46641 336
7.48653 306
7.50664 330
7.52675 323
7.54687 332
7.56698 325
7.58709 321
7.60721 323
7.62732 298
7.64743 293
7.66755 291
7.68766 323
7.70778 292
7.72789 306
7.748 307
7.76812 288
7.78823 316
7.80834 306
7.82846 310
7.84857 304
7.86869 288
7.8888 309
7.90891 311
7.92903 307
7.94914 311
7.96925 307
7.98937 302
8.00948 320
8.0296 300
8.04971 316
8.06982 286
8.08994 304
8.11005 279
8.13016 271
8.15028 339
8.17039 310
8.1905 303
8.21062 329
8.23073 322
8.25085 297
8.27096 273
8.29107 346
8.31119 268
8.3313 337
8.35141 317
8.37153 329
8.39164 337
8.41176 320
8.43187 297
8.45198 315
8.4721 302
8.49221 321
8.51232 311
8.53244 305
8.55255 334
8.57266 313
8.59278 282
8.61289 314
8.63301 360
8.65312 293
8.67323 342
8.69335 358
8.71346 331
8.73357 324
8.75369 320
8.7738 334
8.79392 331
8.81403 359
8.83414 344
8.85426 283
8.87437 375
8.89448 321
8.9146 299
8.93471 363
8.95483 325
8.97494 294
8.99505 317
9.01517 314
9.03528 311
9.05539 322
9.07551 305
9.09562 314
9.11573 328
9.13585 305
9.15596 289
9.17608 339
9.19619 288
9.2163 318
9.23642 320
9.25653 287
9.27664 299
9.29676 337
9.31687 341
9.33699 291
9.3571 314
9.37721 286
9.39733 315
9.41744 306
9.43755 290
9.45767 277
9.47778 296
9.4979 303
9.51801 305
9.53812 291
9.55824 289
9.57835 281
9.59846 301
9.61858 283
9.63869 283
9.6588 295
9.67892 325
9.69903 284
9.71915 266
9.73926 283
9.75937 343
9.77949 295
9.7996 270
9.81971 283
9.83983 291
9.85994 324
9.88006 303
9.90017 304
9.92028 330
9.9404 288
9.96051 281
9.98062 298
10.00074 285
10.02085 316
10.04097 316
10.06108 325
10.08119 305
10.10131 292
10.12142 305
10.14153 286
10.16165 297
10.18176 283
10.20187 272
10.22199 282
10.2421 291
10.26222 307
10.28233 272
10.30244 276
10.32256 302
10.34267 310
10.36278 276
10.3829 293
10.40301 296
10.42313 311
10.44324 300
10.46335 317
10.48347 262
10.50358 290
10.52369 294
10.54381 323
10.56392 274
10.58403 293
10.60415 333
10.62426 350
10.64438 297
10.66449 303
10.6846 308
10.70472 301
10.72483 323
10.74494 275
10.76506 319
10.78517 294
10.80529 326
10.8254 298
10.84551 342
10.86563 288
10.88574 309
10.90585 272
10.92597 286
10.94608 297
10.9662 299
10.98631 293
11.00642 283
11.02654 276
11.04665 285
11.06676 293
11.08688 336
11.10699 339
11.1271 306
11.14722 312
11.16733 306
11.18745 279
11.20756 275
11.22767 273
11.24779 313
11.2679 281
11.28801 265
11.30813 320
11.32824 292
11.34836 301
11.36847 297
11.38858 275
11.4087 291
11.42881 302
11.44892 301
11.46904 273
11.48915 300
11.50927 306
11.52938 333
11.54949 270
11.56961 329
11.58972 297
11.60983 294
11.62995 303
11.65006 323
11.67017 277
11.69029 286
11.7104 304
11.73052 299
11.75063 301
11.77074 298
11.79086 256
11.81097 314
11.83108 292
11.8512 276
11.87131 294
11.89143 269
11.91154 264
11.93165 284
11.95177 327
11.97188 312
11.99199 313
12.01211 307
12.03222 284
12.05234 295
12.07245 294
12.09256 302
12.11268 303
12.13279 324
12.1529 283
12.17302 324
12.19313 322
12.21324 337
12.23336 304
12.25347 308
12.27359 309
12.2937 321
12.31381 286
12.33393 323
12.35404 318
12.37415 326
12.39427 307
12.41438 296
12.4345 329
12.45461 289
12.47472 289
12.49484 270
12.51495 272
12.53506 308
12.55518 269
12.57529 312
12.5954 278
12.61552 305
12.63563 268
12.65575 277
12.67586 288
12.69597 296
12.71609 268
12.7362 296
12.75631 267
12.77643 289
12.79654 234
12.81666 237
12.83677 264
12.85688 268
12.877 252
12.89711 283
12.91722 316
12.93734 270
12.95745 272
12.97757 247
12.99768 262
13.01779 247
13.03791 273
13.05802 263
13.07813 273
13.09825 263
13.11836 292
13.13847 286
13.15859 299
13.1787 259
13.19882 291
13.21893 261
13.23904 270
13.25916 293
13.27927 275
13.29938 255
13.3195 272
13.33961 291
13.35973 256
13.37984 282
13.39995 292
13.42007 296
13.44018 270
13.46029 280
13.48041 273
13.50052 263
13.52064 270
13.54075 290
13.56086 271
13.58098 296
13.60109 254
13.6212 296
13.64132 320
13.66143 324
13.68154 284
13.70166 280
13.72177 287
13.74189 267
13.762 264
13.78211 301
13.80223 269
13.82234 271
13.84245 285
13.86257 280
13.88268 264
13.9028 272
13.92291 279
13.94302 309
13.96314 250
13.98325 265
14.00336 274
14.02348 282
14.04359 248
14.06371 249
14.08382 253
14.10393 218
14.12405 278
14.14416 234
14.16427 249
14.18439 242
14.2045 243
14.22461 249
14.24473 253
14.26484 227
14.28496 270
14.30507 233
14.32518 246
14.3453 256
14.36541 257
14.38552 261
14.40564 266
14.42575 261
14.44587 277
14.46598 249
14.48609 276
14.50621 260
14.52632 263
14.54643 289
14.56655 283
14.58666 256
14.60677 250
14.62689 276
14.647 276
14.66712 248
14.68723 256
14.70734 276
14.72746 245
14.74757 278
14.76768 267
14.7878 262
14.80791 252
14.82803 255
14.84814 244
14.86825 249
14.88837 271
14.90848 280
14.92859 269
14.94871 280
14.96882 251
14.98894 252
15.00905 265
15.02916 266
15.04928 247
15.06939 259
15.0895 272
15.10962 260
15.12973 261
15.14984 241
15.16996 268
15.19007 272
15.21019 270
15.2303 244
15.25041 300
15.27053 269
15.29064 232
15.31075 270
15.33087 245
15.35098 245
15.3711 262
15.39121 262
15.41132 251
15.43144 266
15.45155 232
15.47166 259
15.49178 247
15.51189 246
15.53201 278
15.55212 271
15.57223 256
15.59235 224
15.61246 227
15.63257 282
15.65269 224
15.6728 239
15.69291 256
15.71303 248
15.73314 263
15.75326 249
15.77337 271
15.79348 244
15.8136 273
15.83371 249
15.85382 274
15.87394 237
15.89405 264
15.91417 258
15.93428 235
15.95439 256
15.97451 255
15.99462 306
16.01473 226
16.03485 252
16.05496 278
16.07508 257
16.09519 247
16.1153 249
16.13542 276
16.15553 256
16.17564 205
16.19576 251
16.21587 276
16.23598 201
16.2561 258
16.27621 234
16.29633 258
16.31644 274
16.33655 255
16.35667 260
16.37678 235
16.39689 244
16.41701 223
16.43712 263
16.45724 241
16.47735 242
16.49746 283
16.51758 276
16.53769 268
16.5578 269
16.57792 245
16.59803 243
16.61814 224
16.63826 235
16.65837 283
16.67849 260
16.6986 258
16.71871 241
16.73883 247
16.75894 238
16.77905 241
16.79917 256
16.81928 233
16.8394 230
16.85951 252
16.87962 253
16.89974 245
16.91985 246
16.93996 249
16.96008 266
16.98019 255
17.00031 238
17.02042 252
17.04053 257
17.06065 250
17.08076 247
17.10087 266
17.12099 272
17.1411 246
17.16121 265
17.18133 247
17.20144 241
17.22156 258
17.24167 236
17.26178 233
17.2819 266
17.30201 242
17.32212 259
17.34224 229
17.36235 272
17.38247 260
17.40258 239
17.42269 267
17.44281 263
17.46292 250
17.48303 245
17.50315 240
17.52326 256
17.54338 283
17.56349 241
17.5836 276
17.60372 269
17.62383 246
17.64394 258
17.66406 265
17.68417 291
17.70428 264
17.7244 261
17.74451 268
17.76463 271
17.78474 257
17.80485 274
17.82497 266
17.84508 264
17.86519 257
17.88531 244
17.90542 294
17.92554 244
17.94565 255
17.96576 248
17.98588 239
18.00599 253
18.0261 254
18.04622 242
18.06633 268
18.08645 240
18.10656 222
18.12667 255
18.14679 241
18.1669 261
18.18701 229
18.20713 277
18.22724 250
18.24735 266
18.26747 276
18.28758 234
18.3077 253
18.32781 231
18.34792 228
18.36804 293
18.38815 253
18.40826 261
18.42838 221
18.44849 268
18.46861 242
18.48872 230
18.50883 249
18.52895 252
18.54906 246
18.56917 237
18.58929 254
18.6094 207
18.62951 255
18.64963 228
18.66974 246
18.68986 233
18.70997 257
18.73008 246
18.7502 286
18.77031 259
18.79042 261
18.81054 289
18.83065 286
18.85077 245
18.87088 266
18.89099 303
18.91111 255
18.93122 282
18.95133 264
18.97145 283
18.99156 298
19.01168 272
19.03179 251
19.0519 267
19.07202 261
19.09213 267
19.11224 261
19.13236 287
19.15247 280
19.17258 271
19.1927 261
19.21281 286
19.23293 290
19.25304 306
19.27315 294
19.29327 286
19.31338 258
19.33349 299
19.35361 300
19.37372 283
19.39384 294
19.41395 319
19.43406 330
19.45418 279
19.47429 302
19.4944 328
19.51452 346
19.53463 335
19.55475 344
19.57486 341
19.59497 339
19.61509 375
19.6352 387
19.65531 419
19.67543 406
19.69554 396
19.71565 475
19.73577 414
19.75588 431
19.776 447
19.79611 453
19.81622 428
19.83634 446
19.85645 465
19.87656 469
19.89668 452
19.91679 498
19.93691 447
19.95702 523
19.97713 497
19.99725 464
20.01736 428
20.03747 463
20.05759 477
20.0777 425
20.09782 483
20.11793 467
20.13804 477
20.15816 442
20.17827 431
20.19838 499
20.2185 435
20.23861 436
20.25872 463
20.27884 406
20.29895 426
20.31907 435
20.33918 464
20.35929 468
20.37941 429
20.39952 430
20.41963 472
20.43975 471
20.45986 515
20.47998 513
20.50009 492
20.5202 518
20.54032 484
20.56043 533
20.58054 551
20.60066 580
20.62077 628
20.64088 677
20.661 747
20.68111 959
20.70123 1185
20.72134 1511
20.74145 2078
20.76157 2715
20.78168 3547
20.80179 4421
20.82191 5235
20.84202 5669
20.86214 5498
20.88225 4902
20.90236 3997
20.92248 2938
20.94259 1993
20.9627 1375
20.98282 1015
21.00293 779
21.02305 653
21.04316 628
21.06327 546
21.08339 619
21.1035 509
21.12361 506
21.14373 528
21.16384 461
21.18395 474
21.20407 414
21.22418 478
21.2443 426
21.26441 408
21.28452 442
21.30464 435
21.32475 391
21.34486 421
21.36498 386
21.38509 420
21.40521 391
21.42532 374
21.44543 378
21.46555 384
21.48566 338
21.50577 379
21.52589 379
21.546 396
21.56612 375
21.58623 379
21.60634 382
21.62646 364
21.64657 381
21.66668 381
21.6868 392
21.70691 381
21.72702 369
21.74714 365
21.76725 364
21.78737 359
21.80748 399
21.82759 361
21.84771 431
21.86782 451
21.88793 450
21.90805 481
21.92816 476
21.94828 543
21.96839 579
21.9885 527
22.00862 512
22.02873 509
22.04884 521
22.06896 420
22.08907 426
22.10919 386
22.1293 367
22.14941 391
22.16953 345
22.18964 370
22.20975 352
22.22987 399
22.24998 354
22.27009 355
22.29021 385
22.31032 336
22.33044 332
22.35055 324
22.37066 349
22.39078 353
22.41089 353
22.431 335
22.45112 339
22.47123 342
22.49135 364
22.51146 330
22.53157 381
22.55169 369
22.5718 327
22.59191 383
22.61203 355
22.63214 371
22.65225 408
22.67237 344
22.69248 351
22.7126 341
22.73271 352
22.75282 336
22.77294 356
22.79305 359
22.81316 403
22.83328 375
22.85339 381
22.87351 337
22.89362 374
22.91373 355
22.93385 359
22.95396 322
22.97407 422
22.99419 356
23.0143 360
23.03442 345
23.05453 362
23.07464 330
23.09476 351
23.11487 343
23.13498 373
23.1551 352
23.17521 337
23.19532 375
23.21544 344
23.23555 302
23.25567 365
23.27578 349
23.29589 342
23.31601 308
23.33612 338
23.35623 356
23.37635 378
23.39646 382
23.41658 378
23.43669 414
23.4568 382
23.47692 420
23.49703 454
23.51714 413
23.53726 490
23.55737 475
23.57749 480
23.5976 478
23.61771 460
23.63783 473
23.65794 531
23.67805 452
23.69817 482
23.71828 443
23.73839 432
23.75851 446
23.77862 468
23.79874 408
23.81885 438
23.83896 407
23.85908 427
23.87919 414
23.8993 382
23.91942 372
23.93953 419
23.95965 433
23.97976 426
23.99987 449
24.01999 441
24.0401 437
24.06021 432
24.08033 388
24.10044 401
24.12056 435
24.14067 419
24.16078 390
24.1809 388
24.20101 423
24.22112 427
24.24124 435
24.26135 432
24.28146 435
24.30158 453
24.32169 416
24.34181 501
24.36192 430
24.38203 429
24.40215 420
24.42226 418
24.44237 413
24.46249 415
24.4826 391
24.50272 364
24.52283 394
24.54294 400
24.56306 367
24.58317 355
24.60328 360
24.6234 350
24.64351 352
24.66362 372
24.68374 370
24.70385 382
24.72397 343
24.74408 370
24.76419 329
24.78431 351
24.80442 343
24.82453 357
24.84465 352
24.86476 337
24.88488 364
24.90499 372
24.9251 371
24.94522 354
24.96533 328
24.98544 352
25.00556 335
25.02567 374
25.04579 363
25.0659 364
25.08601 373
25.10613 370
25.12624 383
25.14635 372
25.16647 355
25.18658 358
25.20669 367
25.22681 340
25.24692 344
25.26704 425
25.28715 367
25.30726 358
25.32738 396
25.34749 365
25.3676 382
25.38772 364
25.40783 369
25.42795 387
25.44806 415
25.46817 432
25.48829 447
25.5084 377
25.52851 428
25.54863 444
25.56874 492
25.58886 470
25.60897 493
25.62908 567
25.6492 503
25.66931 510
25.68942 503
25.70954 538
25.72965 540
25.74976 519
25.76988 514
25.78999 533
25.81011 514
25.83022 508
25.85033 503
25.87045 526
25.89056 530
25.91067 558
25.93079 537
25.9509 503
25.97102 521
25.99113 551
26.01124 566
26.03136 601
26.05147 532
26.07158 569
26.0917 647
26.11181 613
26.13193 688
26.15204 713
26.17215 715
26.19227 792
26.21238 790
26.23249 828
26.25261 917
26.27272 915
26.29283 1092
26.31295 1076
26.33306 1195
26.35318 1446
26.37329 1590
26.3934 1871
26.41352 2206
26.43363 2639
26.45374 3645
26.47386 4932
26.49397 6573
26.51409 9102
26.5342 12343
26.55431 16149
26.57443 19910
26.59454 23463
26.61465 25162
26.63477 25184
26.65488 22685
26.67499 18765
26.69511 14120
26.71522 10292
26.73534 7040
26.75545 4477
26.77556 2915
26.79568 2017
26.81579 1611
26.8359 1399
26.85602 1317
26.87613 1140
26.89625 1142
26.91636 1026
26.93647 982
26.95659 965
26.9767 793
26.99681 796
27.01693 784
27.03704 710
27.05716 745
27.07727 726
27.09738 651
27.1175 654
27.13761 599
27.15772 564
27.17784 561
27.19795 581
27.21806 525
27.23818 526
27.25829 560
27.27841 540
27.29852 558
27.31863 538
27.33875 537
27.35886 517
27.37897 604
27.39909 611
27.4192 641
27.43932 602
27.45943 694
27.47954 716
27.49966 686
27.51977 725
27.53988 655
27.56 690
27.58011 639
27.60023 662
27.62034 616
27.64045 696
27.66057 691
27.68068 681
27.70079 725
27.72091 759
27.74102 760
27.76113 767
27.78125 738
27.80136 732
27.82148 738
27.84159 734
27.8617 732
27.88182 705
27.90193 694
27.92204 689
27.94216 721
27.96227 754
27.98239 632
28.0025 681
28.02261 639
28.04273 527
28.06284 562
28.08295 526
28.10307 501
28.12318 487
28.1433 465
28.16341 460
28.18352 442
28.20364 430
28.22375 455
28.24386 458
28.26398 491
28.28409 425
28.3042 439
28.32432 433
28.34443 422
28.36455 425
28.38466 422
28.40477 443
28.42489 397
28.445 449
28.46511 388
28.48523 394
28.50534 325
28.52546 353
28.54557 347
28.56568 339
28.5858 329
28.60591 381
28.62602 347
28.64614 353
28.66625 360
28.68636 347
28.70648 351
28.72659 321
28.74671 347
28.76682 342
28.78693 317
28.80705 355
28.82716 328
28.84727 350
28.86739 336
28.8875 368
28.90762 348
28.92773 331
28.94784 324
28.96796 343
28.98807 336
29.00818 323
29.0283 326
29.04841 334
29.06853 347
29.08864 347
29.10875 330
29.12887 338
29.14898 349
29.16909 314
29.18921 341
29.20932 319
29.22943 320
29.24955 385
29.26966 337
29.28978 354
29.30989 334
29.33 337
29.35012 355
29.37023 373
29.39034 352
29.41046 357
29.43057 354
29.45069 400
29.4708 351
29.49091 401
29.51103 365
29.53114 389
29.55125 397
29.57137 359
29.59148 375
29.6116 386
29.63171 377
29.65182 384
29.67194 376
29.69205 393
29.71216 417
29.73228 400
29.75239 405
29.7725 415
29.79262 445
29.81273 427
29.83285 425
29.85296 404
29.87307 386
29.89319 435
29.9133 404
29.93341 405
29.95353 378
29.97364 381
29.99376 358
30.01387 378
30.03398 366
30.0541 364
30.07421 383
30.09432 372
30.11444 378
30.13455 397
30.15467 385
30.17478 371
30.19489 375
30.21501 435
30.23512 425
30.25523 414
30.27535 413
30.29546 424
30.31557 428
30.33569 387
30.3558 385
30.37592 414
30.39603 389
30.41614 415
30.43626 412
30.45637 394
30.47648 400
30.4966 401
30.51671 401
30.53683 374
30.55694 351
30.57705 351
30.59717 356
30.61728 353
30.63739 365
30.65751 355
30.67762 374
30.69773 374
30.71785 346
30.73796 384
30.75808 396
30.77819 415
30.7983 432
30.81842 391
30.83853 388
30.85864 424
30.87876 384
30.89887 372
30.91899 339
30.9391 315
30.95921 337
30.97933 345
30.99944 296
31.01955 316
31.03967 296
31.05978 290
31.0799 286
31.10001 281
31.12012 356
31.14024 288
31.16035 290
31.18046 296
31.20058 324
31.22069 325
31.2408 332
31.26092 327
31.28103 350
31.30115 320
31.32126 285
31.34137 341
31.36149 331
31.3816 335
31.40171 306
31.42183 291
31.44194 290
31.46206 317
31.48217 317
31.50228 323
31.5224 338
31.54251 301
31.56262 311
31.58274 286
31.60285 296
31.62297 281
31.64308 317
31.66319 297
31.68331 311
31.70342 307
31.72353 304
31.74365 284
31.76376 310
31.78387 279
31.80399 312
31.8241 287
31.84422 290
31.86433 296
31.88444 289
31.90456 280
31.92467 305
31.94478 288
31.9649 319
31.98501 287
32.00513 316
32.02524 279
32.04535 289
32.06547 308
32.08558 291
32.10569 307
32.12581 290
32.14592 297
32.16604 323
32.18615 308
32.20626 309
32.22638 306
32.24649 319
32.2666 325
32.28672 325
32.30683 355
32.32694 345
32.34706 326
32.36717 323
32.38729 327
32.4074 363
32.42751 352
32.44763 342
32.46774 364
32.48785 359
32.50797 378
32.52808 392
32.5482 373
32.56831 344
32.58842 355
32.60854 379
32.62865 347
32.64876 359
32.66888 323
32.68899 311
32.7091 357
32.72922 338
32.74933 318
32.76945 300
32.78956 298
32.80967 323
32.82979 326
32.8499 314
32.87001 341
32.89013 325
32.91024 336
32.93036 311
32.95047 323
32.97058 316
32.9907 299
33.01081 321
33.03092 330
33.05104 323
33.07115 292
33.09127 327
33.11138 327
33.13149 341
33.15161 307
33.17172 332
33.19183 272
33.21195 316
33.23206 294
33.25217 294
33.27229 300
33.2924 310
33.31252 315
33.33263 304
33.35274 319
33.37286 297
33.39297 326
33.41308 329
33.4332 334
33.45331 288
33.47343 295
33.49354 320
33.51365 280
33.53377 275
33.55388 293
33.57399 276
33.59411 335
33.61422 273
33.63434 306
33.65445 319
33.67456 301
33.69468 275
33.71479 299
33.7349 311
33.75502 344
33.77513 281
33.79524 304
33.81536 305
33.83547 309
33.85559 331
33.8757 305
33.89581 292
33.91593 299
33.93604 336
33.95615 292
33.97627 282
33.99638 290
34.0165 302
34.03661 282
34.05672 266
34.07684 282
34.09695 305
34.11706 265
34.13718 306
34.15729 321
34.17741 330
34.19752 305
34.21763 312
34.23775 312
34.25786 380
34.27797 317
34.29809 309
34.3182 293
34.33831 306
34.35843 309
34.37854 320
34.39866 327
34.41877 330
34.43888 345
34.459 309
34.47911 374
34.49922 369
34.51934 339
34.53945 322
34.55957 361
34.57968 361
34.59979 361
34.61991 368
34.64002 371
34.66013 373
34.68025 350
34.70036 390
34.72047 396
34.74059 385
34.7607 382
34.78082 455
34.80093 411
34.82104 435
34.84116 404
34.86127 399
34.88138 470
34.9015 436
34.92161 457
34.94173 456
34.96184 475
34.98195 410
35.00207 434
35.02218 419
35.04229 434
35.06241 460
35.08252 419
35.10264 437
35.12275 430
35.14286 411
35.16298 424
35.18309 477
35.2032 428
35.22332 487
35.24343 422
35.26354 459
35.28366 452
35.30377 437
35.32389 453
35.344 458
35.36411 486
35.38423 447
35.40434 471
35.42445 491
35.44457 478
35.46468 462
35.4848 482
35.50491 500
35.52502 491
35.54514 519
35.56525 486
35.58536 472
35.60548 457
35.62559 470
35.64571 458
35.66582 424
35.68593 406
35.70605 469
35.72616 428
35.74627 448
35.76639 426
35.7865 385
35.80661 408
35.82673 416
35.84684 418
35.86696 368
35.88707 391
35.90718 410
35.9273 377
35.94741 335
35.96752 399
35.98764 357
36.00775 364
36.02787 373
36.04798 394
36.06809 372
36.08821 377
36.10832 396
36.12843 377
36.14855 380
36.16866 369
36.18878 376
36.20889 398
36.229 383
36.24912 448
36.26923 422
36.28934 498
36.30946 477
36.32957 537
36.34968 612
36.3698 718
36.38991 853
36.41003 1016
36.43014 1227
36.45025 1387
36.47037 1623
36.49048 1735
36.51059 1908
36.53071 1853
36.55082 1650
36.57094 1555
36.59105 1333
36.61116 1146
36.63128 1020
36.65139 820
36.6715 678
36.69162 583
36.71173 450
36.73184 396
36.75196 413
36.77207 384
36.79219 349
36.8123 385
36.83241 403
36.85253 411
36.87264 314
36.89275 335
36.91287 358
36.93298 362
36.9531 320
36.97321 365
36.99332 313
37.01344 335
37.03355 340
37.05366 350
37.07378 291
37.09389 311
37.11401 366
37.13412 316
37.15423 339
37.17435 345
37.19446 349
37.21457 320
37.23469 341
37.2548 332
37.27491 324
37.29503 339
37.31514 294
37.33526 325
37.35537 336
37.37548 320
37.3956 318
37.41571 331
37.43582 345
37.45594 299
37.47605 328
37.49617 313
37.51628 313
37.53639 332
37.55651 343
37.57662 306
37.59673 331
37.61685 292
37.63696 327
37.65708 319
37.67719 318
37.6973 329
37.71742 330
37.73753 321
37.75764 326
37.77776 316
37.79787 341
37.81798 291
37.8381 308
37.85821 320
37.87833 322
37.89844 362
37.91855 307
37.93867 310
37.95878 303
37.97889 307
37.99901 281
38.01912 318
38.03924 293
38.05935 294
38.07946 289
38.09958 333
38.11969 347
38.1398 302
38.15992 310
38.18003 326
38.20015 318
38.22026 295
38.24037 320
38.26049 310
38.2806 289
38.30071 305
38.32083 302
38.34094 319
38.36105 300
38.38117 314
38.40128 322
38.4214 307
38.44151 299
38.46162 308
38.48174 302
38.50185 291
38.52196 346
38.54208 322
38.56219 297
38.58231 318
38.60242 322
38.62253 318
38.64265 322
38.66276 299
38.68287 341
38.70299 323
38.7231 292
38.74321 338
38.76333 288
38.78344 278
38.80356 346
38.82367 302
38.84378 328
38.8639 293
38.88401 288
38.90412 286
38.92424 319
38.94435 306
38.96447 323
38.98458 305
39.00469 296
39.02481 332
39.04492 312
39.06503 321
39.08515 331
39.10526 349
39.12538 330
39.14549 324
39.1656 394
39.18572 369
39.20583 406
39.22594 504
39.24606 509
39.26617 537
39.28628 646
39.3064 763
39.32651 889
39.34663 1094
39.36674 1247
39.38685 1377
39.40697 1610
39.42708 1832
39.44719 1678
39.46731 1565
39.48742 1436
39.50754 1264
39.52765 1100
39.54776 988
39.56788 811
39.58799 730
39.6081 572
39.62822 453
39.64833 414
39.66845 371
39.68856 357
39.70867 382
39.72879 310
39.7489 348
39.76901 362
39.78913 309
39.80924 343
39.82935 323
39.84947 281
39.86958 332
39.8897 300
39.90981 318
39.92992 327
39.95004 316
39.97015 329
39.99026 339
40.01038 351
40.03049 363
40.05061 366
40.07072 374
40.09083 368
40.11095 497
40.13106 552
40.15117 560
40.17129 741
40.1914 764
40.21152 855
40.23163 1003
40.25174 987
40.27186 971
40.29197 916
40.31208 847
40.3322 787
40.35231 678
40.37242 637
40.39254 600
40.41265 468
40.43277 477
40.45288 381
40.47299 352
40.49311 357
40.51322 378
40.53333 316
40.55345 341
40.57356 331
40.59368 297
40.61379 319
40.6339 322
40.65402 308
40.67413 282
40.69424 323
40.71436 318
40.73447 325
40.75458 272
40.7747 288
40.79481 287
40.81493 302
40.83504 321
40.85515 344
40.87527 306
40.89538 323
40.91549 315
40.93561 290
40.95572 293
40.97584 314
40.99595 263
41.01606 301
41.03618 324
41.05629 326
41.0764 304
41.09652 292
41.11663 345
41.13675 281
41.15686 300
41.17697 310
41.19709 299
41.2172 283
41.23731 321
41.25743 304
41.27754 313
41.29765 281
41.31777 290
41.33788 257
41.358 281
41.37811 301
41.39822 301
41.41834 321
41.43845 293
41.45856 289
41.47868 284
41.49879 304
41.51891 275
41.53902 306
41.55913 296
41.57925 327
41.59936 314
41.61947 322
41.63959 294
41.6597 304
41.67982 320
41.69993 293
41.72004 272
41.74016 320
41.76027 321
41.78038 321
41.8005 328
41.82061 306
41.84072 324
41.86084 309
41.88095 317
41.90107 301
41.92118 298
41.94129 324
41.96141 331
41.98152 350
42.00163 304
42.02175 292
42.04186 302
42.06198 335
42.08209 336
42.1022 378
42.12232 324
42.14243 361
42.16254 339
42.18266 403
42.20277 390
42.22289 466
42.243 485
42.26311 541
42.28323 625
42.30334 670
42.32345 827
42.34357 1030
42.36368 1131
42.38379 1233
42.40391 1334
42.42402 1328
42.44414 1281
42.46425 1158
42.48436 989
42.50448 918
42.52459 827
42.5447 791
42.56482 646
42.58493 540
42.60505 453
42.62516 377
42.64527 338
42.66539 319
42.6855 315
42.70561 332
42.72573 329
42.74584 298
42.76595 304
42.78607 315
42.80618 272
42.8263 273
42.84641 305
42.86652 288
42.88664 301
42.90675 263
42.92686 272
42.94698 283
42.96709 293
42.98721 276
43.00732 302
43.02743 300
43.04755 286
43.06766 281
43.08777 260
43.10789 286
43.128 259
43.14812 263
43.16823 282
43.18834 279
43.20846 296
43.22857 255
43.24868 263
43.2688 308
43.28891 244
43.30902 263
43.32914 261
43.34925 238
43.36937 267
43.38948 264
43.40959 295
43.42971 233
43.44982 258
43.46993 245
43.49005 274
43.51016 291
43.53028 246
43.55039 269
43.5705 286
43.59062 238
43.61073 289
43.63084 250
43.65096 252
43.67107 259
43.69119 250
43.7113 253
43.73141 241
43.75153 276
43.77164 249
43.79175 251
43.81187 264
43.83198 268
43.85209 229
43.87221 250
43.89232 244
43.91244 239
43.93255 251
43.95266 254
43.97278 255
43.99289 229
44.013 233
44.03312 243
44.05323 247
44.07335 265
44.09346 277
44.11357 258
44.13369 274
44.1538 259
44.17391 228
44.19403 252
44.21414 274
44.23426 243
44.25437 236
44.27448 270
44.2946 243
44.31471 241
44.33482 285
44.35494 239
44.37505 272
44.39516 275
44.41528 256
44.43539 274
44.45551 252
44.47562 259
44.49573 248
44.51585 264
44.53596 261
44.55607 253
44.57619 248
44.5963 249
44.61642 233
44.63653 247
44.65664 255
44.67676 258
44.69687 266
44.71698 260
44.7371 245
44.75721 248
44.77732 229
44.79744 276
44.81755 249
44.83767 269
44.85778 270
44.87789 266
44.89801 269
44.91812 271
44.93823 255
44.95835 262
44.97846 255
44.99858 311
45.01869 285
45.0388 265
45.05892 290
45.07903 262
45.09914 266
45.11926 311
45.13937 265
45.15949 285
45.1796 276
45.19971 276
45.21983 262
45.23994 296
45.26005 288
45.28017 271
45.30028 279
45.32039 248
45.34051 271
45.36062 269
45.38074 308
45.40085 313
45.42096 307
45.44108 318
45.46119 341
45.4813 328
45.50142 373
45.52153 318
45.54165 338
45.56176 391
45.58187 406
45.60199 457
45.6221 487
45.64221 563
45.66233 619
45.68244 703
45.70256 787
45.72267 832
45.74278 899
45.7629 957
45.78301 877
45.80312 824
45.82324 780
45.84335 659
45.86346 604
45.88358 562
45.90369 535
45.92381 470
45.94392 394
45.96403 327
45.98415 308
46.00426 274
46.02437 286
46.04449 311
46.0646 271
46.08472 263
46.10483 282
46.12494 291
46.14506 259
46.16517 266
46.18528 281
46.2054 264
46.22551 251
46.24563 255
46.26574 265
46.28585 273
46.30597 247
46.32608 294
46.34619 259
46.36631 245
46.38642 235
46.40653 248
46.42665 271
46.44676 245
46.46688 257
46.48699 247
46.5071 248
46.52722 247
46.54733 226
46.56744 254
46.58756 228
46.60767 242
46.62779 253
46.6479 248
46.66801 225
46.68813 247
46.70824 244
46.72835 238
46.74847 258
46.76858 267
46.78869 253
46.80881 247
46.82892 250
46.84904 241
46.86915 271
46.88926 242
46.90938 247
46.92949 223
46.9496 241
46.96972 257
46.98983 262
47.00995 273
47.03006 275
47.05017 263
47.07029 274
47.0904 273
47.11051 250
47.13063 300
47.15074 245
47.17086 270
47.19097 251
47.21108 241
47.2312 242
47.25131 267
47.27142 264
47.29154 238
47.31165 266
47.33176 274
47.35188 251
47.37199 244
47.39211 243
47.41222 247
47.43233 253
47.45245 234
47.47256 259
47.49267 211
47.51279 243
47.5329 246
47.55302 262
47.57313 218
47.59324 254
47.61336 246
47.63347 254
47.65358 242
47.6737 251
47.69381 261
47.71393 246
47.73404 265
47.75415 240
47.77427 255
47.79438 227
47.81449 249
47.83461 275
47.85472 252
47.87483 235
47.89495 280
47.91506 269
47.93518 235
47.95529 231
47.9754 278
47.99552 237
48.01563 252
48.03574 234
48.05586 250
48.07597 254
48.09609 256
48.1162 266
48.13631 250
48.15643 237
48.17654 256
48.19665 227
48.21677 269
48.23688 256
48.257 268
48.27711 281
48.29722 248
48.31734 267
48.33745 265
48.35756 255
48.37768 282
48.39779 278
48.4179 274
48.43802 308
48.45813 249
48.47825 265
48.49836 232
48.51847 248
48.53859 262
48.5587 262
48.57881 260
48.59893 261
48.61904 238
48.63916 291
48.65927 256
48.67938 259
48.6995 298
48.71961 254
48.73972 250
48.75984 276
48.77995 272
48.80006 256
48.82018 291
48.84029 278
48.86041 273
48.88052 293
48.90063 280
48.92075 265
48.94086 262
48.96097 262
48.98109 261
49.0012 293
49.02132 273
49.04143 257
49.06154 281
49.08166 267
49.10177 305
49.12188 308
49.142 262
49.16211 272
49.18223 300
49.20234 287
49.22245 308
49.24257 300
49.26268 252
49.28279 286
49.30291 275
49.32302 277
49.34313 265
49.36325 282
49.38336 302
49.40348 321
49.42359 292
49.4437 317
49.46382 271
49.48393 292
49.50404 317
49.52416 318
49.54427 310
49.56439 296
49.5845 332
49.60461 288
49.62473 341
49.64484 334
49.66495 366
49.68507 335
49.70518 342
49.7253 340
49.74541 417
49.76552 407
49.78564 429
49.80575 425
49.82586 462
49.84598 506
49.86609 527
49.8862 639
49.90632 661
49.92643 791
49.94655 922
49.96666 1090
49.98677 1342
50.00689 1618
50.027 1841
50.04711 2147
50.06723 2497
50.08734 2638
50.10746 2597
50.12757 2421
50.14768 2200
50.1678 1959
50.18791 1701
50.20802 1533
50.22814 1482
50.24825 1364
50.26837 1195
50.28848 957
50.30859 719
50.32871 562
50.34882 463
50.36893 415
50.38905 368
50.40916 383
50.42927 352
50.44939 337
50.4695 380
50.48962 342
50.50973 369
50.52984 326
50.54996 388
50.57007 349
50.59018 375
50.6103 360
50.63041 338
50.65053 349
50.67064 354
50.69075 378
50.71087 335
50.73098 317
50.75109 330
50.77121 356
50.79132 298
50.81143 307
50.83155 303
50.85166 278
50.87178 297
50.89189 284
50.912 294
50.93212 282
50.95223 277
50.97234 252
50.99246 227
51.01257 238
51.03269 251
51.0528 272
51.07291 262
51.09303 273
51.11314 245
51.13325 248
51.15337 305
51.17348 326
51.1936 271
51.21371 269
51.23382 272
51.25394 254
51.27405 263
51.29416 252
51.31428 249
51.33439 292
51.3545 252
51.37462 269
51.39473 258
51.41485 265
51.43496 268
51.45507 217
51.47519 282
51.4953 288
51.51541 281
51.53553 267
51.55564 253
51.57576 273
51.59587 247
51.61598 246
51.6361 242
51.65621 244
51.67632 254
51.69644 257
51.71655 231
51.73667 268
51.75678 242
51.77689 245
51.79701 257
51.81712 265
51.83723 242
51.85735 225
51.87746 237
51.89757 262
51.91769 231
51.9378 264
51.95792 216
51.97803 230
51.99814 237
52.01826 264
52.03837 238
52.05848 239
52.0786 223
52.09871 261
52.11883 256
52.13894 264
52.15905 268
52.17917 242
52.19928 237
52.21939 264
52.23951 232
52.25962 247
52.27974 250
52.29985 241
52.31996 231
52.34008 253
52.36019 252
52.3803 223
52.40042 248
52.42053 251
52.44064 266
52.46076 263
52.48087 238
52.50099 277
52.5211 251
52.54121 233
52.56133 227
52.58144 236
52.60155 255
52.62167 230
52.64178 248
52.6619 237
52.68201 241
52.70212 228
52.72224 249
52.74235 255
52.76246 274
52.78258 251
52.80269 266
52.8228 255
52.84292 257
52.86303 251
52.88315 247
52.90326 269
52.92337 274
52.94349 276
52.9636 270
52.98371 298
53.00383 264
53.02394 301
53.04406 290
53.06417 279
53.08428 295
53.1044 274
53.12451 284
53.14462 292
53.16474 285
53.18485 318
53.20497 291
53.22508 300
53.24519 303
53.26531 296
53.28542 272
53.30553 295
53.32565 297
53.34576 283
53.36587 300
53.38599 281
53.4061 288
53.42622 238
53.44633 270
53.46644 282
53.48656 267
53.50667 286
53.52678 267
53.5469 305
53.56701 270
53.58713 297
53.60724 282
53.62735 285
53.64747 261
53.66758 252
53.68769 287
53.70781 269
53.72792 289
53.74804 282
53.76815 293
53.78826 292
53.80838 300
53.82849 272
53.8486 285
53.86872 282
53.88883 258
53.90894 312
53.92906 281
53.94917 299
53.96929 301
53.9894 294
54.00951 282
54.02963 283
54.04974 288
54.06985 273
54.08997 264
54.11008 277
54.1302 267
54.15031 288
54.17042 292
54.19054 289
54.21065 287
54.23076 298
54.25088 307
54.27099 258
54.29111 258
54.31122 297
54.33133 251
54.35145 334
54.37156 309
54.39167 322
54.41179 282
54.4319 288
54.45201 283
54.47213 287
54.49224 340
54.51236 340
54.53247 351
54.55258 354
54.5727 317
54.59281 340
54.61292 411
54.63304 409
54.65315 449
54.67327 527
54.69338 568
54.71349 561
54.73361 634
54.75372 709
54.77383 805
54.79395 898
54.81406 900
54.83417 978
54.85429 915
54.8744 839
54.89452 794
54.91463 632
54.93474 665
54.95486 670
54.97497 619
54.99508 604
55.0152 531
55.03531 524
55.05543 404
55.07554 412
55.09565 413
55.11577 364
55.13588 408
55.15599 373
55.17611 391
55.19622 471
55.21634 452
55.23645 579
55.25656 578
55.27668 591
55.29679 537
55.3169 579
55.33702 488
55.35713 449
55.37724 435
55.39736 413
55.41747 379
55.43759 378
55.4577 395
55.47781 363
55.49793 314
55.51804 331
55.53815 290
55.55827 287
55.57838 316
55.5985 303
55.61861 259
55.63872 278
55.65884 268
55.67895 268
55.69906 287
55.71918 272
55.73929 255
55.75941 270
55.77952 261
55.79963 273
55.81975 267
55.83986 256
55.85997 253
55.88009 266
55.9002 260
55.92031 228
55.94043 277
55.96054 251
55.98066 250
56.00077 213
56.02088 266
56.041 265
56.06111 251
56.08122 226
56.10134 268
56.12145 267
56.14157 260
56.16168 253
56.18179 235
56.20191 252
56.22202 274
56.24213 264
56.26225 260
56.28236 257
56.30248 254
56.32259 254
56.3427 237
56.36282 273
56.38293 259
56.40304 249
56.42316 245
56.44327 258
56.46338 273
56.4835 274
56.50361 256
56.52373 250
56.54384 258
56.56395 284
56.58407 297
56.60418 270
56.62429 240
56.64441 272
56.66452 250
56.68464 255
56.70475 270
56.72486 240
56.74498 250
56.76509 269
56.7852 264
56.80532 263
56.82543 261
56.84554 249
56.86566 241
56.88577 271
56.90589 242
56.926 235
56.94611 258
56.96623 260
56.98634 270
57.00645 254
57.02657 250
57.04668 248
57.0668 268
57.08691 298
57.10702 296
57.12714 266
57.14725 277
57.16736 268
57.18748 278
57.20759 301
57.22771 293
57.24782 251
57.26793 271
57.28805 242
57.30816 257
57.32827 247
57.34839 256
57.3685 257
57.38861 243
57.40873 240
57.42884 266
57.44896 254
57.46907 270
57.48918 247
57.5093 248
57.52941 286
57.54952 254
57.56964 248
57.58975 229
57.60987 230
57.62998 247
57.65009 240
57.67021 237
57.69032 237
57.71043 243
57.73055 227
57.75066 259
57.77078 249
57.79089 234
57.811 245
57.83112 245
57.85123 245
57.87134 227
57.89146 216
57.91157 264
57.93168 259
57.9518 246
57.97191 243
57.99203 263
58.01214 246
58.03225 211
58.05237 265
58.07248 222
58.09259 246
58.11271 247
58.13282 227
58.15294 243
58.17305 240
58.19316 233
58.21328 245
58.23339 257
58.2535 239
58.27362 243
58.29373 208
58.31385 224
58.33396 232
58.35407 254
58.37419 231
58.3943 224
58.41441 262
58.43453 223
58.45464 260
58.47475 235
58.49487 256
58.51498 217
58.5351 250
58.55521 223
58.57532 255
58.59544 237
58.61555 255
58.63566 237
58.65578 236
58.67589 256
58.69601 243
58.71612 271
58.73623 254
58.75635 242
58.77646 248
58.79657 229
58.81669 224
58.8368 241
58.85691 228
58.87703 244
58.89714 275
58.91726 256
58.93737 261
58.95748 225
58.9776 234
58.99771 231
59.01782 235
59.03794 259
59.05805 240
59.07817 237
59.09828 232
59.11839 235
59.13851 236
59.15862 250
59.17873 230
59.19885 246
59.21896 252
59.23908 225
59.25919 248
59.2793 281
59.29942 244
59.31953 266
59.33964 249
59.35976 272
59.37987 267
59.39998 279
59.4201 264
59.44021 257
59.46033 266
59.48044 269
59.50055 298
59.52067 327
59.54078 286
59.56089 324
59.58101 309
59.60112 331
59.62124 368
59.64135 419
59.66146 398
59.68158 459
59.70169 517
59.7218 573
59.74192 627
59.76203 743
59.78215 854
59.80226 953
59.82237 1182
59.84249 1342
59.8626 1539
59.88271 1684
59.90283 1689
59.92294 1710
59.94305 1513
59.96317 1334
59.98328 1179
60.0034 1094
60.02351 1014
60.04362 974
60.06374 1022
60.08385 972
60.10396 792
60.12408 682
60.14419 633
60.16431 455
60.18442 406
60.20453 383
60.22465 334
60.24476 330
60.26487 309
60.28499 315
60.3051 315
60.32522 298
60.34533 310
60.36544 291
60.38556 250
60.40567 270
60.42578 244
60.4459 266
60.46601 284
60.48612 266
60.50624 279
60.52635 267
60.54647 242
60.56658 258
60.58669 278
60.60681 273
60.62692 264
60.64703 267
60.66715 236
60.68726 254
60.70738 254
60.72749 282
60.7476 260
60.76772 282
60.78783 238
60.80794 253
60.82806 233
60.84817 260
60.86828 270
60.8884 232
60.90851 248
60.92863 263
60.94874 253
60.96885 247
60.98897 245
61.00908 240
61.02919 255
61.04931 237
61.06942 256
61.08954 260
61.10965 284
61.12976 260
61.14988 252
61.16999 281
61.1901 268
61.21022 254
61.23033 238
61.25045 265
61.27056 283
61.29067 244
61.31079 253
61.3309 270
61.35101 244
61.37113 251
61.39124 250
61.41135 269
61.43147 262
61.45158 287
61.4717 274
61.49181 280
61.51192 280
61.53204 287
61.55215 307
61.57226 276
61.59238 301
61.61249 275
61.63261 311
61.65272 275
61.67283 306
61.69295 319
61.71306 283
61.73317 265
61.75329 282
61.7734 292
61.79352 309
61.81363 296
61.83374 296
61.85386 281
61.87397 321
61.89408 283
61.9142 300
61.93431 308
61.95442 284
61.97454 269
61.99465 292
62.01477 300
62.03488 289
62.05499 311
62.07511 306
62.09522 295
62.11533 323
62.13545 273
62.15556 272
62.17568 318
62.19579 273
62.2159 313
62.23602 305
62.25613 291
62.27624 300
62.29636 293
62.31647 305
62.33659 295
62.3567 261
62.37681 299
62.39693 300
62.41704 294
62.43715 272
62.45727 287
62.47738 277
62.49749 303
62.51761 246
62.53772 260
62.55784 266
62.57795 291
62.59806 273
62.61818 252
62.63829 219
62.6584 280
62.67852 253
62.69863 281
62.71875 268
62.73886 248
62.75897 235
62.77909 220
62.7992 267
62.81931 242
62.83943 246
62.85954 267
62.87965 270
62.89977 258
62.91988 249
62.94 257
62.96011 273
62.98022 271
63.00034 229
63.02045 251
63.04056 231
63.06068 283
63.08079 254
63.10091 252
63.12102 261
63.14113 245
63.16125 242
63.18136 249
63.20147 238
63.22159 266
63.2417 265
63.26182 248
63.28193 271
63.30204 250
63.32216 264
63.34227 211
63.36238 241
63.3825 280
63.40261 273
63.42272 285
63.44284 271
63.46295 235
63.48307 237
63.50318 264
63.52329 269
63.54341 274
63.56352 237
63.58363 264
63.60375 269
63.62386 251
63.64398 300
63.66409 268
63.6842 290
63.70432 280
63.72443 263
63.74454 262
63.76466 317
63.78477 331
63.80489 315
63.825 343
63.84511 372
63.86523 374
63.88534 375
63.90545 431
63.92557 456
63.94568 494
63.96579 493
63.98591 549
64.00602 530
64.02614 474
64.04625 421
64.06636 366
64.08648 359
64.10659 355
64.1267 427
64.14682 412
64.16693 335
64.18705 348
64.20716 350
64.22727 297
64.24739 279
64.2675 290
64.28761 280
64.30773 249
64.32784 255
64.34796 248
64.36807 248
64.38818 263
64.4083 223
64.42841 257
64.44852 220
64.46864 235
64.48875 226
64.50886 243
64.52898 219
64.54909 259
64.56921 249
64.58932 234
64.60943 226
64.62955 224
64.64966 222
64.66977 237
64.68989 238
64.71 233
64.73012 205
64.75023 205
64.77034 208
64.79046 212
64.81057 250
64.83068 206
64.8508 236
64.87091 240
64.89102 232
64.91114 228
64.93125 237
64.95137 199
64.97148 236
64.99159 221
65.01171 256
65.03182 232
65.05193 251
65.07205 231
65.09216 216
65.11228 240
65.13239 228
65.1525 217
65.17262 230
65.19273 227
65.21284 251
65.23296 251
65.25307 252
65.27319 244
65.2933 242
65.31341 221
65.33353 243
65.35364 237
65.37375 239
65.39387 230
65.41398 215
65.43409 246
65.45421 256
65.47432 237
65.49444 245
65.51455 256
65.53466 276
65.55478 245
65.57489 256
65.595 275
65.61512 248
65.63523 291
65.65535 263
65.67546 278
65.69557 294
65.71569 308
65.7358 279
65.75591 282
65.77603 296
65.79614 244
65.81626 271
65.83637 244
65.85648 266
65.8766 282
65.89671 266
65.91682 231
65.93694 269
65.95705 222
65.97716 251
65.99728 246
66.01739 249
66.03751 225
66.05762 257
66.07773 235
66.09785 218
66.11796 248
66.13807 225
66.15819 243
66.1783 227
66.19842 227
66.21853 249
66.23864 261
66.25876 216
66.27887 273
66.29898 244
66.3191 239
66.33921 211
66.35933 236
66.37944 214
66.39955 236
66.41967 214
66.43978 229
66.45989 252
66.48001 237
66.50012 226
66.52023 205
66.54035 231
66.56046 245
66.58058 248
66.60069 212
66.6208 246
66.64092 235
66.66103 243
66.68114 215
66.70126 231
66.72137 214
66.74149 216
66.7616 237
66.78171 230
66.80183 227
66.82194 220
66.84205 214
66.86217 245
66.88228 235
66.90239 253
66.92251 219
66.94262 245
66.96274 220
66.98285 264
67.00296 225
67.02308 236
67.04319 217
67.0633 258
67.08342 212
67.10353 224
67.12365 261
67.14376 233
67.16387 270
67.18399 251
67.2041 264
67.22421 257
67.24433 250
67.26444 259
67.28456 268
67.30467 272
67.32478 308
67.3449 270
67.36501 308
67.38512 314
67.40524 332
67.42535 345
67.44546 361
67.46558 399
67.48569 424
67.50581 463
67.52592 509
67.54603 539
67.56615 656
67.58626 718
67.60637 825
67.62649 928
67.6466 1009
67.66672 996
67.68683 1110
67.70694 1023
67.72706 973
67.74717 862
67.76728 801
67.7874 773
67.80751 764
67.82763 770
67.84774 798
67.86785 770
67.88797 857
67.90808 878
67.92819 897
67.94831 901
67.96842 868
67.98853 948
68.00865 998
68.02876 1174
68.04888 1251
68.06899 1388
68.0891 1431
68.10922 1407
68.12933 1302
68.14944 1310
68.16956 1244
68.18967 1203
68.20979 1172
68.2299 1232
68.25001 1307
68.27013 1259
68.29024 1267
68.31035 1151
68.33047 991
68.35058 849
68.3707 693
68.39081 651
68.41092 624
68.43104 645
68.45115 595
68.47126 538
68.49138 498
68.51149 451
68.5316 377
68.55172 356
68.57183 345
68.59195 304
68.61206 279
68.63217 312
68.65229 263
68.6724 302
68.69251 266
68.71263 275
68.73274 254
68.75286 273
68.77297 259
68.79308 234
68.8132 254
68.83331 266
68.85342 233
68.87354 243
68.89365 244
68.91376 273
68.93388 245
68.95399 226
68.97411 253
68.99422 216
69.01433 251
69.03445 239
69.05456 244
69.07467 221
69.09479 242
69.1149 215
69.13502 220
69.15513 237
69.17524 224
69.19536 230
69.21547 231
69.23558 221
69.2557 243
69.27581 232
69.29593 226
69.31604 229
69.33615 228
69.35627 237
69.37638 233
69.39649 243
69.41661 256
69.43672 221
69.45683 209
69.47695 223
69.49706 224
69.51718 233
69.53729 226
69.5574 215
69.57752 228
69.59763 224
69.61774 235
69.63786 207
69.65797 205
69.67809 219
69.6982 243
69.71831 219
69.73843 221
69.75854 246
69.77865 235
69.79877 240
69.81888 222
69.839 219
69.85911 215
69.87922 224
69.89934 209
69.91945 213
69.93956 234
69.95968 232
69.97979 203
69.9999 234
70.02002 225
70.04013 227
70.06025 211
70.08036 230
70.10047 224
70.12059 234
70.1407 249
70.16081 231
70.18093 213
70.20104 176
70.22116 215
70.24127 240
70.26138 238
70.2815 236
70.30161 222
70.32172 224
70.34184 237
70.36195 218
70.38207 209
70.40218 211
70.42229 210
70.44241 213
70.46252 256
70.48263 196
70.50275 239
70.52286 237
70.54297 243
70.56309 210
70.5832 194
70.60332 201
70.62343 214
70.64354 238
70.66366 226
70.68377 215
70.70388 219
70.724 203
70.74411 219
70.76423 200
70.78434 222
70.80445 205
70.82457 228
70.84468 215
70.86479 215
70.88491 222
70.90502 197
70.92513 228
70.94525 202
70.96536 208
70.98548 220
71.00559 193
71.0257 228
71.04582 214
71.06593 207
71.08604 210
71.10616 215
71.12627 215
71.14639 214
71.1665 208
71.18661 196
71.20673 215
71.22684 204
71.24695 218
71.26707 263
71.28718 253
71.3073 229
71.32741 188
71.34752 236
71.36764 232
71.38775 197
71.40786 195
71.42798 200
71.44809 207
71.4682 225
71.48832 223
71.50843 224
71.52855 210
71.54866 203
71.56877 214
71.58889 192
71.609 213
71.62911 187
71.64923 193
71.66934 219
71.68946 197
71.70957 233
71.72968 239
71.7498 216
71.76991 219
71.79002 213
71.81014 225
71.83025 195
71.85037 230
71.87048 218
71.89059 207
71.91071 234
71.93082 220
71.95093 225
71.97105 214
71.99116 206
72.01127 185
72.03139 213
72.0515 213
72.07162 230
72.09173 241
72.11184 210
72.13196 189
72.15207 205
72.17218 219
72.1923 213
72.21241 231
72.23253 218
72.25264 215
72.27275 217
72.29287 204
72.31298 246
72.33309 225
72.35321 225
72.37332 211
72.39344 219
72.41355 229
72.43366 191
72.45378 221
72.47389 208
72.494 238
72.51412 221
72.53423 210
72.55434 211
72.57446 211
72.59457 206
72.61469 190
72.6348 228
72.65491 231
72.67503 218
72.69514 242
72.71525 205
72.73537 229
72.75548 209
72.7756 244
72.79571 240
72.81582 217
72.83594 222
72.85605 237
72.87616 230
72.89628 233
72.91639 208
72.9365 239
72.95662 221
72.97673 222
72.99685 240
73.01696 249
73.03707 233
73.05719 230
73.0773 224
73.09741 256
73.11753 241
73.13764 269
73.15776 273
73.17787 284
73.19798 287
73.2181 287
73.23821 322
73.25832 299
73.27844 339
73.29855 380
73.31867 387
73.33878 464
73.35889 494
73.37901 447
73.39912 527
73.41923 483
73.43935 470
73.45946 474
73.47957 403
73.49969 381
73.5198 364
73.53992 331
73.56003 363
73.58014 377
73.60026 360
73.62037 402
73.64048 348
73.6606 316
73.68071 310
73.70083 295
73.72094 299
73.74105 233
73.76117 268
73.78128 255
73.80139 239
73.82151 261
73.84162 246
73.86174 247
73.88185 226
73.90196 213
73.92208 216
73.94219 225
73.9623 226
73.98242 214
74.00253 226
74.02264 210
74.04276 212
74.06287 227
74.08299 214
74.1031 220
74.12321 240
74.14333 227
74.16344 229
74.18355 193
74.20367 224
74.22378 214
74.2439 242
74.26401 210
74.28412 239
74.30424 184
74.32435 200
74.34446 237
74.36458 235
74.38469 202
74.40481 219
74.42492 217
74.44503 216
74.46515 200
74.48526 211
74.50537 216
74.52549 221
74.5456 199
74.56571 235
74.58583 225
74.60594 209
74.62606 199
74.64617 239
74.66628 215
74.6864 224
74.70651 226
74.72662 205
74.74674 210
74.76685 224
74.78697 234
74.80708 211
74.82719 206
74.84731 211
74.86742 199
74.88753 215
74.90765 204
74.92776 220
74.94787 204
74.96799 205
74.9881 197
75.00822 208
