3.00117 18612
3.02128 17948
3.0414 17765
3.06151 17043
3.08162 16851
3.10174 16319
3.12185 15902
3.14197 15331
3.16208 14430
3.18219 14518
3.20231 14030
3.22242 13706
3.24253 13501
3.26265 12765
3.28276 12390
3.30288 12159
3.32299 11829
3.3431 11466
3.36322 10633
3.38333 10430
3.40344 10214
3.42356 9856
3.44367 9587
3.46379 9031
3.4839 9041
3.50401 8583
3.52413 8109
3.54424 8215
3.56435 7631
3.58447 7474
3.60458 7108
3.62469 6675
3.64481 6579
3.66492 6174
3.68504 5992
3.70515 5917
3.72526 5697
3.74538 5545
3.76549 5044
3.7856 4997
3.80572 4684
3.82583 4450
3.84595 4366
3.86606 4056
3.88617 4050
3.90629 3701
3.9264 3697
3.94651 3582
3.96663 3265
3.98674 3259
4.00686 3072
4.02697 2772
4.04708 2971
4.0672 2573
4.08731 2504
4.10742 2450
4.12754 2342
4.14765 2404
4.16776 2150
4.18788 1955
4.20799 1981
4.22811 1884
4.24822 1846
4.26833 1608
4.28845 1671
4.30856 1639
4.32867 1629
4.34879 1660
4.3689 1463
4.38902 1485
4.40913 1395
4.42924 1369
4.44936 1463
4.46947 1264
4.48958 1266
4.5097 1301
4.52981 1182
4.54992 1298
4.57004 1160
4.59015 1086
4.61027 1083
4.63038 1011
4.65049 1076
4.67061 981
4.69072 998
4.71083 951
4.73095 890
4.75106 955
4.77118 880
4.79129 869
4.8114 863
4.83152 882
4.85163 860
4.87174 800
4.89186 707
4.91197 758
4.93209 761
4.9522 719
4.97231 690
4.99243 668
5.01254 674
5.03265 642
5.05277 623
5.07288 609
5.09299 557
5.11311 629
5.13322 517
5.15334 582
5.17345 578
5.19356 556
5.21368 581
5.23379 467
5.2539 480
5.27402 497
5.29413 470
5.31425 437
5.33436 434
5.35447 421
5.37459 425
5.3947 428
5.41481 438
5.43493 419
5.45504 367
5.47516 381
5.49527 348
5.51538 342
5.5355 400
5.55561 341
5.57572 354
5.59584 341
5.61595 328
5.63606 380
5.65618 289
5.67629 332
5.69641 297
5.71652 295
5.73663 321
5.75675 294
5.77686 279
5.79697 285
5.81709 304
5.8372 266
5.85732 264
5.87743 297
5.89754 285
5.91766 270
5.93777 290
5.95788 242
5.978 271
5.99811 267
6.01823 270
6.03834 251
6.05845 219
6.07857 277
6.09868 214
6.11879 261
6.13891 258
6.15902 254
6.17913 245
6.19925 229
6.21936 248
6.23948 240
6.25959 223
6.2797 244
6.29982 215
6.31993 251
6.34004 244
6.36016 222
6.38027 213
6.40039 199
6.4205 233
6.44061 227
6.46073 204
6.48084 220
6.50095 209
6.52107 252
6.54118 196
6.56129 206
6.58141 203
6.60152 176
6.62164 201
6.64175 206
6.66186 218
6.68198 202
6.70209 210
6.7222 180
6.74232 201
6.76243 179
6.78255 194
6.80266 204
6.82277 223
6.84289 225
6.863 195
6.88311 193
6.90323 204
6.92334 196
6.94346 217
6.96357 208
6.98368 194
7.0038 204
7.02391 188
7.04402 203
7.06414 193
7.08425 185
7.10436 184
7.12448 188
7.14459 204
7.16471 183
7.18482 205
7.20493 197
7.22505 214
7.24516 194
7.26527 220
7.28539 189
7.3055 204
7.32562 198
7.34573 198
7.36584 217
7.38596 194
7.40607 225
7.42618 193
7.4463 191
7.46641 174
7.48653 179
7.50664 195
7.52675 203
7.54687 218
7.56698 243
7.58709 211
7.60721 218
7.62732 218
7.64743 200
7.66755 202
7.68766 203
7.70778 223
7.72789 220
7.748 194
7.76812 213
7.78823 200
7.80834 209
7.82846 200
7.84857 193
7.86869 185
7.8888 175
7.90891 212
7.92903 207
7.94914 198
7.96925 237
7.98937 251
8.00948 222
8.0296 195
8.04971 210
8.06982 209
8.08994 246
8.11005 222
8.13016 188
8.15028 218
8.17039 225
8.1905 225
8.21062 233
8.23073 236
8.25085 222
8.27096 207
8.29107 208
8.31119 213
8.3313 216
8.35141 240
8.37153 215
8.39164 218
8.41176 242
8.43187 205
8.45198 238
8.4721 194
8.49221 223
8.51232 223
8.53244 204
8.55255 227
8.57266 255
8.59278 215
8.61289 226
8.63301 222
8.65312 234
8.67323 260
8.69335 232
8.71346 197
8.73357 215
8.75369 232
8.7738 202
8.79392 218
8.81403 220
8.83414 212
8.85426 215
8.87437 229
8.89448 194
8.9146 243
8.93471 210
8.95483 218
8.97494 241
8.99505 235
9.01517 242
9.03528 221
9.05539 225
9.07551 230
9.09562 219
9.11573 234
9.13585 224
9.15596 239
9.17608 221
9.19619 217
9.2163 236
9.23642 257
9.25653 239
9.27664 238
9.29676 224
9.31687 221
9.33699 240
9.3571 231
9.37721 178
9.39733 233
9.41744 236
9.43755 241
9.45767 232
9.47778 247
9.4979 264
9.51801 241
9.53812 239
9.55824 213
9.57835 245
9.59846 223
9.61858 234
9.63869 213
9.6588 230
9.67892 224
9.69903 215
9.71915 243
9.73926 237
9.75937 209
9.77949 231
9.7996 233
9.81971 215
9.83983 179
9.85994 225
9.88006 224
9.90017 214
9.92028 220
9.9404 205
9.96051 225
9.98062 191
10.00074 214
10.02085 226
10.04097 213
10.06108 224
10.08119 229
10.10131 233
10.12142 228
10.14153 213
10.16165 184
10.18176 223
10.20187 228
10.22199 236
10.2421 207
10.26222 226
10.28233 213
10.30244 244
10.32256 251
10.34267 219
10.36278 218
10.3829 245
10.40301 212
10.42313 227
10.44324 235
10.46335 235
10.48347 211
10.50358 198
10.52369 215
10.54381 241
10.56392 233
10.58403 218
10.60415 221
10.62426 224
10.64438 220
10.66449 236
10.6846 249
10.70472 247
10.72483 225
10.74494 246
10.76506 216
10.78517 238
10.80529 230
10.8254 203
10.84551 227
10.86563 195
10.88574 211
10.90585 193
10.92597 212
10.94608 209
10.9662 224
10.98631 264
11.00642 213
11.02654 250
11.04665 219
11.06676 250
11.08688 227
11.10699 225
11.1271 235
11.14722 239
11.16733 217
11.18745 233
11.20756 230
11.22767 224
11.24779 217
11.2679 198
11.28801 199
11.30813 238
11.32824 236
11.34836 223
11.36847 196
11.38858 229
11.4087 206
11.42881 220
11.44892 190
11.46904 216
11.48915 195
11.50927 199
11.52938 223
11.54949 208
11.56961 250
11.58972 232
11.60983 249
11.62995 266
11.65006 212
11.67017 223
11.69029 232
11.7104 205
11.73052 198
11.75063 211
11.77074 230
11.79086 258
11.81097 216
11.83108 214
11.8512 204
11.87131 211
11.89143 225
11.91154 225
11.93165 228
11.95177 231
11.97188 213
11.99199 232
12.01211 217
12.03222 205
12.05234 231
12.07245 251
12.09256 218
12.11268 251
12.13279 214
12.1529 230
12.17302 265
12.19313 204
12.21324 233
12.23336 251
12.25347 254
12.27359 236
12.2937 226
12.31381 237
12.33393 265
12.35404 224
12.37415 249
12.39427 274
12.41438 257
12.4345 232
12.45461 239
12.47472 223
12.49484 218
12.51495 262
12.53506 250
12.55518 226
12.57529 214
12.5954 192
12.61552 214
12.63563 207
12.65575 214
12.67586 184
12.69597 205
12.71609 212
12.7362 213
12.75631 201
12.77643 194
12.79654 189
12.81666 219
12.83677 204
12.85688 183
12.877 220
12.89711 223
12.91722 210
12.93734 189
12.95745 202
12.97757 218
12.99768 226
13.01779 190
13.03791 168
13.05802 201
13.07813 197
13.09825 191
13.11836 199
13.13847 176
13.15859 180
13.1787 193
13.19882 159
13.21893 196
13.23904 205
13.25916 198
13.27927 195
13.29938 175
13.3195 185
13.33961 220
13.35973 189
13.37984 197
13.39995 196
13.42007 170
13.44018 211
13.46029 177
13.48041 167
13.50052 174
13.52064 202
13.54075 176
13.56086 179
13.58098 198
13.60109 173
13.6212 191
13.64132 186
13.66143 222
13.68154 217
13.70166 199
13.72177 192
13.74189 205
13.762 185
13.78211 181
13.80223 188
13.82234 177
13.84245 212
13.86257 179
13.88268 237
13.9028 205
13.92291 193
13.94302 182
13.96314 178
13.98325 204
14.00336 170
14.02348 184
14.04359 198
14.06371 179
14.08382 171
14.10393 177
14.12405 179
14.14416 217
14.16427 183
14.18439 176
14.2045 180
14.22461 195
14.24473 188
14.26484 151
14.28496 170
14.30507 165
14.32518 189
14.3453 190
14.36541 185
14.38552 174
14.40564 181
14.42575 175
14.44587 175
14.46598 170
14.48609 165
14.50621 172
14.52632 158
14.54643 189
14.56655 177
14.58666 171
14.60677 161
14.62689 179
14.647 192
14.66712 197
14.68723 196
14.70734 194
14.72746 199
14.74757 177
14.76768 163
14.7878 175
14.80791 157
14.82803 193
14.84814 169
14.86825 176
14.88837 151
14.90848 209
14.92859 187
14.94871 149
14.96882 164
14.98894 180
15.00905 160
15.02916 209
15.04928 164
15.06939 179
15.0895 164
15.10962 178
15.12973 162
15.14984 147
15.16996 158
15.19007 156
15.21019 167
15.2303 152
15.25041 189
15.27053 162
15.29064 163
15.31075 151
15.33087 175
15.35098 175
15.3711 171
15.39121 160
15.41132 168
15.43144 153
15.45155 169
15.47166 180
15.49178 178
15.51189 161
15.53201 167
15.55212 177
15.57223 163
15.59235 180
15.61246 175
15.63257 185
15.65269 151
15.6728 162
15.69291 157
15.71303 150
15.73314 165
15.75326 145
15.77337 148
15.79348 176
15.8136 165
15.83371 151
15.85382 165
15.87394 175
15.89405 155
15.91417 191
15.93428 163
15.95439 155
15.97451 174
15.99462 147
16.01473 199
16.03485 184
16.05496 174
16.07508 192
16.09519 178
16.1153 171
16.13542 170
16.15553 168
16.17564 194
16.19576 180
16.21587 143
16.23598 165
16.2561 175
16.27621 173
16.29633 186
16.31644 160
16.33655 162
16.35667 132
16.37678 173
16.39689 198
16.41701 166
16.43712 153
16.45724 155
16.47735 169
16.49746 147
16.51758 163
16.53769 157
16.5578 175
16.57792 185
16.59803 156
16.61814 162
16.63826 153
16.65837 189
16.67849 189
16.6986 139
16.71871 160
16.73883 165
16.75894 152
16.77905 189
16.79917 168
16.81928 155
16.8394 138
16.85951 169
16.87962 146
16.89974 153
16.91985 157
16.93996 146
16.96008 140
16.98019 164
17.00031 172
17.02042 163
17.04053 173
17.06065 166
17.08076 167
17.10087 164
17.12099 135
17.1411 167
17.16121 170
17.18133 165
17.20144 142
17.22156 168
17.24167 173
17.26178 151
17.2819 166
17.30201 170
17.32212 160
17.34224 182
17.36235 174
17.38247 152
17.40258 166
17.42269 165
17.44281 135
17.46292 138
17.48303 154
17.50315 166
17.52326 154
17.54338 183
17.56349 176
17.5836 175
17.60372 159
17.62383 156
17.64394 165
17.66406 174
17.68417 165
17.70428 182
17.7244 164
17.74451 169
17.76463 164
17.78474 131
17.80485 160
17.82497 169
17.84508 179
17.86519 170
17.88531 176
17.90542 163
17.92554 183
17.94565 161
17.96576 156
17.98588 157
18.00599 185
18.0261 191
18.04622 179
18.06633 183
18.08645 165
18.10656 157
18.12667 154
18.14679 161
18.1669 143
18.18701 180
18.20713 173
18.22724 188
18.24735 154
18.26747 172
18.28758 171
18.3077 146
18.32781 170
18.34792 156
18.36804 147
18.38815 144
18.40826 167
18.42838 185
18.44849 145
18.46861 142
18.48872 138
18.50883 164
18.52895 164
18.54906 166
18.56917 140
18.58929 171
18.6094 167
18.62951 152
18.64963 196
18.66974 159
18.68986 165
18.70997 163
18.73008 180
18.7502 211
18.77031 176
18.79042 191
18.81054 183
18.83065 193
18.85077 160
18.87088 191
18.89099 132
18.91111 178
18.93122 158
18.95133 155
18.97145 154
18.99156 167
19.01168 166
19.03179 180
19.0519 178
19.07202 147
19.09213 156
19.11224 153
19.13236 160
19.15247 159
19.17258 154
19.1927 164
19.21281 177
19.23293 157
19.25304 149
19.27315 168
19.29327 185
19.31338 197
19.33349 186
19.35361 174
19.37372 194
19.39384 174
19.41395 183
19.43406 177
19.45418 158
19.47429 178
19.4944 166
19.51452 212
19.53463 174
19.55475 174
19.57486 193
19.59497 188
19.61509 209
19.6352 212
19.65531 201
19.67543 183
19.69554 223
19.71565 233
19.73577 224
19.75588 216
19.776 226
19.79611 228
19.81622 235
19.83634 231
19.85645 264
19.87656 235
19.89668 251
19.91679 251
19.93691 262
19.95702 228
19.97713 246
19.99725 251
20.01736 213
20.03747 253
20.05759 260
20.0777 257
20.09782 249
20.11793 276
20.13804 281
20.15816 278
20.17827 265
20.19838 269
20.2185 253
20.23861 325
20.25872 306
20.27884 310
20.29895 279
20.31907 297
20.33918 333
20.35929 340
20.37941 352
20.39952 340
20.41963 336
20.43975 339
20.45986 358
20.47998 366
20.50009 376
20.5202 367
20.54032 428
20.56043 421
20.58054 463
20.60066 507
20.62077 516
20.64088 593
20.661 739
20.68111 954
20.70123 1308
20.72134 1914
20.74145 2724
20.76157 3793
20.78168 5298
20.80179 6968
20.82191 8266
20.84202 8834
20.86214 8653
20.88225 7218
20.90236 5252
20.92248 3557
20.94259 2237
20.9627 1338
20.98282 784
21.00293 619
21.02305 519
21.04316 521
21.06327 442
21.08339 432
21.1035 355
21.12361 360
21.14373 348
21.16384 342
21.18395 319
21.20407 308
21.22418 262
21.2443 267
21.26441 250
21.28452 278
21.30464 261
21.32475 271
21.34486 257
21.36498 270
21.38509 265
21.40521 248
21.42532 274
21.44543 215
21.46555 237
21.48566 264
21.50577 232
21.52589 258
21.546 251
21.56612 227
21.58623 196
21.60634 236
21.62646 221
21.64657 226
21.66668 233
21.6868 194
21.70691 223
21.72702 222
21.74714 228
21.76725 245
21.78737 226
21.80748 237
21.82759 200
21.84771 225
21.86782 212
21.88793 239
21.90805 237
21.92816 227
21.94828 199
21.96839 239
21.9885 237
22.00862 216
22.02873 232
22.04884 216
22.06896 208
22.08907 203
22.10919 205
22.1293 213
22.14941 200
22.16953 225
22.18964 215
22.20975 198
22.22987 209
22.24998 220
22.27009 210
22.29021 196
22.31032 240
22.33044 228
22.35055 169
22.37066 204
22.39078 206
22.41089 216
22.431 178
22.45112 190
22.47123 202
22.49135 189
22.51146 192
22.53157 207
22.55169 184
22.5718 209
22.59191 175
22.61203 180
22.63214 206
22.65225 184
22.67237 184
22.69248 201
22.7126 204
22.73271 175
22.75282 239
22.77294 213
22.79305 224
22.81316 192
22.83328 210
22.85339 186
22.87351 196
22.89362 206
22.91373 218
22.93385 208
22.95396 189
22.97407 195
22.99419 205
23.0143 235
23.03442 189
23.05453 197
23.07464 210
23.09476 210
23.11487 214
23.13498 203
23.1551 198
23.17521 175
23.19532 212
23.21544 194
23.23555 195
23.25567 191
23.27578 198
23.29589 204
23.31601 193
23.33612 190
23.35623 187
23.37635 194
23.39646 208
23.41658 201
23.43669 185
23.4568 188
23.47692 189
23.49703 219
23.51714 184
23.53726 186
23.55737 219
23.57749 181
23.5976 206
23.61771 201
23.63783 208
23.65794 211
23.67805 181
23.69817 196
23.71828 188
23.73839 233
23.75851 211
23.77862 193
23.79874 201
23.81885 214
23.83896 228
23.85908 231
23.87919 227
23.8993 237
23.91942 228
23.93953 262
23.95965 259
23.97976 322
23.99987 318
24.01999 279
24.0401 257
24.06021 247
24.08033 198
24.10044 217
24.12056 198
24.14067 213
24.16078 194
24.1809 220
24.20101 200
24.22112 205
24.24124 190
24.26135 206
24.28146 211
24.30158 201
24.32169 190
24.34181 189
24.36192 196
24.38203 177
24.40215 223
24.42226 192
24.44237 182
24.46249 209
24.4826 212
24.50272 192
24.52283 174
24.54294 223
24.56306 183
24.58317 219
24.60328 227
24.6234 205
24.64351 221
24.66362 256
24.68374 239
24.70385 234
24.72397 237
24.74408 194
24.76419 194
24.78431 218
24.80442 214
24.82453 239
24.84465 222
24.86476 241
24.88488 231
24.90499 228
24.9251 202
24.94522 191
24.96533 209
24.98544 196
25.00556 210
25.02567 203
25.04579 220
25.0659 200
25.08601 202
25.10613 209
25.12624 173
25.14635 233
25.16647 207
25.18658 226
25.20669 225
25.22681 203
25.24692 218
25.26704 194
25.28715 233
25.30726 212
25.32738 230
25.34749 251
25.3676 195
25.38772 241
25.40783 208
25.42795 247
25.44806 219
25.46817 240
25.48829 211
25.5084 235
25.52851 267
25.54863 270
25.56874 224
25.58886 280
25.60897 263
25.62908 310
25.6492 342
25.66931 356
25.68942 399
25.70954 394
25.72965 442
25.74976 431
25.76988 415
25.78999 425
25.81011 471
25.83022 443
25.85033 463
25.87045 427
25.89056 474
25.91067 458
25.93079 466
25.9509 487
25.97102 494
25.99113 505
26.01124 550
26.03136 536
26.05147 534
26.07158 571
26.0917 622
26.11181 631
26.13193 623
26.15204 717
26.17215 728
26.19227 814
26.21238 837
26.23249 897
26.25261 999
26.27272 1104
26.29283 1132
26.31295 1254
26.33306 1399
26.35318 1571
26.37329 1820
26.3934 2192
26.41352 2632
26.43363 3471
26.45374 4663
26.47386 6446
26.49397 9179
26.51409 13198
26.5342 17982
26.55431 24227
26.57443 31274
26.59454 37704
26.61465 40299
26.63477 39524
26.65488 33374
26.67499 25699
26.69511 19705
26.71522 13520
26.73534 8453
26.75545 4661
26.77556 2839
26.79568 2074
26.81579 1733
26.8359 1487
26.85602 1365
26.87613 1260
26.89625 1120
26.91636 985
26.93647 935
26.95659 878
26.9767 791
26.99681 683
27.01693 689
27.03704 618
27.05716 542
27.07727 536
27.09738 528
27.1175 501
27.13761 492
27.15772 484
27.17784 421
27.19795 401
27.21806 444
27.23818 390
27.25829 372
27.27841 426
27.29852 424
27.31863 402
27.33875 365
27.35886 414
27.37897 426
27.39909 423
27.4192 385
27.43932 398
27.45943 389
27.47954 399
27.49966 386
27.51977 336
27.53988 344
27.56 352
27.58011 358
27.60023 308
27.62034 316
27.64045 303
27.66057 307
27.68068 333
27.70079 304
27.72091 313
27.74102 334
27.76113 316
27.78125 312
27.80136 328
27.82148 292
27.84159 299
27.8617 288
27.88182 278
27.90193 275
27.92204 284
27.94216 270
27.96227 305
27.98239 275
28.0025 265
28.02261 294
28.04273 299
28.06284 269
28.08295 256
28.10307 269
28.12318 264
28.1433 267
28.16341 269
28.18352 275
28.20364 256
28.22375 259
28.24386 278
28.26398 257
28.28409 264
28.3042 227
28.32432 235
28.34443 245
28.36455 228
28.38466 209
28.40477 244
28.42489 257
28.445 247
28.46511 256
28.48523 248
28.50534 238
28.52546 237
28.54557 235
28.56568 255
28.5858 220
28.60591 234
28.62602 239
28.64614 223
28.66625 245
28.68636 258
28.70648 252
28.72659 246
28.74671 221
28.76682 214
28.78693 220
28.80705 235
28.82716 248
28.84727 263
28.86739 208
28.8875 203
28.90762 218
28.92773 230
28.94784 242
28.96796 222
28.98807 243
29.00818 215
29.0283 219
29.04841 216
29.06853 211
29.08864 239
29.10875 224
29.12887 240
29.14898 211
29.16909 229
29.18921 201
29.20932 223
29.22943 207
29.24955 212
29.26966 228
29.28978 223
29.30989 208
29.33 210
29.35012 233
29.37023 235
29.39034 217
29.41046 224
29.43057 228
29.45069 200
29.4708 222
29.49091 217
29.51103 204
29.53114 216
29.55125 208
29.57137 218
29.59148 220
29.6116 222
29.63171 220
29.65182 221
29.67194 219
29.69205 208
29.71216 192
29.73228 211
29.75239 183
29.7725 183
29.79262 223
29.81273 228
29.83285 222
29.85296 231
29.87307 202
29.89319 206
29.9133 189
29.93341 220
29.95353 193
29.97364 188
29.99376 181
30.01387 189
30.03398 220
30.0541 197
30.07421 204
30.09432 201
30.11444 201
30.13455 170
30.15467 213
30.17478 186
30.19489 219
30.21501 216
30.23512 184
30.25523 240
30.27535 180
30.29546 203
30.31557 180
30.33569 197
30.3558 211
30.37592 189
30.39603 195
30.41614 182
30.43626 202
30.45637 213
30.47648 188
30.4966 169
30.51671 186
30.53683 209
30.55694 182
30.57705 187
30.59717 179
30.61728 192
30.63739 192
30.65751 205
30.67762 221
30.69773 217
30.71785 221
30.73796 211
30.75808 195
30.77819 196
30.7983 197
30.81842 202
30.83853 210
30.85864 213
30.87876 181
30.89887 190
30.91899 171
30.9391 169
30.95921 159
30.97933 182
30.99944 206
31.01955 152
31.03967 196
31.05978 194
31.0799 172
31.10001 196
31.12012 179
31.14024 186
31.16035 147
31.18046 193
31.20058 207
31.22069 179
31.2408 183
31.26092 181
31.28103 173
31.30115 152
31.32126 176
31.34137 172
31.36149 180
31.3816 170
31.40171 167
31.42183 160
31.44194 205
31.46206 167
31.48217 182
31.50228 163
31.5224 189
31.54251 161
31.56262 154
31.58274 169
31.60285 171
31.62297 147
31.64308 173
31.66319 152
31.68331 150
31.70342 157
31.72353 170
31.74365 166
31.76376 185
31.78387 133
31.80399 186
31.8241 187
31.84422 174
31.86433 155
31.88444 178
31.90456 159
31.92467 182
31.94478 186
31.9649 161
31.98501 134
32.00513 167
32.02524 161
32.04535 162
32.06547 174
32.08558 171
32.10569 184
32.12581 161
32.14592 175
32.16604 167
32.18615 156
32.20626 169
32.22638 188
32.24649 168
32.2666 167
32.28672 147
32.30683 156
32.32694 133
32.34706 156
32.36717 187
32.38729 127
32.4074 160
32.42751 150
32.44763 162
32.46774 174
32.48785 181
32.50797 171
32.52808 185
32.5482 162
32.56831 154
32.58842 158
32.60854 155
32.62865 167
32.64876 170
32.66888 158
32.68899 128
32.7091 146
32.72922 152
32.74933 145
32.76945 151
32.78956 138
32.80967 162
32.82979 163
32.8499 147
32.87001 162
32.89013 158
32.91024 148
32.93036 157
32.95047 140
32.97058 165
32.9907 161
33.01081 150
33.03092 163
33.05104 171
33.07115 178
33.09127 167
33.11138 159
33.13149 162
33.15161 149
33.17172 156
33.19183 140
33.21195 154
33.23206 155
33.25217 166
33.27229 144
33.2924 189
33.31252 123
33.33263 148
33.35274 110
33.37286 133
33.39297 141
33.41308 157
33.4332 131
33.45331 148
33.47343 162
33.49354 154
33.51365 139
33.53377 134
33.55388 157
33.57399 137
33.59411 146
33.61422 148
33.63434 146
33.65445 144
33.67456 152
33.69468 150
33.71479 112
33.7349 146
33.75502 139
33.77513 135
33.79524 158
33.81536 130
33.83547 167
33.85559 131
33.8757 146
33.89581 148
33.91593 146
33.93604 139
33.95615 138
33.97627 139
33.99638 153
34.0165 154
34.03661 159
34.05672 136
34.07684 129
34.09695 148
34.11706 149
34.13718 157
34.15729 152
34.17741 155
34.19752 123
34.21763 146
34.23775 157
34.25786 156
34.27797 152
34.29809 165
34.3182 149
34.33831 151
34.35843 150
34.37854 152
34.39866 163
34.41877 159
34.43888 165
34.459 147
34.47911 174
34.49922 158
34.51934 175
34.53945 141
34.55957 163
34.57968 138
34.59979 166
34.61991 175
34.64002 192
34.66013 163
34.68025 177
34.70036 169
34.72047 178
34.74059 217
34.7607 184
34.78082 193
34.80093 195
34.82104 175
34.84116 214
34.86127 169
34.88138 174
34.9015 216
34.92161 180
34.94173 213
34.96184 198
34.98195 196
35.00207 175
35.02218 176
35.04229 181
35.06241 195
35.08252 189
35.10264 182
35.12275 196
35.14286 173
35.16298 185
35.18309 173
35.2032 166
35.22332 183
35.24343 191
35.26354 189
35.28366 186
35.30377 219
35.32389 185
35.344 188
35.36411 167
35.38423 219
35.40434 196
35.42445 181
35.44457 217
35.46468 185
35.4848 191
35.50491 205
35.52502 209
35.54514 203
35.56525 189
35.58536 200
35.60548 197
35.62559 209
35.64571 162
35.66582 208
35.68593 191
35.70605 181
35.72616 184
35.74627 207
35.76639 197
35.7865 169
35.80661 167
35.82673 195
35.84684 188
35.86696 198
35.88707 188
35.90718 199
35.9273 189
35.94741 195
35.96752 199
35.98764 204
36.00775 194
36.02787 210
36.04798 197
36.06809 243
36.08821 209
36.10832 200
36.12843 202
36.14855 234
36.16866 246
36.18878 243
36.20889 222
36.229 283
36.24912 304
36.26923 321
36.28934 338
36.30946 394
36.32957 520
36.34968 576
36.3698 702
36.38991 897
36.41003 1201
36.43014 1447
36.45025 1905
36.47037 2388
36.49048 2697
36.51059 2763
36.53071 2685
36.55082 2299
36.57094 1920
36.59105 1709
36.61116 1392
36.63128 1142
36.65139 860
36.6715 566
36.69162 405
36.71173 288
36.73184 255
36.75196 270
36.77207 266
36.79219 232
36.8123 227
36.83241 213
36.85253 211
36.87264 226
36.89275 195
36.91287 198
36.93298 187
36.9531 163
36.97321 194
36.99332 190
37.01344 200
37.03355 193
37.05366 174
37.07378 187
37.09389 174
37.11401 182
37.13412 184
37.15423 162
37.17435 148
37.19446 171
37.21457 186
37.23469 159
37.2548 155
37.27491 173
37.29503 171
37.31514 153
37.33526 188
37.35537 170
37.37548 203
37.3956 155
37.41571 168
37.43582 153
37.45594 160
37.47605 163
37.49617 181
37.51628 182
37.53639 167
37.55651 173
37.57662 169
37.59673 172
37.61685 167
37.63696 178
37.65708 146
37.67719 176
37.6973 164
37.71742 168
37.73753 176
37.75764 175
37.77776 153
37.79787 156
37.81798 152
37.8381 190
37.85821 168
37.87833 164
37.89844 163
37.91855 184
37.93867 166
37.95878 142
37.97889 166
37.99901 172
38.01912 162
38.03924 174
38.05935 184
38.07946 162
38.09958 159
38.11969 159
38.1398 205
38.15992 183
38.18003 178
38.20015 144
38.22026 192
38.24037 182
38.26049 182
38.2806 173
38.30071 166
38.32083 182
38.34094 187
38.36105 167
38.38117 147
38.40128 177
38.4214 188
38.44151 191
38.46162 189
38.48174 180
38.50185 186
38.52196 219
38.54208 170
38.56219 199
38.58231 187
38.60242 191
38.62253 171
38.64265 148
38.66276 183
38.68287 175
38.70299 168
38.7231 177
38.74321 163
38.76333 194
38.78344 163
38.80356 177
38.82367 191
38.84378 174
38.8639 163
38.88401 200
38.90412 177
38.92424 181
38.94435 176
38.96447 193
38.98458 185
39.00469 192
39.02481 180
39.04492 248
39.06503 232
39.08515 213
39.10526 262
39.12538 236
39.14549 227
39.1656 246
39.18572 330
39.20583 323
39.22594 374
39.24606 457
39.26617 505
39.28628 641
39.3064 835
39.32651 1056
39.34663 1316
39.36674 1592
39.38685 2039
39.40697 2289
39.42708 2557
39.44719 2564
39.46731 2203
39.48742 1811
39.50754 1487
39.52765 1423
39.54776 1257
39.56788 1009
39.58799 728
39.6081 480
39.62822 356
39.64833 329
39.66845 262
39.68856 240
39.70867 226
39.72879 220
39.7489 230
39.76901 212
39.78913 204
39.80924 206
39.82935 199
39.84947 222
39.86958 213
39.8897 188
39.90981 202
39.92992 222
39.95004 219
39.97015 212
39.99026 233
40.01038 267
40.03049 253
40.05061 267
40.07072 352
40.09083 359
40.11095 452
40.13106 539
40.15117 661
40.17129 759
40.1914 942
40.21152 1056
40.23163 1241
40.25174 1343
40.27186 1282
40.29197 1153
40.31208 909
40.3322 806
40.35231 765
40.37242 619
40.39254 573
40.41265 453
40.43277 275
40.45288 242
40.47299 229
40.49311 211
40.51322 191
40.53333 195
40.55345 207
40.57356 201
40.59368 175
40.61379 170
40.6339 168
40.65402 196
40.67413 173
40.69424 155
40.71436 174
40.73447 153
40.75458 192
40.7747 175
40.79481 165
40.81493 168
40.83504 174
40.85515 175
40.87527 169
40.89538 167
40.91549 158
40.93561 187
40.95572 141
40.97584 179
40.99595 194
41.01606 164
41.03618 162
41.05629 170
41.0764 135
41.09652 158
41.11663 160
41.13675 170
41.15686 186
41.17697 148
41.19709 154
41.2172 170
41.23731 158
41.25743 151
41.27754 177
41.29765 185
41.31777 150
41.33788 150
41.358 170
41.37811 165
41.39822 182
41.41834 164
41.43845 183
41.45856 183
41.47868 156
41.49879 141
41.51891 160
41.53902 168
41.55913 185
41.57925 166
41.59936 192
41.61947 172
41.63959 166
41.6597 163
41.67982 161
41.69993 162
41.72004 177
41.74016 181
41.76027 177
41.78038 184
41.8005 173
41.82061 151
41.84072 168
41.86084 191
41.88095 170
41.90107 165
41.92118 161
41.94129 174
41.96141 177
41.98152 176
42.00163 193
42.02175 181
42.04186 183
42.06198 215
42.08209 198
42.1022 219
42.12232 236
42.14243 255
42.16254 239
42.18266 312
42.20277 312
42.22289 345
42.243 425
42.26311 472
42.28323 631
42.30334 806
42.32345 924
42.34357 1251
42.36368 1474
42.38379 1741
42.40391 1859
42.42402 1778
42.44414 1679
42.46425 1444
42.48436 1172
42.50448 1106
42.52459 976
42.5447 866
42.56482 649
42.58493 515
42.60505 339
42.62516 265
42.64527 229
42.66539 234
42.6855 231
42.70561 205
42.72573 234
42.74584 176
42.76595 163
42.78607 190
42.80618 172
42.8263 176
42.84641 167
42.86652 156
42.88664 175
42.90675 176
42.92686 154
42.94698 177
42.96709 181
42.98721 162
43.00732 127
43.02743 145
43.04755 138
43.06766 149
43.08777 167
43.10789 128
43.128 142
43.14812 146
43.16823 162
43.18834 170
43.20846 158
43.22857 169
43.24868 142
43.2688 149
43.28891 160
43.30902 127
43.32914 141
43.34925 126
43.36937 130
43.38948 154
43.40959 133
43.42971 149
43.44982 138
43.46993 134
43.49005 156
43.51016 158
43.53028 141
43.55039 152
43.5705 172
43.59062 155
43.61073 167
43.63084 166
43.65096 143
43.67107 142
43.69119 139
43.7113 148
43.73141 155
43.75153 127
43.77164 135
43.79175 151
43.81187 144
43.83198 151
43.85209 148
43.87221 143
43.89232 162
43.91244 161
43.93255 143
43.95266 143
43.97278 135
43.99289 146
44.013 154
44.03312 151
44.05323 146
44.07335 151
44.09346 150
44.11357 134
44.13369 148
44.1538 141
44.17391 145
44.19403 143
44.21414 153
44.23426 149
44.25437 150
44.27448 154
44.2946 117
44.31471 153
44.33482 175
44.35494 133
44.37505 155
44.39516 135
44.41528 152
44.43539 149
44.45551 140
44.47562 129
44.49573 162
44.51585 138
44.53596 146
44.55607 149
44.57619 148
44.5963 153
44.61642 148
44.63653 134
44.65664 136
44.67676 154
44.69687 135
44.71698 143
44.7371 136
44.75721 124
44.77732 136
44.79744 136
44.81755 125
44.83767 155
44.85778 156
44.87789 156
44.89801 157
44.91812 142
44.93823 146
44.95835 156
44.97846 158
44.99858 177
45.01869 180
45.0388 157
45.05892 169
45.07903 182
45.09914 172
45.11926 151
45.13937 159
45.15949 137
45.1796 163
45.19971 154
45.21983 169
45.23994 179
45.26005 153
45.28017 150
45.30028 165
45.32039 186
45.34051 202
45.36062 180
45.38074 195
45.40085 189
45.42096 189
45.44108 209
45.46119 184
45.4813 215
45.50142 223
45.52153 239
45.54165 254
45.56176 282
45.58187 333
45.60199 355
45.6221 461
45.64221 571
45.66233 657
45.68244 825
45.70256 1029
45.72267 1118
45.74278 1229
45.7629 1302
45.78301 1138
45.80312 992
45.82324 823
45.84335 707
45.86346 677
45.88358 621
45.90369 567
45.92381 477
45.94392 323
45.96403 258
45.98415 227
46.00426 194
46.02437 165
46.04449 174
46.0646 176
46.08472 177
46.10483 161
46.12494 161
46.14506 171
46.16517 153
46.18528 154
46.2054 153
46.22551 138
46.24563 149
46.26574 133
46.28585 148
46.30597 127
46.32608 131
46.34619 158
46.36631 133
46.38642 154
46.40653 141
46.42665 133
46.44676 129
46.46688 132
46.48699 132
46.5071 112
46.52722 159
46.54733 141
46.56744 135
46.58756 154
46.60767 130
46.62779 152
46.6479 142
46.66801 138
46.68813 148
46.70824 146
46.72835 138
46.74847 138
46.76858 131
46.78869 143
46.80881 131
46.82892 137
46.84904 134
46.86915 137
46.88926 133
46.90938 124
46.92949 125
46.9496 146
46.96972 135
46.98983 148
47.00995 141
47.03006 125
47.05017 137
47.07029 147
47.0904 151
47.11051 118
47.13063 141
47.15074 141
47.17086 142
47.19097 126
47.21108 154
47.2312 127
47.25131 130
47.27142 151
47.29154 127
47.31165 127
47.33176 138
47.35188 126
47.37199 144
47.39211 112
47.41222 136
47.43233 146
47.45245 159
47.47256 113
47.49267 128
47.51279 144
47.5329 125
47.55302 137
47.57313 151
47.59324 130
47.61336 130
47.63347 116
47.65358 132
47.6737 133
47.69381 116
47.71393 147
47.73404 125
47.75415 140
47.77427 113
47.79438 120
47.81449 124
47.83461 135
47.85472 144
47.87483 152
47.89495 139
47.91506 118
47.93518 148
47.95529 126
47.9754 133
47.99552 148
48.01563 137
48.03574 135
48.05586 129
48.07597 147
48.09609 137
48.1162 149
48.13631 136
48.15643 143
48.17654 139
48.19665 134
48.21677 127
48.23688 133
48.257 137
48.27711 153
48.29722 138
48.31734 143
48.33745 137
48.35756 148
48.37768 146
48.39779 159
48.4179 137
48.43802 137
48.45813 165
48.47825 171
48.49836 151
48.51847 153
48.53859 155
48.5587 125
48.57881 139
48.59893 147
48.61904 156
48.63916 138
48.65927 153
48.67938 148
48.6995 149
48.71961 153
48.73972 150
48.75984 156
48.77995 169
48.80006 163
48.82018 159
48.84029 140
48.86041 142
48.88052 153
48.90063 149
48.92075 184
48.94086 142
48.96097 145
48.98109 170
49.0012 149
49.02132 141
49.04143 133
49.06154 141
49.08166 143
49.10177 143
49.12188 141
49.142 142
49.16211 164
49.18223 158
49.20234 174
49.22245 155
49.24257 140
49.26268 174
49.28279 142
49.30291 139
49.32302 150
49.34313 150
49.36325 155
49.38336 185
49.40348 180
49.42359 153
49.4437 157
49.46382 165
49.48393 174
49.50404 165
49.52416 176
49.54427 193
49.56439 189
49.5845 181
49.60461 197
49.62473 237
49.64484 196
49.66495 241
49.68507 240
49.70518 249
49.7253 241
49.74541 273
49.76552 310
49.78564 317
49.80575 384
49.82586 442
49.84598 443
49.86609 538
49.8862 620
49.90632 752
49.92643 933
49.94655 1122
49.96666 1378
49.98677 1686
50.00689 2179
50.027 2753
50.04711 3218
50.06723 3725
50.08734 4070
50.10746 4020
50.12757 3753
50.14768 3065
50.1678 2543
50.18791 2127
50.20802 2222
50.22814 2054
50.24825 1926
50.26837 1569
50.28848 1073
50.30859 718
50.32871 498
50.34882 395
50.36893 326
50.38905 329
50.40916 279
50.42927 324
50.44939 284
50.4695 275
50.48962 249
50.50973 246
50.52984 255
50.54996 284
50.57007 295
50.59018 265
50.6103 258
50.63041 243
50.65053 212
50.67064 215
50.69075 224
50.71087 219
50.73098 186
50.75109 209
50.77121 195
50.79132 179
50.81143 165
50.83155 154
50.85166 144
50.87178 162
50.89189 178
50.912 183
50.93212 150
50.95223 142
50.97234 159
50.99246 140
51.01257 140
51.03269 154
51.0528 136
51.07291 141
51.09303 133
51.11314 155
51.13325 152
51.15337 143
51.17348 122
51.1936 125
51.21371 131
51.23382 140
51.25394 116
51.27405 139
51.29416 144
51.31428 134
51.33439 146
51.3545 130
51.37462 154
51.39473 124
51.41485 130
51.43496 156
51.45507 141
51.47519 144
51.4953 116
51.51541 146
51.53553 119
51.55564 138
51.57576 131
51.59587 122
51.61598 144
51.6361 140
51.65621 159
51.67632 123
51.69644 106
51.71655 132
51.73667 119
51.75678 134
51.77689 140
51.79701 119
51.81712 143
51.83723 120
51.85735 127
51.87746 133
51.89757 113
51.91769 123
51.9378 127
51.95792 133
51.97803 134
51.99814 129
52.01826 135
52.03837 150
52.05848 132
52.0786 148
52.09871 137
52.11883 127
52.13894 116
52.15905 143
52.17917 136
52.19928 132
52.21939 134
52.23951 131
52.25962 119
52.27974 126
52.29985 138
52.31996 126
52.34008 122
52.36019 125
52.3803 108
52.40042 134
52.42053 131
52.44064 116
52.46076 115
52.48087 137
52.50099 115
52.5211 152
52.54121 119
52.56133 139
52.58144 127
52.60155 130
52.62167 129
52.64178 132
52.6619 116
52.68201 135
52.70212 118
52.72224 115
52.74235 131
52.76246 121
52.78258 128
52.80269 109
52.8228 140
52.84292 151
52.86303 139
52.88315 153
52.90326 133
52.92337 130
52.94349 130
52.9636 142
52.98371 133
53.00383 121
53.02394 134
53.04406 132
53.06417 133
53.08428 155
53.1044 113
53.12451 124
53.14462 125
53.16474 135
53.18485 154
53.20497 129
53.22508 134
53.24519 121
53.26531 164
53.28542 143
53.30553 146
53.32565 148
53.34576 154
53.36587 140
53.38599 157
53.4061 123
53.42622 145
53.44633 131
53.46644 158
53.48656 139
53.50667 143
53.52678 137
53.5469 142
53.56701 149
53.58713 147
53.60724 154
53.62735 157
53.64747 132
53.66758 136
53.68769 159
53.70781 135
53.72792 147
53.74804 132
53.76815 121
53.78826 135
53.80838 149
53.82849 133
53.8486 134
53.86872 142
53.88883 144
53.90894 154
53.92906 126
53.94917 146
53.96929 158
53.9894 134
54.00951 166
54.02963 133
54.04974 145
54.06985 142
54.08997 152
54.11008 176
54.1302 149
54.15031 146
54.17042 152
54.19054 139
54.21065 166
54.23076 148
54.25088 151
54.27099 168
54.29111 151
54.31122 173
54.33133 170
54.35145 153
54.37156 165
54.39167 172
54.41179 169
54.4319 188
54.45201 180
54.47213 186
54.49224 213
54.51236 203
54.53247 248
54.55258 236
54.5727 223
54.59281 274
54.61292 299
54.63304 327
54.65315 346
54.67327 423
54.69338 477
54.71349 616
54.73361 738
54.75372 873
54.77383 950
54.79395 1098
54.81406 1230
54.83417 1217
54.85429 1176
54.8744 1064
54.89452 855
54.91463 713
54.93474 698
54.95486 715
54.97497 725
54.99508 666
55.0152 571
55.03531 483
55.05543 361
55.07554 337
55.09565 303
55.11577 334
55.13588 297
55.15599 354
55.17611 352
55.19622 441
55.21634 449
55.23645 561
55.25656 562
55.27668 631
55.29679 581
55.3169 574
55.33702 473
55.35713 411
55.37724 416
55.39736 405
55.41747 375
55.43759 338
55.4577 318
55.47781 289
55.49793 244
55.51804 217
55.53815 161
55.55827 165
55.57838 185
55.5985 178
55.61861 169
55.63872 159
55.65884 148
55.67895 152
55.69906 162
55.71918 179
55.73929 139
55.75941 126
55.77952 129
55.79963 164
55.81975 148
55.83986 137
55.85997 134
55.88009 168
55.9002 150
55.92031 118
55.94043 155
55.96054 122
55.98066 135
56.00077 133
56.02088 143
56.041 129
56.06111 153
56.08122 157
56.10134 139
56.12145 162
56.14157 135
56.16168 131
56.18179 120
56.20191 112
56.22202 135
56.24213 123
56.26225 130
56.28236 134
56.30248 121
56.32259 104
56.3427 123
56.36282 150
56.38293 139
56.40304 125
56.42316 159
56.44327 137
56.46338 147
56.4835 144
56.50361 143
56.52373 129
56.54384 145
56.56395 144
56.58407 135
56.60418 154
56.62429 125
56.64441 118
56.66452 111
56.68464 117
56.70475 134
56.72486 134
56.74498 156
56.76509 122
56.7852 148
56.80532 126
56.82543 149
56.84554 127
56.86566 131
56.88577 138
56.90589 134
56.926 146
56.94611 140
56.96623 160
56.98634 137
57.00645 149
57.02657 153
57.04668 178
57.0668 134
57.08691 165
57.10702 169
57.12714 173
57.14725 178
57.16736 188
57.18748 192
57.20759 187
57.22771 178
57.24782 179
57.26793 168
57.28805 154
57.30816 148
57.32827 155
57.34839 138
57.3685 173
57.38861 151
57.40873 141
57.42884 146
57.44896 105
57.46907 144
57.48918 118
57.5093 121
57.52941 118
57.54952 110
57.56964 141
57.58975 128
57.60987 147
57.62998 144
57.65009 117
57.67021 142
57.69032 114
57.71043 156
57.73055 123
57.75066 138
57.77078 146
57.79089 132
57.811 147
57.83112 148
57.85123 147
57.87134 146
57.89146 125
57.91157 115
57.93168 142
57.9518 115
57.97191 132
57.99203 127
58.01214 114
58.03225 129
58.05237 124
58.07248 110
58.09259 160
58.11271 152
58.13282 111
58.15294 129
58.17305 141
58.19316 131
58.21328 131
58.23339 124
58.2535 122
58.27362 109
58.29373 136
58.31385 151
58.33396 144
58.35407 131
58.37419 126
58.3943 146
58.41441 144
58.43453 138
58.45464 125
58.47475 156
58.49487 132
58.51498 119
58.5351 143
58.55521 143
58.57532 127
58.59544 138
58.61555 115
58.63566 141
58.65578 140
58.67589 142
58.69601 147
58.71612 137
58.73623 132
58.75635 127
58.77646 136
58.79657 163
58.81669 136
58.8368 118
58.85691 140
58.87703 123
58.89714 127
58.91726 142
58.93737 128
58.95748 162
58.9776 150
58.99771 123
59.01782 154
59.03794 141
59.05805 130
59.07817 130
59.09828 140
59.11839 150
59.13851 150
59.15862 153
59.17873 152
59.19885 131
59.21896 139
59.23908 155
59.25919 175
59.2793 145
59.29942 166
59.31953 158
59.33964 183
59.35976 143
59.37987 151
59.39998 180
59.4201 192
59.44021 186
59.46033 179
59.48044 209
59.50055 193
59.52067 234
59.54078 216
59.56089 265
59.58101 258
59.60112 321
59.62124 299
59.64135 395
59.66146 420
59.68158 528
59.70169 509
59.7218 601
59.74192 687
59.76203 890
59.78215 1044
59.80226 1319
59.82237 1610
59.84249 1806
59.8626 2127
59.88271 2439
59.90283 2592
59.92294 2520
59.94305 2327
59.96317 1943
59.98328 1613
60.0034 1322
60.02351 1300
60.04362 1371
60.06374 1419
60.08385 1328
60.10396 1188
60.12408 886
60.14419 666
60.16431 459
60.18442 357
60.20453 284
60.22465 273
60.24476 211
60.26487 224
60.28499 188
60.3051 184
60.32522 202
60.34533 193
60.36544 178
60.38556 169
60.40567 179
60.42578 169
60.4459 152
60.46601 171
60.48612 168
60.50624 160
60.52635 174
60.54647 169
60.56658 139
60.58669 147
60.60681 158
60.62692 141
60.64703 157
60.66715 141
60.68726 142
60.70738 138
60.72749 159
60.7476 145
60.76772 141
60.78783 133
60.80794 158
60.82806 137
60.84817 145
60.86828 138
60.8884 133
60.90851 144
60.92863 140
60.94874 139
60.96885 148
60.98897 136
61.00908 133
61.02919 136
61.04931 119
61.06942 117
61.08954 119
61.10965 148
61.12976 120
61.14988 115
61.16999 140
61.1901 128
61.21022 130
61.23033 136
61.25045 155
61.27056 140
61.29067 129
61.31079 123
61.3309 153
61.35101 152
61.37113 134
61.39124 131
61.41135 132
61.43147 139
61.45158 141
61.4717 143
61.49181 137
61.51192 137
61.53204 149
61.55215 151
61.57226 143
61.59238 136
61.61249 135
61.63261 151
61.65272 144
61.67283 147
61.69295 137
61.71306 137
61.73317 153
61.75329 149
61.7734 131
61.79352 148
61.81363 146
61.83374 163
61.85386 151
61.87397 142
61.89408 134
61.9142 145
61.93431 137
61.95442 138
61.97454 143
61.99465 162
62.01477 146
62.03488 142
62.05499 142
62.07511 151
62.09522 150
62.11533 159
62.13545 152
62.15556 139
62.17568 137
62.19579 147
62.2159 152
62.23602 131
62.25613 148
62.27624 143
62.29636 146
62.31647 141
62.33659 148
62.3567 144
62.37681 161
62.39693 141
62.41704 137
62.43715 125
62.45727 127
62.47738 128
62.49749 126
62.51761 145
62.53772 154
62.55784 108
62.57795 144
62.59806 118
62.61818 153
62.63829 146
62.6584 127
62.67852 143
62.69863 152
62.71875 124
62.73886 130
62.75897 125
62.77909 154
62.7992 134
62.81931 128
62.83943 134
62.85954 127
62.87965 127
62.89977 131
62.91988 148
62.94 143
62.96011 126
62.98022 141
63.00034 152
63.02045 142
63.04056 135
63.06068 98
63.08079 144
63.10091 117
63.12102 116
63.14113 138
63.16125 130
63.18136 130
63.20147 152
63.22159 138
63.2417 119
63.26182 127
63.28193 122
63.30204 150
63.32216 138
63.34227 131
63.36238 125
63.3825 129
63.40261 136
63.42272 124
63.44284 139
63.46295 126
63.48307 127
63.50318 114
63.52329 136
63.54341 145
63.56352 132
63.58363 138
63.60375 138
63.62386 149
63.64398 171
63.66409 151
63.6842 171
63.70432 173
63.72443 153
63.74454 176
63.76466 202
63.78477 189
63.80489 217
63.825 220
63.84511 272
63.86523 309
63.88534 346
63.90545 388
63.92557 461
63.94568 527
63.96579 522
63.98591 552
64.00602 519
64.02614 518
64.04625 425
64.06636 335
64.08648 328
64.10659 306
64.1267 315
64.14682 352
64.16693 338
64.18705 327
64.20716 299
64.22727 218
64.24739 208
64.2675 173
64.28761 147
64.30773 150
64.32784 167
64.34796 124
64.36807 124
64.38818 156
64.4083 140
64.42841 122
64.44852 123
64.46864 158
64.48875 128
64.50886 119
64.52898 136
64.54909 123
64.56921 131
64.58932 135
64.60943 120
64.62955 132
64.64966 129
64.66977 126
64.68989 115
64.71 106
64.73012 124
64.75023 125
64.77034 138
64.79046 126
64.81057 104
64.83068 106
64.8508 128
64.87091 116
64.89102 139
64.91114 147
64.93125 121
64.95137 115
64.97148 134
64.99159 119
65.01171 114
65.03182 130
65.05193 120
65.07205 126
65.09216 115
65.11228 132
65.13239 138
65.1525 118
65.17262 127
65.19273 147
65.21284 130
65.23296 141
65.25307 129
65.27319 132
65.2933 117
65.31341 125
65.33353 137
65.35364 134
65.37375 143
65.39387 120
65.41398 146
65.43409 142
65.45421 171
65.47432 148
65.49444 150
65.51455 147
65.53466 170
65.55478 159
65.57489 154
65.595 173
65.61512 191
65.63523 205
65.65535 183
65.67546 229
65.69557 238
65.71569 245
65.7358 258
65.75591 229
65.77603 205
65.79614 210
65.81626 196
65.83637 182
65.85648 196
65.8766 184
65.89671 181
65.91682 192
65.93694 167
65.95705 191
65.97716 158
65.99728 174
66.01739 139
66.03751 159
66.05762 138
66.07773 140
66.09785 138
66.11796 125
66.13807 132
66.15819 129
66.1783 126
66.19842 127
66.21853 143
66.23864 125
66.25876 128
66.27887 134
66.29898 151
66.3191 122
66.33921 154
66.35933 132
66.37944 132
66.39955 152
66.41967 160
66.43978 126
66.45989 134
66.48001 129
66.50012 113
66.52023 148
66.54035 114
66.56046 127
66.58058 145
66.60069 118
66.6208 155
66.64092 141
66.66103 137
66.68114 142
66.70126 152
66.72137 130
66.74149 139
66.7616 134
66.78171 136
66.80183 151
66.82194 139
66.84205 155
66.86217 135
66.88228 161
66.90239 162
66.92251 141
66.94262 138
66.96274 175
66.98285 139
67.00296 162
67.02308 163
67.04319 135
67.0633 174
67.08342 165
67.10353 168
67.12365 161
67.14376 176
67.16387 165
67.18399 173
67.2041 164
67.22421 193
67.24433 203
67.26444 201
67.28456 207
67.30467 193
67.32478 221
67.3449 245
67.36501 236
67.38512 253
67.40524 280
67.42535 307
67.44546 324
67.46558 369
67.48569 426
67.50581 445
67.52592 543
67.54603 662
67.56615 750
67.58626 861
67.60637 1077
67.62649 1239
67.6466 1380
67.66672 1478
67.68683 1646
67.70694 1536
67.72706 1503
67.74717 1237
67.76728 1074
67.7874 903
67.80751 904
67.82763 915
67.84774 1030
67.86785 1089
67.88797 1114
67.90808 1173
67.92819 1130
67.94831 1080
67.96842 1140
67.98853 1239
68.00865 1388
68.02876 1594
68.04888 1820
68.06899 1974
68.0891 2219
68.10922 2168
68.12933 2060
68.14944 1819
68.16956 1735
68.18967 1757
68.20979 1743
68.2299 1845
68.25001 1999
68.27013 2010
68.29024 1872
68.31035 1620
68.33047 1337
68.35058 1100
68.3707 966
68.39081 769
68.41092 790
68.43104 758
68.45115 734
68.47126 678
68.49138 633
68.51149 518
68.5316 394
68.55172 307
68.57183 290
68.59195 252
68.61206 255
68.63217 209
68.65229 189
68.6724 182
68.69251 181
68.71263 175
68.73274 174
68.75286 190
68.77297 166
68.79308 151
68.8132 170
68.83331 161
68.85342 178
68.87354 162
68.89365 172
68.91376 162
68.93388 170
68.95399 146
68.97411 156
68.99422 132
69.01433 136
69.03445 144
69.05456 121
69.07467 145
69.09479 147
69.1149 167
69.13502 161
69.15513 147
69.17524 148
69.19536 146
69.21547 147
69.23558 138
69.2557 135
69.27581 149
69.29593 135
69.31604 152
69.33615 158
69.35627 129
69.37638 133
69.39649 130
69.41661 149
69.43672 137
69.45683 152
69.47695 140
69.49706 128
69.51718 153
69.53729 135
69.5574 144
69.57752 139
69.59763 131
69.61774 116
69.63786 107
69.65797 129
69.67809 144
69.6982 138
69.71831 140
69.73843 139
69.75854 115
69.77865 139
69.79877 132
69.81888 127
69.839 121
69.85911 120
69.87922 129
69.89934 130
69.91945 120
69.93956 135
69.95968 127
69.97979 117
69.9999 137
70.02002 160
70.04013 129
70.06025 123
70.08036 119
70.10047 136
70.12059 138
70.1407 128
70.16081 136
70.18093 140
70.20104 150
70.22116 134
70.24127 133
70.26138 133
70.2815 137
70.30161 120
70.32172 109
70.34184 97
70.36195 127
70.38207 127
70.40218 137
70.42229 136
70.44241 128
70.46252 121
70.48263 126
70.50275 138
70.52286 115
70.54297 124
70.56309 125
70.5832 130
70.60332 136
70.62343 142
70.64354 87
70.66366 126
70.68377 123
70.70388 121
70.724 137
70.74411 123
70.76423 136
70.78434 115
70.80445 133
70.82457 139
70.84468 110
70.86479 132
70.88491 135
70.90502 124
70.92513 115
70.94525 133
70.96536 123
70.98548 131
71.00559 118
71.0257 131
71.04582 133
71.06593 120
71.08604 115
71.10616 124
71.12627 134
71.14639 124
71.1665 119
71.18661 120
71.20673 127
71.22684 111
71.24695 144
71.26707 139
71.28718 113
71.3073 135
71.32741 109
71.34752 126
71.36764 127
71.38775 113
71.40786 116
71.42798 142
71.44809 119
71.4682 117
71.48832 134
71.50843 130
71.52855 123
71.54866 132
71.56877 107
71.58889 101
71.609 122
71.62911 114
71.64923 110
71.66934 121
71.68946 105
71.70957 130
71.72968 130
71.7498 132
71.76991 122
71.79002 116
71.81014 128
71.83025 132
71.85037 159
71.87048 111
71.89059 127
71.91071 126
71.93082 115
71.95093 129
71.97105 137
71.99116 129
72.01127 109
72.03139 107
72.0515 109
72.07162 129
72.09173 131
72.11184 130
72.13196 125
72.15207 125
72.17218 132
72.1923 119
72.21241 114
72.23253 124
72.25264 99
72.27275 126
72.29287 116
72.31298 107
72.33309 119
72.35321 115
72.37332 126
72.39344 108
72.41355 121
72.43366 123
72.45378 126
72.47389 120
72.494 126
72.51412 139
72.53423 134
72.55434 112
72.57446 154
72.59457 128
72.61469 129
72.6348 122
72.65491 164
72.67503 118
72.69514 125
72.71525 133
72.73537 110
72.75548 143
72.7756 122
72.79571 126
72.81582 147
72.83594 127
72.85605 143
72.87616 124
72.89628 139
72.91639 151
72.9365 155
72.95662 146
72.97673 142
72.99685 135
73.01696 143
73.03707 146
73.05719 156
73.0773 156
73.09741 150
73.11753 178
73.13764 164
73.15776 176
73.17787 205
73.19798 211
73.2181 218
73.23821 260
73.25832 246
73.27844 297
73.29855 355
73.31867 432
73.33878 457
73.35889 479
73.37901 570
73.39912 567
73.41923 628
73.43935 597
73.45946 526
73.47957 454
73.49969 393
73.5198 343
73.53992 305
73.56003 321
73.58014 386
73.60026 384
73.62037 381
73.64048 366
73.6606 341
73.68071 279
73.70083 277
73.72094 207
73.74105 162
73.76117 172
73.78128 139
73.80139 129
73.82151 154
73.84162 114
73.86174 142
73.88185 129
73.90196 130
73.92208 124
73.94219 136
73.9623 146
73.98242 121
74.00253 142
74.02264 122
74.04276 133
74.06287 125
74.08299 123
74.1031 117
74.12321 131
74.14333 121
74.16344 131
74.18355 131
74.20367 130
74.22378 126
74.2439 119
74.26401 106
74.28412 119
74.30424 119
74.32435 126
74.34446 126
74.36458 98
74.38469 117
74.40481 116
74.42492 126
74.44503 129
74.46515 125
74.48526 128
74.50537 138
74.52549 132
74.5456 133
74.56571 113
74.58583 130
74.60594 124
74.62606 129
74.64617 151
74.66628 128
74.6864 126
74.70651 119
74.72662 131
74.74674 116
74.76685 144
74.78697 124
74.80708 122
74.82719 120
74.84731 133
74.86742 100
74.88753 104
74.90765 130
74.92776 133
74.94787 137
74.96799 132
74.9881 139
75.00822 141
