3.00117 21160
3.02128 20550
3.0414 19856
3.06151 19650
3.08162 18615
3.10174 18774
3.12185 18432
3.14197 16967
3.16208 17186
3.18219 16514
3.20231 16131
3.22242 15620
3.24253 14971
3.26265 14649
3.28276 14213
3.30288 13629
3.32299 13126
3.3431 12981
3.36322 12623
3.38333 11894
3.40344 11920
3.42356 11288
3.44367 10803
3.46379 10667
3.4839 9958
3.50401 9935
3.52413 9690
3.54424 9093
3.56435 8948
3.58447 8606
3.60458 8385
3.62469 7885
3.64481 7725
3.66492 7258
3.68504 6889
3.70515 6842
3.72526 6428
3.74538 6173
3.76549 5977
3.7856 5571
3.80572 5577
3.82583 5373
3.84595 5117
3.86606 4984
3.88617 4661
3.90629 4597
3.9264 4342
3.94651 4167
3.96663 3842
3.98674 3700
4.00686 3685
4.02697 3595
4.04708 3232
4.0672 3149
4.08731 2993
4.10742 2940
4.12754 2741
4.14765 2591
4.16776 2488
4.18788 2322
4.20799 2421
4.22811 2234
4.24822 2007
4.26833 1996
4.28845 1965
4.30856 1892
4.32867 1890
4.34879 1776
4.3689 1712
4.38902 1587
4.40913 1567
4.42924 1720
4.44936 1446
4.46947 1513
4.48958 1448
4.5097 1476
4.52981 1438
4.54992 1239
4.57004 1357
4.59015 1260
4.61027 1233
4.63038 1328
4.65049 1088
4.67061 1176
4.69072 1155
4.71083 1145
4.73095 1085
4.75106 972
4.77118 1012
4.79129 1032
4.8114 931
4.83152 951
4.85163 919
4.87174 901
4.89186 927
4.91197 912
4.93209 843
4.9522 753
4.97231 749
4.99243 743
5.01254 735
5.03265 755
5.05277 675
5.07288 644
5.09299 698
5.11311 625
5.13322 680
5.15334 609
5.17345 681
5.19356 611
5.21368 661
5.23379 660
5.2539 538
5.27402 590
5.29413 551
5.31425 511
5.33436 525
5.35447 496
5.37459 484
5.3947 489
5.41481 466
5.43493 501
5.45504 456
5.47516 468
5.49527 440
5.51538 425
5.5355 392
5.55561 379
5.57572 418
5.59584 368
5.61595 369
5.63606 369
5.65618 372
5.67629 368
5.69641 361
5.71652 385
5.73663 343
5.75675 336
5.77686 335
5.79697 328
5.81709 366
5.8372 346
5.85732 330
5.87743 324
5.89754 322
5.91766 318
5.93777 314
5.95788 280
5.978 302
5.99811 299
6.01823 310
6.03834 290
6.05845 280
6.07857 293
6.09868 279
6.11879 275
6.13891 263
6.15902 276
6.17913 256
6.19925 273
6.21936 283
6.23948 278
6.25959 257
6.2797 277
6.29982 245
6.31993 280
6.34004 269
6.36016 271
6.38027 270
6.40039 253
6.4205 250
6.44061 234
6.46073 251
6.48084 243
6.50095 260
6.52107 245
6.54118 257
6.56129 248
6.58141 281
6.60152 229
6.62164 259
6.64175 220
6.66186 284
6.68198 271
6.70209 229
6.7222 218
6.74232 237
6.76243 250
6.78255 223
6.80266 218
6.82277 268
6.84289 234
6.863 267
6.88311 256
6.90323 235
6.92334 238
6.94346 245
6.96357 243
6.98368 245
7.0038 205
7.02391 223
7.04402 244
7.06414 250
7.08425 249
7.10436 248
7.12448 264
7.14459 223
7.16471 213
7.18482 263
7.20493 248
7.22505 233
7.24516 245
7.26527 229
7.28539 244
7.3055 204
7.32562 254
7.34573 216
7.36584 246
7.38596 265
7.40607 231
7.42618 268
7.4463 229
7.46641 253
7.48653 224
7.50664 267
7.52675 248
7.54687 245
7.56698 267
7.58709 267
7.60721 273
7.62732 218
7.64743 251
7.66755 252
7.68766 266
7.70778 261
7.72789 242
7.748 256
7.76812 243
7.78823 251
7.80834 246
7.82846 232
7.84857 258
7.86869 211
7.8888 255
7.90891 242
7.92903 235
7.94914 246
7.96925 272
7.98937 239
8.00948 241
8.0296 274
8.04971 266
8.06982 261
8.08994 266
8.11005 245
8.13016 260
8.15028 241
8.17039 290
8.1905 274
8.21062 256
8.23073 278
8.25085 253
8.27096 252
8.29107 277
8.31119 271
8.3313 257
8.35141 263
8.37153 262
8.39164 249
8.41176 267
8.43187 271
8.45198 276
8.4721 256
8.49221 273
8.51232 280
8.53244 280
8.55255 280
8.57266 270
8.59278 299
8.61289 249
8.63301 282
8.65312 272
8.67323 286
8.69335 292
8.71346 280
8.73357 280
8.75369 284
8.7738 305
8.79392 271
8.81403 265
8.83414 294
8.85426 296
8.87437 302
8.89448 241
8.9146 279
8.93471 264
8.95483 258
8.97494 271
8.99505 300
9.01517 304
9.03528 261
9.05539 249
9.07551 263
9.09562 276
9.11573 255
9.13585 295
9.15596 292
9.17608 279
9.19619 268
9.2163 297
9.23642 271
9.25653 289
9.27664 275
9.29676 249
9.31687 250
9.33699 297
9.3571 259
9.37721 274
9.39733 252
9.41744 251
9.43755 275
9.45767 275
9.47778 277
9.4979 314
9.51801 253
9.53812 253
9.55824 268
9.57835 307
9.59846 251
9.61858 285
9.63869 278
9.6588 262
9.67892 305
9.69903 275
9.71915 270
9.73926 263
9.75937 274
9.77949 268
9.7996 286
9.81971 272
9.83983 291
9.85994 285
9.88006 258
9.90017 251
9.92028 289
9.9404 267
9.96051 228
9.98062 258
10.00074 259
10.02085 269
10.04097 281
10.06108 282
10.08119 262
10.10131 276
10.12142 275
10.14153 292
10.16165 258
10.18176 266
10.20187 223
10.22199 274
10.2421 233
10.26222 291
10.28233 235
10.30244 256
10.32256 263
10.34267 281
10.36278 258
10.3829 282
10.40301 272
10.42313 233
10.44324 272
10.46335 287
10.48347 283
10.50358 280
10.52369 286
10.54381 271
10.56392 267
10.58403 272
10.60415 274
10.62426 249
10.64438 284
10.66449 245
10.6846 260
10.70472 249
10.72483 296
10.74494 278
10.76506 283
10.78517 297
10.80529 295
10.8254 256
10.84551 256
10.86563 260
10.88574 284
10.90585 252
10.92597 273
10.94608 277
10.9662 234
10.98631 264
11.00642 274
11.02654 223
11.04665 270
11.06676 279
11.08688 255
11.10699 279
11.1271 280
11.14722 273
11.16733 277
11.18745 232
11.20756 280
11.22767 278
11.24779 281
11.2679 279
11.28801 273
11.30813 288
11.32824 287
11.34836 283
11.36847 278
11.38858 285
11.4087 265
11.42881 264
11.44892 264
11.46904 286
11.48915 272
11.50927 278
11.52938 280
11.54949 238
11.56961 266
11.58972 294
11.60983 291
11.62995 273
11.65006 255
11.67017 282
11.69029 285
11.7104 304
11.73052 278
11.75063 299
11.77074 275
11.79086 264
11.81097 324
11.83108 287
11.8512 318
11.87131 316
11.89143 311
11.91154 302
11.93165 338
11.95177 330
11.97188 312
11.99199 295
12.01211 338
12.03222 363
12.05234 339
12.07245 402
12.09256 357
12.11268 370
12.13279 357
12.1529 407
12.17302 406
12.19313 448
12.21324 455
12.23336 462
12.25347 477
12.27359 549
12.2937 489
12.31381 545
12.33393 530
12.35404 517
12.37415 467
12.39427 472
12.41438 469
12.4345 457
12.45461 415
12.47472 404
12.49484 370
12.51495 381
12.53506 333
12.55518 326
12.57529 303
12.5954 339
12.61552 279
12.63563 331
12.65575 298
12.67586 264
12.69597 252
12.71609 289
12.7362 300
12.75631 284
12.77643 286
12.79654 268
12.81666 254
12.83677 259
12.85688 253
12.877 288
12.89711 265
12.91722 270
12.93734 273
12.95745 269
12.97757 243
12.99768 242
13.01779 254
13.03791 255
13.05802 248
13.07813 271
13.09825 258
13.11836 278
13.13847 279
13.15859 268
13.1787 222
13.19882 269
13.21893 219
13.23904 298
13.25916 239
13.27927 221
13.29938 227
13.3195 260
13.33961 260
13.35973 255
13.37984 257
13.39995 260
13.42007 241
13.44018 224
13.46029 233
13.48041 263
13.50052 241
13.52064 277
13.54075 258
13.56086 286
13.58098 278
13.60109 254
13.6212 294
13.64132 288
13.66143 282
13.68154 263
13.70166 259
13.72177 235
13.74189 245
13.762 257
13.78211 205
13.80223 265
13.82234 240
13.84245 262
13.86257 207
13.88268 256
13.9028 255
13.92291 228
13.94302 254
13.96314 234
13.98325 249
14.00336 205
14.02348 239
14.04359 230
14.06371 231
14.08382 233
14.10393 254
14.12405 227
14.14416 232
14.16427 268
14.18439 209
14.2045 278
14.22461 241
14.24473 221
14.26484 238
14.28496 258
14.30507 236
14.32518 234
14.3453 231
14.36541 253
14.38552 221
14.40564 223
14.42575 210
14.44587 234
14.46598 248
14.48609 230
14.50621 215
14.52632 257
14.54643 229
14.56655 241
14.58666 203
14.60677 226
14.62689 229
14.647 242
14.66712 195
14.68723 202
14.70734 227
14.72746 233
14.74757 243
14.76768 256
14.7878 248
14.80791 243
14.82803 232
14.84814 238
14.86825 240
14.88837 260
14.90848 220
14.92859 231
14.94871 251
14.96882 235
14.98894 245
15.00905 210
15.02916 265
15.04928 215
15.06939 249
15.0895 254
15.10962 231
15.12973 223
15.14984 243
15.16996 268
15.19007 239
15.21019 234
15.2303 243
15.25041 241
15.27053 218
15.29064 200
15.31075 220
15.33087 237
15.35098 216
15.3711 256
15.39121 241
15.41132 234
15.43144 245
15.45155 200
15.47166 221
15.49178 220
15.51189 249
15.53201 227
15.55212 225
15.57223 254
15.59235 235
15.61246 210
15.63257 242
15.65269 219
15.6728 224
15.69291 220
15.71303 242
15.73314 232
15.75326 231
15.77337 198
15.79348 249
15.8136 224
15.83371 240
15.85382 199
15.87394 211
15.89405 243
15.91417 204
15.93428 222
15.95439 228
15.97451 222
15.99462 227
16.01473 208
16.03485 204
16.05496 216
16.07508 199
16.09519 217
16.1153 192
16.13542 231
16.15553 209
16.17564 205
16.19576 183
16.21587 228
16.23598 207
16.2561 229
16.27621 218
16.29633 221
16.31644 216
16.33655 195
16.35667 235
16.37678 221
16.39689 203
16.41701 215
16.43712 206
16.45724 268
16.47735 238
16.49746 237
16.51758 215
16.53769 227
16.5578 223
16.57792 262
16.59803 212
16.61814 288
16.63826 211
16.65837 229
16.67849 208
16.6986 196
16.71871 247
16.73883 229
16.75894 211
16.77905 224
16.79917 219
16.81928 237
16.8394 203
16.85951 203
16.87962 181
16.89974 200
16.91985 213
16.93996 186
16.96008 233
16.98019 222
17.00031 240
17.02042 214
17.04053 215
17.06065 220
17.08076 194
17.10087 216
17.12099 232
17.1411 198
17.16121 223
17.18133 233
17.20144 247
17.22156 207
17.24167 210
17.26178 209
17.2819 215
17.30201 197
17.32212 220
17.34224 253
17.36235 207
17.38247 246
17.40258 209
17.42269 225
17.44281 222
17.46292 240
17.48303 276
17.50315 207
17.52326 195
17.54338 221
17.56349 197
17.5836 206
17.60372 242
17.62383 210
17.64394 214
17.66406 213
17.68417 209
17.70428 230
17.7244 217
17.74451 212
17.76463 204
17.78474 231
17.80485 225
17.82497 237
17.84508 212
17.86519 253
17.88531 217
17.90542 213
17.92554 192
17.94565 223
17.96576 254
17.98588 212
18.00599 213
18.0261 248
18.04622 223
18.06633 230
18.08645 214
18.10656 227
18.12667 221
18.14679 211
18.1669 236
18.18701 227
18.20713 217
18.22724 226
18.24735 261
18.26747 238
18.28758 252
18.3077 251
18.32781 239
18.34792 214
18.36804 225
18.38815 243
18.40826 247
18.42838 238
18.44849 217
18.46861 202
18.48872 212
18.50883 222
18.52895 209
18.54906 208
18.56917 216
18.58929 203
18.6094 208
18.62951 246
18.64963 220
18.66974 210
18.68986 229
18.70997 213
18.73008 246
18.7502 247
18.77031 233
18.79042 225
18.81054 227
18.83065 236
18.85077 212
18.87088 222
18.89099 245
18.91111 233
18.93122 221
18.95133 225
18.97145 228
18.99156 196
19.01168 225
19.03179 226
19.0519 185
19.07202 234
19.09213 226
19.11224 251
19.13236 248
19.15247 224
19.17258 213
19.1927 233
19.21281 230
19.23293 253
19.25304 261
19.27315 226
19.29327 225
19.31338 234
19.33349 244
19.35361 275
19.37372 255
19.39384 237
19.41395 239
19.43406 245
19.45418 200
19.47429 278
19.4944 238
19.51452 252
19.53463 263
19.55475 230
19.57486 270
19.59497 232
19.61509 262
19.6352 232
19.65531 256
19.67543 261
19.69554 292
19.71565 282
19.73577 289
19.75588 328
19.776 317
19.79611 385
19.81622 381
19.83634 392
19.85645 432
19.87656 402
19.89668 381
19.91679 395
19.93691 445
19.95702 440
19.97713 440
19.99725 382
20.01736 373
20.03747 332
20.05759 345
20.0777 355
20.09782 340
20.11793 392
20.13804 386
20.15816 371
20.17827 421
20.19838 387
20.2185 419
20.23861 423
20.25872 408
20.27884 394
20.29895 418
20.31907 400
20.33918 441
20.35929 406
20.37941 423
20.39952 437
20.41963 418
20.43975 435
20.45986 491
20.47998 480
20.50009 490
20.5202 475
20.54032 503
20.56043 513
20.58054 572
20.60066 566
20.62077 588
20.64088 674
20.661 797
20.68111 945
20.70123 1275
20.72134 1694
20.74145 2305
20.76157 3228
20.78168 4392
20.80179 5962
20.82191 7201
20.84202 7772
20.86214 6994
20.88225 5469
20.90236 3906
20.92248 2538
20.94259 1442
20.9627 1094
20.98282 927
21.00293 845
21.02305 796
21.04316 742
21.06327 674
21.08339 547
21.1035 554
21.12361 492
21.14373 500
21.16384 477
21.18395 508
21.20407 464
21.22418 447
21.2443 440
21.26441 459
21.28452 483
21.30464 429
21.32475 420
21.34486 487
21.36498 431
21.38509 431
21.40521 436
21.42532 395
21.44543 417
21.46555 384
21.48566 408
21.50577 365
21.52589 392
21.546 384
21.56612 403
21.58623 356
21.60634 314
21.62646 360
21.64657 351
21.66668 346
21.6868 322
21.70691 328
21.72702 327
21.74714 337
21.76725 335
21.78737 343
21.80748 305
21.82759 322
21.84771 327
21.86782 336
21.88793 333
21.90805 346
21.92816 353
21.94828 330
21.96839 331
21.9885 355
22.00862 341
22.02873 324
22.04884 328
22.06896 303
22.08907 294
22.10919 328
22.1293 303
22.14941 296
22.16953 299
22.18964 307
22.20975 316
22.22987 321
22.24998 313
22.27009 342
22.29021 324
22.31032 329
22.33044 353
22.35055 344
22.37066 292
22.39078 291
22.41089 325
22.431 304
22.45112 293
22.47123 274
22.49135 293
22.51146 307
22.53157 311
22.55169 316
22.5718 280
22.59191 334
22.61203 319
22.63214 304
22.65225 310
22.67237 283
22.69248 310
22.7126 299
22.73271 322
22.75282 300
22.77294 300
22.79305 313
22.81316 291
22.83328 279
22.85339 304
22.87351 303
22.89362 269
22.91373 297
22.93385 307
22.95396 297
22.97407 309
22.99419 290
23.0143 304
23.03442 285
23.05453 316
23.07464 344
23.09476 295
23.11487 360
23.13498 362
23.1551 384
23.17521 382
23.19532 339
23.21544 321
23.23555 335
23.25567 331
23.27578 316
23.29589 334
23.31601 302
23.33612 303
23.35623 279
23.37635 285
23.39646 304
23.41658 298
23.43669 300
23.4568 278
23.47692 307
23.49703 297
23.51714 320
23.53726 283
23.55737 305
23.57749 283
23.5976 330
23.61771 322
23.63783 261
23.65794 314
23.67805 294
23.69817 359
23.71828 304
23.73839 319
23.75851 311
23.77862 291
23.79874 271
23.81885 304
23.83896 303
23.85908 346
23.87919 347
23.8993 358
23.91942 369
23.93953 409
23.95965 430
23.97976 433
23.99987 423
24.01999 416
24.0401 386
24.06021 320
24.08033 296
24.10044 298
24.12056 305
24.14067 310
24.16078 319
24.1809 289
24.20101 258
24.22112 269
24.24124 293
24.26135 311
24.28146 359
24.30158 304
24.32169 345
24.34181 313
24.36192 317
24.38203 314
24.40215 306
24.42226 331
24.44237 285
24.46249 316
24.4826 305
24.50272 337
24.52283 298
24.54294 310
24.56306 350
24.58317 358
24.60328 330
24.6234 341
24.64351 413
24.66362 369
24.68374 410
24.70385 394
24.72397 390
24.74408 436
24.76419 425
24.78431 410
24.80442 437
24.82453 475
24.84465 441
24.86476 478
24.88488 453
24.90499 444
24.9251 439
24.94522 441
24.96533 429
24.98544 359
25.00556 419
25.02567 379
25.04579 367
25.0659 404
25.08601 363
25.10613 360
25.12624 349
25.14635 364
25.16647 367
25.18658 377
25.20669 382
25.22681 426
25.24692 373
25.26704 379
25.28715 361
25.30726 353
25.32738 357
25.34749 357
25.3676 336
25.38772 354
25.40783 344
25.42795 376
25.44806 370
25.46817 373
25.48829 383
25.5084 434
25.52851 420
25.54863 408
25.56874 441
25.58886 434
25.60897 440
25.62908 447
25.6492 420
25.66931 447
25.68942 504
25.70954 510
25.72965 456
25.74976 459
25.76988 479
25.78999 453
25.81011 424
25.83022 477
25.85033 506
25.87045 489
25.89056 463
25.91067 510
25.93079 483
25.9509 503
25.97102 561
25.99113 493
26.01124 515
26.03136 549
26.05147 525
26.07158 577
26.0917 587
26.11181 590
26.13193 614
26.15204 645
26.17215 717
26.19227 774
26.21238 884
26.23249 857
26.25261 975
26.27272 1008
26.29283 1078
26.31295 1112
26.33306 1262
26.35318 1403
26.37329 1647
26.3934 2020
26.41352 2398
26.43363 3129
26.45374 3889
26.47386 5349
26.49397 7317
26.51409 10033
26.5342 14056
26.55431 19262
26.57443 25400
26.59454 30898
26.61465 33720
26.63477 31567
26.65488 24997
26.67499 18952
26.69511 15014
26.71522 9789
26.73534 5177
26.75545 2869
26.77556 2097
26.79568 1709
26.81579 1531
26.8359 1331
26.85602 1304
26.87613 1201
26.89625 1135
26.91636 1045
26.93647 928
26.95659 890
26.9767 828
26.99681 853
27.01693 750
27.03704 831
27.05716 747
27.07727 673
27.09738 619
27.1175 590
27.13761 563
27.15772 572
27.17784 547
27.19795 496
27.21806 506
27.23818 498
27.25829 546
27.27841 508
27.29852 555
27.31863 594
27.33875 617
27.35886 709
27.37897 738
27.39909 737
27.4192 793
27.43932 775
27.45943 752
27.47954 710
27.49966 634
27.51977 622
27.53988 544
27.56 471
27.58011 421
27.60023 428
27.62034 380
27.64045 381
27.66057 383
27.68068 418
27.70079 351
27.72091 368
27.74102 403
27.76113 402
27.78125 342
27.80136 352
27.82148 396
27.84159 380
27.8617 339
27.88182 370
27.90193 345
27.92204 354
27.94216 345
27.96227 325
27.98239 388
28.0025 316
28.02261 364
28.04273 321
28.06284 324
28.08295 322
28.10307 310
28.12318 325
28.1433 296
28.16341 318
28.18352 322
28.20364 297
28.22375 334
28.24386 296
28.26398 328
28.28409 300
28.3042 310
28.32432 282
28.34443 300
28.36455 271
28.38466 306
28.40477 287
28.42489 294
28.445 293
28.46511 314
28.48523 281
28.50534 270
28.52546 292
28.54557 274
28.56568 263
28.5858 288
28.60591 290
28.62602 272
28.64614 306
28.66625 295
28.68636 273
28.70648 287
28.72659 270
28.74671 286
28.76682 270
28.78693 322
28.80705 295
28.82716 266
28.84727 296
28.86739 243
28.8875 279
28.90762 264
28.92773 262
28.94784 290
28.96796 289
28.98807 284
29.00818 277
29.0283 270
29.04841 263
29.06853 289
29.08864 274
29.10875 279
29.12887 257
29.14898 254
29.16909 262
29.18921 275
29.20932 290
29.22943 264
29.24955 272
29.26966 274
29.28978 271
29.30989 290
29.33 257
29.35012 302
29.37023 314
29.39034 299
29.41046 292
29.43057 293
29.45069 349
29.4708 299
29.49091 293
29.51103 315
29.53114 286
29.55125 298
29.57137 267
29.59148 291
29.6116 292
29.63171 250
29.65182 273
29.67194 272
29.69205 278
29.71216 263
29.73228 294
29.75239 300
29.7725 282
29.79262 285
29.81273 257
29.83285 284
29.85296 305
29.87307 272
29.89319 265
29.9133 264
29.93341 296
29.95353 252
29.97364 268
29.99376 270
30.01387 283
30.03398 285
30.0541 280
30.07421 292
30.09432 321
30.11444 326
30.13455 316
30.15467 340
30.17478 303
30.19489 317
30.21501 320
30.23512 321
30.25523 293
30.27535 276
30.29546 275
30.31557 271
30.33569 263
30.3558 256
30.37592 266
30.39603 267
30.41614 269
30.43626 267
30.45637 267
30.47648 260
30.4966 280
30.51671 260
30.53683 232
30.55694 255
30.57705 279
30.59717 257
30.61728 285
30.63739 319
30.65751 290
30.67762 340
30.69773 318
30.71785 300
30.73796 320
30.75808 294
30.77819 313
30.7983 292
30.81842 261
30.83853 279
30.85864 297
30.87876 339
30.89887 287
30.91899 258
30.9391 259
30.95921 248
30.97933 250
30.99944 259
31.01955 235
31.03967 223
31.05978 256
31.0799 242
31.10001 246
31.12012 216
31.14024 240
31.16035 242
31.18046 248
31.20058 229
31.22069 220
31.2408 212
31.26092 229
31.28103 233
31.30115 254
31.32126 253
31.34137 272
31.36149 223
31.3816 242
31.40171 236
31.42183 208
31.44194 219
31.46206 259
31.48217 242
31.50228 231
31.5224 258
31.54251 249
31.56262 211
31.58274 266
31.60285 215
31.62297 245
31.64308 236
31.66319 251
31.68331 219
31.70342 230
31.72353 231
31.74365 258
31.76376 242
31.78387 213
31.80399 223
31.8241 249
31.84422 246
31.86433 226
31.88444 206
31.90456 244
31.92467 215
31.94478 242
31.9649 229
31.98501 262
32.00513 252
32.02524 263
32.04535 223
32.06547 260
32.08558 244
32.10569 266
32.12581 242
32.14592 254
32.16604 240
32.18615 259
32.20626 244
32.22638 245
32.24649 250
32.2666 280
32.28672 260
32.30683 233
32.32694 240
32.34706 263
32.36717 294
32.38729 255
32.4074 274
32.42751 283
32.44763 253
32.46774 296
32.48785 257
32.50797 287
32.52808 248
32.5482 266
32.56831 250
32.58842 268
32.60854 238
32.62865 265
32.64876 253
32.66888 266
32.68899 262
32.7091 254
32.72922 260
32.74933 229
32.76945 263
32.78956 267
32.80967 243
32.82979 252
32.8499 243
32.87001 246
32.89013 275
32.91024 211
32.93036 226
32.95047 251
32.97058 250
32.9907 246
33.01081 252
33.03092 237
33.05104 250
33.07115 230
33.09127 260
33.11138 251
33.13149 308
33.15161 247
33.17172 303
33.19183 225
33.21195 256
33.23206 252
33.25217 249
33.27229 241
33.2924 236
33.31252 244
33.33263 281
33.35274 269
33.37286 252
33.39297 259
33.41308 248
33.4332 286
33.45331 255
33.47343 265
33.49354 240
33.51365 248
33.53377 230
33.55388 264
33.57399 257
33.59411 242
33.61422 242
33.63434 251
33.65445 245
33.67456 239
33.69468 266
33.71479 228
33.7349 245
33.75502 271
33.77513 238
33.79524 244
33.81536 228
33.83547 236
33.85559 220
33.8757 240
33.89581 266
33.91593 211
33.93604 240
33.95615 242
33.97627 233
33.99638 218
34.0165 212
34.03661 250
34.05672 238
34.07684 232
34.09695 258
34.11706 251
34.13718 284
34.15729 265
34.17741 280
34.19752 273
34.21763 249
34.23775 279
34.25786 273
34.27797 294
34.29809 260
34.3182 271
34.33831 241
34.35843 261
34.37854 278
34.39866 271
34.41877 211
34.43888 232
34.459 275
34.47911 228
34.49922 249
34.51934 257
34.53945 238
34.55957 245
34.57968 259
34.59979 228
34.61991 273
34.64002 267
34.66013 304
34.68025 262
34.70036 274
34.72047 278
34.74059 320
34.7607 261
34.78082 260
34.80093 290
34.82104 291
34.84116 318
34.86127 333
34.88138 334
34.9015 318
34.92161 337
34.94173 309
34.96184 319
34.98195 390
35.00207 374
35.02218 359
35.04229 304
35.06241 318
35.08252 320
35.10264 324
35.12275 320
35.14286 324
35.16298 304
35.18309 287
35.2032 302
35.22332 281
35.24343 312
35.26354 343
35.28366 316
35.30377 341
35.32389 313
35.344 311
35.36411 308
35.38423 336
35.40434 322
35.42445 355
35.44457 350
35.46468 331
35.4848 371
35.50491 350
35.52502 378
35.54514 385
35.56525 383
35.58536 317
35.60548 357
35.62559 288
35.64571 323
35.66582 334
35.68593 319
35.70605 340
35.72616 345
35.74627 317
35.76639 321
35.7865 330
35.80661 358
35.82673 345
35.84684 343
35.86696 327
35.88707 352
35.90718 326
35.9273 360
35.94741 335
35.96752 360
35.98764 322
36.00775 327
36.02787 334
36.04798 309
36.06809 289
36.08821 347
36.10832 299
36.12843 295
36.14855 310
36.16866 293
36.18878 340
36.20889 338
36.229 314
36.24912 347
36.26923 350
36.28934 390
36.30946 434
36.32957 539
36.34968 583
36.3698 695
36.38991 820
36.41003 993
36.43014 1223
36.45025 1541
36.47037 1894
36.49048 2170
36.51059 2339
36.53071 2209
36.55082 1800
36.57094 1398
36.59105 1334
36.61116 1262
36.63128 1070
36.65139 686
36.6715 514
36.69162 435
36.71173 371
36.73184 346
36.75196 351
36.77207 350
36.79219 343
36.8123 347
36.83241 352
36.85253 355
36.87264 330
36.89275 326
36.91287 318
36.93298 327
36.9531 303
36.97321 352
36.99332 355
37.01344 283
37.03355 345
37.05366 278
37.07378 310
37.09389 276
37.11401 282
37.13412 271
37.15423 281
37.17435 238
37.19446 248
37.21457 264
37.23469 264
37.2548 277
37.27491 261
37.29503 262
37.31514 233
37.33526 236
37.35537 239
37.37548 274
37.3956 264
37.41571 231
37.43582 255
37.45594 205
37.47605 268
37.49617 239
37.51628 246
37.53639 260
37.55651 269
37.57662 276
37.59673 231
37.61685 266
37.63696 255
37.65708 271
37.67719 270
37.6973 295
37.71742 253
37.73753 278
37.75764 255
37.77776 288
37.79787 296
37.81798 290
37.8381 247
37.85821 240
37.87833 248
37.89844 252
37.91855 245
37.93867 247
37.95878 233
37.97889 256
37.99901 241
38.01912 234
38.03924 246
38.05935 286
38.07946 253
38.09958 266
38.11969 287
38.1398 309
38.15992 297
38.18003 312
38.20015 310
38.22026 293
38.24037 272
38.26049 304
38.2806 296
38.30071 303
38.32083 324
38.34094 313
38.36105 335
38.38117 307
38.40128 319
38.4214 308
38.44151 345
38.46162 323
38.48174 320
38.50185 353
38.52196 329
38.54208 334
38.56219 310
38.58231 311
38.60242 290
38.62253 279
38.64265 290
38.66276 264
38.68287 266
38.70299 273
38.7231 282
38.74321 259
38.76333 283
38.78344 253
38.80356 246
38.82367 244
38.84378 257
38.8639 287
38.88401 254
38.90412 270
38.92424 280
38.94435 281
38.96447 287
38.98458 284
39.00469 304
39.02481 325
39.04492 296
39.06503 308
39.08515 303
39.10526 340
39.12538 334
39.14549 334
39.1656 361
39.18572 396
39.20583 413
39.22594 452
39.24606 530
39.26617 558
39.28628 639
39.3064 832
39.32651 881
39.34663 1180
39.36674 1305
39.38685 1694
39.40697 1988
39.42708 2136
39.44719 2046
39.46731 1725
39.48742 1387
39.50754 1226
39.52765 1170
39.54776 1120
39.56788 854
39.58799 538
39.6081 422
39.62822 344
39.64833 365
39.66845 314
39.68856 293
39.70867 285
39.72879 321
39.7489 285
39.76901 292
39.78913 253
39.80924 262
39.82935 247
39.84947 258
39.86958 283
39.8897 259
39.90981 274
39.92992 290
39.95004 274
39.97015 287
39.99026 329
40.01038 310
40.03049 314
40.05061 331
40.07072 381
40.09083 381
40.11095 474
40.13106 493
40.15117 604
40.17129 689
40.1914 787
40.21152 962
40.23163 1088
40.25174 1182
40.27186 1148
40.29197 974
40.31208 789
40.3322 725
40.35231 745
40.37242 643
40.39254 560
40.41265 411
40.43277 370
40.45288 294
40.47299 320
40.49311 287
40.51322 292
40.53333 244
40.55345 290
40.57356 270
40.59368 234
40.61379 244
40.6339 258
40.65402 246
40.67413 222
40.69424 221
40.71436 229
40.73447 251
40.75458 242
40.7747 225
40.79481 241
40.81493 212
40.83504 225
40.85515 244
40.87527 278
40.89538 264
40.91549 231
40.93561 249
40.95572 226
40.97584 250
40.99595 269
41.01606 236
41.03618 268
41.05629 265
41.0764 230
41.09652 249
41.11663 260
41.13675 257
41.15686 242
41.17697 266
41.19709 243
41.2172 260
41.23731 264
41.25743 249
41.27754 225
41.29765 209
41.31777 239
41.33788 228
41.358 280
41.37811 264
41.39822 232
41.41834 242
41.43845 259
41.45856 241
41.47868 233
41.49879 253
41.51891 268
41.53902 302
41.55913 254
41.57925 276
41.59936 244
41.61947 276
41.63959 262
41.6597 287
41.67982 296
41.69993 295
41.72004 292
41.74016 330
41.76027 300
41.78038 302
41.8005 285
41.82061 289
41.84072 299
41.86084 276
41.88095 249
41.90107 253
41.92118 261
41.94129 234
41.96141 210
41.98152 265
42.00163 240
42.02175 253
42.04186 229
42.06198 227
42.08209 285
42.1022 274
42.12232 273
42.14243 304
42.16254 318
42.18266 302
42.20277 348
42.22289 357
42.243 426
42.26311 492
42.28323 577
42.30334 707
42.32345 798
42.34357 1024
42.36368 1203
42.38379 1368
42.40391 1485
42.42402 1587
42.44414 1357
42.46425 1078
42.48436 925
42.50448 872
42.52459 898
42.5447 787
42.56482 582
42.58493 440
42.60505 377
42.62516 284
42.64527 267
42.66539 266
42.6855 276
42.70561 272
42.72573 257
42.74584 262
42.76595 245
42.78607 259
42.80618 245
42.8263 217
42.84641 242
42.86652 238
42.88664 249
42.90675 228
42.92686 203
42.94698 215
42.96709 227
42.98721 216
43.00732 233
43.02743 215
43.04755 210
43.06766 249
43.08777 232
43.10789 229
43.128 215
43.14812 219
43.16823 213
43.18834 219
43.20846 214
43.22857 229
43.24868 215
43.2688 223
43.28891 219
43.30902 208
43.32914 213
43.34925 201
43.36937 219
43.38948 188
43.40959 198
43.42971 212
43.44982 213
43.46993 250
43.49005 210
43.51016 221
43.53028 210
43.55039 212
43.5705 248
43.59062 211
43.61073 221
43.63084 203
43.65096 205
43.67107 219
43.69119 215
43.7113 195
43.73141 236
43.75153 225
43.77164 218
43.79175 223
43.81187 197
43.83198 201
43.85209 201
43.87221 211
43.89232 203
43.91244 211
43.93255 209
43.95266 202
43.97278 211
43.99289 202
44.013 203
44.03312 199
44.05323 183
44.07335 214
44.09346 200
44.11357 215
44.13369 191
44.1538 201
44.17391 191
44.19403 197
44.21414 211
44.23426 199
44.25437 198
44.27448 191
44.2946 193
44.31471 211
44.33482 202
44.35494 198
44.37505 229
44.39516 215
44.41528 206
44.43539 193
44.45551 200
44.47562 188
44.49573 211
44.51585 220
44.53596 187
44.55607 192
44.57619 211
44.5963 217
44.61642 218
44.63653 222
44.65664 214
44.67676 196
44.69687 214
44.71698 191
44.7371 215
44.75721 198
44.77732 181
44.79744 218
44.81755 212
44.83767 205
44.85778 241
44.87789 190
44.89801 232
44.91812 238
44.93823 200
44.95835 221
44.97846 216
44.99858 229
45.01869 209
45.0388 206
45.05892 230
45.07903 192
45.09914 209
45.11926 223
45.13937 205
45.15949 197
45.1796 208
45.19971 213
45.21983 243
45.23994 214
45.26005 260
45.28017 221
45.30028 244
45.32039 234
45.34051 217
45.36062 237
45.38074 228
45.40085 276
45.42096 240
45.44108 255
45.46119 263
45.4813 259
45.50142 293
45.52153 335
45.54165 349
45.56176 335
45.58187 371
45.60199 432
45.6221 470
45.64221 531
45.66233 647
45.68244 746
45.70256 903
45.72267 957
45.74278 1058
45.7629 1061
45.78301 970
45.80312 829
45.82324 694
45.84335 704
45.86346 673
45.88358 627
45.90369 544
45.92381 439
45.94392 325
45.96403 280
45.98415 249
46.00426 247
46.02437 248
46.04449 270
46.0646 239
46.08472 217
46.10483 212
46.12494 262
46.14506 227
46.16517 218
46.18528 220
46.2054 250
46.22551 230
46.24563 220
46.26574 223
46.28585 224
46.30597 204
46.32608 203
46.34619 192
46.36631 213
46.38642 207
46.40653 198
46.42665 212
46.44676 202
46.46688 193
46.48699 211
46.5071 191
46.52722 204
46.54733 199
46.56744 224
46.58756 188
46.60767 186
46.62779 203
46.6479 233
46.66801 229
46.68813 212
46.70824 201
46.72835 188
46.74847 196
46.76858 202
46.78869 207
46.80881 192
46.82892 206
46.84904 199
46.86915 215
46.88926 210
46.90938 182
46.92949 216
46.9496 207
46.96972 210
46.98983 205
47.00995 204
47.03006 200
47.05017 223
47.07029 202
47.0904 246
47.11051 216
47.13063 212
47.15074 236
47.17086 220
47.19097 218
47.21108 212
47.2312 224
47.25131 218
47.27142 188
47.29154 223
47.31165 181
47.33176 208
47.35188 230
47.37199 214
47.39211 192
47.41222 224
47.43233 199
47.45245 244
47.47256 228
47.49267 221
47.51279 215
47.5329 220
47.55302 220
47.57313 222
47.59324 221
47.61336 209
47.63347 208
47.65358 228
47.6737 210
47.69381 181
47.71393 204
47.73404 227
47.75415 201
47.77427 220
47.79438 226
47.81449 207
47.83461 212
47.85472 207
47.87483 217
47.89495 210
47.91506 207
47.93518 222
47.95529 210
47.9754 223
47.99552 213
48.01563 226
48.03574 222
48.05586 217
48.07597 200
48.09609 212
48.1162 186
48.13631 200
48.15643 194
48.17654 219
48.19665 187
48.21677 222
48.23688 233
48.257 198
48.27711 205
48.29722 193
48.31734 215
48.33745 207
48.35756 189
48.37768 210
48.39779 192
48.4179 198
48.43802 219
48.45813 209
48.47825 210
48.49836 175
48.51847 229
48.53859 220
48.5587 217
48.57881 191
48.59893 221
48.61904 208
48.63916 215
48.65927 210
48.67938 252
48.6995 202
48.71961 240
48.73972 239
48.75984 229
48.77995 215
48.80006 255
48.82018 234
48.84029 246
48.86041 201
48.88052 217
48.90063 225
48.92075 223
48.94086 267
48.96097 241
48.98109 227
49.0012 206
49.02132 205
49.04143 246
49.06154 252
49.08166 240
49.10177 240
49.12188 217
49.142 219
49.16211 236
49.18223 222
49.20234 210
49.22245 243
49.24257 214
49.26268 245
49.28279 230
49.30291 237
49.32302 211
49.34313 243
49.36325 235
49.38336 210
49.40348 244
49.42359 233
49.4437 241
49.46382 228
49.48393 258
49.50404 252
49.52416 243
49.54427 261
49.56439 266
49.5845 274
49.60461 279
49.62473 273
49.64484 268
49.66495 259
49.68507 279
49.70518 323
49.7253 283
49.74541 334
49.76552 335
49.78564 383
49.80575 419
49.82586 444
49.84598 489
49.86609 595
49.8862 605
49.90632 687
49.92643 832
49.94655 940
49.96666 1172
49.98677 1376
50.00689 1696
50.027 2048
50.04711 2584
50.06723 2927
50.08734 3159
50.10746 3202
50.12757 2931
50.14768 2351
50.1678 1873
50.18791 1676
50.20802 1668
50.22814 1695
50.24825 1605
50.26837 1250
50.28848 876
50.30859 550
50.32871 452
50.34882 390
50.36893 400
50.38905 349
50.40916 361
50.42927 344
50.44939 356
50.4695 361
50.48962 347
50.50973 345
50.52984 342
50.54996 361
50.57007 369
50.59018 401
50.6103 360
50.63041 333
50.65053 321
50.67064 305
50.69075 290
50.71087 306
50.73098 284
50.75109 267
50.77121 245
50.79132 256
50.81143 231
50.83155 245
50.85166 234
50.87178 246
50.89189 214
50.912 247
50.93212 246
50.95223 211
50.97234 237
50.99246 265
51.01257 238
51.03269 220
51.0528 216
51.07291 209
51.09303 236
51.11314 217
51.13325 200
51.15337 206
51.17348 231
51.1936 209
51.21371 232
51.23382 200
51.25394 211
51.27405 189
51.29416 207
51.31428 186
51.33439 199
51.3545 177
51.37462 179
51.39473 226
51.41485 189
51.43496 205
51.45507 203
51.47519 208
51.4953 212
51.51541 183
51.53553 187
51.55564 203
51.57576 196
51.59587 179
51.61598 206
51.6361 200
51.65621 196
51.67632 181
51.69644 202
51.71655 187
51.73667 184
51.75678 182
51.77689 189
51.79701 207
51.81712 205
51.83723 204
51.85735 187
51.87746 176
51.89757 205
51.91769 212
51.9378 204
51.95792 197
51.97803 192
51.99814 203
52.01826 189
52.03837 227
52.05848 186
52.0786 213
52.09871 192
52.11883 210
52.13894 180
52.15905 199
52.17917 197
52.19928 203
52.21939 210
52.23951 181
52.25962 185
52.27974 171
52.29985 201
52.31996 182
52.34008 233
52.36019 188
52.3803 181
52.40042 176
52.42053 212
52.44064 188
52.46076 182
52.48087 191
52.50099 189
52.5211 204
52.54121 195
52.56133 183
52.58144 219
52.60155 189
52.62167 208
52.64178 175
52.6619 203
52.68201 199
52.70212 183
52.72224 191
52.74235 226
52.76246 200
52.78258 198
52.80269 188
52.8228 195
52.84292 192
52.86303 208
52.88315 211
52.90326 233
52.92337 223
52.94349 201
52.9636 227
52.98371 212
53.00383 184
53.02394 221
53.04406 205
53.06417 186
53.08428 223
53.1044 201
53.12451 215
53.14462 194
53.16474 214
53.18485 230
53.20497 224
53.22508 211
53.24519 253
53.26531 246
53.28542 214
53.30553 268
53.32565 224
53.34576 234
53.36587 249
53.38599 210
53.4061 253
53.42622 257
53.44633 228
53.46644 221
53.48656 225
53.50667 237
53.52678 247
53.5469 240
53.56701 251
53.58713 224
53.60724 219
53.62735 232
53.64747 224
53.66758 238
53.68769 241
53.70781 245
53.72792 222
53.74804 208
53.76815 231
53.78826 241
53.80838 241
53.82849 244
53.8486 239
53.86872 254
53.88883 239
53.90894 252
53.92906 235
53.94917 255
53.96929 228
53.9894 270
54.00951 234
54.02963 252
54.04974 225
54.06985 249
54.08997 232
54.11008 224
54.1302 269
54.15031 267
54.17042 244
54.19054 237
54.21065 243
54.23076 262
54.25088 280
54.27099 240
54.29111 263
54.31122 261
54.33133 262
54.35145 234
54.37156 262
54.39167 247
54.41179 255
54.4319 276
54.45201 284
54.47213 244
54.49224 282
54.51236 283
54.53247 253
54.55258 296
54.5727 320
54.59281 311
54.61292 330
54.63304 377
54.65315 423
54.67327 422
54.69338 504
54.71349 595
54.73361 628
54.75372 726
54.77383 839
54.79395 931
54.81406 1031
54.83417 1042
54.85429 1005
54.8744 900
54.89452 716
54.91463 594
54.93474 647
54.95486 639
54.97497 693
54.99508 652
55.0152 581
55.03531 466
55.05543 369
55.07554 399
55.09565 340
55.11577 347
55.13588 377
55.15599 402
55.17611 387
55.19622 421
55.21634 480
55.23645 548
55.25656 580
55.27668 615
55.29679 571
55.3169 571
55.33702 431
55.35713 431
55.37724 406
55.39736 382
55.41747 369
55.43759 368
55.4577 394
55.47781 349
55.49793 312
55.51804 285
55.53815 254
55.55827 243
55.57838 222
55.5985 255
55.61861 260
55.63872 223
55.65884 234
55.67895 222
55.69906 222
55.71918 242
55.73929 233
55.75941 230
55.77952 221
55.79963 211
55.81975 213
55.83986 204
55.85997 225
55.88009 206
55.9002 210
55.92031 216
55.94043 252
55.96054 188
55.98066 214
56.00077 221
56.02088 223
56.041 213
56.06111 229
56.08122 227
56.10134 213
56.12145 215
56.14157 209
56.16168 181
56.18179 208
56.20191 207
56.22202 211
56.24213 209
56.26225 185
56.28236 201
56.30248 215
56.32259 213
56.3427 204
56.36282 206
56.38293 174
56.40304 229
56.42316 232
56.44327 198
56.46338 211
56.4835 225
56.50361 180
56.52373 196
56.54384 202
56.56395 210
56.58407 199
56.60418 194
56.62429 210
56.64441 194
56.66452 215
56.68464 200
56.70475 214
56.72486 207
56.74498 204
56.76509 210
56.7852 200
56.80532 194
56.82543 212
56.84554 216
56.86566 223
56.88577 208
56.90589 230
56.926 197
56.94611 197
56.96623 186
56.98634 205
57.00645 191
57.02657 209
57.04668 201
57.0668 220
57.08691 202
57.10702 184
57.12714 253
57.14725 267
57.16736 253
57.18748 237
57.20759 255
57.22771 233
57.24782 221
57.26793 196
57.28805 206
57.30816 214
57.32827 211
57.34839 223
57.3685 218
57.38861 198
57.40873 210
57.42884 194
57.44896 207
57.46907 212
57.48918 210
57.5093 177
57.52941 201
57.54952 212
57.56964 199
57.58975 168
57.60987 199
57.62998 162
57.65009 191
57.67021 212
57.69032 204
57.71043 185
57.73055 196
57.75066 189
57.77078 209
57.79089 197
57.811 214
57.83112 183
57.85123 199
57.87134 187
57.89146 199
57.91157 198
57.93168 199
57.9518 213
57.97191 187
57.99203 226
58.01214 212
58.03225 201
58.05237 199
58.07248 189
58.09259 213
58.11271 192
58.13282 199
58.15294 186
58.17305 196
58.19316 177
58.21328 170
58.23339 189
58.2535 192
58.27362 203
58.29373 188
58.31385 199
58.33396 208
58.35407 186
58.37419 193
58.3943 200
58.41441 216
58.43453 184
58.45464 186
58.47475 193
58.49487 195
58.51498 216
58.5351 199
58.55521 200
58.57532 193
58.59544 182
58.61555 201
58.63566 196
58.65578 184
58.67589 183
58.69601 200
58.71612 198
58.73623 177
58.75635 206
58.77646 199
58.79657 173
58.81669 187
58.8368 179
58.85691 174
58.87703 195
58.89714 209
58.91726 195
58.93737 181
58.95748 195
58.9776 201
58.99771 203
59.01782 220
59.03794 206
59.05805 205
59.07817 188
59.09828 207
59.11839 226
59.13851 212
59.15862 208
59.17873 194
59.19885 182
59.21896 231
59.23908 214
59.25919 216
59.2793 219
59.29942 219
59.31953 216
59.33964 210
59.35976 210
59.37987 226
59.39998 239
59.4201 224
59.44021 263
59.46033 255
59.48044 259
59.50055 253
59.52067 279
59.54078 286
59.56089 295
59.58101 294
59.60112 321
59.62124 358
59.64135 382
59.66146 409
59.68158 449
59.70169 512
59.7218 569
59.74192 647
59.76203 715
59.78215 899
59.80226 1067
59.82237 1266
59.84249 1470
59.8626 1715
59.88271 1842
59.90283 2044
59.92294 2050
59.94305 1808
59.96317 1452
59.98328 1142
60.0034 990
60.02351 1073
60.04362 1117
60.06374 1109
60.08385 1057
60.10396 867
60.12408 708
60.14419 556
60.16431 405
60.18442 409
60.20453 308
60.22465 306
60.24476 296
60.26487 239
60.28499 276
60.3051 261
60.32522 243
60.34533 220
60.36544 229
60.38556 219
60.40567 217
60.42578 252
60.4459 201
60.46601 228
60.48612 229
60.50624 195
60.52635 221
60.54647 202
60.56658 217
60.58669 208
60.60681 208
60.62692 206
60.64703 215
60.66715 215
60.68726 198
60.70738 194
60.72749 202
60.7476 198
60.76772 209
60.78783 186
60.80794 212
60.82806 201
60.84817 191
60.86828 195
60.8884 197
60.90851 202
60.92863 204
60.94874 200
60.96885 206
60.98897 197
61.00908 214
61.02919 190
61.04931 214
61.06942 210
61.08954 190
61.10965 220
61.12976 216
61.14988 206
61.16999 196
61.1901 206
61.21022 197
61.23033 208
61.25045 217
61.27056 193
61.29067 198
61.31079 221
61.3309 184
61.35101 202
61.37113 195
61.39124 196
61.41135 190
61.43147 203
61.45158 220
61.4717 197
61.49181 210
61.51192 199
61.53204 208
61.55215 213
61.57226 209
61.59238 201
61.61249 205
61.63261 182
61.65272 197
61.67283 239
61.69295 206
61.71306 206
61.73317 207
61.75329 211
61.7734 204
61.79352 193
61.81363 232
61.83374 226
61.85386 207
61.87397 220
61.89408 218
61.9142 208
61.93431 211
61.95442 202
61.97454 194
61.99465 218
62.01477 223
62.03488 235
62.05499 240
62.07511 245
62.09522 245
62.11533 249
62.13545 254
62.15556 243
62.17568 264
62.19579 246
62.2159 260
62.23602 256
62.25613 249
62.27624 278
62.29636 239
62.31647 275
62.33659 223
62.3567 227
62.37681 240
62.39693 235
62.41704 215
62.43715 216
62.45727 250
62.47738 216
62.49749 227
62.51761 227
62.53772 205
62.55784 214
62.57795 224
62.59806 200
62.61818 215
62.63829 214
62.6584 196
62.67852 208
62.69863 215
62.71875 215
62.73886 201
62.75897 210
62.77909 220
62.7992 211
62.81931 223
62.83943 207
62.85954 204
62.87965 218
62.89977 198
62.91988 197
62.94 189
62.96011 183
62.98022 186
63.00034 202
63.02045 201
63.04056 202
63.06068 213
63.08079 200
63.10091 191
63.12102 195
63.14113 202
63.16125 218
63.18136 218
63.20147 167
63.22159 205
63.2417 198
63.26182 199
63.28193 190
63.30204 189
63.32216 204
63.34227 164
63.36238 176
63.3825 178
63.40261 195
63.42272 190
63.44284 198
63.46295 192
63.48307 200
63.50318 208
63.52329 188
63.54341 215
63.56352 220
63.58363 194
63.60375 215
63.62386 191
63.64398 211
63.66409 222
63.6842 225
63.70432 246
63.72443 232
63.74454 245
63.76466 249
63.78477 219
63.80489 286
63.825 289
63.84511 301
63.86523 325
63.88534 368
63.90545 391
63.92557 462
63.94568 448
63.96579 525
63.98591 504
64.00602 552
64.02614 444
64.04625 408
64.06636 344
64.08648 334
64.10659 330
64.1267 336
64.14682 363
64.16693 328
64.18705 318
64.20716 301
64.22727 286
64.24739 240
64.2675 231
64.28761 202
64.30773 219
64.32784 189
64.34796 199
64.36807 217
64.38818 193
64.4083 207
64.42841 197
64.44852 189
64.46864 190
64.48875 196
64.50886 201
64.52898 206
64.54909 213
64.56921 171
64.58932 196
64.60943 182
64.62955 188
64.64966 172
64.66977 193
64.68989 183
64.71 208
64.73012 200
64.75023 181
64.77034 186
64.79046 204
64.81057 175
64.83068 197
64.8508 194
64.87091 174
64.89102 218
64.91114 223
64.93125 191
64.95137 188
64.97148 207
64.99159 174
65.01171 201
65.03182 200
65.05193 190
65.07205 188
65.09216 197
65.11228 193
65.13239 199
65.1525 174
65.17262 167
65.19273 190
65.21284 198
65.23296 194
65.25307 195
65.27319 204
65.2933 213
65.31341 193
65.33353 210
65.35364 197
65.37375 189
65.39387 186
65.41398 203
65.43409 191
65.45421 199
65.47432 204
65.49444 198
65.51455 211
65.53466 193
65.55478 198
65.57489 200
65.595 217
65.61512 204
65.63523 217
65.65535 204
65.67546 234
65.69557 269
65.71569 263
65.7358 243
65.75591 243
65.77603 236
65.79614 211
65.81626 219
65.83637 227
65.85648 214
65.8766 234
65.89671 208
65.91682 238
65.93694 252
65.95705 195
65.97716 205
65.99728 172
66.01739 202
66.03751 196
66.05762 197
66.07773 206
66.09785 203
66.11796 171
66.13807 173
66.15819 190
66.1783 174
66.19842 179
66.21853 198
66.23864 202
66.25876 194
66.27887 192
66.29898 192
66.3191 181
66.33921 210
66.35933 208
66.37944 202
66.39955 182
66.41967 191
66.43978 194
66.45989 192
66.48001 197
66.50012 201
66.52023 169
66.54035 188
66.56046 196
66.58058 172
66.60069 211
66.6208 200
66.64092 195
66.66103 183
66.68114 169
66.70126 179
66.72137 197
66.74149 197
66.7616 196
66.78171 182
66.80183 186
66.82194 164
66.84205 185
66.86217 171
66.88228 212
66.90239 180
66.92251 184
66.94262 209
66.96274 187
66.98285 198
67.00296 205
67.02308 198
67.04319 198
67.0633 205
67.08342 208
67.10353 196
67.12365 203
67.14376 204
67.16387 196
67.18399 225
67.2041 219
67.22421 230
67.24433 245
67.26444 235
67.28456 245
67.30467 273
67.32478 254
67.3449 283
67.36501 269
67.38512 270
67.40524 304
67.42535 308
67.44546 382
67.46558 350
67.48569 421
67.50581 431
67.52592 491
67.54603 565
67.56615 652
67.58626 685
67.60637 782
67.62649 954
67.6466 1063
67.66672 1118
67.68683 1194
67.70694 1193
67.72706 1131
67.74717 933
67.76728 824
67.7874 751
67.80751 742
67.82763 809
67.84774 824
67.86785 821
67.88797 909
67.90808 964
67.92819 859
67.94831 874
67.96842 889
67.98853 969
68.00865 995
68.02876 1192
68.04888 1373
68.06899 1404
68.0891 1528
68.10922 1643
68.12933 1437
68.14944 1329
68.16956 1198
68.18967 1186
68.20979 1300
68.2299 1328
68.25001 1431
68.27013 1425
68.29024 1424
68.31035 1200
68.33047 1044
68.35058 845
68.3707 660
68.39081 602
68.41092 589
68.43104 605
68.45115 580
68.47126 558
68.49138 536
68.51149 385
68.5316 362
68.55172 308
68.57183 285
68.59195 241
68.61206 253
68.63217 239
68.65229 250
68.6724 227
68.69251 228
68.71263 220
68.73274 191
68.75286 224
68.77297 219
68.79308 201
68.8132 211
68.83331 186
68.85342 187
68.87354 208
68.89365 210
68.91376 209
68.93388 216
68.95399 177
68.97411 187
68.99422 220
69.01433 191
69.03445 176
69.05456 181
69.07467 199
69.09479 201
69.1149 194
69.13502 188
69.15513 181
69.17524 178
69.19536 181
69.21547 178
69.23558 180
69.2557 178
69.27581 162
69.29593 185
69.31604 195
69.33615 184
69.35627 169
69.37638 171
69.39649 172
69.41661 164
69.43672 192
69.45683 177
69.47695 202
69.49706 190
69.51718 186
69.53729 181
69.5574 157
69.57752 167
69.59763 182
69.61774 176
69.63786 176
69.65797 181
69.67809 192
69.6982 177
69.71831 187
69.73843 178
69.75854 178
69.77865 157
69.79877 166
69.81888 145
69.839 163
69.85911 190
69.87922 195
69.89934 193
69.91945 182
69.93956 164
69.95968 174
69.97979 173
69.9999 186
70.02002 202
70.04013 183
70.06025 194
70.08036 179
70.10047 182
70.12059 164
70.1407 193
70.16081 176
70.18093 172
70.20104 184
70.22116 188
70.24127 178
70.26138 183
70.2815 173
70.30161 156
70.32172 198
70.34184 181
70.36195 184
70.38207 162
70.40218 170
70.42229 180
70.44241 171
70.46252 185
70.48263 159
70.50275 170
70.52286 164
70.54297 158
70.56309 195
70.5832 172
70.60332 130
70.62343 187
70.64354 191
70.66366 174
70.68377 164
70.70388 164
70.724 181
70.74411 156
70.76423 177
70.78434 179
70.80445 157
70.82457 165
70.84468 171
70.86479 182
70.88491 212
70.90502 178
70.92513 159
70.94525 160
70.96536 184
70.98548 171
71.00559 166
71.0257 155
71.04582 173
71.06593 174
71.08604 180
71.10616 164
71.12627 205
71.14639 164
71.1665 189
71.18661 153
71.20673 169
71.22684 154
71.24695 167
71.26707 141
71.28718 159
71.3073 159
71.32741 163
71.34752 171
71.36764 179
71.38775 175
71.40786 190
71.42798 150
71.44809 167
71.4682 188
71.48832 188
71.50843 177
71.52855 175
71.54866 164
71.56877 155
71.58889 169
71.609 170
71.62911 154
71.64923 150
71.66934 177
71.68946 167
71.70957 185
71.72968 182
71.7498 170
71.76991 196
71.79002 199
71.81014 191
71.83025 168
71.85037 187
71.87048 191
71.89059 194
71.91071 175
71.93082 171
71.95093 193
71.97105 183
71.99116 197
72.01127 179
72.03139 201
72.0515 170
72.07162 213
72.09173 201
72.11184 202
72.13196 190
72.15207 185
72.17218 169
72.1923 195
72.21241 161
72.23253 173
72.25264 179
72.27275 183
72.29287 179
72.31298 160
72.33309 204
72.35321 168
72.37332 184
72.39344 183
72.41355 163
72.43366 171
72.45378 176
72.47389 168
72.494 171
72.51412 155
72.53423 175
72.55434 178
72.57446 170
72.59457 163
72.61469 172
72.6348 196
72.65491 176
72.67503 176
72.69514 165
72.71525 163
72.73537 174
72.75548 173
72.7756 166
72.79571 182
72.81582 171
72.83594 200
72.85605 195
72.87616 190
72.89628 159
72.91639 180
72.9365 189
72.95662 162
72.97673 206
72.99685 201
73.01696 202
73.03707 183
73.05719 199
73.0773 215
73.09741 200
73.11753 218
73.13764 235
73.15776 211
73.17787 237
73.19798 244
73.2181 242
73.23821 282
73.25832 273
73.27844 334
73.29855 315
73.31867 392
73.33878 416
73.35889 434
73.37901 465
73.39912 481
73.41923 491
73.43935 468
73.45946 473
73.47957 371
73.49969 323
73.5198 285
73.53992 288
73.56003 341
73.58014 310
73.60026 340
73.62037 344
73.64048 355
73.6606 326
73.68071 286
73.70083 260
73.72094 245
73.74105 229
73.76117 236
73.78128 175
73.80139 189
73.82151 188
73.84162 171
73.86174 171
73.88185 213
73.90196 190
73.92208 201
73.94219 192
73.9623 164
73.98242 177
74.00253 170
74.02264 170
74.04276 172
74.06287 161
74.08299 163
74.1031 167
74.12321 179
74.14333 159
74.16344 182
74.18355 164
74.20367 166
74.22378 170
74.2439 171
74.26401 195
74.28412 184
74.30424 177
74.32435 165
74.34446 169
74.36458 175
74.38469 166
74.40481 181
74.42492 162
74.44503 153
74.46515 189
74.48526 207
74.50537 176
74.52549 180
74.5456 182
74.56571 167
74.58583 170
74.60594 179
74.62606 202
74.64617 173
74.66628 160
74.6864 169
74.70651 156
74.72662 173
74.74674 151
74.76685 167
74.78697 178
74.80708 171
74.82719 189
74.84731 177
74.86742 166
74.88753 176
74.90765 167
74.92776 180
74.94787 198
74.96799 172
74.9881 166
75.00822 158
