3.00117 21060
3.02128 20114
3.0414 19909
3.06151 19187
3.08162 18383
3.10174 18382
3.12185 17471
3.14197 17220
3.16208 16534
3.18219 16125
3.20231 15502
3.22242 15204
3.24253 14823
3.26265 14485
3.28276 13650
3.30288 13773
3.32299 13089
3.3431 12558
3.36322 12459
3.38333 11701
3.40344 11397
3.42356 10995
3.44367 10837
3.46379 10361
3.4839 10176
3.50401 9711
3.52413 9332
3.54424 9240
3.56435 8833
3.58447 8333
3.60458 8192
3.62469 7710
3.64481 7700
3.66492 7587
3.68504 6877
3.70515 6735
3.72526 6464
3.74538 6204
3.76549 6024
3.7856 5690
3.80572 5489
3.82583 5218
3.84595 5269
3.86606 4980
3.88617 4619
3.90629 4499
3.9264 4494
3.94651 4091
3.96663 4179
3.98674 3744
4.00686 3737
4.02697 3473
4.04708 3357
4.0672 3367
4.08731 3160
4.10742 3081
4.12754 2916
4.14765 2784
4.16776 2643
4.18788 2444
4.20799 2534
4.22811 2285
4.24822 2368
4.26833 2217
4.28845 2107
4.30856 2127
4.32867 2015
4.34879 2125
4.3689 2010
4.38902 1784
4.40913 1851
4.42924 1767
4.44936 1820
4.46947 1846
4.48958 1639
4.5097 1645
4.52981 1588
4.54992 1649
4.57004 1609
4.59015 1500
4.61027 1539
4.63038 1476
4.65049 1435
4.67061 1506
4.69072 1335
4.71083 1317
4.73095 1334
4.75106 1398
4.77118 1366
4.79129 1262
4.8114 1250
4.83152 1175
4.85163 1179
4.87174 1216
4.89186 1154
4.91197 1080
4.93209 1178
4.9522 1069
4.97231 1143
4.99243 1053
5.01254 1005
5.03265 1014
5.05277 1033
5.07288 992
5.09299 882
5.11311 894
5.13322 929
5.15334 916
5.17345 836
5.19356 848
5.21368 835
5.23379 876
5.2539 868
5.27402 827
5.29413 838
5.31425 861
5.33436 802
5.35447 753
5.37459 794
5.3947 779
5.41481 716
5.43493 798
5.45504 722
5.47516 716
5.49527 726
5.51538 718
5.5355 705
5.55561 694
5.57572 650
5.59584 700
5.61595 616
5.63606 670
5.65618 661
5.67629 670
5.69641 629
5.71652 602
5.73663 627
5.75675 567
5.77686 592
5.79697 540
5.81709 552
5.8372 577
5.85732 580
5.87743 565
5.89754 558
5.91766 556
5.93777 548
5.95788 581
5.978 539
5.99811 544
6.01823 511
6.03834 528
6.05845 523
6.07857 485
6.09868 498
6.11879 504
6.13891 489
6.15902 455
6.17913 478
6.19925 517
6.21936 489
6.23948 481
6.25959 494
6.2797 459
6.29982 498
6.31993 477
6.34004 488
6.36016 459
6.38027 473
6.40039 420
6.4205 447
6.44061 453
6.46073 440
6.48084 423
6.50095 410
6.52107 447
6.54118 447
6.56129 406
6.58141 407
6.60152 467
6.62164 446
6.64175 419
6.66186 419
6.68198 462
6.70209 427
6.7222 418
6.74232 392
6.76243 436
6.78255 432
6.80266 392
6.82277 456
6.84289 405
6.863 440
6.88311 423
6.90323 411
6.92334 412
6.94346 388
6.96357 408
6.98368 407
7.0038 357
7.02391 405
7.04402 378
7.06414 383
7.08425 383
7.10436 381
7.12448 357
7.14459 395
7.16471 363
7.18482 365
7.20493 357
7.22505 416
7.24516 354
7.26527 374
7.28539 379
7.3055 354
7.32562 364
7.34573 381
7.36584 412
7.38596 378
7.40607 372
7.42618 330
7.4463 376
7.46641 368
7.48653 353
7.50664 341
7.52675 375
7.54687 342
7.56698 350
7.58709 357
7.60721 346
7.62732 369
7.64743 374
7.66755 385
7.68766 386
7.70778 360
7.72789 357
7.748 371
7.76812 373
7.78823 361
7.80834 343
7.82846 381
7.84857 378
7.86869 368
7.8888 394
7.90891 439
7.92903 352
7.94914 343
7.96925 388
7.98937 366
8.00948 371
8.0296 375
8.04971 428
8.06982 327
8.08994 365
8.11005 388
8.13016 364
8.15028 417
8.17039 420
8.1905 405
8.21062 423
8.23073 427
8.25085 420
8.27096 428
8.29107 429
8.31119 410
8.3313 463
8.35141 419
8.37153 440
8.39164 462
8.41176 455
8.43187 442
8.45198 449
8.4721 414
8.49221 441
8.51232 457
8.53244 430
8.55255 451
8.57266 444
8.59278 409
8.61289 450
8.63301 407
8.65312 416
8.67323 380
8.69335 393
8.71346 403
8.73357 370
8.75369 395
8.7738 342
8.79392 366
8.81403 338
8.83414 378
8.85426 354
8.87437 356
8.89448 355
8.9146 292
8.93471 367
8.95483 356
8.97494 329
8.99505 328
9.01517 356
9.03528 317
9.05539 350
9.07551 327
9.09562 303
9.11573 319
9.13585 317
9.15596 298
9.17608 277
9.19619 267
9.2163 286
9.23642 335
9.25653 288
9.27664 280
9.29676 283
9.31687 279
9.33699 279
9.3571 285
9.37721 278
9.39733 271
9.41744 301
9.43755 265
9.45767 294
9.47778 290
9.4979 256
9.51801 299
9.53812 260
9.55824 277
9.57835 266
9.59846 297
9.61858 289
9.63869 286
9.6588 284
9.67892 245
9.69903 251
9.71915 270
9.73926 237
9.75937 255
9.77949 265
9.7996 260
9.81971 254
9.83983 254
9.85994 237
9.88006 244
9.90017 217
9.92028 238
9.9404 278
9.96051 268
9.98062 270
10.00074 267
10.02085 288
10.04097 266
10.06108 246
10.08119 241
10.10131 265
10.12142 247
10.14153 263
10.16165 283
10.18176 238
10.20187 225
10.22199 249
10.2421 274
10.26222 253
10.28233 247
10.30244 239
10.32256 248
10.34267 245
10.36278 239
10.3829 246
10.40301 272
10.42313 273
10.44324 258
10.46335 233
10.48347 251
10.50358 270
10.52369 252
10.54381 235
10.56392 250
10.58403 260
10.60415 268
10.62426 268
10.64438 227
10.66449 244
10.6846 230
10.70472 246
10.72483 246
10.74494 247
10.76506 230
10.78517 256
10.80529 247
10.8254 230
10.84551 217
10.86563 255
10.88574 227
10.90585 243
10.92597 234
10.94608 225
10.9662 241
10.98631 245
11.00642 236
11.02654 256
11.04665 238
11.06676 268
11.08688 251
11.10699 271
11.1271 228
11.14722 233
11.16733 229
11.18745 243
11.20756 264
11.22767 233
11.24779 228
11.2679 232
11.28801 217
11.30813 264
11.32824 232
11.34836 232
11.36847 247
11.38858 244
11.4087 243
11.42881 252
11.44892 219
11.46904 262
11.48915 206
11.50927 207
11.52938 212
11.54949 231
11.56961 237
11.58972 220
11.60983 208
11.62995 232
11.65006 227
11.67017 235
11.69029 255
11.7104 229
11.73052 234
11.75063 243
11.77074 239
11.79086 248
11.81097 194
11.83108 219
11.8512 211
11.87131 216
11.89143 217
11.91154 238
11.93165 241
11.95177 220
11.97188 226
11.99199 251
12.01211 257
12.03222 237
12.05234 263
12.07245 253
12.09256 246
12.11268 252
12.13279 227
12.1529 260
12.17302 212
12.19313 227
12.21324 208
12.23336 248
12.25347 200
12.27359 221
12.2937 225
12.31381 249
12.33393 228
12.35404 237
12.37415 237
12.39427 226
12.41438 239
12.4345 242
12.45461 224
12.47472 240
12.49484 251
12.51495 243
12.53506 243
12.55518 239
12.57529 213
12.5954 251
12.61552 202
12.63563 233
12.65575 258
12.67586 238
12.69597 244
12.71609 207
12.7362 253
12.75631 221
12.77643 216
12.79654 243
12.81666 228
12.83677 224
12.85688 246
12.877 249
12.89711 228
12.91722 254
12.93734 257
12.95745 195
12.97757 235
12.99768 230
13.01779 246
13.03791 232
13.05802 219
13.07813 244
13.09825 264
13.11836 267
13.13847 249
13.15859 222
13.1787 221
13.19882 238
13.21893 229
13.23904 227
13.25916 224
13.27927 233
13.29938 234
13.3195 233
13.33961 231
13.35973 250
13.37984 225
13.39995 234
13.42007 223
13.44018 194
13.46029 274
13.48041 208
13.50052 240
13.52064 244
13.54075 249
13.56086 238
13.58098 231
13.60109 236
13.6212 235
13.64132 248
13.66143 277
13.68154 228
13.70166 263
13.72177 216
13.74189 249
13.762 259
13.78211 251
13.80223 243
13.82234 265
13.84245 287
13.86257 257
13.88268 225
13.9028 265
13.92291 253
13.94302 241
13.96314 232
13.98325 218
14.00336 247
14.02348 200
14.04359 222
14.06371 214
14.08382 213
14.10393 206
14.12405 209
14.14416 233
14.16427 220
14.18439 231
14.2045 204
14.22461 240
14.24473 247
14.26484 238
14.28496 220
14.30507 200
14.32518 232
14.3453 203
14.36541 203
14.38552 212
14.40564 236
14.42575 212
14.44587 209
14.46598 221
14.48609 224
14.50621 224
14.52632 228
14.54643 203
14.56655 230
14.58666 197
14.60677 209
14.62689 225
14.647 230
14.66712 199
14.68723 244
14.70734 243
14.72746 225
14.74757 221
14.76768 239
14.7878 213
14.80791 213
14.82803 205
14.84814 220
14.86825 197
14.88837 226
14.90848 245
14.92859 224
14.94871 227
14.96882 200
14.98894 225
15.00905 223
15.02916 237
15.04928 240
15.06939 227
15.0895 225
15.10962 250
15.12973 230
15.14984 234
15.16996 208
15.19007 237
15.21019 214
15.2303 204
15.25041 228
15.27053 232
15.29064 223
15.31075 261
15.33087 181
15.35098 211
15.3711 210
15.39121 208
15.41132 210
15.43144 230
15.45155 229
15.47166 211
15.49178 226
15.51189 224
15.53201 201
15.55212 209
15.57223 225
15.59235 219
15.61246 205
15.63257 225
15.65269 195
15.6728 199
15.69291 188
15.71303 207
15.73314 239
15.75326 250
15.77337 208
15.79348 234
15.8136 230
15.83371 197
15.85382 260
15.87394 212
15.89405 197
15.91417 207
15.93428 223
15.95439 237
15.97451 198
15.99462 204
16.01473 204
16.03485 230
16.05496 226
16.07508 199
16.09519 222
16.1153 207
16.13542 251
16.15553 214
16.17564 218
16.19576 200
16.21587 200
16.23598 242
16.2561 216
16.27621 200
16.29633 238
16.31644 205
16.33655 213
16.35667 210
16.37678 218
16.39689 209
16.41701 222
16.43712 213
16.45724 233
16.47735 209
16.49746 230
16.51758 234
16.53769 230
16.5578 218
16.57792 198
16.59803 232
16.61814 227
16.63826 220
16.65837 250
16.67849 215
16.6986 225
16.71871 223
16.73883 207
16.75894 238
16.77905 244
16.79917 232
16.81928 208
16.8394 205
16.85951 236
16.87962 232
16.89974 233
16.91985 237
16.93996 227
16.96008 242
16.98019 193
17.00031 223
17.02042 235
17.04053 200
17.06065 211
17.08076 218
17.10087 210
17.12099 206
17.1411 202
17.16121 216
17.18133 226
17.20144 211
17.22156 198
17.24167 225
17.26178 234
17.2819 234
17.30201 235
17.32212 227
17.34224 239
17.36235 243
17.38247 225
17.40258 210
17.42269 220
17.44281 230
17.46292 218
17.48303 226
17.50315 249
17.52326 228
17.54338 223
17.56349 252
17.5836 229
17.60372 216
17.62383 210
17.64394 219
17.66406 211
17.68417 238
17.70428 228
17.7244 230
17.74451 238
17.76463 194
17.78474 244
17.80485 227
17.82497 248
17.84508 231
17.86519 266
17.88531 242
17.90542 228
17.92554 211
17.94565 240
17.96576 244
17.98588 213
18.00599 217
18.0261 240
18.04622 233
18.06633 180
18.08645 221
18.10656 229
18.12667 235
18.14679 240
18.1669 219
18.18701 241
18.20713 225
18.22724 229
18.24735 221
18.26747 210
18.28758 211
18.3077 219
18.32781 205
18.34792 243
18.36804 221
18.38815 200
18.40826 229
18.42838 220
18.44849 232
18.46861 206
18.48872 227
18.50883 239
18.52895 236
18.54906 247
18.56917 217
18.58929 243
18.6094 229
18.62951 218
18.64963 223
18.66974 232
18.68986 256
18.70997 230
18.73008 218
18.7502 242
18.77031 262
18.79042 224
18.81054 244
18.83065 226
18.85077 249
18.87088 259
18.89099 235
18.91111 232
18.93122 249
18.95133 209
18.97145 218
18.99156 247
19.01168 220
19.03179 242
19.0519 257
19.07202 212
19.09213 229
19.11224 242
19.13236 223
19.15247 212
19.17258 231
19.1927 216
19.21281 258
19.23293 255
19.25304 257
19.27315 297
19.29327 277
19.31338 277
19.33349 273
19.35361 272
19.37372 288
19.39384 276
19.41395 298
19.43406 269
19.45418 316
19.47429 310
19.4944 365
19.51452 348
19.53463 373
19.55475 398
19.57486 386
19.59497 408
19.61509 439
19.6352 485
19.65531 456
19.67543 488
19.69554 493
19.71565 483
19.73577 512
19.75588 527
19.776 518
19.79611 529
19.81622 523
19.83634 522
19.85645 523
19.87656 536
19.89668 496
19.91679 519
19.93691 447
19.95702 486
19.97713 428
19.99725 493
20.01736 422
20.03747 463
20.05759 429
20.0777 443
20.09782 491
20.11793 392
20.13804 414
20.15816 412
20.17827 446
20.19838 461
20.2185 442
20.23861 426
20.25872 408
20.27884 416
20.29895 371
20.31907 415
20.33918 406
20.35929 411
20.37941 417
20.39952 408
20.41963 411
20.43975 422
20.45986 422
20.47998 404
20.50009 428
20.5202 454
20.54032 466
20.56043 510
20.58054 460
20.60066 513
20.62077 547
20.64088 686
20.661 708
20.68111 913
20.70123 1146
20.72134 1595
20.74145 2171
20.76157 2860
20.78168 3769
20.80179 4847
20.82191 5497
20.84202 5534
20.86214 5253
20.88225 4384
20.90236 3230
20.92248 2307
20.94259 1487
20.9627 978
20.98282 744
21.00293 610
21.02305 561
21.04316 567
21.06327 477
21.08339 469
21.1035 439
21.12361 401
21.14373 387
21.16384 369
21.18395 347
21.20407 312
21.22418 364
21.2443 323
21.26441 375
21.28452 355
21.30464 314
21.32475 328
21.34486 339
21.36498 326
21.38509 331
21.40521 334
21.42532 319
21.44543 337
21.46555 328
21.48566 303
21.50577 317
21.52589 335
21.546 299
21.56612 291
21.58623 330
21.60634 314
21.62646 332
21.64657 291
21.66668 317
21.6868 285
21.70691 304
21.72702 291
21.74714 309
21.76725 320
21.78737 307
21.80748 305
21.82759 321
21.84771 314
21.86782 337
21.88793 367
21.90805 401
21.92816 408
21.94828 470
21.96839 473
21.9885 461
22.00862 424
22.02873 418
22.04884 396
22.06896 337
22.08907 310
22.10919 287
22.1293 290
22.14941 286
22.16953 290
22.18964 296
22.20975 297
22.22987 304
22.24998 299
22.27009 298
22.29021 292
22.31032 312
22.33044 274
22.35055 279
22.37066 286
22.39078 299
22.41089 272
22.431 268
22.45112 292
22.47123 306
22.49135 321
22.51146 304
22.53157 285
22.55169 295
22.5718 260
22.59191 272
22.61203 317
22.63214 308
22.65225 273
22.67237 285
22.69248 284
22.7126 285
22.73271 268
22.75282 304
22.77294 310
22.79305 320
22.81316 304
22.83328 308
22.85339 299
22.87351 313
22.89362 327
22.91373 309
22.93385 324
22.95396 304
22.97407 347
22.99419 333
23.0143 386
23.03442 346
23.05453 364
23.07464 350
23.09476 349
23.11487 350
23.13498 291
23.1551 286
23.17521 313
23.19532 311
23.21544 288
23.23555 301
23.25567 311
23.27578 300
23.29589 269
23.31601 331
23.33612 303
23.35623 317
23.37635 343
23.39646 299
23.41658 286
23.43669 307
23.4568 333
23.47692 343
23.49703 354
23.51714 342
23.53726 367
23.55737 354
23.57749 361
23.5976 408
23.61771 381
23.63783 340
23.65794 321
23.67805 322
23.69817 351
23.71828 332
23.73839 309
23.75851 315
23.77862 316
23.79874 348
23.81885 317
23.83896 340
23.85908 318
23.87919 354
23.8993 404
23.91942 350
23.93953 401
23.95965 347
23.97976 359
23.99987 376
24.01999 372
24.0401 374
24.06021 329
24.08033 306
24.10044 296
24.12056 316
24.14067 288
24.16078 338
24.1809 345
24.20101 313
24.22112 366
24.24124 368
24.26135 303
24.28146 350
24.30158 350
24.32169 344
24.34181 338
24.36192 310
24.38203 331
24.40215 344
24.42226 329
24.44237 307
24.46249 311
24.4826 264
24.50272 295
24.52283 296
24.54294 276
24.56306 297
24.58317 257
24.60328 288
24.6234 282
24.64351 291
24.66362 289
24.68374 272
24.70385 293
24.72397 262
24.74408 279
24.76419 315
24.78431 287
24.80442 274
24.82453 288
24.84465 255
24.86476 302
24.88488 267
24.90499 270
24.9251 286
24.94522 289
24.96533 269
24.98544 257
25.00556 303
25.02567 279
25.04579 270
25.0659 297
25.08601 284
25.10613 311
25.12624 286
25.14635 302
25.16647 295
25.18658 306
25.20669 333
25.22681 339
25.24692 306
25.26704 313
25.28715 311
25.30726 270
25.32738 291
25.34749 293
25.3676 305
25.38772 336
25.40783 293
25.42795 333
25.44806 342
25.46817 332
25.48829 357
25.5084 369
25.52851 345
25.54863 357
25.56874 347
25.58886 372
25.60897 378
25.62908 397
25.6492 393
25.66931 413
25.68942 439
25.70954 412
25.72965 492
25.74976 420
25.76988 427
25.78999 447
25.81011 460
25.83022 467
25.85033 461
25.87045 435
25.89056 434
25.91067 461
25.93079 454
25.9509 414
25.97102 461
25.99113 474
26.01124 478
26.03136 448
26.05147 481
26.07158 543
26.0917 532
26.11181 532
26.13193 577
26.15204 603
26.17215 655
26.19227 595
26.21238 703
26.23249 770
26.25261 738
26.27272 887
26.29283 937
26.31295 1015
26.33306 1128
26.35318 1280
26.37329 1465
26.3934 1755
26.41352 2183
26.43363 2762
26.45374 3834
26.47386 5071
26.49397 7251
26.51409 9755
26.5342 13255
26.55431 17041
26.57443 21430
26.59454 24290
26.61465 24494
26.63477 23385
26.65488 19790
26.67499 15139
26.69511 11152
26.71522 7747
26.73534 4804
26.75545 2932
26.77556 1951
26.79568 1472
26.81579 1333
26.8359 1187
26.85602 1077
26.87613 992
26.89625 954
26.91636 861
26.93647 856
26.95659 712
26.9767 679
26.99681 732
27.01693 652
27.03704 666
27.05716 616
27.07727 577
27.09738 606
27.1175 572
27.13761 522
27.15772 501
27.17784 476
27.19795 489
27.21806 500
27.23818 483
27.25829 488
27.27841 445
27.29852 502
27.31863 464
27.33875 489
27.35886 533
27.37897 482
27.39909 545
27.4192 553
27.43932 583
27.45943 551
27.47954 568
27.49966 623
27.51977 554
27.53988 503
27.56 490
27.58011 507
27.60023 521
27.62034 501
27.64045 493
27.66057 532
27.68068 573
27.70079 641
27.72091 655
27.74102 698
27.76113 694
27.78125 718
27.80136 715
27.82148 673
27.84159 666
27.8617 645
27.88182 594
27.90193 611
27.92204 602
27.94216 657
27.96227 618
27.98239 580
28.0025 563
28.02261 495
28.04273 519
28.06284 427
28.08295 408
28.10307 370
28.12318 421
28.1433 441
28.16341 407
28.18352 405
28.20364 403
28.22375 435
28.24386 393
28.26398 372
28.28409 435
28.3042 417
28.32432 437
28.34443 375
28.36455 385
28.38466 360
28.40477 348
28.42489 379
28.445 338
28.46511 355
28.48523 345
28.50534 303
28.52546 304
28.54557 312
28.56568 342
28.5858 318
28.60591 298
28.62602 336
28.64614 338
28.66625 334
28.68636 305
28.70648 279
28.72659 333
28.74671 333
28.76682 316
28.78693 311
28.80705 311
28.82716 324
28.84727 329
28.86739 336
28.8875 329
28.90762 375
28.92773 324
28.94784 300
28.96796 302
28.98807 300
29.00818 344
29.0283 319
29.04841 361
29.06853 344
29.08864 319
29.10875 346
29.12887 353
29.14898 371
29.16909 302
29.18921 396
29.20932 418
29.22943 428
29.24955 517
29.26966 494
29.28978 538
29.30989 617
29.33 738
29.35012 820
29.37023 899
29.39034 925
29.41046 931
29.43057 936
29.45069 821
29.4708 796
29.49091 687
29.51103 657
29.53114 569
29.55125 516
29.57137 474
29.59148 444
29.6116 424
29.63171 394
29.65182 398
29.67194 401
29.69205 381
29.71216 408
29.73228 364
29.75239 376
29.7725 348
29.79262 381
29.81273 366
29.83285 359
29.85296 359
29.87307 343
29.89319 320
29.9133 340
29.93341 292
29.95353 296
29.97364 324
29.99376 284
30.01387 327
30.03398 322
30.0541 275
30.07421 279
30.09432 308
30.11444 299
30.13455 294
30.15467 289
30.17478 299
30.19489 291
30.21501 320
30.23512 311
30.25523 354
30.27535 321
30.29546 365
30.31557 342
30.33569 352
30.3558 372
30.37592 358
30.39603 347
30.41614 355
30.43626 354
30.45637 317
30.47648 352
30.4966 326
30.51671 299
30.53683 322
30.55694 312
30.57705 268
30.59717 275
30.61728 285
30.63739 288
30.65751 264
30.67762 316
30.69773 323
30.71785 345
30.73796 342
30.75808 342
30.77819 320
30.7983 331
30.81842 378
30.83853 343
30.85864 350
30.87876 319
30.89887 336
30.91899 301
30.9391 285
30.95921 291
30.97933 260
30.99944 266
31.01955 287
31.03967 257
31.05978 253
31.0799 258
31.10001 254
31.12012 290
31.14024 251
31.16035 264
31.18046 255
31.20058 283
31.22069 260
31.2408 289
31.26092 234
31.28103 285
31.30115 253
31.32126 280
31.34137 287
31.36149 297
31.3816 263
31.40171 294
31.42183 302
31.44194 281
31.46206 241
31.48217 263
31.50228 263
31.5224 281
31.54251 263
31.56262 254
31.58274 243
31.60285 248
31.62297 283
31.64308 263
31.66319 263
31.68331 274
31.70342 242
31.72353 248
31.74365 270
31.76376 280
31.78387 258
31.80399 266
31.8241 259
31.84422 264
31.86433 228
31.88444 235
31.90456 246
31.92467 254
31.94478 237
31.9649 228
31.98501 270
32.00513 259
32.02524 249
32.04535 254
32.06547 212
32.08558 236
32.10569 243
32.12581 268
32.14592 259
32.16604 244
32.18615 265
32.20626 230
32.22638 218
32.24649 252
32.2666 243
32.28672 239
32.30683 261
32.32694 205
32.34706 266
32.36717 244
32.38729 248
32.4074 246
32.42751 255
32.44763 261
32.46774 261
32.48785 272
32.50797 250
32.52808 258
32.5482 241
32.56831 259
32.58842 216
32.60854 245
32.62865 248
32.64876 201
32.66888 247
32.68899 200
32.7091 221
32.72922 259
32.74933 239
32.76945 219
32.78956 224
32.80967 258
32.82979 244
32.8499 260
32.87001 254
32.89013 250
32.91024 243
32.93036 229
32.95047 223
32.97058 236
32.9907 264
33.01081 220
33.03092 240
33.05104 262
33.07115 247
33.09127 222
33.11138 258
33.13149 221
33.15161 226
33.17172 230
33.19183 219
33.21195 220
33.23206 255
33.25217 262
33.27229 215
33.2924 236
33.31252 216
33.33263 221
33.35274 236
33.37286 242
33.39297 214
33.41308 226
33.4332 215
33.45331 217
33.47343 209
33.49354 240
33.51365 236
33.53377 213
33.55388 227
33.57399 220
33.59411 240
33.61422 219
33.63434 212
33.65445 234
33.67456 245
33.69468 233
33.71479 238
33.7349 215
33.75502 295
33.77513 258
33.79524 242
33.81536 255
33.83547 225
33.85559 232
33.8757 247
33.89581 250
33.91593 222
33.93604 243
33.95615 238
33.97627 242
33.99638 238
34.0165 269
34.03661 240
34.05672 185
34.07684 244
34.09695 276
34.11706 266
34.13718 238
34.15729 269
34.17741 265
34.19752 259
34.21763 264
34.23775 302
34.25786 254
34.27797 317
34.29809 330
34.3182 314
34.33831 340
34.35843 335
34.37854 358
34.39866 332
34.41877 368
34.43888 353
34.459 386
34.47911 400
34.49922 395
34.51934 406
34.53945 461
34.55957 454
34.57968 428
34.59979 444
34.61991 453
34.64002 470
34.66013 448
34.68025 416
34.70036 428
34.72047 463
34.74059 441
34.7607 424
34.78082 405
34.80093 390
34.82104 391
34.84116 392
34.86127 359
34.88138 401
34.9015 408
34.92161 391
34.94173 396
34.96184 382
34.98195 377
35.00207 342
35.02218 350
35.04229 379
35.06241 385
35.08252 389
35.10264 352
35.12275 348
35.14286 367
35.16298 323
35.18309 381
35.2032 369
35.22332 363
35.24343 425
35.26354 410
35.28366 396
35.30377 381
35.32389 388
35.344 342
35.36411 411
35.38423 376
35.40434 362
35.42445 329
35.44457 359
35.46468 372
35.4848 360
35.50491 376
35.52502 348
35.54514 361
35.56525 335
35.58536 333
35.60548 328
35.62559 314
35.64571 308
35.66582 343
35.68593 318
35.70605 276
35.72616 305
35.74627 341
35.76639 304
35.7865 265
35.80661 317
35.82673 301
35.84684 316
35.86696 335
35.88707 335
35.90718 331
35.9273 350
35.94741 359
35.96752 390
35.98764 379
36.00775 373
36.02787 363
36.04798 358
36.06809 378
36.08821 367
36.10832 335
36.12843 379
36.14855 339
36.16866 331
36.18878 305
36.20889 354
36.229 379
36.24912 369
36.26923 375
36.28934 439
36.30946 448
36.32957 493
36.34968 631
36.3698 691
36.38991 822
36.41003 994
36.43014 1244
36.45025 1407
36.47037 1744
36.49048 1903
36.51059 1896
36.53071 1839
36.55082 1505
36.57094 1288
36.59105 1121
36.61116 1020
36.63128 842
36.65139 678
36.6715 484
36.69162 401
36.71173 349
36.73184 372
36.75196 303
36.77207 338
36.79219 320
36.8123 321
36.83241 293
36.85253 312
36.87264 302
36.89275 302
36.91287 306
36.93298 299
36.9531 323
36.97321 311
36.99332 288
37.01344 290
37.03355 319
37.05366 320
37.07378 313
37.09389 302
37.11401 261
37.13412 291
37.15423 306
37.17435 309
37.19446 273
37.21457 261
37.23469 261
37.2548 278
37.27491 264
37.29503 260
37.31514 241
37.33526 261
37.35537 282
37.37548 277
37.3956 248
37.41571 271
37.43582 290
37.45594 283
37.47605 257
37.49617 260
37.51628 269
37.53639 279
37.55651 266
37.57662 246
37.59673 250
37.61685 246
37.63696 243
37.65708 288
37.67719 260
37.6973 262
37.71742 254
37.73753 261
37.75764 285
37.77776 295
37.79787 269
37.81798 273
37.8381 265
37.85821 266
37.87833 287
37.89844 275
37.91855 273
37.93867 288
37.95878 260
37.97889 256
37.99901 238
38.01912 267
38.03924 252
38.05935 258
38.07946 259
38.09958 248
38.11969 253
38.1398 265
38.15992 281
38.18003 249
38.20015 273
38.22026 251
38.24037 258
38.26049 241
38.2806 209
38.30071 239
38.32083 243
38.34094 246
38.36105 266
38.38117 227
38.40128 242
38.4214 231
38.44151 253
38.46162 228
38.48174 240
38.50185 238
38.52196 242
38.54208 259
38.56219 253
38.58231 237
38.60242 227
38.62253 242
38.64265 242
38.66276 245
38.68287 251
38.70299 224
38.7231 241
38.74321 234
38.76333 253
38.78344 234
38.80356 241
38.82367 216
38.84378 254
38.8639 235
38.88401 249
38.90412 226
38.92424 248
38.94435 278
38.96447 238
38.98458 223
39.00469 260
39.02481 268
39.04492 267
39.06503 288
39.08515 282
39.10526 270
39.12538 297
39.14549 303
39.1656 339
39.18572 369
39.20583 386
39.22594 464
39.24606 504
39.26617 533
39.28628 631
39.3064 743
39.32651 932
39.34663 1140
39.36674 1371
39.38685 1596
39.40697 1685
39.42708 1770
39.44719 1735
39.46731 1675
39.48742 1316
39.50754 1162
39.52765 1055
39.54776 979
39.56788 786
39.58799 615
39.6081 455
39.62822 407
39.64833 361
39.66845 342
39.68856 325
39.70867 335
39.72879 325
39.7489 292
39.76901 289
39.78913 287
39.80924 299
39.82935 257
39.84947 267
39.86958 261
39.8897 259
39.90981 274
39.92992 265
39.95004 293
39.97015 276
39.99026 288
40.01038 296
40.03049 318
40.05061 316
40.07072 349
40.09083 387
40.11095 451
40.13106 534
40.15117 545
40.17129 657
40.1914 779
40.21152 854
40.23163 963
40.25174 862
40.27186 893
40.29197 787
40.31208 729
40.3322 607
40.35231 574
40.37242 535
40.39254 430
40.41265 381
40.43277 308
40.45288 276
40.47299 262
40.49311 265
40.51322 270
40.53333 272
40.55345 255
40.57356 234
40.59368 245
40.61379 242
40.6339 236
40.65402 263
40.67413 245
40.69424 235
40.71436 251
40.73447 268
40.75458 237
40.7747 250
40.79481 262
40.81493 259
40.83504 244
40.85515 239
40.87527 240
40.89538 226
40.91549 240
40.93561 243
40.95572 240
40.97584 236
40.99595 255
41.01606 247
41.03618 244
41.05629 231
41.0764 250
41.09652 236
41.11663 239
41.13675 241
41.15686 229
41.17697 244
41.19709 209
41.2172 245
41.23731 252
41.25743 251
41.27754 240
41.29765 233
41.31777 218
41.33788 241
41.358 232
41.37811 213
41.39822 228
41.41834 242
41.43845 247
41.45856 246
41.47868 236
41.49879 266
41.51891 240
41.53902 248
41.55913 252
41.57925 276
41.59936 283
41.61947 270
41.63959 279
41.6597 262
41.67982 248
41.69993 251
41.72004 270
41.74016 267
41.76027 256
41.78038 256
41.8005 245
41.82061 258
41.84072 266
41.86084 246
41.88095 251
41.90107 269
41.92118 257
41.94129 243
41.96141 233
41.98152 248
42.00163 274
42.02175 245
42.04186 253
42.06198 275
42.08209 255
42.1022 288
42.12232 265
42.14243 312
42.16254 302
42.18266 333
42.20277 364
42.22289 439
42.243 426
42.26311 515
42.28323 558
42.30334 660
42.32345 838
42.34357 970
42.36368 1096
42.38379 1212
42.40391 1231
42.42402 1283
42.44414 1141
42.46425 982
42.48436 860
42.50448 796
42.52459 728
42.5447 633
42.56482 488
42.58493 430
42.60505 348
42.62516 291
42.64527 297
42.66539 312
42.6855 286
42.70561 285
42.72573 280
42.74584 274
42.76595 286
42.78607 280
42.80618 269
42.8263 229
42.84641 238
42.86652 269
42.88664 262
42.90675 241
42.92686 280
42.94698 270
42.96709 266
42.98721 248
43.00732 263
43.02743 255
43.04755 267
43.06766 299
43.08777 302
43.10789 311
43.128 309
43.14812 308
43.16823 284
43.18834 338
43.20846 320
43.22857 279
43.24868 300
43.2688 292
43.28891 297
43.30902 278
43.32914 239
43.34925 268
43.36937 246
43.38948 223
43.40959 230
43.42971 249
43.44982 259
43.46993 209
43.49005 228
43.51016 232
43.53028 221
43.55039 241
43.5705 230
43.59062 222
43.61073 224
43.63084 205
43.65096 222
43.67107 222
43.69119 217
43.7113 235
43.73141 207
43.75153 218
43.77164 207
43.79175 203
43.81187 239
43.83198 217
43.85209 212
43.87221 212
43.89232 212
43.91244 233
43.93255 204
43.95266 219
43.97278 218
43.99289 212
44.013 227
44.03312 230
44.05323 217
44.07335 200
44.09346 227
44.11357 203
44.13369 211
44.1538 232
44.17391 190
44.19403 230
44.21414 208
44.23426 223
44.25437 231
44.27448 221
44.2946 198
44.31471 235
44.33482 188
44.35494 203
44.37505 222
44.39516 227
44.41528 212
44.43539 179
44.45551 221
44.47562 212
44.49573 210
44.51585 190
44.53596 209
44.55607 201
44.57619 181
44.5963 206
44.61642 201
44.63653 206
44.65664 233
44.67676 200
44.69687 190
44.71698 220
44.7371 209
44.75721 211
44.77732 200
44.79744 209
44.81755 200
44.83767 219
44.85778 210
44.87789 234
44.89801 241
44.91812 234
44.93823 210
44.95835 180
44.97846 234
44.99858 204
45.01869 228
45.0388 221
45.05892 241
45.07903 214
45.09914 220
45.11926 231
45.13937 215
45.15949 216
45.1796 241
45.19971 242
45.21983 210
45.23994 230
45.26005 218
45.28017 245
45.30028 218
45.32039 215
45.34051 222
45.36062 239
45.38074 234
45.40085 206
45.42096 223
45.44108 251
45.46119 244
45.4813 287
45.50142 243
45.52153 290
45.54165 283
45.56176 358
45.58187 372
45.60199 402
45.6221 443
45.64221 513
45.66233 603
45.68244 691
45.70256 774
45.72267 844
45.74278 855
45.7629 848
45.78301 759
45.80312 703
45.82324 588
45.84335 543
45.86346 509
45.88358 492
45.90369 408
45.92381 402
45.94392 310
45.96403 266
45.98415 216
46.00426 217
46.02437 202
46.04449 201
46.0646 227
46.08472 204
46.10483 218
46.12494 204
46.14506 198
46.16517 197
46.18528 191
46.2054 230
46.22551 200
46.24563 216
46.26574 209
46.28585 211
46.30597 206
46.32608 183
46.34619 194
46.36631 173
46.38642 204
46.40653 188
46.42665 199
46.44676 201
46.46688 201
46.48699 218
46.5071 187
46.52722 193
46.54733 184
46.56744 200
46.58756 196
46.60767 194
46.62779 194
46.6479 216
46.66801 204
46.68813 213
46.70824 216
46.72835 178
46.74847 198
46.76858 222
46.78869 207
46.80881 199
46.82892 218
46.84904 213
46.86915 198
46.88926 195
46.90938 210
46.92949 193
46.9496 213
46.96972 215
46.98983 213
47.00995 225
47.03006 208
47.05017 214
47.07029 239
47.0904 230
47.11051 226
47.13063 226
47.15074 249
47.17086 250
47.19097 216
47.21108 237
47.2312 236
47.25131 242
47.27142 212
47.29154 241
47.31165 258
47.33176 228
47.35188 252
47.37199 257
47.39211 286
47.41222 304
47.43233 287
47.45245 285
47.47256 280
47.49267 285
47.51279 303
47.5329 273
47.55302 319
47.57313 292
47.59324 245
47.61336 289
47.63347 272
47.65358 270
47.6737 238
47.69381 240
47.71393 214
47.73404 231
47.75415 237
47.77427 182
47.79438 207
47.81449 195
47.83461 181
47.85472 227
47.87483 182
47.89495 207
47.91506 182
47.93518 183
47.95529 179
47.9754 182
47.99552 202
48.01563 201
48.03574 193
48.05586 205
48.07597 164
48.09609 215
48.1162 194
48.13631 205
48.15643 181
48.17654 176
48.19665 225
48.21677 229
48.23688 216
48.257 229
48.27711 223
48.29722 231
48.31734 235
48.33745 260
48.35756 257
48.37768 261
48.39779 261
48.4179 261
48.43802 251
48.45813 278
48.47825 295
48.49836 330
48.51847 273
48.53859 299
48.5587 311
48.57881 296
48.59893 314
48.61904 256
48.63916 295
48.65927 272
48.67938 279
48.6995 264
48.71961 290
48.73972 237
48.75984 209
48.77995 216
48.80006 217
48.82018 250
48.84029 208
48.86041 202
48.88052 192
48.90063 232
48.92075 216
48.94086 206
48.96097 238
48.98109 195
49.0012 220
49.02132 202
49.04143 210
49.06154 206
49.08166 206
49.10177 243
49.12188 221
49.142 242
49.16211 218
49.18223 207
49.20234 226
49.22245 195
49.24257 229
49.26268 195
49.28279 191
49.30291 207
49.32302 226
49.34313 221
49.36325 211
49.38336 177
49.40348 202
49.42359 229
49.4437 225
49.46382 194
49.48393 216
49.50404 214
49.52416 193
49.54427 259
49.56439 221
49.5845 233
49.60461 216
49.62473 230
49.64484 244
49.66495 271
49.68507 299
49.70518 277
49.7253 279
49.74541 313
49.76552 346
49.78564 388
49.80575 374
49.82586 454
49.84598 438
49.86609 481
49.8862 562
49.90632 661
49.92643 704
49.94655 905
49.96666 1104
49.98677 1259
50.00689 1588
50.027 1906
50.04711 2177
50.06723 2395
50.08734 2501
50.10746 2355
50.12757 2089
50.14768 1839
50.1678 1592
50.18791 1473
50.20802 1345
50.22814 1335
50.24825 1201
50.26837 920
50.28848 671
50.30859 512
50.32871 389
50.34882 340
50.36893 288
50.38905 311
50.40916 294
50.42927 261
50.44939 275
50.4695 272
50.48962 282
50.50973 297
50.52984 285
50.54996 280
50.57007 289
50.59018 261
50.6103 265
50.63041 296
50.65053 287
50.67064 272
50.69075 276
50.71087 239
50.73098 246
50.75109 232
50.77121 250
50.79132 218
50.81143 211
50.83155 211
50.85166 215
50.87178 191
50.89189 209
50.912 200
50.93212 216
50.95223 191
50.97234 185
50.99246 200
51.01257 177
51.03269 185
51.0528 212
51.07291 195
51.09303 211
51.11314 203
51.13325 203
51.15337 201
51.17348 192
51.1936 196
51.21371 231
51.23382 189
51.25394 201
51.27405 194
51.29416 200
51.31428 181
51.33439 205
51.3545 219
51.37462 196
51.39473 172
51.41485 176
51.43496 217
51.45507 191
51.47519 203
51.4953 177
51.51541 195
51.53553 184
51.55564 204
51.57576 176
51.59587 156
51.61598 188
51.6361 188
51.65621 175
51.67632 194
51.69644 171
51.71655 209
51.73667 161
51.75678 177
51.77689 185
51.79701 184
51.81712 162
51.83723 185
51.85735 180
51.87746 194
51.89757 176
51.91769 153
51.9378 145
51.95792 187
51.97803 166
51.99814 186
52.01826 211
52.03837 140
52.05848 171
52.0786 175
52.09871 175
52.11883 170
52.13894 177
52.15905 176
52.17917 205
52.19928 184
52.21939 183
52.23951 200
52.25962 156
52.27974 168
52.29985 170
52.31996 172
52.34008 189
52.36019 178
52.3803 159
52.40042 192
52.42053 206
52.44064 180
52.46076 202
52.48087 191
52.50099 187
52.5211 201
52.54121 195
52.56133 200
52.58144 185
52.60155 201
52.62167 184
52.64178 213
52.6619 209
52.68201 175
52.70212 188
52.72224 181
52.74235 177
52.76246 185
52.78258 190
52.80269 191
52.8228 187
52.84292 187
52.86303 200
52.88315 205
52.90326 196
52.92337 185
52.94349 204
52.9636 210
52.98371 184
53.00383 171
53.02394 210
53.04406 203
53.06417 200
53.08428 213
53.1044 218
53.12451 226
53.14462 193
53.16474 187
53.18485 229
53.20497 211
53.22508 196
53.24519 191
53.26531 217
53.28542 206
53.30553 200
53.32565 206
53.34576 206
53.36587 198
53.38599 222
53.4061 211
53.42622 204
53.44633 223
53.46644 187
53.48656 219
53.50667 193
53.52678 227
53.5469 227
53.56701 202
53.58713 208
53.60724 210
53.62735 216
53.64747 220
53.66758 210
53.68769 237
53.70781 208
53.72792 195
53.74804 207
53.76815 216
53.78826 215
53.80838 225
53.82849 205
53.8486 219
53.86872 240
53.88883 220
53.90894 212
53.92906 221
53.94917 223
53.96929 227
53.9894 216
54.00951 248
54.02963 213
54.04974 209
54.06985 212
54.08997 198
54.11008 207
54.1302 223
54.15031 229
54.17042 198
54.19054 234
54.21065 212
54.23076 234
54.25088 231
54.27099 211
54.29111 212
54.31122 194
54.33133 223
54.35145 269
54.37156 234
54.39167 222
54.41179 218
54.4319 254
54.45201 230
54.47213 265
54.49224 264
54.51236 264
54.53247 270
54.55258 278
54.5727 278
54.59281 289
54.61292 307
54.63304 324
54.65315 360
54.67327 411
54.69338 489
54.71349 550
54.73361 588
54.75372 678
54.77383 794
54.79395 841
54.81406 864
54.83417 921
54.85429 821
54.8744 733
54.89452 630
54.91463 539
54.93474 549
54.95486 552
54.97497 581
54.99508 479
55.0152 432
55.03531 384
55.05543 326
55.07554 280
55.09565 351
55.11577 309
55.13588 304
55.15599 358
55.17611 345
55.19622 396
55.21634 453
55.23645 458
55.25656 492
55.27668 512
55.29679 472
55.3169 441
55.33702 382
55.35713 377
55.37724 348
55.39736 342
55.41747 367
55.43759 314
55.4577 287
55.47781 275
55.49793 280
55.51804 226
55.53815 234
55.55827 213
55.57838 218
55.5985 203
55.61861 207
55.63872 223
55.65884 213
55.67895 223
55.69906 185
55.71918 204
55.73929 213
55.75941 220
55.77952 200
55.79963 180
55.81975 204
55.83986 199
55.85997 213
55.88009 199
55.9002 210
55.92031 184
55.94043 213
55.96054 219
55.98066 175
56.00077 161
56.02088 199
56.041 222
56.06111 226
56.08122 201
56.10134 181
56.12145 205
56.14157 196
56.16168 191
56.18179 197
56.20191 198
56.22202 203
56.24213 207
56.26225 191
56.28236 187
56.30248 205
56.32259 182
56.3427 204
56.36282 205
56.38293 219
56.40304 211
56.42316 200
56.44327 220
56.46338 190
56.4835 195
56.50361 214
56.52373 185
56.54384 211
56.56395 203
56.58407 176
56.60418 197
56.62429 226
56.64441 198
56.66452 203
56.68464 202
56.70475 207
56.72486 198
56.74498 219
56.76509 207
56.7852 206
56.80532 224
56.82543 205
56.84554 212
56.86566 207
56.88577 184
56.90589 185
56.926 176
56.94611 195
56.96623 216
56.98634 181
57.00645 191
57.02657 173
57.04668 179
57.0668 218
57.08691 207
57.10702 214
57.12714 241
57.14725 250
57.16736 243
57.18748 253
57.20759 241
57.22771 243
57.24782 243
57.26793 248
57.28805 262
57.30816 234
57.32827 244
57.34839 234
57.3685 243
57.38861 252
57.40873 233
57.42884 233
57.44896 241
57.46907 213
57.48918 257
57.5093 243
57.52941 232
57.54952 205
57.56964 228
57.58975 200
57.60987 241
57.62998 191
57.65009 218
57.67021 216
57.69032 206
57.71043 201
57.73055 171
57.75066 192
57.77078 196
57.79089 198
57.811 180
57.83112 196
57.85123 206
57.87134 191
57.89146 177
57.91157 178
57.93168 171
57.9518 189
57.97191 173
57.99203 188
58.01214 192
58.03225 185
58.05237 196
58.07248 195
58.09259 194
58.11271 192
58.13282 178
58.15294 190
58.17305 188
58.19316 182
58.21328 195
58.23339 176
58.2535 186
58.27362 187
58.29373 183
58.31385 168
58.33396 169
58.35407 197
58.37419 193
58.3943 167
58.41441 195
58.43453 180
58.45464 198
58.47475 203
58.49487 193
58.51498 179
58.5351 187
58.55521 187
58.57532 178
58.59544 190
58.61555 202
58.63566 203
58.65578 170
58.67589 186
58.69601 188
58.71612 188
58.73623 156
58.75635 203
58.77646 178
58.79657 172
58.81669 198
58.8368 185
58.85691 173
58.87703 194
58.89714 185
58.91726 184
58.93737 195
58.95748 179
58.9776 172
58.99771 180
59.01782 152
59.03794 163
59.05805 185
59.07817 198
59.09828 208
59.11839 185
59.13851 178
59.15862 217
59.17873 204
59.19885 210
59.21896 211
59.23908 225
59.25919 192
59.2793 203
59.29942 194
59.31953 232
59.33964 204
59.35976 213
59.37987 211
59.39998 223
59.4201 212
59.44021 215
59.46033 200
59.48044 241
59.50055 253
59.52067 238
59.54078 263
59.56089 298
59.58101 323
59.60112 331
59.62124 304
59.64135 390
59.66146 400
59.68158 434
59.70169 506
59.7218 558
59.74192 609
59.76203 722
59.78215 848
59.80226 1013
59.82237 1193
59.84249 1398
59.8626 1504
59.88271 1590
59.90283 1651
59.92294 1481
59.94305 1338
59.96317 1217
59.98328 1006
60.0034 965
60.02351 906
60.04362 927
60.06374 922
60.08385 850
60.10396 707
60.12408 554
60.14419 447
60.16431 342
60.18442 319
60.20453 285
60.22465 267
60.24476 233
60.26487 247
60.28499 206
60.3051 237
60.32522 210
60.34533 222
60.36544 218
60.38556 211
60.40567 217
60.42578 184
60.4459 234
60.46601 209
60.48612 219
60.50624 209
60.52635 205
60.54647 222
60.56658 212
60.58669 231
60.60681 216
60.62692 221
60.64703 210
60.66715 219
60.68726 228
60.70738 221
60.72749 213
60.7476 224
60.76772 212
60.78783 215
60.80794 207
60.82806 211
60.84817 220
60.86828 210
60.8884 222
60.90851 206
60.92863 230
60.94874 238
60.96885 226
60.98897 219
61.00908 207
61.02919 217
61.04931 242
61.06942 232
61.08954 200
61.10965 250
61.12976 231
61.14988 224
61.16999 236
61.1901 204
61.21022 235
61.23033 237
61.25045 211
61.27056 227
61.29067 241
61.31079 239
61.3309 232
61.35101 249
61.37113 257
61.39124 277
61.41135 239
61.43147 255
61.45158 246
61.4717 247
61.49181 281
61.51192 282
61.53204 233
61.55215 243
61.57226 251
61.59238 250
61.61249 249
61.63261 253
61.65272 259
61.67283 273
61.69295 220
61.71306 234
61.73317 258
61.75329 244
61.7734 266
61.79352 255
61.81363 240
61.83374 243
61.85386 238
61.87397 223
61.89408 250
61.9142 257
61.93431 213
61.95442 215
61.97454 222
61.99465 220
62.01477 235
62.03488 208
62.05499 230
62.07511 217
62.09522 216
62.11533 221
62.13545 228
62.15556 198
62.17568 193
62.19579 190
62.2159 219
62.23602 210
62.25613 185
62.27624 193
62.29636 222
62.31647 213
62.33659 199
62.3567 202
62.37681 207
62.39693 207
62.41704 186
62.43715 215
62.45727 192
62.47738 209
62.49749 192
62.51761 214
62.53772 199
62.55784 172
62.57795 177
62.59806 175
62.61818 199
62.63829 196
62.6584 200
62.67852 187
62.69863 188
62.71875 193
62.73886 196
62.75897 181
62.77909 176
62.7992 165
62.81931 195
62.83943 187
62.85954 182
62.87965 199
62.89977 212
62.91988 183
62.94 179
62.96011 186
62.98022 213
63.00034 169
63.02045 199
63.04056 183
63.06068 215
63.08079 185
63.10091 202
63.12102 189
63.14113 182
63.16125 201
63.18136 207
63.20147 176
63.22159 161
63.2417 199
63.26182 165
63.28193 179
63.30204 202
63.32216 177
63.34227 189
63.36238 176
63.3825 202
63.40261 163
63.42272 191
63.44284 211
63.46295 195
63.48307 177
63.50318 163
63.52329 181
63.54341 176
63.56352 196
63.58363 196
63.60375 198
63.62386 203
63.64398 204
63.66409 192
63.6842 213
63.70432 228
63.72443 249
63.74454 210
63.76466 257
63.78477 219
63.80489 237
63.825 248
63.84511 299
63.86523 290
63.88534 342
63.90545 367
63.92557 409
63.94568 432
63.96579 439
63.98591 419
64.00602 367
64.02614 382
64.04625 304
64.06636 308
64.08648 330
64.10659 297
64.1267 290
64.14682 306
64.16693 301
64.18705 308
64.20716 270
64.22727 239
64.24739 220
64.2675 191
64.28761 195
64.30773 176
64.32784 172
64.34796 166
64.36807 162
64.38818 193
64.4083 156
64.42841 178
64.44852 205
64.46864 164
64.48875 172
64.50886 180
64.52898 170
64.54909 186
64.56921 186
64.58932 169
64.60943 195
64.62955 186
64.64966 161
64.66977 209
64.68989 184
64.71 188
64.73012 190
64.75023 210
64.77034 194
64.79046 179
64.81057 194
64.83068 169
64.8508 153
64.87091 177
64.89102 185
64.91114 193
64.93125 159
64.95137 187
64.97148 176
64.99159 174
65.01171 171
65.03182 188
65.05193 190
65.07205 179
65.09216 179
65.11228 174
65.13239 172
65.1525 178
65.17262 175
65.19273 188
65.21284 161
65.23296 181
65.25307 190
65.27319 176
65.2933 176
65.31341 197
65.33353 171
65.35364 199
65.37375 197
65.39387 201
65.41398 209
65.43409 202
65.45421 206
65.47432 194
65.49444 201
65.51455 172
65.53466 183
65.55478 214
65.57489 257
65.595 206
65.61512 231
65.63523 227
65.65535 227
65.67546 248
65.69557 240
65.71569 213
65.7358 261
65.75591 229
65.77603 208
65.79614 239
65.81626 246
65.83637 243
65.85648 215
65.8766 191
65.89671 195
65.91682 218
65.93694 219
65.95705 199
65.97716 188
65.99728 181
66.01739 148
66.03751 164
66.05762 174
66.07773 185
66.09785 173
66.11796 181
66.13807 158
66.15819 163
66.1783 185
66.19842 179
66.21853 184
66.23864 163
66.25876 170
66.27887 162
66.29898 174
66.3191 185
66.33921 167
66.35933 151
66.37944 179
66.39955 169
66.41967 169
66.43978 175
66.45989 178
66.48001 167
66.50012 184
66.52023 164
66.54035 193
66.56046 165
66.58058 155
66.60069 179
66.6208 189
66.64092 183
66.66103 193
66.68114 189
66.70126 152
66.72137 182
66.74149 170
66.7616 169
66.78171 166
66.80183 169
66.82194 163
66.84205 174
66.86217 183
66.88228 185
66.90239 163
66.92251 191
66.94262 173
66.96274 176
66.98285 198
67.00296 183
67.02308 180
67.04319 186
67.0633 175
67.08342 174
67.10353 193
67.12365 201
67.14376 192
67.16387 176
67.18399 188
67.2041 184
67.22421 185
67.24433 199
67.26444 240
67.28456 223
67.30467 213
67.32478 218
67.3449 211
67.36501 229
67.38512 261
67.40524 265
67.42535 269
67.44546 311
67.46558 344
67.48569 359
67.50581 426
67.52592 417
67.54603 471
67.56615 591
67.58626 644
67.60637 788
67.62649 854
67.6466 892
67.66672 915
67.68683 997
67.70694 997
67.72706 850
67.74717 729
67.76728 657
67.7874 613
67.80751 716
67.82763 682
67.84774 710
67.86785 774
67.88797 773
67.90808 802
67.92819 784
67.94831 766
67.96842 769
67.98853 833
68.00865 897
68.02876 1120
68.04888 1204
68.06899 1287
68.0891 1331
68.10922 1217
68.12933 1192
68.14944 1097
68.16956 1077
68.18967 1086
68.20979 1123
68.2299 1205
68.25001 1189
68.27013 1153
68.29024 1004
68.31035 968
68.33047 830
68.35058 638
68.3707 571
68.39081 550
68.41092 481
68.43104 480
68.45115 481
68.47126 477
68.49138 420
68.51149 354
68.5316 269
68.55172 246
68.57183 240
68.59195 219
68.61206 225
68.63217 199
68.65229 197
68.6724 206
68.69251 180
68.71263 191
68.73274 213
68.75286 211
68.77297 193
68.79308 189
68.8132 187
68.83331 193
68.85342 178
68.87354 215
68.89365 184
68.91376 152
68.93388 195
68.95399 205
68.97411 180
68.99422 178
69.01433 160
69.03445 180
69.05456 163
69.07467 170
69.09479 174
69.1149 193
69.13502 200
69.15513 185
69.17524 173
69.19536 185
69.21547 186
69.23558 163
69.2557 182
69.27581 176
69.29593 203
69.31604 183
69.33615 194
69.35627 172
69.37638 152
69.39649 169
69.41661 172
69.43672 176
69.45683 172
69.47695 175
69.49706 173
69.51718 168
69.53729 163
69.5574 173
69.57752 164
69.59763 169
69.61774 199
69.63786 179
69.65797 180
69.67809 179
69.6982 165
69.71831 152
69.73843 165
69.75854 149
69.77865 188
69.79877 169
69.81888 172
69.839 172
69.85911 185
69.87922 172
69.89934 170
69.91945 167
69.93956 180
69.95968 177
69.97979 165
69.9999 166
70.02002 176
70.04013 198
70.06025 157
70.08036 165
70.10047 169
70.12059 150
70.1407 147
70.16081 155
70.18093 169
70.20104 169
70.22116 163
70.24127 176
70.26138 159
70.2815 165
70.30161 165
70.32172 155
70.34184 161
70.36195 185
70.38207 170
70.40218 157
70.42229 162
70.44241 185
70.46252 148
70.48263 160
70.50275 141
70.52286 163
70.54297 164
70.56309 172
70.5832 169
70.60332 175
70.62343 184
70.64354 154
70.66366 182
70.68377 160
70.70388 144
70.724 180
70.74411 139
70.76423 154
70.78434 165
70.80445 172
70.82457 156
70.84468 166
70.86479 177
70.88491 150
70.90502 144
70.92513 181
70.94525 164
70.96536 152
70.98548 155
71.00559 149
71.0257 147
71.04582 146
71.06593 159
71.08604 176
71.10616 168
71.12627 169
71.14639 166
71.1665 152
71.18661 172
71.20673 176
71.22684 148
71.24695 144
71.26707 164
71.28718 160
71.3073 160
71.32741 159
71.34752 168
71.36764 168
71.38775 147
71.40786 167
71.42798 173
71.44809 190
71.4682 151
71.48832 180
71.50843 167
71.52855 153
71.54866 160
71.56877 158
71.58889 159
71.609 149
71.62911 151
71.64923 139
71.66934 156
71.68946 163
71.70957 154
71.72968 174
71.7498 165
71.76991 166
71.79002 148
71.81014 161
71.83025 160
71.85037 174
71.87048 160
71.89059 157
71.91071 170
71.93082 146
71.95093 151
71.97105 161
71.99116 140
72.01127 156
72.03139 144
72.0515 167
72.07162 151
72.09173 174
72.11184 178
72.13196 175
72.15207 187
72.17218 179
72.1923 157
72.21241 149
72.23253 141
72.25264 189
72.27275 169
72.29287 164
72.31298 154
72.33309 174
72.35321 191
72.37332 167
72.39344 202
72.41355 197
72.43366 173
72.45378 164
72.47389 173
72.494 189
72.51412 173
72.53423 189
72.55434 185
72.57446 171
72.59457 181
72.61469 198
72.6348 184
72.65491 169
72.67503 186
72.69514 189
72.71525 183
72.73537 165
72.75548 194
72.7756 186
72.79571 185
72.81582 204
72.83594 192
72.85605 182
72.87616 199
72.89628 211
72.91639 201
72.9365 189
72.95662 181
72.97673 203
72.99685 189
73.01696 203
73.03707 212
73.05719 213
73.0773 240
73.09741 201
73.11753 189
73.13764 237
73.15776 224
73.17787 214
73.19798 256
73.2181 228
73.23821 282
73.25832 279
73.27844 314
73.29855 337
73.31867 350
73.33878 379
73.35889 415
73.37901 446
73.39912 436
73.41923 433
73.43935 399
73.45946 350
73.47957 343
73.49969 304
73.5198 311
73.53992 312
73.56003 300
73.58014 317
73.60026 323
73.62037 351
73.64048 302
73.6606 268
73.68071 249
73.70083 222
73.72094 212
73.74105 214
73.76117 173
73.78128 191
73.80139 198
73.82151 188
73.84162 179
73.86174 194
73.88185 167
73.90196 171
73.92208 176
73.94219 154
73.9623 174
73.98242 163
74.00253 149
74.02264 143
74.04276 176
74.06287 176
74.08299 178
74.1031 175
74.12321 156
74.14333 185
74.16344 159
74.18355 172
74.20367 161
74.22378 165
74.2439 133
74.26401 185
74.28412 174
74.30424 176
74.32435 169
74.34446 162
74.36458 176
74.38469 173
74.40481 168
74.42492 173
74.44503 154
74.46515 145
74.48526 151
74.50537 168
74.52549 166
74.5456 174
74.56571 155
74.58583 176
74.60594 181
74.62606 153
74.64617 163
74.66628 175
74.6864 173
74.70651 165
74.72662 165
74.74674 165
74.76685 146
74.78697 161
74.80708 162
74.82719 163
74.84731 184
74.86742 174
74.88753 170
74.90765 159
74.92776 175
74.94787 176
74.96799 177
74.9881 162
75.00822 175
