3.00117 19604
3.02128 18759
3.0414 18593
3.06151 17932
3.08162 17649
3.10174 16990
3.12185 16577
3.14197 16311
3.16208 15380
3.18219 15267
3.20231 14631
3.22242 14202
3.24253 13943
3.26265 13183
3.28276 13168
3.30288 12537
3.32299 11937
3.3431 11826
3.36322 11412
3.38333 10999
3.40344 10581
3.42356 10344
3.44367 10262
3.46379 9433
3.4839 9322
3.50401 9027
3.52413 8678
3.54424 8259
3.56435 8053
3.58447 7888
3.60458 7375
3.62469 7157
3.64481 6779
3.66492 6449
3.68504 6385
3.70515 6100
3.72526 5758
3.74538 5732
3.76549 5277
3.7856 5063
3.80572 4868
3.82583 4678
3.84595 4530
3.86606 4183
3.88617 4174
3.90629 3816
3.9264 3863
3.94651 3832
3.96663 3321
3.98674 3276
4.00686 3107
4.02697 3016
4.04708 2945
4.0672 2685
4.08731 2557
4.10742 2648
4.12754 2330
4.14765 2409
4.16776 2079
4.18788 2090
4.20799 2074
4.22811 2021
4.24822 1998
4.26833 1781
4.28845 1822
4.30856 1729
4.32867 1648
4.34879 1709
4.3689 1460
4.38902 1566
4.40913 1503
4.42924 1404
4.44936 1497
4.46947 1281
4.48958 1240
4.5097 1252
4.52981 1226
4.54992 1252
4.57004 1156
4.59015 1162
4.61027 1185
4.63038 1071
4.65049 1177
4.67061 1046
4.69072 976
4.71083 1029
4.73095 1007
4.75106 948
4.77118 886
4.79129 903
4.8114 860
4.83152 860
4.85163 873
4.87174 768
4.89186 787
4.91197 792
4.93209 815
4.9522 742
4.97231 703
4.99243 707
5.01254 709
5.03265 701
5.05277 676
5.07288 596
5.09299 603
5.11311 673
5.13322 651
5.15334 602
5.17345 607
5.19356 539
5.21368 601
5.23379 550
5.2539 526
5.27402 521
5.29413 490
5.31425 523
5.33436 527
5.35447 488
5.37459 469
5.3947 457
5.41481 406
5.43493 462
5.45504 429
5.47516 409
5.49527 454
5.51538 429
5.5355 402
5.55561 369
5.57572 338
5.59584 359
5.61595 391
5.63606 383
5.65618 363
5.67629 360
5.69641 314
5.71652 323
5.73663 314
5.75675 327
5.77686 298
5.79697 325
5.81709 341
5.8372 360
5.85732 323
5.87743 307
5.89754 302
5.91766 322
5.93777 309
5.95788 290
5.978 289
5.99811 262
6.01823 301
6.03834 302
6.05845 289
6.07857 292
6.09868 285
6.11879 279
6.13891 261
6.15902 284
6.17913 263
6.19925 287
6.21936 279
6.23948 292
6.25959 277
6.2797 254
6.29982 269
6.31993 291
6.34004 260
6.36016 284
6.38027 229
6.40039 267
6.4205 246
6.44061 253
6.46073 265
6.48084 263
6.50095 232
6.52107 259
6.54118 249
6.56129 266
6.58141 278
6.60152 225
6.62164 264
6.64175 262
6.66186 255
6.68198 256
6.70209 237
6.7222 214
6.74232 229
6.76243 230
6.78255 254
6.80266 232
6.82277 249
6.84289 245
6.863 256
6.88311 282
6.90323 261
6.92334 226
6.94346 209
6.96357 249
6.98368 240
7.0038 290
7.02391 238
7.04402 226
7.06414 231
7.08425 242
7.10436 252
7.12448 282
7.14459 275
7.16471 262
7.18482 248
7.20493 273
7.22505 236
7.24516 239
7.26527 231
7.28539 248
7.3055 237
7.32562 267
7.34573 256
7.36584 287
7.38596 251
7.40607 253
7.42618 253
7.4463 260
7.46641 235
7.48653 282
7.50664 247
7.52675 279
7.54687 295
7.56698 292
7.58709 241
7.60721 281
7.62732 233
7.64743 253
7.66755 250
7.68766 268
7.70778 267
7.72789 270
7.748 268
7.76812 254
7.78823 263
7.80834 260
7.82846 282
7.84857 259
7.86869 269
7.8888 309
7.90891 249
7.92903 277
7.94914 264
7.96925 288
7.98937 278
8.00948 235
8.0296 254
8.04971 264
8.06982 277
8.08994 269
8.11005 278
8.13016 252
8.15028 267
8.17039 276
8.1905 240
8.21062 254
8.23073 290
8.25085 279
8.27096 287
8.29107 276
8.31119 278
8.3313 290
8.35141 265
8.37153 257
8.39164 261
8.41176 263
8.43187 270
8.45198 293
8.4721 268
8.49221 273
8.51232 258
8.53244 281
8.55255 267
8.57266 257
8.59278 260
8.61289 289
8.63301 272
8.65312 278
8.67323 260
8.69335 276
8.71346 267
8.73357 254
8.75369 271
8.7738 257
8.79392 270
8.81403 258
8.83414 293
8.85426 259
8.87437 267
8.89448 278
8.9146 293
8.93471 291
8.95483 253
8.97494 285
8.99505 282
9.01517 262
9.03528 287
9.05539 278
9.07551 280
9.09562 273
9.11573 287
9.13585 287
9.15596 313
9.17608 276
9.19619 289
9.2163 285
9.23642 231
9.25653 291
9.27664 270
9.29676 275
9.31687 290
9.33699 269
9.3571 287
9.37721 294
9.39733 272
9.41744 254
9.43755 259
9.45767 251
9.47778 283
9.4979 272
9.51801 271
9.53812 277
9.55824 285
9.57835 295
9.59846 305
9.61858 282
9.63869 241
9.6588 259
9.67892 285
9.69903 299
9.71915 266
9.73926 276
9.75937 320
9.77949 265
9.7996 286
9.81971 280
9.83983 260
9.85994 275
9.88006 272
9.90017 297
9.92028 231
9.9404 245
9.96051 280
9.98062 270
10.00074 251
10.02085 249
10.04097 297
10.06108 276
10.08119 270
10.10131 281
10.12142 283
10.14153 299
10.16165 281
10.18176 264
10.20187 293
10.22199 284
10.2421 284
10.26222 302
10.28233 266
10.30244 290
10.32256 302
10.34267 276
10.36278 292
10.3829 272
10.40301 301
10.42313 262
10.44324 304
10.46335 297
10.48347 300
10.50358 266
10.52369 307
10.54381 284
10.56392 271
10.58403 290
10.60415 317
10.62426 303
10.64438 276
10.66449 272
10.6846 272
10.70472 278
10.72483 287
10.74494 267
10.76506 291
10.78517 281
10.80529 281
10.8254 292
10.84551 253
10.86563 256
10.88574 255
10.90585 283
10.92597 273
10.94608 280
10.9662 291
10.98631 262
11.00642 302
11.02654 275
11.04665 235
11.06676 238
11.08688 260
11.10699 277
11.1271 271
11.14722 283
11.16733 280
11.18745 266
11.20756 284
11.22767 337
11.24779 287
11.2679 294
11.28801 268
11.30813 277
11.32824 256
11.34836 257
11.36847 238
11.38858 282
11.4087 258
11.42881 250
11.44892 275
11.46904 296
11.48915 277
11.50927 296
11.52938 252
11.54949 292
11.56961 262
11.58972 315
11.60983 274
11.62995 255
11.65006 301
11.67017 271
11.69029 272
11.7104 285
11.73052 288
11.75063 295
11.77074 260
11.79086 307
11.81097 298
11.83108 281
11.8512 306
11.87131 309
11.89143 309
11.91154 305
11.93165 308
11.95177 295
11.97188 286
11.99199 307
12.01211 331
12.03222 352
12.05234 323
12.07245 352
12.09256 350
12.11268 387
12.13279 371
12.1529 340
12.17302 381
12.19313 422
12.21324 417
12.23336 438
12.25347 476
12.27359 486
12.2937 457
12.31381 502
12.33393 511
12.35404 530
12.37415 537
12.39427 496
12.41438 463
12.4345 419
12.45461 431
12.47472 358
12.49484 346
12.51495 353
12.53506 332
12.55518 305
12.57529 323
12.5954 314
12.61552 287
12.63563 298
12.65575 308
12.67586 276
12.69597 322
12.71609 307
12.7362 282
12.75631 263
12.77643 288
12.79654 272
12.81666 299
12.83677 249
12.85688 268
12.877 285
12.89711 282
12.91722 269
12.93734 260
12.95745 256
12.97757 259
12.99768 295
13.01779 257
13.03791 260
13.05802 246
13.07813 244
13.09825 281
13.11836 285
13.13847 253
13.15859 257
13.1787 273
13.19882 230
13.21893 246
13.23904 230
13.25916 244
13.27927 239
13.29938 256
13.3195 249
13.33961 266
13.35973 246
13.37984 264
13.39995 248
13.42007 251
13.44018 275
13.46029 230
13.48041 237
13.50052 246
13.52064 250
13.54075 250
13.56086 267
13.58098 270
13.60109 265
13.6212 257
13.64132 227
13.66143 248
13.68154 265
13.70166 247
13.72177 238
13.74189 266
13.762 221
13.78211 243
13.80223 234
13.82234 260
13.84245 263
13.86257 246
13.88268 269
13.9028 262
13.92291 240
13.94302 231
13.96314 268
13.98325 242
14.00336 254
14.02348 234
14.04359 221
14.06371 256
14.08382 260
14.10393 258
14.12405 252
14.14416 256
14.16427 215
14.18439 243
14.2045 236
14.22461 236
14.24473 262
14.26484 257
14.28496 267
14.30507 189
14.32518 253
14.3453 247
14.36541 233
14.38552 203
14.40564 237
14.42575 256
14.44587 217
14.46598 244
14.48609 237
14.50621 222
14.52632 247
14.54643 228
14.56655 260
14.58666 218
14.60677 218
14.62689 228
14.647 201
14.66712 251
14.68723 243
14.70734 235
14.72746 229
14.74757 258
14.76768 256
14.7878 253
14.80791 219
14.82803 230
14.84814 222
14.86825 262
14.88837 243
14.90848 213
14.92859 279
14.94871 243
14.96882 247
14.98894 224
15.00905 226
15.02916 207
15.04928 240
15.06939 282
15.0895 264
15.10962 257
15.12973 249
15.14984 239
15.16996 235
15.19007 273
15.21019 214
15.2303 257
15.25041 205
15.27053 248
15.29064 229
15.31075 234
15.33087 240
15.35098 240
15.3711 222
15.39121 241
15.41132 209
15.43144 233
15.45155 239
15.47166 217
15.49178 209
15.51189 216
15.53201 201
15.55212 209
15.57223 230
15.59235 275
15.61246 246
15.63257 235
15.65269 243
15.6728 221
15.69291 216
15.71303 226
15.73314 218
15.75326 239
15.77337 228
15.79348 215
15.8136 224
15.83371 230
15.85382 226
15.87394 235
15.89405 234
15.91417 206
15.93428 254
15.95439 256
15.97451 255
15.99462 236
16.01473 235
16.03485 222
16.05496 224
16.07508 250
16.09519 216
16.1153 188
16.13542 247
16.15553 232
16.17564 202
16.19576 241
16.21587 240
16.23598 213
16.2561 241
16.27621 230
16.29633 202
16.31644 241
16.33655 205
16.35667 226
16.37678 218
16.39689 196
16.41701 208
16.43712 238
16.45724 219
16.47735 227
16.49746 228
16.51758 212
16.53769 215
16.5578 245
16.57792 234
16.59803 260
16.61814 207
16.63826 233
16.65837 224
16.67849 214
16.6986 239
16.71871 240
16.73883 240
16.75894 228
16.77905 197
16.79917 238
16.81928 229
16.8394 226
16.85951 211
16.87962 216
16.89974 232
16.91985 245
16.93996 232
16.96008 232
16.98019 207
17.00031 210
17.02042 219
17.04053 203
17.06065 240
17.08076 223
17.10087 225
17.12099 221
17.1411 259
17.16121 228
17.18133 274
17.20144 221
17.22156 206
17.24167 227
17.26178 209
17.2819 229
17.30201 221
17.32212 207
17.34224 250
17.36235 216
17.38247 209
17.40258 227
17.42269 217
17.44281 220
17.46292 218
17.48303 209
17.50315 231
17.52326 214
17.54338 223
17.56349 220
17.5836 218
17.60372 204
17.62383 236
17.64394 213
17.66406 254
17.68417 245
17.70428 239
17.7244 266
17.74451 235
17.76463 266
17.78474 269
17.80485 252
17.82497 267
17.84508 241
17.86519 218
17.88531 229
17.90542 269
17.92554 282
17.94565 248
17.96576 250
17.98588 229
18.00599 260
18.0261 228
18.04622 221
18.06633 202
18.08645 262
18.10656 224
18.12667 234
18.14679 239
18.1669 238
18.18701 225
18.20713 237
18.22724 230
18.24735 218
18.26747 209
18.28758 228
18.3077 289
18.32781 210
18.34792 230
18.36804 211
18.38815 200
18.40826 209
18.42838 221
18.44849 223
18.46861 222
18.48872 227
18.50883 227
18.52895 250
18.54906 236
18.56917 220
18.58929 223
18.6094 227
18.62951 225
18.64963 216
18.66974 232
18.68986 261
18.70997 238
18.73008 252
18.7502 248
18.77031 243
18.79042 240
18.81054 261
18.83065 230
18.85077 240
18.87088 205
18.89099 264
18.91111 262
18.93122 241
18.95133 255
18.97145 244
18.99156 234
19.01168 220
19.03179 216
19.0519 217
19.07202 248
19.09213 209
19.11224 218
19.13236 200
19.15247 219
19.17258 227
19.1927 217
19.21281 232
19.23293 249
19.25304 256
19.27315 228
19.29327 220
19.31338 247
19.33349 227
19.35361 203
19.37372 244
19.39384 254
19.41395 242
19.43406 229
19.45418 239
19.47429 242
19.4944 259
19.51452 279
19.53463 239
19.55475 230
19.57486 211
19.59497 246
19.61509 239
19.6352 252
19.65531 267
19.67543 277
19.69554 267
19.71565 266
19.73577 317
19.75588 302
19.776 362
19.79611 326
19.81622 375
19.83634 381
19.85645 397
19.87656 393
19.89668 410
19.91679 420
19.93691 408
19.95702 411
19.97713 386
19.99725 375
20.01736 386
20.03747 424
20.05759 373
20.0777 392
20.09782 404
20.11793 356
20.13804 394
20.15816 393
20.17827 393
20.19838 406
20.2185 413
20.23861 377
20.25872 411
20.27884 405
20.29895 432
20.31907 393
20.33918 434
20.35929 429
20.37941 439
20.39952 415
20.41963 398
20.43975 418
20.45986 420
20.47998 458
20.50009 462
20.5202 432
20.54032 482
20.56043 481
20.58054 509
20.60066 495
20.62077 561
20.64088 570
20.661 642
20.68111 703
20.70123 940
20.72134 1173
20.74145 1697
20.76157 2545
20.78168 3663
20.80179 5287
20.82191 6691
20.84202 8043
20.86214 8124
20.88225 7203
20.90236 5396
20.92248 3630
20.94259 2435
20.9627 1305
20.98282 855
21.00293 678
21.02305 593
21.04316 573
21.06327 581
21.08339 568
21.1035 570
21.12361 535
21.14373 493
21.16384 482
21.18395 449
21.20407 482
21.22418 481
21.2443 490
21.26441 460
21.28452 472
21.30464 435
21.32475 504
21.34486 456
21.36498 483
21.38509 472
21.40521 461
21.42532 444
21.44543 424
21.46555 427
21.48566 444
21.50577 390
21.52589 412
21.546 381
21.56612 336
21.58623 387
21.60634 342
21.62646 375
21.64657 344
21.66668 355
21.6868 323
21.70691 363
21.72702 324
21.74714 356
21.76725 327
21.78737 327
21.80748 340
21.82759 295
21.84771 340
21.86782 307
21.88793 330
21.90805 339
21.92816 317
21.94828 325
21.96839 330
21.9885 335
22.00862 330
22.02873 319
22.04884 364
22.06896 305
22.08907 309
22.10919 303
22.1293 322
22.14941 299
22.16953 312
22.18964 307
22.20975 301
22.22987 290
22.24998 303
22.27009 284
22.29021 294
22.31032 295
22.33044 294
22.35055 260
22.37066 296
22.39078 308
22.41089 287
22.431 275
22.45112 296
22.47123 290
22.49135 285
22.51146 290
22.53157 314
22.55169 276
22.5718 287
22.59191 278
22.61203 301
22.63214 285
22.65225 302
22.67237 284
22.69248 292
22.7126 250
22.73271 289
22.75282 286
22.77294 278
22.79305 296
22.81316 286
22.83328 293
22.85339 300
22.87351 274
22.89362 279
22.91373 295
22.93385 268
22.95396 276
22.97407 272
22.99419 278
23.0143 285
23.03442 301
23.05453 294
23.07464 317
23.09476 270
23.11487 290
23.13498 251
23.1551 284
23.17521 299
23.19532 277
23.21544 288
23.23555 278
23.25567 254
23.27578 304
23.29589 323
23.31601 309
23.33612 282
23.35623 269
23.37635 265
23.39646 301
23.41658 299
23.43669 289
23.4568 253
23.47692 317
23.49703 279
23.51714 277
23.53726 312
23.55737 311
23.57749 308
23.5976 297
23.61771 294
23.63783 295
23.65794 281
23.67805 299
23.69817 258
23.71828 291
23.73839 312
23.75851 288
23.77862 289
23.79874 308
23.81885 277
23.83896 306
23.85908 289
23.87919 325
23.8993 297
23.91942 345
23.93953 332
23.95965 339
23.97976 340
23.99987 360
24.01999 385
24.0401 385
24.06021 349
24.08033 297
24.10044 278
24.12056 298
24.14067 337
24.16078 301
24.1809 272
24.20101 298
24.22112 274
24.24124 293
24.26135 307
24.28146 288
24.30158 316
24.32169 285
24.34181 291
24.36192 274
24.38203 259
24.40215 259
24.42226 312
24.44237 295
24.46249 286
24.4826 310
24.50272 295
24.52283 327
24.54294 273
24.56306 307
24.58317 329
24.60328 313
24.6234 297
24.64351 340
24.66362 335
24.68374 380
24.70385 373
24.72397 393
24.74408 358
24.76419 413
24.78431 415
24.80442 420
24.82453 462
24.84465 443
24.86476 444
24.88488 395
24.90499 438
24.9251 441
24.94522 405
24.96533 388
24.98544 369
25.00556 408
25.02567 346
25.04579 328
25.0659 312
25.08601 311
25.10613 329
25.12624 323
25.14635 350
25.16647 342
25.18658 312
25.20669 336
25.22681 347
25.24692 368
25.26704 342
25.28715 329
25.30726 328
25.32738 360
25.34749 308
25.3676 316
25.38772 305
25.40783 322
25.42795 292
25.44806 267
25.46817 318
25.48829 281
25.5084 298
25.52851 322
25.54863 342
25.56874 315
25.58886 288
25.60897 339
25.62908 329
25.6492 324
25.66931 385
25.68942 392
25.70954 429
25.72965 433
25.74976 465
25.76988 484
25.78999 451
25.81011 483
25.83022 498
25.85033 486
25.87045 454
25.89056 463
25.91067 450
25.93079 472
25.9509 456
25.97102 465
25.99113 470
26.01124 516
26.03136 515
26.05147 503
26.07158 524
26.0917 527
26.11181 588
26.13193 633
26.15204 615
26.17215 638
26.19227 691
26.21238 672
26.23249 769
26.25261 781
26.27272 794
26.29283 842
26.31295 917
26.33306 975
26.35318 1048
26.37329 1182
26.3934 1329
26.41352 1610
26.43363 1985
26.45374 2491
26.47386 3497
26.49397 4925
26.51409 7472
26.5342 10978
26.55431 16148
26.57443 22400
26.59454 29482
26.61465 34520
26.63477 34966
26.65488 30029
26.67499 23496
26.69511 18176
26.71522 12973
26.73534 7701
26.75545 4099
26.77556 2397
26.79568 1717
26.81579 1372
26.8359 1394
26.85602 1148
26.87613 1152
26.89625 1052
26.91636 973
26.93647 860
26.95659 795
26.9767 678
26.99681 668
27.01693 634
27.03704 600
27.05716 547
27.07727 562
27.09738 527
27.1175 466
27.13761 510
27.15772 484
27.17784 489
27.19795 457
27.21806 477
27.23818 454
27.25829 442
27.27841 407
27.29852 437
27.31863 404
27.33875 368
27.35886 391
27.37897 442
27.39909 450
27.4192 420
27.43932 452
27.45943 435
27.47954 421
27.49966 462
27.51977 404
27.53988 416
27.56 414
27.58011 392
27.60023 369
27.62034 390
27.64045 357
27.66057 383
27.68068 375
27.70079 344
27.72091 372
27.74102 366
27.76113 370
27.78125 323
27.80136 374
27.82148 349
27.84159 354
27.8617 320
27.88182 387
27.90193 344
27.92204 405
27.94216 335
27.96227 348
27.98239 365
28.0025 309
28.02261 293
28.04273 346
28.06284 351
28.08295 343
28.10307 314
28.12318 330
28.1433 316
28.16341 299
28.18352 300
28.20364 304
28.22375 334
28.24386 321
28.26398 338
28.28409 334
28.3042 342
28.32432 302
28.34443 260
28.36455 303
28.38466 303
28.40477 300
28.42489 296
28.445 318
28.46511 303
28.48523 312
28.50534 297
28.52546 302
28.54557 295
28.56568 290
28.5858 293
28.60591 276
28.62602 278
28.64614 281
28.66625 283
28.68636 317
28.70648 322
28.72659 292
28.74671 328
28.76682 329
28.78693 316
28.80705 283
28.82716 295
28.84727 276
28.86739 291
28.8875 269
28.90762 282
28.92773 270
28.94784 291
28.96796 294
28.98807 293
29.00818 275
29.0283 309
29.04841 295
29.06853 285
29.08864 274
29.10875 318
29.12887 273
29.14898 299
29.16909 259
29.18921 297
29.20932 323
29.22943 315
29.24955 282
29.26966 299
29.28978 269
29.30989 295
29.33 285
29.35012 313
29.37023 300
29.39034 279
29.41046 279
29.43057 285
29.45069 305
29.4708 280
29.49091 287
29.51103 280
29.53114 277
29.55125 265
29.57137 270
29.59148 271
29.6116 266
29.63171 273
29.65182 252
29.67194 304
29.69205 268
29.71216 268
29.73228 257
29.75239 255
29.7725 276
29.79262 289
29.81273 264
29.83285 304
29.85296 239
29.87307 288
29.89319 285
29.9133 277
29.93341 266
29.95353 294
29.97364 272
29.99376 260
30.01387 279
30.03398 271
30.0541 252
30.07421 267
30.09432 264
30.11444 250
30.13455 282
30.15467 276
30.17478 268
30.19489 268
30.21501 265
30.23512 263
30.25523 262
30.27535 292
30.29546 283
30.31557 266
30.33569 274
30.3558 258
30.37592 252
30.39603 261
30.41614 295
30.43626 279
30.45637 301
30.47648 264
30.4966 262
30.51671 253
30.53683 276
30.55694 260
30.57705 276
30.59717 263
30.61728 275
30.63739 267
30.65751 285
30.67762 249
30.69773 265
30.71785 270
30.73796 260
30.75808 242
30.77819 293
30.7983 286
30.81842 268
30.83853 268
30.85864 252
30.87876 246
30.89887 255
30.91899 246
30.9391 265
30.95921 265
30.97933 270
30.99944 266
31.01955 269
31.03967 241
31.05978 250
31.0799 236
31.10001 252
31.12012 262
31.14024 239
31.16035 236
31.18046 233
31.20058 255
31.22069 248
31.2408 253
31.26092 230
31.28103 261
31.30115 255
31.32126 245
31.34137 218
31.36149 258
31.3816 251
31.40171 229
31.42183 249
31.44194 255
31.46206 231
31.48217 261
31.50228 257
31.5224 280
31.54251 241
31.56262 252
31.58274 276
31.60285 225
31.62297 254
31.64308 238
31.66319 241
31.68331 210
31.70342 265
31.72353 256
31.74365 228
31.76376 236
31.78387 245
31.80399 229
31.8241 246
31.84422 246
31.86433 251
31.88444 220
31.90456 241
31.92467 230
31.94478 230
31.9649 242
31.98501 263
32.00513 270
32.02524 244
32.04535 226
32.06547 265
32.08558 217
32.10569 238
32.12581 218
32.14592 249
32.16604 240
32.18615 212
32.20626 246
32.22638 269
32.24649 238
32.2666 232
32.28672 238
32.30683 220
32.32694 217
32.34706 235
32.36717 262
32.38729 220
32.4074 288
32.42751 241
32.44763 259
32.46774 226
32.48785 227
32.50797 217
32.52808 238
32.5482 229
32.56831 234
32.58842 262
32.60854 250
32.62865 256
32.64876 247
32.66888 245
32.68899 266
32.7091 264
32.72922 266
32.74933 250
32.76945 281
32.78956 262
32.80967 256
32.82979 283
32.8499 277
32.87001 276
32.89013 285
32.91024 266
32.93036 280
32.95047 258
32.97058 263
32.9907 277
33.01081 278
33.03092 275
33.05104 283
33.07115 263
33.09127 281
33.11138 286
33.13149 294
33.15161 309
33.17172 322
33.19183 299
33.21195 302
33.23206 307
33.25217 337
33.27229 300
33.2924 289
33.31252 281
33.33263 289
33.35274 269
33.37286 291
33.39297 271
33.41308 295
33.4332 293
33.45331 265
33.47343 266
33.49354 291
33.51365 271
33.53377 296
33.55388 273
33.57399 292
33.59411 273
33.61422 280
33.63434 264
33.65445 255
33.67456 248
33.69468 278
33.71479 254
33.7349 249
33.75502 281
33.77513 263
33.79524 283
33.81536 248
33.83547 231
33.85559 250
33.8757 241
33.89581 223
33.91593 233
33.93604 245
33.95615 229
33.97627 264
33.99638 244
34.0165 265
34.03661 246
34.05672 226
34.07684 232
34.09695 244
34.11706 244
34.13718 238
34.15729 223
34.17741 248
34.19752 213
34.21763 273
34.23775 228
34.25786 244
34.27797 233
34.29809 238
34.3182 261
34.33831 242
34.35843 240
34.37854 252
34.39866 263
34.41877 233
34.43888 251
34.459 238
34.47911 250
34.49922 247
34.51934 247
34.53945 246
34.55957 260
34.57968 244
34.59979 264
34.61991 294
34.64002 264
34.66013 264
34.68025 294
34.70036 295
34.72047 247
34.74059 265
34.7607 296
34.78082 260
34.80093 300
34.82104 283
34.84116 301
34.86127 344
34.88138 333
34.9015 333
34.92161 316
34.94173 351
34.96184 373
34.98195 354
35.00207 350
35.02218 341
35.04229 351
35.06241 351
35.08252 305
35.10264 325
35.12275 307
35.14286 301
35.16298 308
35.18309 326
35.2032 280
35.22332 279
35.24343 288
35.26354 272
35.28366 260
35.30377 280
35.32389 296
35.344 258
35.36411 323
35.38423 307
35.40434 315
35.42445 336
35.44457 310
35.46468 316
35.4848 310
35.50491 347
35.52502 334
35.54514 316
35.56525 322
35.58536 337
35.60548 333
35.62559 371
35.64571 293
35.66582 348
35.68593 348
35.70605 345
35.72616 328
35.74627 373
35.76639 352
35.7865 324
35.80661 319
35.82673 361
35.84684 352
35.86696 342
35.88707 335
35.90718 334
35.9273 346
35.94741 342
35.96752 319
35.98764 345
36.00775 323
36.02787 295
36.04798 303
36.06809 297
36.08821 314
36.10832 297
36.12843 331
36.14855 329
36.16866 315
36.18878 316
36.20889 319
36.229 320
36.24912 343
36.26923 350
36.28934 402
36.30946 425
36.32957 441
36.34968 516
36.3698 633
36.38991 709
36.41003 922
36.43014 1144
36.45025 1480
36.47037 1844
36.49048 2253
36.51059 2582
36.53071 2569
36.55082 2133
36.57094 1799
36.59105 1588
36.61116 1440
36.63128 1241
36.65139 950
36.6715 702
36.69162 441
36.71173 401
36.73184 397
36.75196 387
36.77207 356
36.79219 357
36.8123 369
36.83241 367
36.85253 355
36.87264 353
36.89275 347
36.91287 330
36.93298 328
36.9531 333
36.97321 332
36.99332 313
37.01344 353
37.03355 332
37.05366 306
37.07378 336
37.09389 314
37.11401 349
37.13412 325
37.15423 294
37.17435 263
37.19446 281
37.21457 302
37.23469 311
37.2548 280
37.27491 275
37.29503 276
37.31514 274
37.33526 300
37.35537 266
37.37548 245
37.3956 292
37.41571 265
37.43582 221
37.45594 286
37.47605 252
37.49617 262
37.51628 253
37.53639 285
37.55651 311
37.57662 241
37.59673 309
37.61685 220
37.63696 271
37.65708 262
37.67719 285
37.6973 285
37.71742 310
37.73753 260
37.75764 271
37.77776 270
37.79787 259
37.81798 262
37.8381 265
37.85821 251
37.87833 268
37.89844 257
37.91855 265
37.93867 272
37.95878 256
37.97889 266
37.99901 293
38.01912 238
38.03924 270
38.05935 289
38.07946 253
38.09958 254
38.11969 250
38.1398 293
38.15992 268
38.18003 272
38.20015 306
38.22026 283
38.24037 308
38.26049 322
38.2806 287
38.30071 296
38.32083 347
38.34094 319
38.36105 337
38.38117 313
38.40128 286
38.4214 340
38.44151 336
38.46162 320
38.48174 318
38.50185 317
38.52196 293
38.54208 306
38.56219 302
38.58231 283
38.60242 269
38.62253 294
38.64265 285
38.66276 272
38.68287 287
38.70299 260
38.7231 303
38.74321 268
38.76333 279
38.78344 282
38.80356 286
38.82367 261
38.84378 237
38.8639 264
38.88401 264
38.90412 298
38.92424 285
38.94435 298
38.96447 290
38.98458 315
39.00469 288
39.02481 285
39.04492 251
39.06503 304
39.08515 302
39.10526 311
39.12538 290
39.14549 333
39.1656 337
39.18572 333
39.20583 369
39.22594 371
39.24606 415
39.26617 420
39.28628 510
39.3064 603
39.32651 755
39.34663 1005
39.36674 1183
39.38685 1540
39.40697 1962
39.42708 2254
39.44719 2151
39.46731 2011
39.48742 1710
39.50754 1404
39.52765 1277
39.54776 1218
39.56788 1007
39.58799 733
39.6081 481
39.62822 404
39.64833 357
39.66845 351
39.68856 270
39.70867 318
39.72879 297
39.7489 271
39.76901 277
39.78913 301
39.80924 246
39.82935 266
39.84947 262
39.86958 279
39.8897 267
39.90981 264
39.92992 271
39.95004 262
39.97015 253
39.99026 308
40.01038 292
40.03049 288
40.05061 297
40.07072 316
40.09083 355
40.11095 375
40.13106 438
40.15117 533
40.17129 614
40.1914 774
40.21152 922
40.23163 1099
40.25174 1167
40.27186 1304
40.29197 1171
40.31208 890
40.3322 838
40.35231 726
40.37242 743
40.39254 690
40.41265 495
40.43277 385
40.45288 354
40.47299 314
40.49311 254
40.51322 296
40.53333 283
40.55345 277
40.57356 296
40.59368 243
40.61379 274
40.6339 281
40.65402 275
40.67413 223
40.69424 248
40.71436 269
40.73447 253
40.75458 266
40.7747 262
40.79481 272
40.81493 273
40.83504 252
40.85515 266
40.87527 292
40.89538 254
40.91549 245
40.93561 284
40.95572 299
40.97584 287
40.99595 252
41.01606 277
41.03618 267
41.05629 281
41.0764 308
41.09652 267
41.11663 271
41.13675 263
41.15686 294
41.17697 268
41.19709 275
41.2172 263
41.23731 264
41.25743 281
41.27754 314
41.29765 269
41.31777 254
41.33788 236
41.358 254
41.37811 261
41.39822 262
41.41834 252
41.43845 246
41.45856 266
41.47868 274
41.49879 271
41.51891 264
41.53902 246
41.55913 237
41.57925 256
41.59936 270
41.61947 255
41.63959 277
41.6597 264
41.67982 262
41.69993 273
41.72004 265
41.74016 257
41.76027 234
41.78038 247
41.8005 260
41.82061 255
41.84072 271
41.86084 246
41.88095 270
41.90107 284
41.92118 243
41.94129 253
41.96141 260
41.98152 265
42.00163 241
42.02175 254
42.04186 252
42.06198 279
42.08209 271
42.1022 241
42.12232 282
42.14243 276
42.16254 283
42.18266 316
42.20277 308
42.22289 329
42.243 357
42.26311 429
42.28323 485
42.30334 529
42.32345 707
42.34357 956
42.36368 1106
42.38379 1420
42.40391 1569
42.42402 1695
42.44414 1669
42.46425 1470
42.48436 1193
42.50448 1073
42.52459 932
42.5447 938
42.56482 795
42.58493 610
42.60505 439
42.62516 367
42.64527 338
42.66539 300
42.6855 312
42.70561 248
42.72573 289
42.74584 270
42.76595 241
42.78607 265
42.80618 254
42.8263 267
42.84641 228
42.86652 251
42.88664 225
42.90675 219
42.92686 250
42.94698 250
42.96709 228
42.98721 231
43.00732 214
43.02743 219
43.04755 222
43.06766 230
43.08777 202
43.10789 218
43.128 228
43.14812 218
43.16823 222
43.18834 238
43.20846 195
43.22857 195
43.24868 235
43.2688 203
43.28891 236
43.30902 231
43.32914 226
43.34925 225
43.36937 217
43.38948 237
43.40959 261
43.42971 227
43.44982 215
43.46993 213
43.49005 198
43.51016 180
43.53028 204
43.55039 250
43.5705 220
43.59062 216
43.61073 224
43.63084 206
43.65096 189
43.67107 211
43.69119 205
43.7113 210
43.73141 231
43.75153 206
43.77164 237
43.79175 230
43.81187 211
43.83198 219
43.85209 217
43.87221 233
43.89232 194
43.91244 221
43.93255 218
43.95266 221
43.97278 231
43.99289 212
44.013 218
44.03312 216
44.05323 242
44.07335 235
44.09346 227
44.11357 226
44.13369 199
44.1538 245
44.17391 242
44.19403 218
44.21414 227
44.23426 229
44.25437 214
44.27448 204
44.2946 226
44.31471 193
44.33482 227
44.35494 208
44.37505 241
44.39516 211
44.41528 228
44.43539 214
44.45551 211
44.47562 219
44.49573 221
44.51585 232
44.53596 229
44.55607 225
44.57619 211
44.5963 194
44.61642 201
44.63653 194
44.65664 203
44.67676 238
44.69687 225
44.71698 240
44.7371 232
44.75721 217
44.77732 203
44.79744 218
44.81755 226
44.83767 237
44.85778 219
44.87789 180
44.89801 197
44.91812 213
44.93823 220
44.95835 242
44.97846 234
44.99858 232
45.01869 198
45.0388 234
45.05892 218
45.07903 238
45.09914 217
45.11926 225
45.13937 206
45.15949 238
45.1796 238
45.19971 259
45.21983 234
45.23994 228
45.26005 226
45.28017 245
45.30028 234
45.32039 228
45.34051 229
45.36062 230
45.38074 265
45.40085 246
45.42096 241
45.44108 274
45.46119 269
45.4813 295
45.50142 256
45.52153 294
45.54165 289
45.56176 324
45.58187 325
45.60199 386
45.6221 411
45.64221 473
45.66233 584
45.68244 668
45.70256 797
45.72267 962
45.74278 1062
45.7629 1113
45.78301 1075
45.80312 935
45.82324 729
45.84335 740
45.86346 697
45.88358 638
45.90369 624
45.92381 542
45.94392 394
45.96403 345
45.98415 314
46.00426 269
46.02437 227
46.04449 246
46.0646 219
46.08472 234
46.10483 240
46.12494 247
46.14506 228
46.16517 219
46.18528 195
46.2054 211
46.22551 212
46.24563 207
46.26574 218
46.28585 224
46.30597 240
46.32608 212
46.34619 209
46.36631 190
46.38642 249
46.40653 218
46.42665 240
46.44676 202
46.46688 199
46.48699 200
46.5071 211
46.52722 202
46.54733 193
46.56744 221
46.58756 210
46.60767 221
46.62779 204
46.6479 230
46.66801 192
46.68813 209
46.70824 189
46.72835 201
46.74847 190
46.76858 233
46.78869 204
46.80881 223
46.82892 200
46.84904 228
46.86915 255
46.88926 224
46.90938 212
46.92949 221
46.9496 217
46.96972 179
46.98983 217
47.00995 210
47.03006 211
47.05017 212
47.07029 215
47.0904 217
47.11051 205
47.13063 212
47.15074 233
47.17086 213
47.19097 188
47.21108 231
47.2312 204
47.25131 230
47.27142 232
47.29154 213
47.31165 200
47.33176 231
47.35188 207
47.37199 245
47.39211 214
47.41222 217
47.43233 238
47.45245 221
47.47256 229
47.49267 226
47.51279 243
47.5329 196
47.55302 223
47.57313 231
47.59324 194
47.61336 248
47.63347 204
47.65358 213
47.6737 210
47.69381 197
47.71393 207
47.73404 219
47.75415 225
47.77427 240
47.79438 198
47.81449 215
47.83461 187
47.85472 203
47.87483 223
47.89495 214
47.91506 236
47.93518 231
47.95529 230
47.9754 233
47.99552 245
48.01563 236
48.03574 227
48.05586 227
48.07597 220
48.09609 228
48.1162 221
48.13631 241
48.15643 211
48.17654 211
48.19665 185
48.21677 227
48.23688 202
48.257 211
48.27711 215
48.29722 228
48.31734 221
48.33745 223
48.35756 240
48.37768 230
48.39779 231
48.4179 250
48.43802 236
48.45813 212
48.47825 208
48.49836 241
48.51847 207
48.53859 232
48.5587 219
48.57881 231
48.59893 218
48.61904 248
48.63916 211
48.65927 213
48.67938 222
48.6995 216
48.71961 247
48.73972 251
48.75984 224
48.77995 232
48.80006 224
48.82018 241
48.84029 229
48.86041 224
48.88052 232
48.90063 193
48.92075 193
48.94086 219
48.96097 231
48.98109 226
49.0012 243
49.02132 229
49.04143 238
49.06154 208
49.08166 238
49.10177 232
49.12188 210
49.142 228
49.16211 212
49.18223 230
49.20234 230
49.22245 231
49.24257 253
49.26268 242
49.28279 242
49.30291 262
49.32302 256
49.34313 242
49.36325 253
49.38336 226
49.40348 217
49.42359 238
49.4437 257
49.46382 246
49.48393 234
49.50404 231
49.52416 253
49.54427 240
49.56439 253
49.5845 238
49.60461 253
49.62473 279
49.64484 227
49.66495 292
49.68507 291
49.70518 279
49.7253 279
49.74541 297
49.76552 311
49.78564 330
49.80575 353
49.82586 364
49.84598 364
49.86609 425
49.8862 481
49.90632 515
49.92643 607
49.94655 713
49.96666 849
49.98677 1161
50.00689 1486
50.027 1788
50.04711 2374
50.06723 2920
50.08734 3408
50.10746 3628
50.12757 3417
50.14768 2816
50.1678 2227
50.18791 1966
50.20802 1907
50.22814 1903
50.24825 1907
50.26837 1561
50.28848 1156
50.30859 826
50.32871 563
50.34882 471
50.36893 373
50.38905 357
50.40916 340
50.42927 307
50.44939 305
50.4695 328
50.48962 345
50.50973 312
50.52984 326
50.54996 323
50.57007 313
50.59018 322
50.6103 323
50.63041 325
50.65053 299
50.67064 272
50.69075 313
50.71087 264
50.73098 270
50.75109 262
50.77121 267
50.79132 267
50.81143 239
50.83155 242
50.85166 250
50.87178 233
50.89189 234
50.912 227
50.93212 234
50.95223 240
50.97234 242
50.99246 221
51.01257 256
51.03269 250
51.0528 244
51.07291 216
51.09303 232
51.11314 243
51.13325 226
51.15337 242
51.17348 220
51.1936 216
51.21371 243
51.23382 246
51.25394 215
51.27405 213
51.29416 211
51.31428 196
51.33439 220
51.3545 232
51.37462 225
51.39473 192
51.41485 241
51.43496 227
51.45507 220
51.47519 228
51.4953 206
51.51541 212
51.53553 213
51.55564 233
51.57576 209
51.59587 206
51.61598 207
51.6361 218
51.65621 211
51.67632 212
51.69644 185
51.71655 189
51.73667 208
51.75678 182
51.77689 205
51.79701 172
51.81712 207
51.83723 207
51.85735 188
51.87746 232
51.89757 197
51.91769 208
51.9378 172
51.95792 219
51.97803 248
51.99814 245
52.01826 181
52.03837 191
52.05848 212
52.0786 185
52.09871 171
52.11883 199
52.13894 190
52.15905 190
52.17917 228
52.19928 203
52.21939 218
52.23951 193
52.25962 202
52.27974 197
52.29985 203
52.31996 200
52.34008 199
52.36019 237
52.3803 184
52.40042 197
52.42053 180
52.44064 212
52.46076 193
52.48087 207
52.50099 202
52.5211 215
52.54121 223
52.56133 181
52.58144 198
52.60155 205
52.62167 188
52.64178 220
52.6619 200
52.68201 204
52.70212 222
52.72224 229
52.74235 239
52.76246 214
52.78258 220
52.80269 192
52.8228 193
52.84292 200
52.86303 213
52.88315 207
52.90326 188
52.92337 183
52.94349 188
52.9636 194
52.98371 200
53.00383 185
53.02394 206
53.04406 202
53.06417 240
53.08428 221
53.1044 220
53.12451 212
53.14462 227
53.16474 210
53.18485 233
53.20497 242
53.22508 226
53.24519 212
53.26531 247
53.28542 221
53.30553 236
53.32565 253
53.34576 244
53.36587 247
53.38599 256
53.4061 261
53.42622 253
53.44633 244
53.46644 234
53.48656 224
53.50667 252
53.52678 264
53.5469 275
53.56701 252
53.58713 258
53.60724 274
53.62735 276
53.64747 254
53.66758 264
53.68769 272
53.70781 268
53.72792 258
53.74804 232
53.76815 275
53.78826 251
53.80838 255
53.82849 242
53.8486 242
53.86872 247
53.88883 272
53.90894 260
53.92906 252
53.94917 235
53.96929 248
53.9894 259
54.00951 264
54.02963 246
54.04974 256
54.06985 263
54.08997 234
54.11008 272
54.1302 287
54.15031 255
54.17042 263
54.19054 244
54.21065 255
54.23076 277
54.25088 269
54.27099 274
54.29111 265
54.31122 256
54.33133 269
54.35145 261
54.37156 260
54.39167 259
54.41179 266
54.4319 259
54.45201 284
54.47213 250
54.49224 286
54.51236 264
54.53247 273
54.55258 285
54.5727 307
54.59281 298
54.61292 298
54.63304 336
54.65315 355
54.67327 398
54.69338 436
54.71349 523
54.73361 603
54.75372 696
54.77383 835
54.79395 954
54.81406 1052
54.83417 1101
54.85429 1112
54.8744 921
54.89452 827
54.91463 692
54.93474 671
54.95486 713
54.97497 708
54.99508 645
55.0152 622
55.03531 506
55.05543 429
55.07554 394
55.09565 354
55.11577 319
55.13588 344
55.15599 312
55.17611 383
55.19622 409
55.21634 398
55.23645 470
55.25656 547
55.27668 595
55.29679 696
55.3169 570
55.33702 524
55.35713 430
55.37724 428
55.39736 402
55.41747 404
55.43759 441
55.4577 414
55.47781 380
55.49793 347
55.51804 259
55.53815 242
55.55827 267
55.57838 237
55.5985 276
55.61861 235
55.63872 254
55.65884 228
55.67895 240
55.69906 241
55.71918 218
55.73929 239
55.75941 234
55.77952 203
55.79963 212
55.81975 228
55.83986 221
55.85997 201
55.88009 214
55.9002 214
55.92031 221
55.94043 229
55.96054 231
55.98066 233
56.00077 231
56.02088 218
56.041 218
56.06111 234
56.08122 194
56.10134 207
56.12145 223
56.14157 204
56.16168 197
56.18179 209
56.20191 218
56.22202 210
56.24213 232
56.26225 204
56.28236 185
56.30248 221
56.32259 241
56.3427 194
56.36282 216
56.38293 232
56.40304 251
56.42316 223
56.44327 229
56.46338 210
56.4835 210
56.50361 234
56.52373 219
56.54384 242
56.56395 223
56.58407 213
56.60418 198
56.62429 209
56.64441 222
56.66452 221
56.68464 217
56.70475 206
56.72486 213
56.74498 224
56.76509 215
56.7852 210
56.80532 205
56.82543 215
56.84554 215
56.86566 195
56.88577 234
56.90589 210
56.926 219
56.94611 219
56.96623 211
56.98634 194
57.00645 232
57.02657 202
57.04668 205
57.0668 218
57.08691 262
57.10702 238
57.12714 241
57.14725 233
57.16736 241
57.18748 255
57.20759 286
57.22771 281
57.24782 238
57.26793 224
57.28805 252
57.30816 229
57.32827 246
57.34839 252
57.3685 214
57.38861 219
57.40873 206
57.42884 207
57.44896 173
57.46907 216
57.48918 209
57.5093 216
57.52941 186
57.54952 226
57.56964 235
57.58975 208
57.60987 201
57.62998 218
57.65009 201
57.67021 194
57.69032 220
57.71043 223
57.73055 198
57.75066 215
57.77078 213
57.79089 220
57.811 233
57.83112 212
57.85123 183
57.87134 196
57.89146 220
57.91157 205
57.93168 218
57.9518 199
57.97191 229
57.99203 227
58.01214 184
58.03225 218
58.05237 199
58.07248 215
58.09259 210
58.11271 199
58.13282 212
58.15294 198
58.17305 200
58.19316 214
58.21328 199
58.23339 196
58.2535 219
58.27362 213
58.29373 210
58.31385 214
58.33396 201
58.35407 213
58.37419 203
58.3943 193
58.41441 206
58.43453 198
58.45464 215
58.47475 202
58.49487 205
58.51498 203
58.5351 225
58.55521 212
58.57532 216
58.59544 208
58.61555 206
58.63566 214
58.65578 209
58.67589 229
58.69601 198
58.71612 206
58.73623 223
58.75635 220
58.77646 240
58.79657 214
58.81669 193
58.8368 204
58.85691 206
58.87703 211
58.89714 213
58.91726 206
58.93737 208
58.95748 227
58.9776 225
58.99771 213
59.01782 211
59.03794 239
59.05805 233
59.07817 195
59.09828 224
59.11839 236
59.13851 216
59.15862 225
59.17873 212
59.19885 241
59.21896 240
59.23908 239
59.25919 225
59.2793 211
59.29942 235
59.31953 214
59.33964 219
59.35976 224
59.37987 237
59.39998 249
59.4201 255
59.44021 246
59.46033 242
59.48044 257
59.50055 245
59.52067 290
59.54078 269
59.56089 280
59.58101 275
59.60112 309
59.62124 317
59.64135 328
59.66146 338
59.68158 389
59.70169 443
59.7218 470
59.74192 522
59.76203 615
59.78215 740
59.80226 931
59.82237 1148
59.84249 1401
59.8626 1693
59.88271 1967
59.90283 2077
59.92294 2279
59.94305 1990
59.96317 1739
59.98328 1362
60.0034 1146
60.02351 1105
60.04362 1179
60.06374 1249
60.08385 1189
60.10396 1176
60.12408 940
60.14419 661
60.16431 517
60.18442 414
60.20453 344
60.22465 315
60.24476 279
60.26487 291
60.28499 260
60.3051 243
60.32522 246
60.34533 241
60.36544 222
60.38556 224
60.40567 224
60.42578 243
60.4459 211
60.46601 228
60.48612 216
60.50624 219
60.52635 220
60.54647 209
60.56658 241
60.58669 209
60.60681 210
60.62692 213
60.64703 231
60.66715 199
60.68726 188
60.70738 187
60.72749 214
60.7476 197
60.76772 202
60.78783 176
60.80794 228
60.82806 195
60.84817 205
60.86828 198
60.8884 187
60.90851 196
60.92863 200
60.94874 203
60.96885 207
60.98897 214
61.00908 208
61.02919 212
61.04931 206
61.06942 203
61.08954 199
61.10965 226
61.12976 202
61.14988 175
61.16999 177
61.1901 192
61.21022 187
61.23033 201
61.25045 187
61.27056 200
61.29067 207
61.31079 211
61.3309 192
61.35101 204
61.37113 185
61.39124 218
61.41135 216
61.43147 224
61.45158 193
61.4717 207
61.49181 212
61.51192 191
61.53204 213
61.55215 212
61.57226 216
61.59238 225
61.61249 215
61.63261 210
61.65272 218
61.67283 221
61.69295 218
61.71306 197
61.73317 207
61.75329 187
61.7734 216
61.79352 203
61.81363 215
61.83374 228
61.85386 236
61.87397 224
61.89408 209
61.9142 262
61.93431 236
61.95442 242
61.97454 235
61.99465 220
62.01477 224
62.03488 248
62.05499 255
62.07511 246
62.09522 242
62.11533 255
62.13545 265
62.15556 269
62.17568 227
62.19579 267
62.2159 238
62.23602 244
62.25613 267
62.27624 272
62.29636 260
62.31647 268
62.33659 252
62.3567 274
62.37681 264
62.39693 283
62.41704 255
62.43715 256
62.45727 249
62.47738 243
62.49749 229
62.51761 233
62.53772 221
62.55784 244
62.57795 228
62.59806 232
62.61818 220
62.63829 232
62.6584 235
62.67852 251
62.69863 230
62.71875 219
62.73886 237
62.75897 209
62.77909 212
62.7992 223
62.81931 189
62.83943 198
62.85954 183
62.87965 176
62.89977 179
62.91988 215
62.94 205
62.96011 220
62.98022 190
63.00034 211
63.02045 225
63.04056 193
63.06068 212
63.08079 199
63.10091 211
63.12102 193
63.14113 209
63.16125 207
63.18136 185
63.20147 214
63.22159 186
63.2417 183
63.26182 233
63.28193 247
63.30204 224
63.32216 215
63.34227 218
63.36238 199
63.3825 202
63.40261 212
63.42272 233
63.44284 204
63.46295 224
63.48307 226
63.50318 191
63.52329 221
63.54341 191
63.56352 210
63.58363 234
63.60375 200
63.62386 229
63.64398 238
63.66409 215
63.6842 216
63.70432 233
63.72443 249
63.74454 234
63.76466 238
63.78477 255
63.80489 265
63.825 258
63.84511 261
63.86523 339
63.88534 350
63.90545 377
63.92557 432
63.94568 496
63.96579 488
63.98591 543
64.00602 517
64.02614 539
64.04625 475
64.06636 409
64.08648 401
64.10659 341
64.1267 344
64.14682 404
64.16693 406
64.18705 349
64.20716 356
64.22727 302
64.24739 292
64.2675 237
64.28761 217
64.30773 226
64.32784 237
64.34796 220
64.36807 210
64.38818 201
64.4083 212
64.42841 219
64.44852 214
64.46864 216
64.48875 221
64.50886 210
64.52898 196
64.54909 185
64.56921 215
64.58932 206
64.60943 208
64.62955 186
64.64966 201
64.66977 202
64.68989 201
64.71 183
64.73012 193
64.75023 187
64.77034 184
64.79046 184
64.81057 199
64.83068 184
64.8508 184
64.87091 202
64.89102 210
64.91114 219
64.93125 196
64.95137 186
64.97148 210
64.99159 214
65.01171 194
65.03182 195
65.05193 200
65.07205 173
65.09216 195
65.11228 190
65.13239 173
65.1525 209
65.17262 198
65.19273 201
65.21284 197
65.23296 201
65.25307 184
65.27319 182
65.2933 190
65.31341 176
65.33353 168
65.35364 195
65.37375 194
65.39387 195
65.41398 195
65.43409 192
65.45421 210
65.47432 211
65.49444 196
65.51455 222
65.53466 201
65.55478 211
65.57489 223
65.595 228
65.61512 220
65.63523 227
65.65535 237
65.67546 283
65.69557 275
65.71569 284
65.7358 286
65.75591 279
65.77603 273
65.79614 271
65.81626 221
65.83637 205
65.85648 228
65.8766 210
65.89671 248
65.91682 255
65.93694 230
65.95705 220
65.97716 214
65.99728 216
66.01739 196
66.03751 201
66.05762 192
66.07773 201
66.09785 197
66.11796 179
66.13807 196
66.15819 203
66.1783 201
66.19842 223
66.21853 236
66.23864 198
66.25876 204
66.27887 190
66.29898 197
66.3191 175
66.33921 215
66.35933 188
66.37944 207
66.39955 192
66.41967 189
66.43978 197
66.45989 184
66.48001 203
66.50012 225
66.52023 195
66.54035 185
66.56046 222
66.58058 179
66.60069 196
66.6208 193
66.64092 207
66.66103 191
66.68114 197
66.70126 189
66.72137 183
66.74149 203
66.7616 205
66.78171 192
66.80183 165
66.82194 194
66.84205 198
66.86217 183
66.88228 222
66.90239 206
66.92251 208
66.94262 197
66.96274 187
66.98285 217
67.00296 197
67.02308 190
67.04319 198
67.0633 224
67.08342 195
67.10353 202
67.12365 210
67.14376 205
67.16387 210
67.18399 214
67.2041 214
67.22421 212
67.24433 239
67.26444 256
67.28456 231
67.30467 229
67.32478 219
67.3449 250
67.36501 240
67.38512 252
67.40524 284
67.42535 255
67.44546 309
67.46558 294
67.48569 353
67.50581 357
67.52592 427
67.54603 498
67.56615 526
67.58626 641
67.60637 751
67.62649 863
67.6466 1081
67.66672 1179
67.68683 1299
67.70694 1297
67.72706 1253
67.74717 1108
67.76728 912
67.7874 747
67.80751 765
67.82763 803
67.84774 818
67.86785 888
67.88797 962
67.90808 911
67.92819 918
67.94831 827
67.96842 811
67.98853 858
68.00865 939
68.02876 1166
68.04888 1357
68.06899 1588
68.0891 1609
68.10922 1755
68.12933 1609
68.14944 1449
68.16956 1272
68.18967 1236
68.20979 1341
68.2299 1429
68.25001 1547
68.27013 1590
68.29024 1577
68.31035 1428
68.33047 1208
68.35058 966
68.3707 798
68.39081 656
68.41092 638
68.43104 654
68.45115 632
68.47126 649
68.49138 589
68.51149 459
68.5316 398
68.55172 347
68.57183 308
68.59195 297
68.61206 281
68.63217 261
68.65229 235
68.6724 245
68.69251 215
68.71263 203
68.73274 230
68.75286 205
68.77297 222
68.79308 217
68.8132 210
68.83331 215
68.85342 194
68.87354 222
68.89365 205
68.91376 211
68.93388 217
68.95399 209
68.97411 199
68.99422 181
69.01433 214
69.03445 180
69.05456 212
69.07467 188
69.09479 193
69.1149 189
69.13502 210
69.15513 209
69.17524 174
69.19536 195
69.21547 214
69.23558 178
69.2557 177
69.27581 179
69.29593 185
69.31604 202
69.33615 188
69.35627 188
69.37638 210
69.39649 201
69.41661 194
69.43672 202
69.45683 210
69.47695 175
69.49706 191
69.51718 191
69.53729 192
69.5574 184
69.57752 169
69.59763 212
69.61774 173
69.63786 187
69.65797 191
69.67809 188
69.6982 178
69.71831 198
69.73843 182
69.75854 184
69.77865 205
69.79877 183
69.81888 193
69.839 190
69.85911 186
69.87922 180
69.89934 171
69.91945 176
69.93956 189
69.95968 187
69.97979 183
69.9999 178
70.02002 168
70.04013 182
70.06025 214
70.08036 200
70.10047 174
70.12059 175
70.1407 171
70.16081 170
70.18093 204
70.20104 170
70.22116 178
70.24127 188
70.26138 168
70.2815 200
70.30161 180
70.32172 191
70.34184 186
70.36195 174
70.38207 188
70.40218 176
70.42229 173
70.44241 173
70.46252 184
70.48263 180
70.50275 173
70.52286 167
70.54297 180
70.56309 186
70.5832 176
70.60332 187
70.62343 203
70.64354 171
70.66366 155
70.68377 192
70.70388 193
70.724 174
70.74411 172
70.76423 179
70.78434 205
70.80445 177
70.82457 171
70.84468 173
70.86479 170
70.88491 185
70.90502 162
70.92513 200
70.94525 197
70.96536 172
70.98548 176
71.00559 161
71.0257 191
71.04582 159
71.06593 164
71.08604 183
71.10616 162
71.12627 162
71.14639 164
71.1665 165
71.18661 181
71.20673 154
71.22684 170
71.24695 189
71.26707 166
71.28718 182
71.3073 181
71.32741 173
71.34752 157
71.36764 182
71.38775 189
71.40786 197
71.42798 183
71.44809 198
71.4682 187
71.48832 181
71.50843 156
71.52855 205
71.54866 183
71.56877 163
71.58889 175
71.609 188
71.62911 165
71.64923 212
71.66934 194
71.68946 175
71.70957 166
71.72968 179
71.7498 192
71.76991 160
71.79002 197
71.81014 162
71.83025 184
71.85037 181
71.87048 184
71.89059 188
71.91071 186
71.93082 160
71.95093 181
71.97105 204
71.99116 172
72.01127 196
72.03139 181
72.0515 196
72.07162 180
72.09173 171
72.11184 190
72.13196 202
72.15207 188
72.17218 190
72.1923 189
72.21241 193
72.23253 185
72.25264 214
72.27275 211
72.29287 178
72.31298 202
72.33309 210
72.35321 178
72.37332 191
72.39344 191
72.41355 174
72.43366 160
72.45378 182
72.47389 172
72.494 182
72.51412 164
72.53423 159
72.55434 182
72.57446 185
72.59457 167
72.61469 185
72.6348 175
72.65491 190
72.67503 191
72.69514 175
72.71525 170
72.73537 162
72.75548 185
72.7756 201
72.79571 202
72.81582 181
72.83594 195
72.85605 196
72.87616 176
72.89628 177
72.91639 179
72.9365 179
72.95662 174
72.97673 168
72.99685 187
73.01696 182
73.03707 170
73.05719 181
73.0773 183
73.09741 218
73.11753 193
73.13764 207
73.15776 205
73.17787 226
73.19798 245
73.2181 226
73.23821 233
73.25832 268
73.27844 287
73.29855 330
73.31867 330
73.33878 382
73.35889 435
73.37901 473
73.39912 478
73.41923 519
73.43935 527
73.45946 518
73.47957 476
73.49969 382
73.5198 299
73.53992 296
73.56003 337
73.58014 336
73.60026 353
73.62037 340
73.64048 390
73.6606 346
73.68071 325
73.70083 281
73.72094 253
73.74105 233
73.76117 216
73.78128 192
73.80139 177
73.82151 183
73.84162 190
73.86174 210
73.88185 202
73.90196 188
73.92208 183
73.94219 194
73.9623 184
73.98242 173
74.00253 187
74.02264 172
74.04276 165
74.06287 205
74.08299 173
74.1031 178
74.12321 186
74.14333 189
74.16344 186
74.18355 173
74.20367 183
74.22378 174
74.2439 172
74.26401 182
74.28412 181
74.30424 157
74.32435 162
74.34446 198
74.36458 167
74.38469 178
74.40481 176
74.42492 175
74.44503 156
74.46515 200
74.48526 175
74.50537 172
74.52549 197
74.5456 159
74.56571 175
74.58583 187
74.60594 184
74.62606 180
74.64617 159
74.66628 181
74.6864 209
74.70651 170
74.72662 193
74.74674 185
74.76685 166
74.78697 180
74.80708 189
74.82719 177
74.84731 158
74.86742 190
74.88753 177
74.90765 192
74.92776 169
74.94787 178
74.96799 198
74.9881 185
75.00822 170
