3.00117 19231
3.02128 19138
3.0414 18582
3.06151 18119
3.08162 17506
3.10174 16916
3.12185 16880
3.14197 16100
3.16208 15616
3.18219 15314
3.20231 14679
3.22242 14342
3.24253 13875
3.26265 13397
3.28276 13232
3.30288 12473
3.32299 12346
3.3431 12004
3.36322 11711
3.38333 11341
3.40344 10593
3.42356 10589
3.44367 10293
3.46379 10002
3.4839 9493
3.50401 9000
3.52413 8938
3.54424 8595
3.56435 8305
3.58447 8171
3.60458 7558
3.62469 7429
3.64481 7178
3.66492 6945
3.68504 6831
3.70515 6258
3.72526 6191
3.74538 6074
3.76549 5661
3.7856 5675
3.80572 5253
3.82583 5257
3.84595 4977
3.86606 4661
3.88617 4697
3.90629 4281
3.9264 4350
3.94651 4167
3.96663 3872
3.98674 3703
4.00686 3625
4.02697 3547
4.04708 3525
4.0672 3168
4.08731 3082
4.10742 3007
4.12754 2845
4.14765 2889
4.16776 2633
4.18788 2567
4.20799 2442
4.22811 2390
4.24822 2454
4.26833 2167
4.28845 2248
4.30856 2090
4.32867 2124
4.34879 2183
4.3689 1858
4.38902 1960
4.40913 1935
4.42924 1962
4.44936 1965
4.46947 1731
4.48958 1807
4.5097 1732
4.52981 1676
4.54992 1707
4.57004 1621
4.59015 1572
4.61027 1546
4.63038 1549
4.65049 1631
4.67061 1452
4.69072 1519
4.71083 1432
4.73095 1408
4.75106 1454
4.77118 1416
4.79129 1342
4.8114 1355
4.83152 1267
4.85163 1430
4.87174 1167
4.89186 1217
4.91197 1269
4.93209 1223
4.9522 1194
4.97231 1173
4.99243 1209
5.01254 1155
5.03265 1140
5.05277 1061
5.07288 1025
5.09299 1124
5.11311 1054
5.13322 1042
5.15334 1059
5.17345 971
5.19356 979
5.21368 1100
5.23379 942
5.2539 976
5.27402 942
5.29413 906
5.31425 914
5.33436 988
5.35447 866
5.37459 909
5.3947 924
5.41481 901
5.43493 867
5.45504 912
5.47516 783
5.49527 818
5.51538 863
5.5355 829
5.55561 859
5.57572 782
5.59584 848
5.61595 791
5.63606 784
5.65618 717
5.67629 782
5.69641 733
5.71652 757
5.73663 732
5.75675 727
5.77686 768
5.79697 701
5.81709 718
5.8372 768
5.85732 703
5.87743 731
5.89754 723
5.91766 672
5.93777 705
5.95788 713
5.978 767
5.99811 660
6.01823 677
6.03834 647
6.05845 663
6.07857 679
6.09868 711
6.11879 760
6.13891 677
6.15902 756
6.17913 716
6.19925 696
6.21936 676
6.23948 694
6.25959 633
6.2797 710
6.29982 640
6.31993 675
6.34004 626
6.36016 648
6.38027 656
6.40039 660
6.4205 642
6.44061 641
6.46073 658
6.48084 661
6.50095 615
6.52107 690
6.54118 645
6.56129 640
6.58141 651
6.60152 574
6.62164 538
6.64175 596
6.66186 582
6.68198 622
6.70209 616
6.7222 607
6.74232 625
6.76243 666
6.78255 645
6.80266 657
6.82277 596
6.84289 610
6.863 614
6.88311 598
6.90323 636
6.92334 626
6.94346 594
6.96357 633
6.98368 612
7.0038 636
7.02391 550
7.04402 541
7.06414 575
7.08425 661
7.10436 596
7.12448 632
7.14459 599
7.16471 575
7.18482 622
7.20493 576
7.22505 624
7.24516 683
7.26527 602
7.28539 591
7.3055 548
7.32562 582
7.34573 580
7.36584 619
7.38596 606
7.40607 594
7.42618 581
7.4463 617
7.46641 612
7.48653 596
7.50664 620
7.52675 596
7.54687 585
7.56698 599
7.58709 558
7.60721 584
7.62732 560
7.64743 546
7.66755 586
7.68766 557
7.70778 570
7.72789 571
7.748 600
7.76812 568
7.78823 631
7.80834 580
7.82846 589
7.84857 546
7.86869 580
7.8888 572
7.90891 625
7.92903 530
7.94914 601
7.96925 592
7.98937 576
8.00948 608
8.0296 598
8.04971 572
8.06982 557
8.08994 577
8.11005 601
8.13016 527
8.15028 593
8.17039 561
8.1905 566
8.21062 583
8.23073 546
8.25085 590
8.27096 579
8.29107 613
8.31119 570
8.3313 494
8.35141 590
8.37153 591
8.39164 554
8.41176 550
8.43187 585
8.45198 540
8.4721 568
8.49221 566
8.51232 622
8.53244 608
8.55255 615
8.57266 596
8.59278 556
8.61289 546
8.63301 576
8.65312 545
8.67323 561
8.69335 604
8.71346 540
8.73357 563
8.75369 580
8.7738 630
8.79392 573
8.81403 566
8.83414 601
8.85426 559
8.87437 608
8.89448 597
8.9146 574
8.93471 544
8.95483 526
8.97494 552
8.99505 545
9.01517 572
9.03528 562
9.05539 515
9.07551 609
9.09562 573
9.11573 561
9.13585 572
9.15596 530
9.17608 533
9.19619 571
9.2163 559
9.23642 561
9.25653 583
9.27664 568
9.29676 592
9.31687 597
9.33699 593
9.3571 547
9.37721 587
9.39733 577
9.41744 559
9.43755 564
9.45767 551
9.47778 550
9.4979 545
9.51801 526
9.53812 603
9.55824 560
9.57835 559
9.59846 575
9.61858 604
9.63869 585
9.6588 600
9.67892 591
9.69903 567
9.71915 557
9.73926 576
9.75937 570
9.77949 567
9.7996 572
9.81971 566
9.83983 568
9.85994 549
9.88006 577
9.90017 531
9.92028 554
9.9404 535
9.96051 543
9.98062 572
10.00074 565
10.02085 585
10.04097 517
10.06108 528
10.08119 577
10.10131 564
10.12142 558
10.14153 578
10.16165 552
10.18176 578
10.20187 524
10.22199 530
10.2421 554
10.26222 586
10.28233 543
10.30244 588
10.32256 562
10.34267 578
10.36278 556
10.3829 615
10.40301 583
10.42313 570
10.44324 595
10.46335 627
10.48347 631
10.50358 615
10.52369 588
10.54381 594
10.56392 593
10.58403 548
10.60415 572
10.62426 580
10.64438 560
10.66449 552
10.6846 558
10.70472 557
10.72483 547
10.74494 525
10.76506 541
10.78517 561
10.80529 555
10.8254 590
10.84551 607
10.86563 607
10.88574 601
10.90585 552
10.92597 596
10.94608 539
10.9662 584
10.98631 575
11.00642 585
11.02654 561
11.04665 535
11.06676 544
11.08688 595
11.10699 560
11.1271 591
11.14722 618
11.16733 582
11.18745 565
11.20756 549
11.22767 531
11.24779 566
11.2679 583
11.28801 603
11.30813 556
11.32824 582
11.34836 615
11.36847 529
11.38858 548
11.4087 579
11.42881 583
11.44892 571
11.46904 591
11.48915 579
11.50927 632
11.52938 594
11.54949 609
11.56961 576
11.58972 591
11.60983 575
11.62995 625
11.65006 595
11.67017 628
11.69029 670
11.7104 579
11.73052 613
11.75063 619
11.77074 617
11.79086 610
11.81097 635
11.83108 618
11.8512 639
11.87131 617
11.89143 589
11.91154 610
11.93165 638
11.95177 617
11.97188 684
11.99199 645
12.01211 656
12.03222 643
12.05234 631
12.07245 663
12.09256 658
12.11268 633
12.13279 627
12.1529 637
12.17302 688
12.19313 637
12.21324 647
12.23336 618
12.25347 640
12.27359 659
12.2937 629
12.31381 622
12.33393 659
12.35404 631
12.37415 612
12.39427 637
12.41438 667
12.4345 641
12.45461 645
12.47472 698
12.49484 597
12.51495 603
12.53506 600
12.55518 666
12.57529 642
12.5954 613
12.61552 575
12.63563 645
12.65575 646
12.67586 620
12.69597 585
12.71609 576
12.7362 614
12.75631 577
12.77643 547
12.79654 605
12.81666 608
12.83677 541
12.85688 572
12.877 572
12.89711 581
12.91722 575
12.93734 548
12.95745 569
12.97757 526
12.99768 584
13.01779 616
13.03791 598
13.05802 570
13.07813 582
13.09825 547
13.11836 558
13.13847 563
13.15859 504
13.1787 537
13.19882 522
13.21893 538
13.23904 522
13.25916 592
13.27927 538
13.29938 562
13.3195 595
13.33961 569
13.35973 568
13.37984 548
13.39995 539
13.42007 535
13.44018 530
13.46029 539
13.48041 532
13.50052 529
13.52064 534
13.54075 558
13.56086 569
13.58098 539
13.60109 559
13.6212 537
13.64132 536
13.66143 578
13.68154 560
13.70166 541
13.72177 528
13.74189 540
13.762 583
13.78211 532
13.80223 535
13.82234 574
13.84245 551
13.86257 531
13.88268 518
13.9028 524
13.92291 543
13.94302 554
13.96314 557
13.98325 536
14.00336 519
14.02348 525
14.04359 523
14.06371 531
14.08382 563
14.10393 542
14.12405 563
14.14416 559
14.16427 501
14.18439 557
14.2045 498
14.22461 547
14.24473 559
14.26484 515
14.28496 481
14.30507 539
14.32518 554
14.3453 524
14.36541 524
14.38552 549
14.40564 577
14.42575 476
14.44587 546
14.46598 612
14.48609 499
14.50621 546
14.52632 511
14.54643 525
14.56655 485
14.58666 531
14.60677 513
14.62689 564
14.647 458
14.66712 530
14.68723 554
14.70734 559
14.72746 483
14.74757 517
14.76768 510
14.7878 541
14.80791 518
14.82803 557
14.84814 580
14.86825 537
14.88837 592
14.90848 548
14.92859 539
14.94871 550
14.96882 544
14.98894 529
15.00905 540
15.02916 533
15.04928 525
15.06939 572
15.0895 536
15.10962 506
15.12973 545
15.14984 523
15.16996 540
15.19007 550
15.21019 507
15.2303 560
15.25041 532
15.27053 512
15.29064 487
15.31075 528
15.33087 535
15.35098 527
15.3711 527
15.39121 520
15.41132 523
15.43144 521
15.45155 513
15.47166 517
15.49178 505
15.51189 522
15.53201 549
15.55212 513
15.57223 500
15.59235 562
15.61246 531
15.63257 506
15.65269 489
15.6728 526
15.69291 571
15.71303 502
15.73314 529
15.75326 524
15.77337 565
15.79348 505
15.8136 546
15.83371 513
15.85382 517
15.87394 514
15.89405 502
15.91417 564
15.93428 521
15.95439 515
15.97451 490
15.99462 562
16.01473 530
16.03485 555
16.05496 536
16.07508 543
16.09519 560
16.1153 507
16.13542 550
16.15553 511
16.17564 496
16.19576 528
16.21587 494
16.23598 540
16.2561 533
16.27621 546
16.29633 549
16.31644 536
16.33655 592
16.35667 562
16.37678 545
16.39689 486
16.41701 499
16.43712 546
16.45724 563
16.47735 452
16.49746 547
16.51758 567
16.53769 530
16.5578 516
16.57792 506
16.59803 513
16.61814 513
16.63826 531
16.65837 546
16.67849 548
16.6986 539
16.71871 546
16.73883 573
16.75894 515
16.77905 505
16.79917 569
16.81928 577
16.8394 567
16.85951 581
16.87962 512
16.89974 529
16.91985 565
16.93996 538
16.96008 564
16.98019 549
17.00031 519
17.02042 562
17.04053 551
17.06065 568
17.08076 559
17.10087 527
17.12099 542
17.1411 560
17.16121 536
17.18133 540
17.20144 507
17.22156 565
17.24167 553
17.26178 558
17.2819 527
17.30201 536
17.32212 544
17.34224 561
17.36235 563
17.38247 516
17.40258 595
17.42269 529
17.44281 553
17.46292 511
17.48303 527
17.50315 540
17.52326 585
17.54338 539
17.56349 532
17.5836 538
17.60372 521
17.62383 533
17.64394 550
17.66406 559
17.68417 571
17.70428 555
17.7244 564
17.74451 492
17.76463 572
17.78474 600
17.80485 582
17.82497 604
17.84508 616
17.86519 586
17.88531 582
17.90542 587
17.92554 583
17.94565 571
17.96576 566
17.98588 573
18.00599 614
18.0261 569
18.04622 586
18.06633 616
18.08645 611
18.10656 665
18.12667 633
18.14679 672
18.1669 793
18.18701 767
18.20713 816
18.22724 909
18.24735 947
18.26747 923
18.28758 922
18.3077 914
18.32781 842
18.34792 861
18.36804 740
18.38815 735
18.40826 680
18.42838 642
18.44849 698
18.46861 678
18.48872 630
18.50883 626
18.52895 586
18.54906 630
18.56917 609
18.58929 604
18.6094 583
18.62951 572
18.64963 562
18.66974 614
18.68986 544
18.70997 558
18.73008 559
18.7502 589
18.77031 577
18.79042 585
18.81054 523
18.83065 598
18.85077 530
18.87088 598
18.89099 546
18.91111 587
18.93122 570
18.95133 583
18.97145 539
18.99156 526
19.01168 615
19.03179 562
19.0519 611
19.07202 546
19.09213 538
19.11224 524
19.13236 548
19.15247 589
19.17258 577
19.1927 567
19.21281 579
19.23293 657
19.25304 587
19.27315 583
19.29327 613
19.31338 599
19.33349 565
19.35361 595
19.37372 589
19.39384 593
19.41395 604
19.43406 572
19.45418 600
19.47429 601
19.4944 673
19.51452 610
19.53463 601
19.55475 600
19.57486 630
19.59497 627
19.61509 649
19.6352 680
19.65531 688
19.67543 689
19.69554 709
19.71565 670
19.73577 697
19.75588 704
19.776 764
19.79611 745
19.81622 690
19.83634 746
19.85645 784
19.87656 801
19.89668 784
19.91679 781
19.93691 780
19.95702 835
19.97713 777
19.99725 797
20.01736 790
20.03747 825
20.05759 800
20.0777 755
20.09782 770
20.11793 840
20.13804 844
20.15816 811
20.17827 858
20.19838 819
20.2185 839
20.23861 845
20.25872 871
20.27884 909
20.29895 850
20.31907 854
20.33918 852
20.35929 794
20.37941 822
20.39952 806
20.41963 770
20.43975 809
20.45986 819
20.47998 800
20.50009 786
20.5202 835
20.54032 754
20.56043 813
20.58054 758
20.60066 807
20.62077 794
20.64088 744
20.661 777
20.68111 721
20.70123 792
20.72134 841
20.74145 883
20.76157 1001
20.78168 1102
20.80179 1253
20.82191 1411
20.84202 1415
20.86214 1543
20.88225 1351
20.90236 1207
20.92248 979
20.94259 923
20.9627 836
20.98282 848
21.00293 815
21.02305 804
21.04316 860
21.06327 810
21.08339 789
21.1035 767
21.12361 752
21.14373 683
21.16384 723
21.18395 701
21.20407 709
21.22418 703
21.2443 712
21.26441 715
21.28452 701
21.30464 710
21.32475 680
21.34486 647
21.36498 740
21.38509 706
21.40521 720
21.42532 705
21.44543 630
21.46555 673
21.48566 664
21.50577 727
21.52589 654
21.546 628
21.56612 668
21.58623 632
21.60634 701
21.62646 644
21.64657 691
21.66668 672
21.6868 652
21.70691 695
21.72702 666
21.74714 694
21.76725 658
21.78737 687
21.80748 613
21.82759 690
21.84771 715
21.86782 679
21.88793 713
21.90805 729
21.92816 707
21.94828 761
21.96839 767
21.9885 723
22.00862 716
22.02873 741
22.04884 675
22.06896 731
22.08907 635
22.10919 637
22.1293 675
22.14941 667
22.16953 605
22.18964 644
22.20975 688
22.22987 695
22.24998 673
22.27009 667
22.29021 643
22.31032 680
22.33044 641
22.35055 620
22.37066 634
22.39078 660
22.41089 694
22.431 676
22.45112 631
22.47123 736
22.49135 674
22.51146 697
22.53157 699
22.55169 658
22.5718 646
22.59191 658
22.61203 675
22.63214 608
22.65225 621
22.67237 674
22.69248 580
22.7126 630
22.73271 646
22.75282 641
22.77294 661
22.79305 644
22.81316 663
22.83328 669
22.85339 675
22.87351 671
22.89362 629
22.91373 652
22.93385 682
22.95396 672
22.97407 628
22.99419 669
23.0143 660
23.03442 656
23.05453 679
23.07464 670
23.09476 626
23.11487 681
23.13498 697
23.1551 664
23.17521 662
23.19532 677
23.21544 661
23.23555 655
23.25567 647
23.27578 621
23.29589 666
23.31601 637
23.33612 666
23.35623 668
23.37635 667
23.39646 625
23.41658 648
23.43669 669
23.4568 735
23.47692 689
23.49703 668
23.51714 708
23.53726 715
23.55737 744
23.57749 671
23.5976 778
23.61771 770
23.63783 691
23.65794 732
23.67805 741
23.69817 682
23.71828 638
23.73839 702
23.75851 700
23.77862 671
23.79874 690
23.81885 655
23.83896 710
23.85908 690
23.87919 690
23.8993 645
23.91942 711
23.93953 690
23.95965 718
23.97976 684
23.99987 696
24.01999 716
24.0401 709
24.06021 703
24.08033 649
24.10044 653
24.12056 646
24.14067 706
24.16078 654
24.1809 769
24.20101 708
24.22112 690
24.24124 724
24.26135 682
24.28146 708
24.30158 647
24.32169 752
24.34181 705
24.36192 704
24.38203 657
24.40215 721
24.42226 725
24.44237 693
24.46249 697
24.4826 679
24.50272 693
24.52283 757
24.54294 691
24.56306 680
24.58317 679
24.60328 756
24.6234 708
24.64351 697
24.66362 711
24.68374 675
24.70385 669
24.72397 721
24.74408 718
24.76419 704
24.78431 699
24.80442 720
24.82453 726
24.84465 718
24.86476 719
24.88488 726
24.90499 674
24.9251 672
24.94522 699
24.96533 730
24.98544 649
25.00556 683
25.02567 679
25.04579 689
25.0659 657
25.08601 662
25.10613 679
25.12624 725
25.14635 705
25.16647 665
25.18658 764
25.20669 692
25.22681 689
25.24692 687
25.26704 654
25.28715 658
25.30726 685
25.32738 710
25.34749 663
25.3676 647
25.38772 671
25.40783 654
25.42795 645
25.44806 684
25.46817 668
25.48829 701
25.5084 699
25.52851 729
25.54863 728
25.56874 762
25.58886 769
25.60897 720
25.62908 752
25.6492 749
25.66931 721
25.68942 699
25.70954 669
25.72965 689
25.74976 706
25.76988 655
25.78999 629
25.81011 655
25.83022 666
25.85033 638
25.87045 691
25.89056 638
25.91067 653
25.93079 694
25.9509 678
25.97102 623
25.99113 673
26.01124 697
26.03136 669
26.05147 619
26.07158 645
26.0917 659
26.11181 688
26.13193 642
26.15204 635
26.17215 713
26.19227 633
26.21238 670
26.23249 696
26.25261 748
26.27272 750
26.29283 700
26.31295 719
26.33306 768
26.35318 820
26.37329 761
26.3934 791
26.41352 845
26.43363 894
26.45374 965
26.47386 1083
26.49397 1305
26.51409 1605
26.5342 2143
26.55431 2661
26.57443 3171
26.59454 3402
26.61465 3611
26.63477 3516
26.65488 3127
26.67499 2639
26.69511 2173
26.71522 1677
26.73534 1368
26.75545 1072
26.77556 897
26.79568 814
26.81579 797
26.8359 832
26.85602 806
26.87613 783
26.89625 781
26.91636 772
26.93647 760
26.95659 753
26.9767 770
26.99681 780
27.01693 781
27.03704 779
27.05716 792
27.07727 802
27.09738 764
27.1175 775
27.13761 739
27.15772 692
27.17784 665
27.19795 634
27.21806 659
27.23818 634
27.25829 688
27.27841 646
27.29852 651
27.31863 674
27.33875 636
27.35886 739
27.37897 719
27.39909 743
27.4192 770
27.43932 824
27.45943 796
27.47954 836
27.49966 797
27.51977 778
27.53988 757
27.56 748
27.58011 698
27.60023 644
27.62034 687
27.64045 711
27.66057 704
27.68068 721
27.70079 709
27.72091 739
27.74102 705
27.76113 712
27.78125 697
27.80136 788
27.82148 774
27.84159 783
27.8617 754
27.88182 755
27.90193 724
27.92204 766
27.94216 720
27.96227 758
27.98239 742
28.0025 710
28.02261 672
28.04273 723
28.06284 699
28.08295 586
28.10307 654
28.12318 659
28.1433 621
28.16341 584
28.18352 622
28.20364 610
28.22375 679
28.24386 661
28.26398 623
28.28409 610
28.3042 603
28.32432 596
28.34443 553
28.36455 550
28.38466 614
28.40477 638
28.42489 649
28.445 632
28.46511 647
28.48523 604
28.50534 667
28.52546 614
28.54557 625
28.56568 619
28.5858 645
28.60591 578
28.62602 603
28.64614 627
28.66625 585
28.68636 618
28.70648 624
28.72659 563
28.74671 583
28.76682 615
28.78693 604
28.80705 625
28.82716 602
28.84727 599
28.86739 550
28.8875 581
28.90762 562
28.92773 610
28.94784 582
28.96796 576
28.98807 609
29.00818 590
29.0283 590
29.04841 575
29.06853 596
29.08864 605
29.10875 593
29.12887 588
29.14898 590
29.16909 588
29.18921 589
29.20932 614
29.22943 579
29.24955 591
29.26966 622
29.28978 656
29.30989 577
29.33 585
29.35012 566
29.37023 592
29.39034 615
29.41046 629
29.43057 589
29.45069 578
29.4708 629
29.49091 614
29.51103 591
29.53114 611
29.55125 639
29.57137 596
29.59148 628
29.6116 603
29.63171 619
29.65182 655
29.67194 671
29.69205 656
29.71216 675
29.73228 685
29.75239 684
29.7725 737
29.79262 734
29.81273 739
29.83285 825
29.85296 865
29.87307 839
29.89319 922
29.9133 906
29.93341 832
29.95353 929
29.97364 958
29.99376 853
30.01387 840
30.03398 832
30.0541 731
30.07421 732
30.09432 738
30.11444 693
30.13455 743
30.15467 673
30.17478 691
30.19489 671
30.21501 685
30.23512 659
30.25523 702
30.27535 668
30.29546 684
30.31557 670
30.33569 654
30.3558 657
30.37592 630
30.39603 694
30.41614 671
30.43626 667
30.45637 656
30.47648 610
30.4966 633
30.51671 595
30.53683 591
30.55694 593
30.57705 634
30.59717 594
30.61728 578
30.63739 676
30.65751 622
30.67762 629
30.69773 657
30.71785 606
30.73796 637
30.75808 617
30.77819 661
30.7983 637
30.81842 583
30.83853 596
30.85864 581
30.87876 642
30.89887 549
30.91899 562
30.9391 598
30.95921 631
30.97933 601
30.99944 582
31.01955 585
31.03967 607
31.05978 570
31.0799 573
31.10001 585
31.12012 595
31.14024 577
31.16035 562
31.18046 602
31.20058 601
31.22069 565
31.2408 621
31.26092 554
31.28103 589
31.30115 617
31.32126 608
31.34137 578
31.36149 597
31.3816 587
31.40171 584
31.42183 583
31.44194 609
31.46206 601
31.48217 546
31.50228 585
31.5224 599
31.54251 630
31.56262 621
31.58274 578
31.60285 577
31.62297 609
31.64308 577
31.66319 606
31.68331 597
31.70342 617
31.72353 599
31.74365 605
31.76376 586
31.78387 592
31.80399 576
31.8241 580
31.84422 634
31.86433 578
31.88444 585
31.90456 580
31.92467 566
31.94478 575
31.9649 609
31.98501 654
32.00513 585
32.02524 585
32.04535 605
32.06547 566
32.08558 611
32.10569 569
32.12581 629
32.14592 634
32.16604 617
32.18615 620
32.20626 610
32.22638 607
32.24649 607
32.2666 620
32.28672 617
32.30683 646
32.32694 631
32.34706 617
32.36717 613
32.38729 607
32.4074 645
32.42751 620
32.44763 605
32.46774 583
32.48785 633
32.50797 620
32.52808 613
32.5482 569
32.56831 635
32.58842 559
32.60854 609
32.62865 595
32.64876 633
32.66888 623
32.68899 550
32.7091 633
32.72922 626
32.74933 630
32.76945 577
32.78956 570
32.80967 623
32.82979 622
32.8499 587
32.87001 605
32.89013 660
32.91024 628
32.93036 599
32.95047 632
32.97058 636
32.9907 636
33.01081 596
33.03092 672
33.05104 597
33.07115 631
33.09127 687
33.11138 663
33.13149 631
33.15161 619
33.17172 587
33.19183 634
33.21195 718
33.23206 642
33.25217 636
33.27229 616
33.2924 588
33.31252 561
33.33263 640
33.35274 575
33.37286 597
33.39297 582
33.41308 618
33.4332 638
33.45331 600
33.47343 594
33.49354 570
33.51365 577
33.53377 613
33.55388 572
33.57399 627
33.59411 622
33.61422 644
33.63434 638
33.65445 605
33.67456 662
33.69468 580
33.71479 616
33.7349 618
33.75502 623
33.77513 564
33.79524 607
33.81536 605
33.83547 621
33.85559 589
33.8757 595
33.89581 579
33.91593 553
33.93604 612
33.95615 586
33.97627 604
33.99638 564
34.0165 589
34.03661 590
34.05672 605
34.07684 616
34.09695 604
34.11706 595
34.13718 588
34.15729 593
34.17741 636
34.19752 585
34.21763 656
34.23775 637
34.25786 591
34.27797 623
34.29809 621
34.3182 640
34.33831 586
34.35843 640
34.37854 623
34.39866 658
34.41877 651
34.43888 668
34.459 694
34.47911 619
34.49922 677
34.51934 689
34.53945 645
34.55957 685
34.57968 643
34.59979 620
34.61991 678
34.64002 646
34.66013 664
34.68025 677
34.70036 716
34.72047 659
34.74059 666
34.7607 705
34.78082 647
34.80093 720
34.82104 686
34.84116 718
34.86127 778
34.88138 757
34.9015 727
34.92161 750
34.94173 801
34.96184 745
34.98195 747
35.00207 843
35.02218 843
35.04229 867
35.06241 814
35.08252 883
35.10264 1050
35.12275 1037
35.14286 1107
35.16298 1135
35.18309 1372
35.2032 1355
35.22332 1437
35.24343 1479
35.26354 1519
35.28366 1494
35.30377 1467
35.32389 1382
35.344 1287
35.36411 1278
35.38423 1227
35.40434 1163
35.42445 1100
35.44457 1042
35.46468 1046
35.4848 965
35.50491 994
35.52502 989
35.54514 915
35.56525 932
35.58536 901
35.60548 826
35.62559 884
35.64571 828
35.66582 784
35.68593 767
35.70605 802
35.72616 817
35.74627 784
35.76639 766
35.7865 737
35.80661 702
35.82673 763
35.84684 724
35.86696 713
35.88707 682
35.90718 721
35.9273 729
35.94741 714
35.96752 725
35.98764 700
36.00775 665
36.02787 674
36.04798 707
36.06809 653
36.08821 693
36.10832 694
36.12843 693
36.14855 693
36.16866 668
36.18878 689
36.20889 714
36.229 725
36.24912 667
36.26923 715
36.28934 667
36.30946 670
36.32957 709
36.34968 764
36.3698 753
36.38991 724
36.41003 769
36.43014 832
36.45025 813
36.47037 862
36.49048 905
36.51059 909
36.53071 836
36.55082 869
36.57094 825
36.59105 809
36.61116 813
36.63128 731
36.65139 813
36.6715 695
36.69162 714
36.71173 733
36.73184 660
36.75196 667
36.77207 650
36.79219 706
36.8123 664
36.83241 663
36.85253 735
36.87264 668
36.89275 685
36.91287 691
36.93298 699
36.9531 670
36.97321 597
36.99332 672
37.01344 693
37.03355 697
37.05366 710
37.07378 704
37.09389 658
37.11401 617
37.13412 665
37.15423 607
37.17435 687
37.19446 632
37.21457 640
37.23469 655
37.2548 687
37.27491 626
37.29503 639
37.31514 654
37.33526 624
37.35537 646
37.37548 691
37.3956 632
37.41571 599
37.43582 629
37.45594 644
37.47605 650
37.49617 691
37.51628 617
37.53639 679
37.55651 673
37.57662 717
37.59673 624
37.61685 706
37.63696 654
37.65708 682
37.67719 736
37.6973 697
37.71742 658
37.73753 651
37.75764 631
37.77776 658
37.79787 639
37.81798 648
37.8381 637
37.85821 657
37.87833 627
37.89844 664
37.91855 622
37.93867 664
37.95878 643
37.97889 634
37.99901 670
38.01912 567
38.03924 644
38.05935 614
38.07946 590
38.09958 619
38.11969 583
38.1398 639
38.15992 640
38.18003 619
38.20015 658
38.22026 657
38.24037 652
38.26049 638
38.2806 631
38.30071 620
38.32083 632
38.34094 636
38.36105 689
38.38117 606
38.40128 637
38.4214 643
38.44151 614
38.46162 651
38.48174 649
38.50185 628
38.52196 621
38.54208 643
38.56219 629
38.58231 613
38.60242 645
38.62253 616
38.64265 583
38.66276 633
38.68287 613
38.70299 610
38.7231 616
38.74321 662
38.76333 621
38.78344 572
38.80356 597
38.82367 629
38.84378 602
38.8639 627
38.88401 625
38.90412 638
38.92424 564
38.94435 625
38.96447 608
38.98458 605
39.00469 590
39.02481 617
39.04492 628
39.06503 647
39.08515 597
39.10526 613
39.12538 608
39.14549 629
39.1656 636
39.18572 625
39.20583 611
39.22594 583
39.24606 611
39.26617 644
39.28628 638
39.3064 659
39.32651 656
39.34663 701
39.36674 747
39.38685 738
39.40697 828
39.42708 767
39.44719 800
39.46731 784
39.48742 771
39.50754 681
39.52765 739
39.54776 668
39.56788 644
39.58799 641
39.6081 599
39.62822 610
39.64833 596
39.66845 579
39.68856 622
39.70867 598
39.72879 575
39.7489 624
39.76901 612
39.78913 574
39.80924 613
39.82935 613
39.84947 621
39.86958 608
39.8897 637
39.90981 558
39.92992 605
39.95004 612
39.97015 577
39.99026 577
40.01038 629
40.03049 628
40.05061 618
40.07072 543
40.09083 602
40.11095 628
40.13106 649
40.15117 630
40.17129 674
40.1914 703
40.21152 653
40.23163 662
40.25174 711
40.27186 665
40.29197 673
40.31208 657
40.3322 671
40.35231 628
40.37242 676
40.39254 619
40.41265 593
40.43277 586
40.45288 660
40.47299 615
40.49311 617
40.51322 611
40.53333 605
40.55345 621
40.57356 593
40.59368 590
40.61379 601
40.6339 632
40.65402 618
40.67413 611
40.69424 613
40.71436 613
40.73447 585
40.75458 579
40.7747 616
40.79481 583
40.81493 596
40.83504 610
40.85515 606
40.87527 639
40.89538 623
40.91549 617
40.93561 616
40.95572 585
40.97584 617
40.99595 603
41.01606 616
41.03618 579
41.05629 569
41.0764 608
41.09652 572
41.11663 625
41.13675 629
41.15686 612
41.17697 596
41.19709 593
41.2172 565
41.23731 568
41.25743 539
41.27754 604
41.29765 625
41.31777 567
41.33788 578
41.358 607
41.37811 589
41.39822 550
41.41834 550
41.43845 601
41.45856 589
41.47868 610
41.49879 588
41.51891 627
41.53902 638
41.55913 629
41.57925 611
41.59936 593
41.61947 596
41.63959 649
41.6597 660
41.67982 635
41.69993 631
41.72004 594
41.74016 647
41.76027 580
41.78038 595
41.8005 647
41.82061 614
41.84072 581
41.86084 608
41.88095 573
41.90107 610
41.92118 591
41.94129 600
41.96141 563
41.98152 587
42.00163 572
42.02175 559
42.04186 570
42.06198 614
42.08209 590
42.1022 532
42.12232 562
42.14243 580
42.16254 582
42.18266 590
42.20277 588
42.22289 602
42.243 626
42.26311 587
42.28323 614
42.30334 640
42.32345 665
42.34357 651
42.36368 714
42.38379 697
42.40391 739
42.42402 707
42.44414 719
42.46425 699
42.48436 705
42.50448 674
42.52459 641
42.5447 687
42.56482 648
42.58493 621
42.60505 611
42.62516 619
42.64527 573
42.66539 625
42.6855 642
42.70561 642
42.72573 652
42.74584 667
42.76595 694
42.78607 733
42.80618 771
42.8263 706
42.84641 735
42.86652 709
42.88664 711
42.90675 703
42.92686 707
42.94698 693
42.96709 611
42.98721 646
43.00732 676
43.02743 628
43.04755 615
43.06766 624
43.08777 635
43.10789 646
43.128 603
43.14812 614
43.16823 611
43.18834 579
43.20846 558
43.22857 557
43.24868 618
43.2688 608
43.28891 587
43.30902 600
43.32914 589
43.34925 549
43.36937 566
43.38948 552
43.40959 528
43.42971 536
43.44982 553
43.46993 575
43.49005 553
43.51016 579
43.53028 538
43.55039 561
43.5705 589
43.59062 554
43.61073 547
43.63084 549
43.65096 524
43.67107 537
43.69119 532
43.7113 578
43.73141 544
43.75153 510
43.77164 555
43.79175 600
43.81187 560
43.83198 557
43.85209 591
43.87221 538
43.89232 563
43.91244 575
43.93255 541
43.95266 552
43.97278 575
43.99289 558
44.013 559
44.03312 539
44.05323 549
44.07335 571
44.09346 556
44.11357 581
44.13369 609
44.1538 611
44.17391 574
44.19403 614
44.21414 598
44.23426 587
44.25437 588
44.27448 593
44.2946 581
44.31471 550
44.33482 530
44.35494 543
44.37505 567
44.39516 529
44.41528 586
44.43539 514
44.45551 526
44.47562 559
44.49573 520
44.51585 539
44.53596 550
44.55607 556
44.57619 542
44.5963 541
44.61642 590
44.63653 561
44.65664 571
44.67676 614
44.69687 526
44.71698 576
44.7371 557
44.75721 579
44.77732 586
44.79744 567
44.81755 563
44.83767 554
44.85778 589
44.87789 568
44.89801 588
44.91812 590
44.93823 558
44.95835 576
44.97846 587
44.99858 578
45.01869 593
45.0388 581
45.05892 548
45.07903 548
45.09914 607
45.11926 542
45.13937 515
45.15949 562
45.1796 569
45.19971 563
45.21983 521
45.23994 548
45.26005 589
45.28017 549
45.30028 566
45.32039 568
45.34051 558
45.36062 576
45.38074 610
45.40085 579
45.42096 629
45.44108 566
45.46119 578
45.4813 521
45.50142 592
45.52153 580
45.54165 611
45.56176 624
45.58187 580
45.60199 596
45.6221 596
45.64221 570
45.66233 589
45.68244 593
45.70256 573
45.72267 635
45.74278 579
45.7629 646
45.78301 633
45.80312 583
45.82324 609
45.84335 575
45.86346 570
45.88358 599
45.90369 583
45.92381 651
45.94392 556
45.96403 554
45.98415 547
46.00426 598
46.02437 568
46.04449 569
46.0646 538
46.08472 566
46.10483 549
46.12494 578
46.14506 559
46.16517 551
46.18528 533
46.2054 567
46.22551 575
46.24563 576
46.26574 564
46.28585 556
46.30597 521
46.32608 553
46.34619 550
46.36631 587
46.38642 576
46.40653 577
46.42665 528
46.44676 526
46.46688 539
46.48699 539
46.5071 499
46.52722 494
46.54733 554
46.56744 544
46.58756 511
46.60767 557
46.62779 510
46.6479 515
46.66801 551
46.68813 550
46.70824 524
46.72835 580
46.74847 530
46.76858 541
46.78869 523
46.80881 484
46.82892 553
46.84904 517
46.86915 533
46.88926 517
46.90938 542
46.92949 569
46.9496 536
46.96972 509
46.98983 568
47.00995 552
47.03006 534
47.05017 590
47.07029 537
47.0904 525
47.11051 543
47.13063 535
47.15074 573
47.17086 559
47.19097 551
47.21108 555
47.2312 569
47.25131 581
47.27142 536
47.29154 625
47.31165 545
47.33176 567
47.35188 598
47.37199 545
47.39211 542
47.41222 603
47.43233 585
47.45245 565
47.47256 567
47.49267 552
47.51279 549
47.5329 523
47.55302 558
47.57313 539
47.59324 519
47.61336 560
47.63347 538
47.65358 505
47.6737 537
47.69381 530
47.71393 501
47.73404 531
47.75415 554
47.77427 556
47.79438 508
47.81449 528
47.83461 538
47.85472 522
47.87483 558
47.89495 501
47.91506 549
47.93518 528
47.95529 524
47.9754 524
47.99552 575
48.01563 536
48.03574 556
48.05586 542
48.07597 551
48.09609 548
48.1162 541
48.13631 585
48.15643 512
48.17654 585
48.19665 526
48.21677 548
48.23688 538
48.257 510
48.27711 567
48.29722 519
48.31734 561
48.33745 539
48.35756 554
48.37768 539
48.39779 499
48.4179 554
48.43802 526
48.45813 552
48.47825 507
48.49836 561
48.51847 516
48.53859 510
48.5587 534
48.57881 506
48.59893 555
48.61904 541
48.63916 545
48.65927 556
48.67938 516
48.6995 547
48.71961 560
48.73972 579
48.75984 573
48.77995 529
48.80006 546
48.82018 497
48.84029 536
48.86041 512
48.88052 594
48.90063 555
48.92075 560
48.94086 555
48.96097 534
48.98109 546
49.0012 529
49.02132 558
49.04143 547
49.06154 552
49.08166 563
49.10177 549
49.12188 569
49.142 570
49.16211 575
49.18223 537
49.20234 561
49.22245 540
49.24257 519
49.26268 524
49.28279 538
49.30291 502
49.32302 554
49.34313 520
49.36325 543
49.38336 545
49.40348 558
49.42359 520
49.4437 548
49.46382 526
49.48393 547
49.50404 570
49.52416 561
49.54427 587
49.56439 505
49.5845 528
49.60461 543
49.62473 525
49.64484 504
49.66495 505
49.68507 517
49.70518 541
49.7253 578
49.74541 550
49.76552 573
49.78564 569
49.80575 584
49.82586 545
49.84598 584
49.86609 565
49.8862 559
49.90632 644
49.92643 611
49.94655 619
49.96666 617
49.98677 675
50.00689 689
50.027 774
50.04711 787
50.06723 821
50.08734 828
50.10746 863
50.12757 797
50.14768 717
50.1678 751
50.18791 726
50.20802 740
50.22814 659
50.24825 634
50.26837 626
50.28848 585
50.30859 561
50.32871 554
50.34882 546
50.36893 572
50.38905 582
50.40916 562
50.42927 567
50.44939 574
50.4695 561
50.48962 598
50.50973 572
50.52984 601
50.54996 605
50.57007 564
50.59018 599
50.6103 577
50.63041 568
50.65053 566
50.67064 564
50.69075 637
50.71087 584
50.73098 562
50.75109 558
50.77121 532
50.79132 544
50.81143 583
50.83155 571
50.85166 526
50.87178 550
50.89189 552
50.912 518
50.93212 558
50.95223 526
50.97234 558
50.99246 524
51.01257 550
51.03269 517
51.0528 565
51.07291 511
51.09303 533
51.11314 557
51.13325 518
51.15337 540
51.17348 527
51.1936 555
51.21371 500
51.23382 562
51.25394 519
51.27405 549
51.29416 542
51.31428 568
51.33439 514
51.3545 555
51.37462 547
51.39473 527
51.41485 548
51.43496 535
51.45507 495
51.47519 491
51.4953 523
51.51541 532
51.53553 505
51.55564 528
51.57576 546
51.59587 523
51.61598 535
51.6361 517
51.65621 521
51.67632 526
51.69644 508
51.71655 574
51.73667 552
51.75678 517
51.77689 552
51.79701 551
51.81712 537
51.83723 565
51.85735 587
51.87746 534
51.89757 508
51.91769 580
51.9378 531
51.95792 541
51.97803 543
51.99814 527
52.01826 550
52.03837 536
52.05848 541
52.0786 561
52.09871 530
52.11883 549
52.13894 550
52.15905 569
52.17917 551
52.19928 542
52.21939 541
52.23951 552
52.25962 524
52.27974 566
52.29985 518
52.31996 609
52.34008 547
52.36019 510
52.3803 530
52.40042 589
52.42053 518
52.44064 557
52.46076 515
52.48087 528
52.50099 533
52.5211 540
52.54121 570
52.56133 568
52.58144 578
52.60155 549
52.62167 554
52.64178 520
52.6619 546
52.68201 536
52.70212 565
52.72224 539
52.74235 527
52.76246 555
52.78258 569
52.80269 516
52.8228 573
52.84292 564
52.86303 554
52.88315 528
52.90326 569
52.92337 553
52.94349 580
52.9636 531
52.98371 569
53.00383 584
53.02394 565
53.04406 649
53.06417 577
53.08428 614
53.1044 601
53.12451 574
53.14462 624
53.16474 591
53.18485 602
53.20497 600
53.22508 584
53.24519 601
53.26531 625
53.28542 626
53.30553 572
53.32565 551
53.34576 570
53.36587 539
53.38599 599
53.4061 575
53.42622 549
53.44633 574
53.46644 566
53.48656 566
53.50667 586
53.52678 625
53.5469 566
53.56701 560
53.58713 576
53.60724 562
53.62735 516
53.64747 567
53.66758 590
53.68769 582
53.70781 578
53.72792 565
53.74804 555
53.76815 543
53.78826 553
53.80838 573
53.82849 578
53.8486 563
53.86872 585
53.88883 546
53.90894 598
53.92906 575
53.94917 580
53.96929 575
53.9894 577
54.00951 581
54.02963 566
54.04974 593
54.06985 560
54.08997 596
54.11008 562
54.1302 616
54.15031 578
54.17042 632
54.19054 586
54.21065 599
54.23076 585
54.25088 604
54.27099 587
54.29111 553
54.31122 577
54.33133 563
54.35145 608
54.37156 636
54.39167 590
54.41179 587
54.4319 601
54.45201 611
54.47213 603
54.49224 558
54.51236 568
54.53247 532
54.55258 587
54.5727 595
54.59281 579
54.61292 625
54.63304 587
54.65315 580
54.67327 572
54.69338 602
54.71349 640
54.73361 614
54.75372 634
54.77383 664
54.79395 644
54.81406 660
54.83417 646
54.85429 649
54.8744 593
54.89452 668
54.91463 589
54.93474 577
54.95486 585
54.97497 561
54.99508 599
55.0152 574
55.03531 606
55.05543 629
55.07554 558
55.09565 539
55.11577 550
55.13588 590
55.15599 556
55.17611 577
55.19622 569
55.21634 573
55.23645 569
55.25656 618
55.27668 637
55.29679 609
55.3169 601
55.33702 585
55.35713 544
55.37724 567
55.39736 646
55.41747 541
55.43759 607
55.4577 585
55.47781 555
55.49793 581
55.51804 530
55.53815 561
55.55827 549
55.57838 577
55.5985 559
55.61861 580
55.63872 529
55.65884 529
55.67895 530
55.69906 566
55.71918 538
55.73929 538
55.75941 539
55.77952 560
55.79963 573
55.81975 562
55.83986 523
55.85997 556
55.88009 577
55.9002 542
55.92031 542
55.94043 513
55.96054 557
55.98066 558
56.00077 494
56.02088 578
56.041 524
56.06111 525
56.08122 566
56.10134 584
56.12145 554
56.14157 554
56.16168 523
56.18179 526
56.20191 531
56.22202 563
56.24213 572
56.26225 552
56.28236 546
56.30248 540
56.32259 533
56.3427 524
56.36282 553
56.38293 557
56.40304 577
56.42316 566
56.44327 575
56.46338 591
56.4835 618
56.50361 556
56.52373 628
56.54384 618
56.56395 706
56.58407 680
56.60418 704
56.62429 674
56.64441 649
56.66452 698
56.68464 720
56.70475 683
56.72486 718
56.74498 678
56.76509 646
56.7852 627
56.80532 656
56.82543 655
56.84554 636
56.86566 667
56.88577 613
56.90589 583
56.926 573
56.94611 618
56.96623 644
56.98634 606
57.00645 588
57.02657 571
57.04668 565
57.0668 590
57.08691 555
57.10702 578
57.12714 586
57.14725 549
57.16736 588
57.18748 531
57.20759 576
57.22771 576
57.24782 549
57.26793 596
57.28805 548
57.30816 539
57.32827 555
57.34839 549
57.3685 524
57.38861 546
57.40873 568
57.42884 595
57.44896 578
57.46907 579
57.48918 536
57.5093 543
57.52941 515
57.54952 527
57.56964 551
57.58975 563
57.60987 551
57.62998 546
57.65009 518
57.67021 534
57.69032 522
57.71043 577
57.73055 528
57.75066 540
57.77078 523
57.79089 483
57.811 535
57.83112 546
57.85123 514
57.87134 514
57.89146 514
57.91157 518
57.93168 537
57.9518 533
57.97191 524
57.99203 549
58.01214 527
58.03225 533
58.05237 523
58.07248 562
58.09259 490
58.11271 496
58.13282 511
58.15294 524
58.17305 491
58.19316 486
58.21328 535
58.23339 539
58.2535 549
58.27362 552
58.29373 543
58.31385 575
58.33396 501
58.35407 502
58.37419 518
58.3943 490
58.41441 524
58.43453 519
58.45464 516
58.47475 464
58.49487 543
58.51498 513
58.5351 534
58.55521 503
58.57532 521
58.59544 528
58.61555 550
58.63566 546
58.65578 483
58.67589 442
58.69601 487
58.71612 516
58.73623 517
58.75635 516
58.77646 489
58.79657 536
58.81669 500
58.8368 524
58.85691 500
58.87703 498
58.89714 496
58.91726 504
58.93737 507
58.95748 518
58.9776 539
58.99771 509
59.01782 496
59.03794 498
59.05805 536
59.07817 498
59.09828 499
59.11839 511
59.13851 510
59.15862 515
59.17873 516
59.19885 517
59.21896 536
59.23908 502
59.25919 520
59.2793 533
59.29942 496
59.31953 486
59.33964 487
59.35976 523
59.37987 491
59.39998 554
59.4201 500
59.44021 478
59.46033 510
59.48044 507
59.50055 562
59.52067 591
59.54078 540
59.56089 492
59.58101 489
59.60112 516
59.62124 576
59.64135 521
59.66146 503
59.68158 507
59.70169 540
59.7218 579
59.74192 587
59.76203 568
59.78215 567
59.80226 612
59.82237 599
59.84249 618
59.8626 681
59.88271 718
59.90283 725
59.92294 700
59.94305 687
59.96317 658
59.98328 588
60.0034 627
60.02351 541
60.04362 601
60.06374 622
60.08385 601
60.10396 561
60.12408 574
60.14419 560
60.16431 530
60.18442 559
60.20453 520
60.22465 547
60.24476 521
60.26487 518
60.28499 528
60.3051 538
60.32522 517
60.34533 515
60.36544 527
60.38556 505
60.40567 567
60.42578 543
60.4459 521
60.46601 508
60.48612 539
60.50624 487
60.52635 475
60.54647 527
60.56658 527
60.58669 535
60.60681 526
60.62692 502
60.64703 500
60.66715 524
60.68726 490
60.70738 476
60.72749 513
60.7476 509
60.76772 526
60.78783 512
60.80794 543
60.82806 519
60.84817 535
60.86828 498
60.8884 554
60.90851 561
60.92863 500
60.94874 488
60.96885 511
60.98897 528
61.00908 520
61.02919 512
61.04931 527
61.06942 546
61.08954 504
61.10965 522
61.12976 535
61.14988 506
61.16999 506
61.1901 503
61.21022 506
61.23033 553
61.25045 560
61.27056 543
61.29067 497
61.31079 514
61.3309 537
61.35101 522
61.37113 507
61.39124 558
61.41135 494
61.43147 540
61.45158 532
61.4717 487
61.49181 587
61.51192 550
61.53204 523
61.55215 509
61.57226 549
61.59238 490
61.61249 552
61.63261 552
61.65272 540
61.67283 579
61.69295 555
61.71306 585
61.73317 550
61.75329 554
61.7734 542
61.79352 542
61.81363 561
61.83374 589
61.85386 589
61.87397 576
61.89408 576
61.9142 554
61.93431 584
61.95442 626
61.97454 573
61.99465 632
62.01477 663
62.03488 681
62.05499 699
62.07511 696
62.09522 777
62.11533 731
62.13545 730
62.15556 710
62.17568 743
62.19579 705
62.2159 711
62.23602 746
62.25613 742
62.27624 733
62.29636 710
62.31647 701
62.33659 719
62.3567 661
62.37681 709
62.39693 712
62.41704 656
62.43715 676
62.45727 707
62.47738 725
62.49749 656
62.51761 598
62.53772 609
62.55784 677
62.57795 611
62.59806 645
62.61818 597
62.63829 616
62.6584 608
62.67852 587
62.69863 575
62.71875 586
62.73886 568
62.75897 585
62.77909 617
62.7992 587
62.81931 567
62.83943 571
62.85954 608
62.87965 562
62.89977 633
62.91988 520
62.94 599
62.96011 549
62.98022 529
63.00034 574
63.02045 531
63.04056 575
63.06068 578
63.08079 572
63.10091 538
63.12102 583
63.14113 533
63.16125 543
63.18136 574
63.20147 578
63.22159 550
63.2417 562
63.26182 534
63.28193 539
63.30204 525
63.32216 520
63.34227 521
63.36238 524
63.3825 559
63.40261 551
63.42272 566
63.44284 531
63.46295 489
63.48307 539
63.50318 553
63.52329 536
63.54341 513
63.56352 548
63.58363 532
63.60375 518
63.62386 526
63.64398 540
63.66409 550
63.6842 509
63.70432 522
63.72443 538
63.74454 505
63.76466 579
63.78477 569
63.80489 604
63.825 584
63.84511 534
63.86523 548
63.88534 551
63.90545 581
63.92557 603
63.94568 598
63.96579 540
63.98591 546
64.00602 563
64.02614 618
64.04625 513
64.06636 518
64.08648 579
64.10659 532
64.1267 552
64.14682 487
64.16693 589
64.18705 555
64.20716 575
64.22727 538
64.24739 560
64.2675 515
64.28761 568
64.30773 529
64.32784 463
64.34796 523
64.36807 493
64.38818 518
64.4083 499
64.42841 515
64.44852 500
64.46864 484
64.48875 524
64.50886 537
64.52898 531
64.54909 506
64.56921 566
64.58932 512
64.60943 512
64.62955 530
64.64966 495
64.66977 550
64.68989 530
64.71 510
64.73012 478
64.75023 522
64.77034 509
64.79046 510
64.81057 505
64.83068 543
64.8508 500
64.87091 532
64.89102 506
64.91114 533
64.93125 484
64.95137 487
64.97148 490
64.99159 497
65.01171 503
65.03182 461
65.05193 490
65.07205 460
65.09216 481
65.11228 520
65.13239 487
65.1525 495
65.17262 508
65.19273 481
65.21284 502
65.23296 508
65.25307 496
65.27319 495
65.2933 503
65.31341 545
65.33353 506
65.35364 509
65.37375 496
65.39387 519
65.41398 500
65.43409 508
65.45421 501
65.47432 496
65.49444 478
65.51455 466
65.53466 507
65.55478 501
65.57489 471
65.595 465
65.61512 478
65.63523 493
65.65535 492
65.67546 493
65.69557 459
65.71569 520
65.7358 504
65.75591 473
65.77603 511
65.79614 478
65.81626 496
65.83637 477
65.85648 491
65.8766 500
65.89671 467
65.91682 463
65.93694 475
65.95705 497
65.97716 470
65.99728 502
66.01739 492
66.03751 476
66.05762 482
66.07773 478
66.09785 469
66.11796 491
66.13807 467
66.15819 462
66.1783 482
66.19842 533
66.21853 460
66.23864 487
66.25876 510
66.27887 484
66.29898 490
66.3191 481
66.33921 464
66.35933 491
66.37944 484
66.39955 523
66.41967 469
66.43978 480
66.45989 475
66.48001 498
66.50012 487
66.52023 475
66.54035 533
66.56046 459
66.58058 508
66.60069 449
66.6208 524
66.64092 458
66.66103 457
66.68114 491
66.70126 490
66.72137 488
66.74149 493
66.7616 470
66.78171 474
66.80183 475
66.82194 498
66.84205 472
66.86217 486
66.88228 504
66.90239 490
66.92251 452
66.94262 464
66.96274 468
66.98285 470
67.00296 457
67.02308 505
67.04319 501
67.0633 495
67.08342 438
67.10353 460
67.12365 470
67.14376 452
67.16387 457
67.18399 488
67.2041 489
67.22421 479
67.24433 480
67.26444 488
67.28456 462
67.30467 445
67.32478 508
67.3449 487
67.36501 461
67.38512 482
67.40524 481
67.42535 490
67.44546 520
67.46558 492
67.48569 475
67.50581 489
67.52592 483
67.54603 523
67.56615 515
67.58626 478
67.60637 572
67.62649 567
67.6466 597
67.66672 569
67.68683 583
67.70694 551
67.72706 537
67.74717 526
67.76728 511
67.7874 521
67.80751 509
67.82763 503
67.84774 522
67.86785 551
67.88797 557
67.90808 584
67.92819 541
67.94831 525
67.96842 563
67.98853 532
68.00865 574
68.02876 619
68.04888 588
68.06899 569
68.0891 608
68.10922 615
68.12933 559
68.14944 582
68.16956 584
68.18967 563
68.20979 542
68.2299 579
68.25001 611
68.27013 625
68.29024 565
68.31035 577
68.33047 550
68.35058 538
68.3707 529
68.39081 519
68.41092 509
68.43104 506
68.45115 523
68.47126 483
68.49138 466
68.51149 518
68.5316 512
68.55172 460
68.57183 481
68.59195 479
68.61206 495
68.63217 475
68.65229 488
68.6724 484
68.69251 447
68.71263 475
68.73274 464
68.75286 475
68.77297 487
68.79308 521
68.8132 482
68.83331 466
68.85342 491
68.87354 485
68.89365 456
68.91376 466
68.93388 481
68.95399 472
68.97411 473
68.99422 459
69.01433 432
69.03445 472
69.05456 453
69.07467 455
69.09479 475
69.1149 475
69.13502 494
69.15513 411
69.17524 489
69.19536 473
69.21547 444
69.23558 434
69.2557 431
69.27581 448
69.29593 499
69.31604 458
69.33615 468
69.35627 462
69.37638 440
69.39649 475
69.41661 465
69.43672 460
69.45683 475
69.47695 461
69.49706 481
69.51718 518
69.53729 433
69.5574 477
69.57752 434
69.59763 475
69.61774 479
69.63786 460
69.65797 451
69.67809 470
69.6982 469
69.71831 431
69.73843 428
69.75854 464
69.77865 468
69.79877 464
69.81888 460
69.839 442
69.85911 472
69.87922 473
69.89934 445
69.91945 448
69.93956 431
69.95968 472
69.97979 433
69.9999 435
70.02002 478
70.04013 442
70.06025 438
70.08036 436
70.10047 474
70.12059 443
70.1407 428
70.16081 467
70.18093 465
70.20104 462
70.22116 439
70.24127 454
70.26138 428
70.2815 468
70.30161 448
70.32172 420
70.34184 464
70.36195 460
70.38207 430
70.40218 463
70.42229 426
70.44241 418
70.46252 455
70.48263 440
70.50275 492
70.52286 462
70.54297 474
70.56309 479
70.5832 472
70.60332 469
70.62343 440
70.64354 439
70.66366 445
70.68377 501
70.70388 478
70.724 442
70.74411 444
70.76423 489
70.78434 432
70.80445 451
70.82457 441
70.84468 473
70.86479 480
70.88491 445
70.90502 453
70.92513 450
70.94525 455
70.96536 485
70.98548 431
71.00559 446
71.0257 438
71.04582 441
71.06593 454
71.08604 466
71.10616 434
71.12627 453
71.14639 440
71.1665 459
71.18661 455
71.20673 449
71.22684 468
71.24695 467
71.26707 399
71.28718 491
71.3073 452
71.32741 456
71.34752 419
71.36764 479
71.38775 469
71.40786 420
71.42798 459
71.44809 454
71.4682 428
71.48832 469
71.50843 503
71.52855 480
71.54866 487
71.56877 437
71.58889 433
71.609 460
71.62911 453
71.64923 444
71.66934 443
71.68946 427
71.70957 434
71.72968 456
71.7498 459
71.76991 437
71.79002 453
71.81014 457
71.83025 467
71.85037 444
71.87048 461
71.89059 428
71.91071 461
71.93082 454
71.95093 436
71.97105 409
71.99116 460
72.01127 493
72.03139 434
72.0515 476
72.07162 467
72.09173 459
72.11184 464
72.13196 443
72.15207 421
72.17218 446
72.1923 447
72.21241 420
72.23253 438
72.25264 455
72.27275 469
72.29287 468
72.31298 426
72.33309 413
72.35321 435
72.37332 480
72.39344 452
72.41355 426
72.43366 498
72.45378 397
72.47389 464
72.494 479
72.51412 423
72.53423 436
72.55434 459
72.57446 477
72.59457 442
72.61469 422
72.6348 463
72.65491 447
72.67503 439
72.69514 446
72.71525 459
72.73537 465
72.75548 448
72.7756 411
72.79571 414
72.81582 467
72.83594 445
72.85605 428
72.87616 454
72.89628 486
72.91639 464
72.9365 439
72.95662 458
72.97673 431
72.99685 465
73.01696 434
73.03707 422
73.05719 423
73.0773 435
73.09741 438
73.11753 435
73.13764 421
73.15776 467
73.17787 418
73.19798 447
73.2181 432
73.23821 472
73.25832 480
73.27844 483
73.29855 449
73.31867 442
73.33878 492
73.35889 490
73.37901 487
73.39912 519
73.41923 477
73.43935 509
73.45946 482
73.47957 494
73.49969 490
73.5198 465
73.53992 471
73.56003 488
73.58014 509
73.60026 482
73.62037 511
73.64048 467
73.6606 478
73.68071 454
73.70083 458
73.72094 491
73.74105 468
73.76117 464
73.78128 418
73.80139 467
73.82151 450
73.84162 457
73.86174 454
73.88185 461
73.90196 412
73.92208 468
73.94219 455
73.9623 463
73.98242 427
74.00253 466
74.02264 433
74.04276 421
74.06287 452
74.08299 446
74.1031 412
74.12321 444
74.14333 443
74.16344 429
74.18355 444
74.20367 450
74.22378 460
74.2439 503
74.26401 422
74.28412 436
74.30424 477
74.32435 410
74.34446 433
74.36458 490
74.38469 442
74.40481 431
74.42492 432
74.44503 443
74.46515 447
74.48526 441
74.50537 498
74.52549 450
74.5456 451
74.56571 473
74.58583 440
74.60594 443
74.62606 441
74.64617 430
74.66628 465
74.6864 431
74.70651 453
74.72662 446
74.74674 432
74.76685 430
74.78697 422
74.80708 426
74.82719 427
74.84731 462
74.86742 490
74.88753 417
74.90765 438
74.92776 447
74.94787 411
74.96799 429
74.9881 422
75.00822 408
