3.00117 23516.8925076625
3.02128 22832.8515254146
3.0414 21982
3.06151 21544.6587886776
3.08162 20689.4494468705
3.10174 20493.4982628707
3.12185 19995.2932948811
3.14197 19479.0599639891
3.16208 18704.5056127236
3.18219 18557.0109409814
3.20231 18196.5394722412
3.22242 17077.290658
3.24253 16827.5117850544
3.26265 16148.0971836471
3.28276 15715.8886212074
3.30288 15806.4823745888
3.32299 14830.3839962316
3.3431 14582
3.36322 14169.1969039214
3.38333 13353.4692895236
3.40344 13324.3984895324
3.42356 12656.0446490257
3.44367 12495.1214899041
3.46379 12184.2797963371
3.4839 11552
3.50401 11169.7557738962
3.52413 10641.5983993243
3.54424 10586.6425890849
3.56435 10136.3125767667
3.58447 9757.29086164689
3.60458 9529.50933971184
3.62469 8906.15380064877
3.64481 8921.96331105608
3.66492 8529.47741327472
3.68504 8140.66588165763
3.70515 8005.06961860464
3.72526 7433.9041063889
3.74538 7263.03159711378
3.76549 7102.20512680393
3.7856 6644
3.80572 6631.70434086697
3.82583 6070.46703370681
3.84595 6050.96255359666
3.86606 5754.05974013045
3.88617 5302.14719492564
3.90629 5374.10596015076
3.9264 4856
3.94651 4810.03431223654
3.96663 4716.54243822219
3.98674 4387.78225158381
4.00686 4427.24760097848
4.02697 4083.4576022704
4.04708 3999.93144031089
4.0672 3911
4.08731 3350.96400336856
4.10742 3646.98436913264
4.12754 3193.32755275014
4.14765 3234.67112934452
4.16776 3186.4237536149
4.18788 2926.20492580024
4.20799 2784.0843413268
4.22811 2621.9862023433
4.24822 2709.05558324866
4.26833 2631.75171181941
4.28845 2443.53773199308
4.30856 2302.15584326461
4.32867 2240.16540590659
4.34879 2176.92689899056
4.3689 2329
4.38902 1876.79655247291
4.40913 2039.23987182693
4.42924 1971.6920286896
4.44936 1927.75100699913
4.46947 2033.24159645489
4.48958 1735.05436833724
4.5097 1912
4.52981 1672.90314251192
4.54992 1677.05831743637
4.57004 1638.71709689759
4.59015 1499.05692945778
4.61027 1570.9542061879
4.63038 1526.01839137778
4.65049 1579.96516205239
4.67061 1562.92499941715
4.69072 1360.87646493397
4.71083 1352.02237954964
4.73095 1334.96536067648
4.75106 1354.90159663539
4.77118 1378.05474048778
4.79129 1257.06117186962
4.8114 1207
4.83152 1272.0323004745
4.85163 1243.92081148767
4.87174 1183.83213359328
4.89186 1113.00364563384
4.91197 1159.96949908968
4.93209 1128.01719995144
4.9522 1132
4.97231 1143.97355901004
4.99243 1043.87249707176
5.01254 1016.0224766914
5.03265 1021.07089402861
5.05277 993.945099645486
5.07288 1035.07661397435
5.09299 888.022966080986
5.11311 972.035953578692
5.13322 937.907107033891
5.15334 884.074271435304
5.17345 947.937029175699
5.19356 828.20550333181
5.21368 824.930122409697
5.23379 901.978131024995
5.2539 897
5.27402 848.917260892344
5.29413 763.945531015474
5.31425 786.101027646031
5.33436 787.112998330779
5.35447 735.945643442886
5.37459 811.008777350401
5.3947 710
5.41481 768.031509447415
5.43493 766.941974077503
5.45504 730.962437320553
5.47516 706.135353117987
5.49527 628.026250837996
5.51538 673.958391507473
5.5355 669
5.55561 653.000804754991
5.57572 652.972251338353
5.59584 622.033682200879
5.61595 662.031964020683
5.63606 604.03886844778
5.65618 633.993613698314
5.67629 606.000022416101
5.69641 635.99981757038
5.71652 595.971490988019
5.73663 594.98822953473
5.75675 574.992851596844
5.77686 584.026811349868
5.79697 553.013696953749
5.81709 563.006487319616
5.8372 529
5.85732 552.02243168469
5.87743 554.997506357899
5.89754 560.016248792506
5.91766 565.002053604323
5.93777 543.082117180122
5.95788 494.988773843288
5.978 550
5.99811 533.991830591446
6.01823 526.949502287574
6.03834 472.937375384656
6.05845 470.027451925146
6.07857 453.971797974886
6.09868 495.98686672851
6.11879 469.013185082934
6.13891 479.020806499169
6.15902 523.021098333621
6.17913 503.922611248457
6.19925 453.948106959574
6.21936 471.921868982395
6.23948 492.022145828353
6.25959 450.007969038667
6.2797 472
6.29982 470.974089063539
6.31993 444.995357333787
6.34004 459.005280333529
6.36016 442.032521136298
6.38027 438.995778530607
6.40039 449.985580593531
6.4205 474
6.44061 435.992184382669
6.46073 453.020491264474
6.48084 446.987325415003
6.50095 449.000629100818
6.52107 445.993393815959
6.54118 453.005470001889
6.56129 442.995708460918
6.58141 475.018373639651
6.60152 487.978664401687
6.62164 442.90585183308
6.64175 411.957248607298
6.66186 416.924405836033
6.68198 463.978979661045
6.70209 439.028022301689
6.7222 398
6.74232 439.031054401761
6.76243 443.005549274483
6.78255 469.109595058247
6.80266 498.030100802877
6.82277 447.074315995213
6.84289 421.008352395951
6.863 422
6.88311 466.993600906525
6.90323 406.946950669186
6.92334 423.046714999163
6.94346 426.996833575316
6.96357 426.031282081057
6.98368 408.971788747108
7.0038 460
7.02391 423.989830482649
7.04402 439.009561000286
7.06414 417.928080752773
7.08425 399.955128640937
7.10436 427.017614786709
7.12448 399.982318617819
7.14459 445.004193469209
7.16471 395.000585499697
7.18482 460.048735158915
7.20493 437.897859628064
7.22505 382.984429189935
7.24516 413.957203196792
7.26527 411.989418781071
7.28539 436.990540161845
7.3055 436
7.32562 437.025507053913
7.34573 458.966614376896
7.36584 395.881520071312
7.38596 383.929130028541
7.40607 442.913050885957
7.42618 469.013467829902
7.4463 427
7.46641 408.01899892208
7.48653 461.001680010977
7.50664 402.884102234546
7.52675 400.87131831506
7.54687 452.002437628137
7.56698 396.059448805348
7.58709 385.978825930326
7.60721 439.009109430798
7.62732 416.977166444254
7.64743 419.020285523909
7.66755 431.026385378877
7.68766 426.069384798743
7.70778 383.014929847637
7.72789 408.978249178305
7.748 429
7.76812 389.987116582436
7.78823 402.993882763614
7.80834 389.052202570287
7.82846 449.921200843028
7.84857 442.039004979316
7.86869 423.007948660831
7.8888 417
7.90891 423.979517087862
7.92903 381.06229227824
7.94914 484.109233829329
7.96925 445.171674272277
7.98937 420.95199615188
8.00948 471.979149609183
8.0296 449
8.04971 433.996116463917
8.06982 435.020913164389
8.08994 449.943677908846
8.11005 399.967210270673
8.13016 443.875174600427
8.15028 464.045760109277
8.17039 397.009667986079
8.1905 445
8.21062 463.954212403535
8.23073 404.996042493476
8.25085 456.082256322297
8.27096 448.001718939901
8.29107 472.968402279062
8.31119 467.013294135249
8.3313 435
8.35141 429.012724991584
8.37153 450.960957766335
8.39164 410.043389277713
8.41176 471.996772285406
8.43187 419.002524672415
8.45198 473.989384680372
8.4721 428
8.49221 469.014423206864
8.51232 453.975666062595
8.53244 442.981837117139
8.55255 429.034441298792
8.57266 429.949047288028
8.59278 461.989857454269
8.61289 455.9941651971
8.63301 489.011851869154
8.65312 488.991926546035
8.67323 492.026374215246
8.69335 529.143285682501
8.71346 578.97522275543
8.73357 573.959723284375
8.75369 633.977967042207
8.7738 660
8.79392 738.051906533154
8.81403 755.033174170841
8.83414 814.173457308209
8.85426 878.004944918857
8.87437 849.955257109423
8.89448 897.060520648997
8.9146 735
8.93471 686.977559364918
8.95483 594.837699671003
8.97494 509.898907112919
8.99505 498.939854321338
9.01517 520.023446529883
9.03528 470.047796417374
9.05539 447.005569869728
9.07551 434.993921455858
9.09562 439.035936315941
9.11573 470.9638559171
9.13585 399.8590556954
9.15596 403.900603835967
9.17608 445.007963467852
9.19619 401.013271485857
9.2163 409
9.23642 388.964197421582
9.25653 368.021393946967
9.27664 410.083415930485
9.29676 430.986661421701
9.31687 421.053760337308
9.33699 393.986789841899
9.3571 454
9.37721 442.001375118522
9.39733 455.949637937305
9.41744 384.922002887469
9.43755 400.936542983781
9.45767 405.999583017917
9.47778 408.005558613526
9.4979 394
9.51801 392.006539253226
9.53812 411.012263455166
9.55824 393.887345612991
9.57835 349.069725141253
9.59846 425.920090504392
9.61858 406.018069604974
9.63869 417.995774970289
9.6588 414
9.67892 424.979757316674
9.69903 381.965683086611
9.71915 398.078611769726
9.73926 418.985354364335
9.75937 412.02881635318
9.77949 406.983118973363
9.7996 459
9.81971 438.982166376886
9.83983 415.985007152775
9.85994 409.97827445684
9.88006 398.994426852781
9.90017 416.968980137804
9.92028 427.998926530748
9.9404 423
9.96051 413.99258855922
9.98062 403.006610708437
10.00074 415.988766629427
10.02085 400.975340183817
10.04097 427.997111178208
10.06108 412.981576404929
10.08119 442.016997135858
10.10131 352.969345483569
10.12142 364.046678113694
10.14153 396.00441251517
10.16165 382.995273309222
10.18176 405.931481087054
10.20187 432.979159569468
10.22199 420.023953433915
10.2421 374
10.26222 411.014070143448
10.28233 399.024632069698
10.30244 433.978191415235
10.32256 380.05821429128
10.34267 396.974108425478
10.36278 403.968266497389
10.3829 448
10.40301 404.969853845104
10.42313 370.000838270561
10.44324 387.009042270174
10.46335 377.986970648564
10.48347 399.980001107467
10.50358 397.998764457746
10.52369 419.979309295226
10.54381 441.982238274734
10.56392 382.990186157872
10.58403 431.063410916698
10.60415 425.921937866315
10.62426 400.019415668054
10.64438 404.992328796943
10.66449 407.000049123185
10.6846 410
10.70472 408.975415901648
10.72483 372.970219870037
10.74494 381.041258988483
10.76506 400.958652779785
10.78517 418.985268900846
10.80529 410.016500558466
10.8254 366
10.84551 359.012290379321
10.86563 396.040795341986
10.88574 408.025527055515
10.90585 427.957473336996
10.92597 429.027427665373
10.94608 405.012388809133
10.9662 404
10.98631 394.003504468924
11.00642 419.023660238614
11.02654 421.96365415691
11.04665 395.055846954589
11.06676 388.981475354114
11.08688 416.949222245378
11.10699 452.01219979314
11.1271 391
11.14722 416.039419478258
11.16733 430.988305303217
11.18745 412.956721586213
11.20756 417.923800142007
11.22767 457.005690258163
11.24779 413.018725691594
11.2679 421
11.28801 458.995027381051
11.30813 425.008310753565
11.32824 461.994172251226
11.34836 416.040863362316
11.36847 438.975622077313
11.38858 412.056348010029
11.4087 367
11.42881 399.020048505865
11.44892 422.009377031549
11.46904 427.011880396563
11.48915 434.986061026929
11.50927 422.064766426815
11.52938 389.967043332422
11.54949 459.987780654755
11.56961 419.979503321237
11.58972 427.041233720487
11.60983 466.020118297056
11.62995 451.948781048651
11.65006 458.905136165152
11.67017 509.994281995965
11.69029 461.028126983518
11.7104 434
11.73052 429.986041066945
11.75063 428.065322709223
11.77074 493.056173763345
11.79086 476.025259470285
11.81097 499.935155658708
11.83108 544.954438461139
11.8512 559
11.87131 483.984922612524
11.89143 503.004381905059
11.91154 478.000577573841
11.93165 524.847361841697
11.95177 552.035950907557
11.97188 517.985740124882
11.99199 568.991297944634
12.01211 541.993950894635
12.03222 560.004264061262
12.05234 554.061676083078
12.07245 615.092447175874
12.09256 606.047292269353
12.11268 604.972387151009
12.13279 661.959910414242
12.1529 717
12.17302 664.98516276012
12.19313 695.012089611895
12.21324 683.072290064248
12.23336 763.894911399866
12.25347 765.998954981497
12.27359 793.982929721545
12.2937 834
12.31381 892.999299008027
12.33393 844.958997212406
12.35404 881.150832357957
12.37415 928.066984262296
12.39427 839.140653469687
12.41438 795.992222689822
12.4345 803
12.45461 718.971342596499
12.47472 715.011811468459
12.49484 685.822728035947
12.51495 595.036912597053
12.53506 620.097029087405
12.55518 501.070831158689
12.57529 519.983461406815
12.5954 511
12.61552 486.995151915963
12.63563 489.982660021959
12.65575 462.948312656376
12.67586 451.043683523364
12.69597 435.958510881193
12.71609 473.011735243537
12.7362 407
12.75631 447.013347089081
12.77643 431.98192914997
12.79654 434.971630247198
12.81666 407.011234336421
12.83677 415.03418777519
12.85688 380.980610681084
12.877 441
12.89711 412.993045836992
12.91722 432.006374856801
12.93734 413.982575083441
12.95745 418.032972958323
12.97757 403.952390389998
12.99768 461.982753513348
13.01779 409.042757253987
13.03791 365.017707538971
13.05802 432.01260221833
13.07813 376.924421879212
13.09825 383.107572326486
13.11836 406.070226966862
13.13847 354.979577177582
13.15859 421.986096956379
13.1787 388
13.19882 405.026640071105
13.21893 399.933074790468
13.23904 358.022854217846
13.25916 396.026206649219
13.27927 337.032782034017
13.29938 370.974491183879
13.3195 364
13.33961 382.002637060261
13.35973 372.003348519846
13.37984 394.043584611571
13.39995 391.081389344919
13.42007 351.029733488208
13.44018 361.974916158815
13.46029 376.002966416793
13.48041 375.018774304535
13.50052 414.972177395034
13.52064 347.985895837127
13.54075 402.045034222776
13.56086 352.105572757557
13.58098 351.955927800163
13.60109 403.984258838038
13.6212 402
13.64132 388.003557467974
13.66143 392.969439309228
13.68154 368.036267119952
13.70166 407.021037578452
13.72177 358.009205400099
13.74189 399.993139184736
13.762 366
13.78211 377.008523704152
13.80223 385.020033852048
13.82234 398.990463842413
13.84245 384.985699320136
13.86257 405.995873156906
13.88268 372.055337553729
13.9028 340
13.92291 389.009650076291
13.94302 367.984574529718
13.96314 386.067205962467
13.98325 404.029094781883
14.00336 377.028108111083
14.02348 380.003974859515
14.04359 353.020821604834
14.06371 329.009193085519
14.08382 365.003974897086
14.10393 333.970654075749
14.12405 350.07436615568
14.14416 367.002148097483
14.16427 359.993766352778
14.18439 372.000364871215
14.2045 361
14.22461 378.005777601559
14.24473 380.013059376694
14.26484 392.996908161424
14.28496 378.016775084523
14.30507 379.009870865717
14.32518 366.99806468807
14.3453 374
14.36541 340.992585497914
14.38552 363.042771107888
14.40564 391.991853111526
14.42575 368.028641352172
14.44587 376.99220483535
14.46598 361.030162590005
14.48609 340.995980324365
14.50621 367.00790667093
14.52632 359.985332951791
14.54643 351.99714593658
14.56655 356.025985665661
14.58666 375.936628357747
14.60677 394.035881942463
14.62689 343.017074183527
14.647 352
14.66712 383.012982976849
14.68723 379.994630779431
14.70734 379.984798740671
14.72746 371.979772647947
14.74757 394.982080338581
14.76768 383.024926980566
14.7878 364
14.80791 355.981583618169
14.82803 310.990784165104
14.84814 357.12969151868
14.86825 387.066348711274
14.88837 336.032376527895
14.90848 360.965009429585
14.92859 377.996511526805
14.94871 378.995427763366
14.96882 371.00870983431
14.98894 379.954569656541
15.00905 341.988283507275
15.02916 384.887862717022
15.04928 405.031834606287
15.06939 341.029892064015
15.0895 314
15.10962 335.044609004075
15.12973 376.010994474656
15.14984 365.030830909343
15.16996 384.090029309211
15.19007 303.030621418989
15.21019 367.96086578591
15.2303 392
15.25041 356.998691798062
15.27053 389.0430483905
15.29064 381.924378798769
15.31075 352.962059048767
15.33087 409.908914963473
15.35098 423.049035012473
15.3711 365
15.39121 403.993278059057
15.41132 341.983532604251
15.43144 385.045762001631
15.45155 354.0975653458
15.47166 348.948432079742
15.49178 376.995716304932
15.51189 347.024373051947
15.53201 334.031228013896
15.55212 409.987023031257
15.57223 324.943199529677
15.59235 362.054237335355
15.61246 334.044056281242
15.63257 348.958597987234
15.65269 361.003910489653
15.6728 342
15.69291 334.999407311173
15.71303 339.01943442657
15.73314 355.018211078667
15.75326 355.003318121284
15.77337 355.003764198337
15.79348 348.009170292784
15.8136 343
15.83371 362.018726851783
15.85382 396.005003783329
15.87394 375.968367903216
15.89405 372.033005608372
15.91417 349.017616375435
15.93428 355.987689287574
15.95439 356.008304310948
15.97451 343.007696859142
15.99462 381.029738004058
16.01473 381.972897036875
16.03485 360.956915792156
16.05496 349.022564315647
16.07508 350.967321516794
16.09519 389.998594148777
16.1153 350
16.13542 322.984441157998
16.15553 323.042770256049
16.17564 363.042120634294
16.19576 354.040365196423
16.21587 352.955344873137
16.23598 387.000586121048
16.2561 360
16.27621 375.996500850195
16.29633 346.993189986814
16.31644 378.062892389713
16.33655 382.041971298291
16.35667 358.036091696555
16.37678 360.94972615034
16.39689 414.005042812955
16.41701 349.978734063088
16.43712 359.016251580554
16.45724 363.032611250861
16.47735 382.975670164356
16.49746 355.996517721288
16.51758 377.015029307173
16.53769 327.014007489293
16.5578 347
16.57792 369.003440126592
16.59803 352.949855116058
16.61814 334.051672748812
16.63826 377.991098491175
16.65837 337.052477528321
16.67849 340.987554004077
16.6986 359
16.71871 344.991529474522
16.73883 340.015141624719
16.75894 350.989038984872
16.77905 336.000152098657
16.79917 348.004810308898
16.81928 341.969121820177
16.8394 392
16.85951 353.980853066547
16.87962 342.996192483091
16.89974 342.035486760909
16.91985 366.989212145555
16.93996 353.004627134012
16.96008 373.97436272755
16.98019 378.012809070033
17.00031 339.987725180952
17.02042 337.001511749761
17.04053 330.987415290674
17.06065 342.117767742583
17.08076 384.043887557098
17.10087 324.020078905817
17.12099 362.993841853551
17.1411 336
17.16121 379.017822275819
17.18133 372.951675796692
17.20144 348.001353147134
17.22156 370.95328954003
17.24167 368.051797681358
17.26178 336.986543208956
17.2819 387
17.30201 379.983130413927
17.32212 344.972442472695
17.34224 333.007518833265
17.36235 353.902277384169
17.38247 393.967520453171
17.40258 383.038938059769
17.42269 350.997072099967
17.44281 376.998726825145
17.46292 340.974345445151
17.48303 352.046075260504
17.50315 377.025655994118
17.52326 369.041995146157
17.54338 360.974003939718
17.56349 407.983373968271
17.5836 400
17.60372 365.008676219174
17.62383 422.110710143657
17.64394 447.887245490764
17.66406 372.988355756108
17.68417 461.886915030747
17.70428 475.002639320837
17.7244 498
17.74451 529.998041611768
17.76463 500.972853485325
17.78474 505.003749436591
17.80485 485.092113109952
17.82497 443.058917470415
17.84508 425.982236450028
17.86519 448.008506018376
17.88531 408.999851811871
17.90542 448.018355164761
17.92554 429.978788803014
17.94565 432.948662577729
17.96576 398.005227874175
17.98588 421.004615861985
18.00599 377.020733151989
18.0261 375
18.04622 417.028169270471
18.06633 410.942154546701
18.08645 367.949296322591
18.10656 383.921933207642
18.12667 417.980034672999
18.14679 404.016186902867
18.1669 377
18.18701 396.0165100851
18.20713 399.913859665918
18.22724 323.962936838076
18.24735 355.999320715992
18.26747 326.960186671431
18.28758 401.969545525154
18.3077 376
18.32781 405.994297283623
18.34792 349.969634787075
18.36804 366.027366859978
18.38815 361.971662100704
18.40826 385.004929761946
18.42838 357.016073738669
18.44849 360.003958685419
18.46861 339.998526178768
18.48872 360.019796514342
18.50883 362.98851421639
18.52895 345.922362284514
18.54906 332.91553071435
18.56917 389.014158752598
18.58929 332.003429847023
18.6094 383
18.62951 346.988020773214
18.64963 361.017045993911
18.66974 350.980537659173
18.68986 353.986735471163
18.70997 359.984895833505
18.73008 377.975316163838
18.7502 391
18.77031 361.996395558856
18.79042 386.030306542838
18.81054 396.980744777692
18.83065 370.098053938444
18.85077 343.987074948472
18.87088 371.98953459071
18.89099 358.004286461211
18.91111 365.001451478706
18.93122 354.98795002391
18.95133 350.000824106218
18.97145 359.054669711317
18.99156 378.00908244932
19.01168 349.033676075292
19.03179 341.984106885717
19.0519 390
19.07202 381.972374918181
19.09213 363.001704471499
19.11224 384.058455477015
19.13236 391.068823288846
19.15247 342.025500818273
19.17258 358.993399444556
19.1927 359
19.21281 419.003357777607
19.23293 364.924183371047
19.25304 360.039372270324
19.27315 377.973795068149
19.29327 387.967394597224
19.31338 412.993025512029
19.33349 400.006852028251
19.35361 391.99257387014
19.37372 378.007435041375
19.39384 397.000193066091
19.41395 387.047161319982
19.43406 423.990211347677
19.45418 390.029670622434
19.47429 385.999830675125
19.4944 381
19.51452 399.03273883771
19.53463 432.029789240003
19.55475 430.957942493742
19.57486 415.006434656776
19.59497 441.906094416454
19.61509 503.990889734429
19.6352 484
19.65531 512.022857956786
19.67543 553.049635249585
19.69554 593.127465128984
19.71565 662.901071467213
19.73577 672.975856743223
19.75588 726.913025378339
19.776 830
19.79611 925.043048981416
19.81622 984.010742930452
19.83634 994.153783520521
19.85645 1104.89501304399
19.87656 1066.06134630183
19.89668 1089.96439850956
19.91679 1101.0036594395
19.93691 1047.93414974656
19.95702 896.92511607504
19.97713 894.962438424402
19.99725 813.817302978895
20.01736 774.085988320208
20.03747 700.141511117135
20.05759 650.973370286851
20.0777 744
20.09782 679.984010721028
20.11793 722.984036155842
20.13804 652.954901017543
20.15816 701.924355149017
20.17827 687.041150632355
20.19838 674.011638198499
20.2185 652
20.23861 647.026518890647
20.25872 715.006437317277
20.27884 659.919396126335
20.29895 669.948755060683
20.31907 665.039844478427
20.33918 644.988749490024
20.35929 674.994377810395
20.37941 653.985350432802
20.39952 649.028440586515
20.41963 689.030172779389
20.43975 675.928601581129
20.45986 681.854249485969
20.47998 763.003444797704
20.50009 680.032310430433
20.5202 678
20.54032 653.954367969149
20.56043 650.136466957891
20.58054 790.17652460487
20.60066 783.094330044748
20.62077 775.912650667146
20.64088 869.926559669831
20.661 896
20.68111 917.020713206909
20.70123 982.127062851299
20.72134 1101.33848198044
20.74145 1320.38195436375
20.76157 1592.53904858519
20.78168 1980.50673194278
20.80179 2531.73897522337
20.82191 2968.1824279958
20.84202 3306.3289422222
20.86214 3464.60382705661
20.88225 2979.72384060052
20.90236 2545.99882277882
20.92248 1937.60077983357
20.94259 1441.19653212323
20.9627 1123
20.98282 916.857365918207
21.00293 821.894145654335
21.02305 765.935871498444
21.04316 759.028980965864
21.06327 741.981704284041
21.08339 761.014286232906
21.1035 685
21.12361 680.029321705165
21.14373 749.036595705616
21.16384 714.895467837494
21.18395 696.926306479277
21.20407 755.914794604959
21.22418 773.029725657064
21.2443 723
21.26441 718.005092032171
21.28452 725.001370443195
21.30464 716.96258605356
21.32475 716.876663750467
21.34486 778.987464117411
21.36498 730.034899270794
21.38509 737.994561871919
21.40521 724.988230769152
21.42532 706.990775473702
21.44543 710.023592071783
21.46555 706.86549448022
21.48566 639.024181051173
21.50577 688.926562829244
21.52589 681.029107956742
21.546 637
21.56612 697.99336615834
21.58623 625.946569307126
21.60634 676.168122777646
21.62646 713.0822051443
21.64657 637.054744330688
21.66668 646.013281841216
21.6868 602
21.70691 615.991216103111
21.72702 566.980365017372
21.74714 594.061337106426
21.76725 586.115344327672
21.78737 533.042092802935
21.80748 544.964250768639
21.82759 567.006764232251
21.84771 543.00627078807
21.86782 586.020197335733
21.88793 568.976121529504
21.90805 581.071813027918
21.92816 581.125765465371
21.94828 504.006894804944
21.96839 552.996733716541
21.9885 498
22.00862 527.064008236289
22.02873 565.975795077009
22.04884 520.964585331447
22.06896 532.02882363945
22.08907 504.958525993717
22.10919 574.984168503077
22.1293 539
22.14941 525.015094579107
22.16953 551.956111865755
22.18964 492.981911078422
22.20975 550.845105254164
22.22987 564.040674762485
22.24998 533.006944410729
22.27009 557.981585419587
22.29021 570.986498562536
22.31032 531.993538992832
22.33044 558.028413068229
22.35055 544.970370027758
22.37066 541.03476374853
22.39078 520.990088899531
22.41089 548.000754323781
22.431 510
22.45112 496.995810488553
22.47123 487.981529668566
22.49135 485.044210602992
22.51146 502.033195045391
22.53157 466.012146504741
22.55169 507.966707964075
22.5718 537
22.59191 459.987918672223
22.61203 502.058115619401
22.63214 493.94065007716
22.65225 474.008710269747
22.67237 498.911999197072
22.69248 547.013454895189
22.7126 485
22.73271 486.008240411348
22.75282 510.054978726636
22.77294 562.986867950606
22.79305 523.967435981883
22.81316 585.953910968329
22.83328 571.961395462755
22.85339 650.991832719934
22.87351 614.01085049502
22.89362 684.998582224732
22.91373 609.957391179481
22.93385 656.072504657213
22.95396 628.067663798663
22.97407 616.019540914464
22.99419 572.040573350343
23.0143 498
23.03442 532.019694460467
23.05453 512.970375534555
23.07464 513.005406328569
23.09476 509.005898363682
23.11487 508.008714663688
23.13498 490.030463245592
23.1551 471
23.17521 505.003039817671
23.19532 474.970230193986
23.21544 472.029232720705
23.23555 482.019527384284
23.25567 460.028801637156
23.27578 447.019881797461
23.29589 432.990923230743
23.31601 478.019845419939
23.33612 488.990132465614
23.35623 481.013067926465
23.37635 489.945063714066
23.39646 462.949245037318
23.41658 530.957135066251
23.43669 507.032668642253
23.4568 454
23.47692 476.017738177152
23.49703 473.999792977098
23.51714 487.0314665615
23.53726 486.053754777606
23.55737 452.01900611799
23.57749 476.974768446814
23.5976 507
23.61771 463.00410694321
23.63783 521.051208494134
23.65794 514.01418423856
23.67805 557.881440810437
23.69817 578.00911293732
23.71828 563.008001328776
23.73839 587.966074359804
23.75851 663.017466265705
23.77862 662.013180302591
23.79874 689.985976924528
23.81885 638.864237172924
23.83896 638.856337845477
23.85908 716.003179571649
23.87919 641.02636141348
23.8993 628
23.91942 541.951979251638
23.93953 555.034857416522
23.95965 559.014351957449
23.97976 560.062240696484
23.99987 519.000867469221
24.01999 550.996905328952
24.0401 532
24.06021 564.988471857198
24.08033 501.981948219145
24.10044 538.988180037635
24.12056 480.059067574538
24.14067 500.983508702976
24.16078 486.993413826502
24.1809 508
24.20101 470.004531809375
24.22112 516.004337007847
24.24124 481.0124936345
24.26135 539.895252544684
24.28146 528.067544175642
24.30158 506.008185671366
24.32169 504.002601260998
24.34181 502.008541208018
24.36192 536.032451533381
24.38203 531.913747772266
24.40215 466.978601790323
24.42226 522.870756133501
24.44237 555.976971666223
24.46249 559.009221051491
24.4826 523
24.50272 504.014425830454
24.52283 544.067751715511
24.54294 567.991673196523
24.56306 555.985464684179
24.58317 584.961222518833
24.60328 591.006119362193
24.6234 589
24.64351 620.025100927425
24.66362 649.970596909481
24.68374 607.057066288258
24.70385 682.966390675683
24.72397 626.038634533213
24.74408 674.934621691406
24.76419 714.985060683626
24.78431 737.000096881576
24.80442 712.963301457644
24.82453 703.067812721779
24.84465 771.073121490965
24.86476 750.044110912386
24.88488 749.006743147619
24.90499 730.005326552121
24.9251 731
24.94522 703.950606355549
24.96533 667.016446069733
24.98544 697.97577683874
25.00556 641.079266055507
25.02567 640.99857325588
25.04579 611.026822958338
25.0659 573
25.08601 615.011305744255
25.10613 591.933097732599
25.12624 563.001268708096
25.14635 571.051125740671
25.16647 532.016792295765
25.18658 543.018551562607
25.20669 512.985583103788
25.22681 583.011188399598
25.24692 551.997853835347
25.26704 586.996604635925
25.28715 550.006215674446
25.30726 608.885971768407
25.32738 627.99812592586
25.34749 620.015777240346
25.3676 584
25.38772 632.095149497004
25.40783 716.030523409092
25.42795 687.975459759194
25.44806 714.968213057681
25.46817 698.03592732434
25.48829 695.988406563903
25.5084 727
25.52851 731.005271364562
25.54863 735.950434735876
25.56874 679.938260407972
25.58886 674.056430095431
25.60897 608.106195205019
25.62908 562.022970224475
25.6492 563
25.66931 591.999782911075
25.68942 556.955496882448
25.70954 537.028770013436
25.72965 563.980674857183
25.74976 539.07880736524
25.76988 518.984396828981
25.78999 546.999653704779
25.81011 534.013264865324
25.83022 584.003738836435
25.85033 545.991121316927
25.87045 575.990787813344
25.89056 532.042006099111
25.91067 554.962183060036
25.93079 554.007053060652
25.9509 553
25.97102 585.005378066161
25.99113 556.94737762084
26.01124 549.055251934945
26.03136 577.031606049845
26.05147 544.964915516555
26.07158 607.985665510055
26.0917 573
26.11181 639.032739854541
26.13193 647.937846465879
26.15204 609.021214644949
26.17215 658.921226603878
26.19227 657.985947378731
26.21238 702.937770169234
26.23249 751.988874370482
26.25261 760.009505804283
26.27272 798.03909159668
26.29283 838.086194324107
26.31295 910.16377365267
26.33306 946.989374220263
26.35318 957.944073319584
26.37329 1056.9504548652
26.3934 1162
26.41352 1373.21751288758
26.43363 1587.36282156901
26.45374 1934.980587769
26.47386 2548.6737188256
26.49397 3301.59811361027
26.51409 4428.39710907776
26.5342 5772
26.55431 7663.99990168087
26.57443 9693.12657583543
26.59454 11747.689449442
26.61465 13116.124533284
26.63477 13243.5814059814
26.65488 12227.8571693608
26.67499 9867.12989766203
26.69511 7927.03303257899
26.71522 5898.15614560499
26.73534 4286.90185496037
26.75545 2800.99725775847
26.77556 1952.22820481212
26.79568 1482.2755015509
26.81579 1323.07980080455
26.8359 1133
26.85602 1076.93676154068
26.87613 964.818556168085
26.89625 876.875664104803
26.91636 836.128409855429
26.93647 755.085263604258
26.95659 722.024482744079
26.9767 659
26.99681 665.007109019821
27.01693 655.951907544469
27.03704 608.893438405378
27.05716 575.986555889647
27.07727 598.009028982654
27.09738 558.036108600688
27.1175 542
27.13761 512.984407631271
27.15772 502.022164437012
27.17784 546.082334661581
27.19795 548.123565819712
27.21806 479.086735855123
27.23818 474.995388310768
27.25829 477.989067305751
27.27841 516.015121476283
27.29852 523.994390082298
27.31863 513.979280303314
27.33875 495.943104252617
27.35886 488.939650614605
27.37897 536.963310997078
27.39909 511.031031029304
27.4192 469
27.43932 526.02297156593
27.45943 494.946657098109
27.47954 484.994054147265
27.49966 483.97078789441
27.51977 501.011562634033
27.53988 480.992544100997
27.56 523
27.58011 524.975160711996
27.60023 469.995765435827
27.62034 508.021305831268
27.64045 480.024571824772
27.66057 517.912431354478
27.68068 546.026741307259
27.70079 499.003927909197
27.72091 549.033496036589
27.74102 590.011402447554
27.76113 609.09973832208
27.78125 679.978429891313
27.80136 609.063759823519
27.82148 653.941182040305
27.84159 674.004717804341
27.8617 672
27.88182 701.961922137835
27.90193 610.905666775946
27.92204 613.048863130633
27.94216 618.02775833848
27.96227 592.047492607471
27.98239 546.037171969559
28.0025 481
28.02261 520.002791250438
28.04273 461.884496189668
28.06284 423.026198806703
28.08295 468.887162777969
28.10307 480.035731887582
28.12318 445.021234647754
28.1433 455
28.16341 474.987287370572
28.18352 428.98999422458
28.20364 465.071667214249
28.22375 468.964477331078
28.24386 449.053120287382
28.26398 435.977806100413
28.28409 473.993882679159
28.3042 446
28.32432 412.970528587829
28.34443 407.064164879788
28.36455 462.01198828168
28.38466 410.10556795606
28.40477 409.922939816035
28.42489 459.003397051326
28.445 414
28.46511 449.012713942044
28.48523 446.008796891334
28.50534 463.992041826281
28.52546 439.021337503929
28.54557 441.032699416659
28.56568 402.012387647462
28.5858 430
28.60591 450.00114404233
28.62602 447.003251826786
28.64614 442.92751557029
28.66625 403.966204964299
28.68636 449.993535034885
28.70648 405.022884893221
28.72659 418.00365430663
28.74671 395.011190928981
28.76682 446.0014860377
28.78693 394.957049598233
28.80705 421.096996946492
28.82716 430.044303766664
28.84727 404.001688063714
28.86739 425.992761075226
28.8875 427
28.90762 442.988763736062
28.92773 420.018109207484
28.94784 450.974084386446
28.96796 400.03916271115
28.98807 422.987916524509
29.00818 397.021406540987
29.0283 396
29.04841 384.99895643632
29.06853 399.030659072502
29.08864 428.097489407702
29.10875 468.024320955609
29.12887 407.108963357775
29.14898 371.986266835865
29.16909 405.992761487293
29.18921 406.014973017475
29.20932 443.97922452567
29.22943 385.989801968328
29.24955 432.031391294631
29.26966 396.027220594254
29.28978 424.978990655427
29.30989 416.005345739398
29.33 417
29.35012 399.971384221374
29.37023 383.022699958543
29.39034 422.067982389814
29.41046 423.063334174839
29.43057 393.986498001229
29.45069 428.993382614941
29.4708 409
29.49091 425.021707172825
29.51103 459.993485994778
29.53114 425.953274982817
29.55125 430.971907287458
29.57137 430.014300655645
29.59148 422.996931483825
29.6116 431
29.63171 427.004069484181
29.65182 455.038962430716
29.67194 478.982318801944
29.69205 469.095087699578
29.71216 543.899660384866
29.73228 539.03037991219
29.75239 520.99858489928
29.7725 559
29.79262 636.025544897676
29.81273 617.992420339527
29.83285 649.084278280586
29.85296 657.027010810866
29.87307 634.036925494031
29.89319 630.982833161199
29.9133 667
29.93341 597.962225572863
29.95353 555.97793154919
29.97364 562.054238948649
29.99376 574.079883904344
30.01387 500.078617058412
30.03398 493.98948387294
30.0541 487
30.07421 451.989109155352
30.09432 458.029161998008
30.11444 478.971395270157
30.13455 446.019054446913
30.15467 476.941684516319
30.17478 482.040404281118
30.19489 413.034029609252
30.21501 387.014545457804
30.23512 434.014420358798
30.25523 419.012855280936
30.27535 446.97560891233
30.29546 402.040291290984
30.31557 417.993935442021
30.33569 392.012850974725
30.3558 386
30.37592 386.997671186364
30.39603 398.062879508245
30.41614 438.979919624657
30.43626 395.020976041128
30.45637 426.975347977743
30.47648 412.004318731779
30.4966 426
30.51671 397.985733394001
30.53683 406.085223058868
30.55694 455.948995385942
30.57705 382.065106535312
30.59717 426.935022850395
30.61728 414.051601376963
30.63739 364.012400972839
30.65751 368.006708154032
30.67762 377.009905451897
30.69773 400.06381566894
30.71785 433.975091000123
30.73796 395.035059499613
30.75808 409.991344197239
30.77819 395.008532652756
30.7983 387
30.81842 380.008488026377
30.83853 396.003030802722
30.85864 392.03834672154
30.87876 429.955166059713
30.89887 416.056243301502
30.91899 389.995851781711
30.9391 429
30.95921 438.98291997084
30.97933 392.979241610954
30.99944 426.102222516467
31.01955 463.947739973064
31.03967 458.059440626838
31.05978 421.987569171921
31.0799 467
31.10001 453.007107059761
31.12012 495.01034728284
31.14024 477.031824831522
31.16035 538.858096946158
31.18046 570.925769865084
31.20058 598.029146343129
31.22069 546.995952917699
31.2408 586
31.26092 487.972822703334
31.28103 543.030214385545
31.30115 497.940044981557
31.32126 521.97363363229
31.34137 486.096666787177
31.36149 435.007473879698
31.3816 446
31.40171 435.999500343153
31.42183 453.030316129309
31.44194 447.911640919402
31.46206 391.056073376608
31.48217 407.943809621265
31.50228 425.020373168295
31.5224 394
31.54251 427.008258258799
31.56262 398.946264455688
31.58274 372.068751034277
31.60285 442.882477543716
31.62297 429.07903053126
31.64308 386.006167255416
31.66319 406.994259999418
31.68331 392.990589346648
31.70342 387.00416493065
31.72353 399.030182972498
31.74365 421.042171856327
31.76376 419.05569314532
31.78387 389.001493936464
31.80399 408.000633539921
31.8241 382
31.84422 405.051564019993
31.86433 458.053152593223
31.88444 456.923300960926
31.90456 428.937141122231
31.92467 495.956152521924
31.94478 479.995758866768
31.9649 517
31.98501 513.014482543598
32.00513 554.971844668555
32.02524 483.91803046687
32.04535 506.90176564272
32.06547 533.950409985122
32.08558 550.043146279241
32.10569 476.016649524919
32.12581 491.000031918159
32.14592 442.934338134716
32.16604 416.077791671109
32.18615 476.022573966025
32.20626 432.054386344831
32.22638 451.971775001781
32.24649 449.017496799048
32.2666 416
32.28672 436.981565548794
32.30683 389.987282926723
32.32694 433.081653673224
32.34706 440.011408714894
32.36717 436.013911834242
32.38729 438.980078400352
32.4074 484
32.42751 445.002885659908
32.44763 498.038571974632
32.46774 461.883216169066
32.48785 432.964969444502
32.50797 468.964761643447
32.52808 474.98250984789
32.5482 498
32.56831 457.979825055391
32.58842 436.986345896357
32.60854 424.992969695071
32.62865 439.908932899998
32.64876 466.039914176706
32.66888 414.033692361027
32.68899 430.974933550061
32.7091 472
32.72922 449.981827080036
32.74933 440.961052634724
32.76945 399.931650594735
32.78956 413.890834230857
32.80967 464.000042781645
32.82979 413.028493141576
32.8499 399
32.87001 448.012688093227
32.89013 446.007084026377
32.91024 477.085013572068
32.93036 496.051191242655
32.95047 457.995610009193
32.97058 491.998386870172
32.9907 452
33.01081 451.993626639126
33.03092 427.00337390253
33.05104 462.058527738703
33.07115 469.980749459431
33.09127 477.023293569878
33.11138 454.990217135446
33.13149 489.992487878218
33.15161 472.991963699066
33.17172 485.034456572268
33.19183 503.956121495074
33.21195 458.00442112355
33.23206 502.961707694774
33.25217 471.059564229173
33.27229 456.000315922994
33.2924 469
33.31252 500.990053123354
33.33263 459.964747304723
33.35274 482.095120591867
33.37286 501.088648060631
33.39297 430.038461137037
33.41308 466.955060677764
33.4332 467
33.45331 428.006687217229
33.47343 476.025623512391
33.49354 441.919284394992
33.51365 437.922842194532
33.53377 471.990230591274
33.55388 446.032791024523
33.57399 430.000358095408
33.59411 438.00586462344
33.61422 452.01947064751
33.63434 461.963945363976
33.65445 435.004241850901
33.67456 458.001341136676
33.69468 432.008004468379
33.71479 450.994146789133
33.7349 433
33.75502 417.030151607299
33.77513 468.029774878368
33.79524 437.905492481619
33.81536 413.983664530417
33.83547 436.982124887456
33.85559 432.000988052164
33.8757 442
33.89581 435.985100323897
33.91593 407.005748276478
33.93604 426.975627641703
33.95615 389.021517915013
33.97627 422.947915800129
33.99638 432.998913570625
34.0165 426
34.03661 381.983503934328
34.05672 394.06666088814
34.07684 457.986428798644
34.09695 385.164614479995
34.11706 370.978225197103
34.13718 389.962985454306
34.15729 424.00040603977
34.17741 400.999602992886
34.19752 423.001103768478
34.21763 398.985398705682
34.23775 422.087702159771
34.25786 443.993003462258
34.27797 444.971127935403
34.29809 467.0059928159
34.3182 427
34.33831 447.026074584845
34.35843 487.997566516812
34.37854 451.937849855881
34.39866 458.921559637177
34.41877 495.991702257093
34.43888 485.980517462399
34.459 543
34.47911 571.003823538107
34.49922 571.999328515832
34.51934 587.085774604172
34.53945 633.965507730082
34.55957 612.035650369045
34.57968 623.94864102327
34.59979 663.014794003101
34.61991 594.990348560803
34.64002 632.014491745599
34.66013 610.008873392377
34.68025 649.032074278881
34.70036 629.995363565873
34.72047 658.988447780049
34.74059 641.998535694752
34.7607 671
34.78082 676.033079616884
34.80093 728.032402745215
34.82104 712.981305464835
34.84116 744.867939338718
34.86127 819.903681436644
34.88138 875.931747578255
34.9015 950
34.92161 969.003168708786
34.94173 996.091951302281
34.96184 1032.87891443495
34.98195 924.083414682506
35.00207 1004.83379865915
35.02218 1041.06063816966
35.04229 944.024926105028
35.06241 943.985150543131
35.08252 857.911700276866
35.10264 812.984117630979
35.12275 815.987281557961
35.14286 786.103796948813
35.16298 729.046610121709
35.18309 701.0077279151
35.2032 701
35.22332 720.975814364178
35.24343 658.919456334081
35.26354 632.952944654079
35.28366 612.978628304267
35.30377 636.015096983138
35.32389 601.002968188792
35.344 622
35.36411 583.993651158214
35.38423 617.066027275333
35.40434 618.881690495331
35.42445 547.039670824648
35.44457 580.985546339066
35.46468 547.022461573947
35.4848 577
35.50491 621.986802200716
35.52502 545.944744797866
35.54514 562.137356081261
35.56525 622.975216603973
35.58536 587.068350438535
35.60548 586.980838173069
35.62559 605.992932672957
35.64571 613.000962141646
35.66582 612.999062601559
35.68593 604.966867826654
35.70605 580.984332392916
35.72616 602.91801558105
35.74627 627.030817954377
35.76639 591.995644241528
35.7865 644
35.80661 630.981125559067
35.82673 606.001904194279
35.84684 626.035870283511
35.86696 632.985097823895
35.88707 634.035966964541
35.90718 591.036706982014
35.9273 578
35.94741 603.029092572668
35.96752 655.99649544017
35.98764 610.958978441667
36.00775 626.009711794751
36.02787 588.048533373192
36.04798 581.001093551343
36.06809 564.017457314737
36.08821 527.991307810345
36.10832 537.023943837121
36.12843 544.958459228598
36.14855 516.060211027526
36.16866 572.97045507643
36.18878 527.050621878741
36.20889 508.003141509081
36.229 515
36.24912 553.98391008006
36.26923 502.982569908281
36.28934 556.138083054795
36.30946 607.903660059567
36.32957 635.039954761831
36.34968 600.962178340374
36.3698 703
36.38991 745.040240286781
36.41003 870.148208235433
36.43014 927.134394051821
36.45025 1045.60999124323
36.47037 1194.83929112956
36.49048 1257.95135924096
36.51059 1313.97321304197
36.53071 1315.95506935453
36.55082 1190.93860948218
36.57094 1181.8713433109
36.59105 1046.72000767415
36.61116 980.178505151732
36.63128 874.045998284369
36.65139 851.056042249743
36.6715 683
36.69162 692.942510045724
36.71173 567.942555540541
36.73184 649.160597905657
36.75196 644.111854140153
36.77207 585.071679164053
36.79219 560.001899298988
36.8123 571
36.83241 599.017877155173
36.85253 622.986545411628
36.87264 586.928081642035
36.89275 574.975869414497
36.91287 588.994759265914
36.93298 577.017558442037
36.9531 554
36.97321 523.00363070613
36.99332 556.014717602099
37.01344 538.962949444223
37.03355 547.911674702362
37.05366 577.018850529239
37.07378 527.059839473917
37.09389 500.989026562887
37.11401 545.012805819779
37.13412 528.959033910712
37.15423 495.987974614121
37.17435 506.011360605566
37.19446 499.002455134297
37.21457 506.99498615021
37.23469 493.014990694629
37.2548 470
37.27491 509.026489315589
37.29503 531.950256072581
37.31514 471.937800866396
37.33526 488.941750114988
37.35537 505.975908302257
37.37548 519.003802899798
37.3956 508
37.41571 523.998915778133
37.43582 507.000418704315
37.45594 534.060958394577
37.47605 549.98552087938
37.49617 540.053892975509
37.51628 497.020107611198
37.53639 515.977721267077
37.55651 551.001484191662
37.57662 535.000222806774
37.59673 554.007805203359
37.61685 547.036744950796
37.63696 575.996822010318
37.65708 543.033115796446
37.67719 534.995758147486
37.6973 549
37.71742 564.009902318935
37.73753 575.031435617251
37.75764 601.033552726023
37.77776 605.991321204122
37.79787 597.069201298402
37.81798 545.001653294225
37.8381 582
37.85821 535.972066803468
37.87833 516.028406033094
37.89844 538.978390381873
37.91855 495.095033481834
37.93867 487.98364512973
37.95878 499.990805791478
37.97889 501.004424801185
37.99901 488.996702310399
38.01912 478.969555229065
38.03924 449.017963296788
38.05935 498.129309679269
38.07946 512.055898419836
38.09958 480.990910591783
38.11969 504.016232916706
38.1398 454
38.15992 564.05007659041
38.18003 509.888795428422
38.20015 486.03471219557
38.22026 512.945211122215
38.24037 521.028852584057
38.26049 512.975136822906
38.2806 593
38.30071 572.994480941036
38.32083 579.955382387922
38.34094 520.948951760344
38.36105 550.887400989823
38.38117 570.012682361126
38.40128 547.022941656676
38.4214 537
38.44151 540.999104902037
38.46162 534.999478066546
38.48174 550.061657905653
38.50185 573.02374324683
38.52196 546.009857987151
38.54208 571.97408859067
38.56219 561.026958046633
38.58231 499.987497362062
38.60242 511.004815335257
38.62253 489.963653278078
38.64265 485.036530481842
38.66276 505.973197011045
38.68287 491.075663724678
38.70299 444.996736600261
38.7231 482
38.74321 434.987138350482
38.76333 449.010714685323
38.78344 438.011869805332
38.80356 469.937084146231
38.82367 467.068123911231
38.84378 426.977915708529
38.8639 476
38.88401 404.98900223709
38.90412 450.027020381341
38.92424 434.000599113259
38.94435 471.90722682353
38.96447 475.039798890558
38.98458 473.924889629406
39.00469 555.017726037115
39.02481 430.969395919338
39.04492 480.056850846749
39.06503 475.951809066557
39.08515 470.10478520546
39.10526 528.95533067821
39.12538 506.024267973961
39.14549 504.998444556985
39.1656 502
39.18572 520.04221535531
39.20583 567.038021021457
39.22594 577.052777053678
39.24606 609.011538337243
39.26617 576.00983134192
39.28628 610.962324284498
39.3064 636
39.32651 703.048543199563
39.34663 814.162074908729
39.36674 912.189019655861
39.38685 1001.81544064342
39.40697 1066.89252296248
39.42708 1141.9425567645
39.44719 1178.98349407113
39.46731 1179.96194639626
39.48742 1047.88020068396
39.50754 952.755566305831
39.52765 799.669953823065
39.54776 739.969212717019
39.56788 763.039040675887
39.58799 647.068244816273
39.6081 543
39.62822 495.972357225176
39.64833 491.040674570851
39.66845 519.977217062496
39.68856 473.088213887697
39.70867 457.998741491439
39.72879 453.009519207992
39.7489 436
39.76901 461.002083439847
39.78913 440.982783689667
39.80924 457.060039640895
39.82935 467.077304703928
39.84947 419.0295721593
39.86958 432.991948920059
39.8897 446
39.90981 526.999894095326
39.92992 458.971272538065
39.95004 499.063725838572
39.97015 482.074946760741
39.99026 475.961371246363
40.01038 504.978865862551
40.03049 516.990713925061
40.05061 548.016455797685
40.07072 555.966113763738
40.09083 527.059860057113
40.11095 601.022284799503
40.13106 550.014104775052
40.15117 619.885968040974
40.17129 666.973854852968
40.1914 723
40.21152 735.061602385412
40.23163 833.089885065365
40.25174 831.975560388664
40.27186 825.06950233584
40.29197 776.023547090551
40.31208 790.007220126373
40.3322 731
40.35231 642.963416042936
40.37242 607.01221715781
40.39254 628.965159225105
40.41265 564.175562010133
40.43277 520.039683056288
40.45288 500.015138957498
40.47299 487.005760453684
40.49311 485.008227916194
40.51322 493.966570462566
40.53333 442.987622362179
40.55345 473.01015039236
40.57356 445.004122971903
40.59368 474.989829045229
40.61379 459.996880903682
40.6339 481
40.65402 435.991291604696
40.67413 472.038314618867
40.69424 458.949864537209
40.71436 444.017382357792
40.73447 440.9905117044
40.75458 456.977889244377
40.7747 464
40.79481 442.018868468346
40.81493 500.978433531994
40.83504 423.930790614306
40.85515 469.850265889081
40.87527 492.003155196819
40.89538 486.003538291127
40.91549 484.003818569791
40.93561 479.006612480662
40.95572 501.005515868739
40.97584 488.988949303822
40.99595 501.041912919736
41.01606 510.991961310167
41.03618 498.041909600217
41.05629 446.015131936981
41.0764 455
41.09652 491.026375079153
41.11663 497.982312274356
41.13675 482.992125155811
41.15686 489.004813036208
41.17697 470.038968835887
41.19709 455.996081047314
41.2172 477
41.23731 468.98455665749
41.25743 436.983057110535
41.27754 452.051101045694
41.29765 470.974055868247
41.31777 465.042679126319
41.33788 436.000903708703
41.358 461
41.37811 454.988888633474
41.39822 448.030184585587
41.41834 483.976164622391
41.43845 431.082291219265
41.45856 437.98692390456
41.47868 420.025954747001
41.49879 407.996118032836
41.51891 428.009356783464
41.53902 433.994943031641
41.55913 421.975334901358
41.57925 421.080321115789
41.59936 465.962036318608
41.61947 450.032809419883
41.63959 446.994110998629
41.6597 458
41.67982 439.972975066453
41.69993 422.003135027119
41.72004 427.965853768793
41.74016 397.01637033401
41.76027 411.001007077
41.78038 397.986020353373
41.8005 437
41.82061 436.005348904514
41.84072 457.997750632851
41.86084 435.996410432861
41.88095 463.932199339913
41.90107 459.057181102567
41.92118 419.00874744912
41.94129 443.985927443669
41.96141 459.007783733945
41.98152 487.037993369391
42.00163 512.990420848526
42.02175 466.818778374321
42.04186 426.920361771509
42.06198 496.99689167307
42.08209 429.0229705016
42.1022 454
42.12232 500.048907271866
42.14243 523.941491497387
42.16254 459.974754572506
42.18266 502.946850737652
42.20277 489.010969756619
42.22289 520.971871115239
42.243 566
42.26311 547.988105112667
42.28323 554.071130093191
42.30334 623.116463417829
42.32345 677.778090599382
42.34357 795.847053848611
42.36368 877.899488105521
42.38379 975.983389307777
42.40391 961.007304541185
42.42402 1023.04884394373
42.44414 1007.85997175316
42.46425 914.771114931405
42.48436 841.122331136122
42.50448 789.0387827665
42.52459 753.023227675205
42.5447 697
42.56482 639.909056433822
42.58493 540.921997280927
42.60505 528.919864839523
42.62516 459.127734144979
42.64527 429.015451140669
42.66539 420.005735842645
42.6855 408
42.70561 419.01724057965
42.72573 443.963939837979
42.74584 383.913655919735
42.76595 379.985338810703
42.78607 377.996891082649
42.80618 387.990312449426
42.8263 386
42.84641 358.985743777153
42.86652 353.032542247324
42.88664 396.017711971313
42.90675 367.065078045243
42.92686 373.940734485778
42.94698 401.98819854207
42.96709 384.023438906349
42.98721 347.005830175422
43.00732 385.003313744803
43.02743 353.99366338781
43.04755 391.079483946984
43.06766 384.066778696527
43.08777 356.004142538295
43.10789 382.979393827028
43.128 417
43.14812 414.974538484959
43.16823 375.939154852554
43.18834 351.999499983306
43.20846 377.905557492816
43.22857 407.037045980407
43.24868 356.013706010237
43.2688 393
43.28891 390.98410800871
43.30902 358.98817870137
43.32914 367.015071352816
43.34925 363.015900522266
43.36937 364.982145964829
43.38948 381.984611616347
43.40959 390.997913921588
43.42971 381.983960407422
43.44982 359.028651131796
43.46993 416.028754878327
43.49005 380.899819540395
43.51016 368.003799740294
43.53028 360.01469169681
43.55039 355.987568728941
43.5705 385
43.59062 346.989200433184
43.61073 377.044698085179
43.63084 379.979903596013
43.65096 370.020819381236
43.67107 362.002858977069
43.69119 373.985046277015
43.7113 398
43.73141 366.995247886667
43.75153 384.009901612067
43.77164 369.983740695068
43.79175 383.935670055405
43.81187 392.04379065033
43.83198 346.022119229226
43.85209 361.986022157478
43.87221 371.993929765654
43.89232 361.017631551468
43.91244 396.026692062487
43.93255 388.023245659286
43.95266 401.070900088495
43.97278 343.001715530893
43.99289 401.977497051188
44.013 390
44.03312 372.017409801671
44.05323 413.055711611419
44.07335 410.875428580252
44.09346 362.973863288589
44.11357 411.998571930233
44.13369 362.009684679903
44.1538 392
44.17391 368.986515904675
44.19403 369.033760732364
44.21414 389.999336150892
44.23426 382.959002738632
44.25437 426.956943283313
44.27448 409.057475405251
44.2946 358
44.31471 388.006520298407
44.33482 374.000081461191
44.35494 388.979347594016
44.37505 359.00856883259
44.39516 395.910128322028
44.41528 415.009110751669
44.43539 388.016104812872
44.45551 369.000332307729
44.47562 392.041554301456
44.49573 422.991438188563
44.51585 381.87779329312
44.53596 370.907943196246
44.55607 423.018986865522
44.57619 351.027245642103
44.5963 360
44.61642 392.006477408736
44.63653 378.982151549148
44.65664 368.944953209843
44.67676 352.911353082316
44.69687 422.98278785155
44.71698 376.021044464357
44.7371 397
44.75721 361.999863738734
44.77732 397.006328500028
44.79744 358.931576919788
44.81755 362.92750543226
44.83767 391.974878889235
44.85778 388.021232376625
44.87789 372.994233225012
44.89801 407.015861198903
44.91812 401.948011288676
44.93823 354.026958210011
44.95835 417.063201178674
44.97846 388.03545220696
44.99858 420.942528422281
45.01869 446.019562645689
45.0388 383
45.05892 412.997405665959
45.07903 367.969273921799
45.09914 396.068291143504
45.11926 410.975920635997
45.13937 429.971702375326
45.15949 445.991505404961
45.1796 460
45.19971 448.990519893666
45.21983 442.029152325554
45.23994 483.08584153669
45.26005 517.911957842642
45.28017 539.025694441442
45.30028 497.029088822992
45.32039 506.981076333942
45.34051 544.008948220446
45.36062 535.977048475077
45.38074 514.974672903862
45.40085 508.982743952286
45.42096 502.991024599884
45.44108 515.990130146495
45.46119 516.002571274553
45.4813 507
45.50142 486.983185386944
45.52153 477.995329556504
45.54165 487.073432082887
45.56176 526.936999795305
45.58187 528.05005373041
45.60199 492.001126962034
45.6221 523
45.64221 535.010540536893
45.66233 584.105716040952
45.68244 641.026786693167
45.70256 637.926391296592
45.72267 714.909987767518
45.74278 722.025833144483
45.7629 713
45.78301 776.018473328415
45.80312 756.945876075743
45.82324 690.851421290955
45.84335 625.10474654283
45.86346 607.016156869871
45.88358 594.018379702533
45.90369 579.000981773713
45.92381 573.983233402554
45.94392 515.947953204227
45.96403 486.973196874834
45.98415 469.965623782772
46.00426 461.009182041443
46.02437 447.05453103672
46.04449 409.002522578974
46.0646 436
46.08472 436.994128160792
46.10483 439.0133019373
46.12494 434.928747416498
46.14506 391.018577767806
46.16517 415.975303909158
46.18528 409.002715816722
46.2054 413
46.22551 369.972347729159
46.24563 341.031522446466
46.26574 394.086446342983
46.28585 398.059548009931
46.30597 374.011662613766
46.32608 384.98403038178
46.34619 395.995223372409
46.36631 401.998280100873
46.38642 392.995233130296
46.40653 406.051799636749
46.42665 440.017417636405
46.44676 418.053036074554
46.46688 403.011202167922
46.48699 393.001664132684
46.5071 392
46.52722 375.985948775062
46.54733 364.97596021064
46.56744 356.036965767716
46.58756 392.949333177802
46.60767 393.014562326574
46.62779 394.990247865423
46.6479 418
46.66801 407.997125515505
46.68813 401.953419800873
46.70824 366.008948189989
46.72835 403.952699375915
46.74847 384.039755380154
46.76858 389.954719416346
46.78869 437.996802243347
46.80881 400.981058572576
46.82892 388.99898714821
46.84904 394.042189575524
46.86915 413.978314619011
46.88926 389.002607569235
46.90938 407.006894318665
46.92949 378.001921044046
46.9496 394
46.96972 347.98080802423
46.98983 369.028530903915
47.00995 371.029192262019
47.03006 392.988426337607
47.05017 374.038991281105
47.07029 362.995676443175
47.0904 378
47.11051 368.998066523917
47.13063 374.000393815886
47.15074 372.023466665523
47.17086 395.963543970387
47.19097 399.006414598414
47.21108 396.001082922564
47.2312 388
47.25131 359.99529642738
47.27142 373.017157950639
47.29154 383.018818162565
47.31165 391.002838740417
47.33176 370.087290140747
47.35188 336.985314819786
47.37199 377.995727029853
47.39211 344.98756825162
47.41222 360.037340595398
47.43233 384.992322641078
47.45245 367.009724589526
47.47256 398.937714396117
47.49267 402.036287027493
47.51279 370.010372309076
47.5329 366
47.55302 354.977192317027
47.57313 341.025415241089
47.59324 385.089676704643
47.61336 404.01691304248
47.63347 378.048240006793
47.65358 362.985305333763
47.6737 392
47.69381 386.998463017586
47.71393 389.986997284709
47.73404 368.967793860942
47.75415 370.959175742237
47.77427 386.99323478059
47.79438 380.007407511124
47.81449 383.991925176795
47.83461 404.007203531275
47.85472 413.012766496253
47.87483 408.924074659329
47.89495 351.011274602086
47.91506 411.917290729261
47.93518 395.038895157886
47.95529 375.996560718276
47.9754 399
47.99552 395.959782413366
48.01563 343.960021128679
48.03574 368.127244933671
48.05586 422.984967419994
48.07597 393.02947560584
48.09609 391.012290962204
48.1162 346
48.13631 365.018062036991
48.15643 391.018111593364
48.17654 386.962232608811
48.19665 369.99781071171
48.21677 381.999153623844
48.23688 368.009008228584
48.257 374
48.27711 371.987370505919
48.29722 337.982005913458
48.31734 350.063452319332
48.33745 380.041292778075
48.35756 381.010762623142
48.37768 383.983155336667
48.39779 402.998196125899
48.4179 387
48.43802 370.989990466384
48.45813 368.008450020355
48.47825 378.021048784908
48.49836 381.001135875556
48.51847 372.03612491513
48.53859 352.993288263665
48.5587 396
48.57881 412.998931433759
48.59893 402.981214769515
48.61904 384.93723144464
48.63916 365.944651605255
48.65927 415.979952151167
48.67938 393.000212577369
48.6995 420
48.71961 377.979203182359
48.73972 378.041883201202
48.75984 416.980962481895
48.77995 367.090765139486
48.80006 379.911018469093
48.82018 404.031397340556
48.84029 349.00558165863
48.86041 396.026008148562
48.88052 406.97605486914
48.90063 376.980453870087
48.92075 380.996485744171
48.94086 370.004422762554
48.96097 378.993512019445
48.98109 375.000052043448
49.0012 381
49.02132 379.003813039716
49.04143 385.996464805802
49.06154 376.999153504604
49.08166 387.980156783211
49.10177 392.987393657551
49.12188 400.007733842269
49.142 382
49.16211 381.997431913668
49.18223 372.001355411018
49.20234 387.033146887142
49.22245 398.966971155409
49.24257 404.028274357553
49.26268 377.003322290875
49.28279 397.992956678957
49.30291 388.991410134301
49.32302 384.012896484768
49.34313 412.051516278128
49.36325 426.944903772335
49.38336 393.005643745962
49.40348 409.020165476549
49.42359 356.013395028605
49.4437 383
49.46382 410.992333491645
49.48393 392.011694134826
49.50404 422.019058793016
49.52416 395.073364488105
49.54427 381.97305178841
49.56439 405.002779419742
49.5845 381
49.60461 409.006048948948
49.62473 392.979015928441
49.64484 396.010379302738
49.66495 395.994569169777
49.68507 404.980631088642
49.70518 420.979233240084
49.7253 442
49.74541 444.996552683935
49.76552 441.010162416008
49.78564 458.010174494582
49.80575 442.938109794487
49.82586 437.931728512968
49.84598 491.965559110292
49.86609 499.993363841412
49.8862 540
49.90632 589.029399369596
49.92643 604.026420087018
49.94655 638.116313122468
49.96666 707.788650207157
49.98677 835.818932442591
50.00689 942.943466673105
50.027 1086
50.04711 1257.06552199206
50.06723 1384.28821246927
50.08734 1587.17151292939
50.10746 1547.09747875612
50.12757 1550.99757626799
50.14768 1467.19626124349
50.1678 1221
50.18791 1091.94048706498
50.20802 993.99955635726
50.22814 1047.97950940525
50.24825 948.237552602195
50.26837 886.13871265276
50.28848 755.110948946896
50.30859 676.045365035505
50.32871 547.927998363513
50.34882 431.938498410425
50.36893 429.052692513503
50.38905 453.966699257591
50.40916 411.070661357653
50.42927 412.95115897719
50.44939 438.00725500893
50.4695 392
50.48962 393.028640014808
50.50973 428.04507332218
50.52984 428.916878860712
50.54996 382.001612999155
50.57007 416.985913012089
50.59018 382.036474878122
50.6103 384
50.63041 426.007940360685
50.65053 401.928177561473
50.67064 362.975192708736
50.69075 383.891145537133
50.71087 415.010096386568
50.73098 382.022292023099
50.75109 386.99388551833
50.77121 388.997123732673
50.79132 385.004822630487
50.81143 394.002128572257
50.83155 383.966069373768
50.85166 373.019323320194
50.87178 370.986436938365
50.89189 394.989501958289
50.912 401
50.93212 384.981109260341
50.95223 373.000000772113
50.97234 385.037991191101
50.99246 394.026659232576
51.01257 385.944267950335
51.03269 431.01260352129
51.0528 357
51.07291 399.010306221463
51.09303 369.968451340486
51.11314 385.044034923152
51.13325 385.055434912524
51.15337 364.989548705667
51.17348 386.002902021283
51.1936 362
51.21371 384.006779279242
51.23382 370.976698981811
51.25394 361.022094495782
51.27405 375.022359062306
51.29416 354.98644193141
51.31428 371.030403520729
51.33439 315.002177271365
51.3545 368
51.37462 364.998737508961
51.39473 373.976507269518
51.41485 338.965350291073
51.43496 358.947430402993
51.45507 372.984814483351
51.47519 372.013969487555
51.4953 345
51.51541 382.994111948825
51.53553 339.016560192042
51.55564 396.013834191553
51.57576 339.076570350805
51.59587 350.981659967799
51.61598 339.010551023124
51.6361 348
51.65621 368.006564539347
51.67632 380.02201345436
51.69644 398.982659629189
51.71655 366.072120283405
51.73667 363.970319246739
51.75678 377.017590071346
51.77689 343.005976232074
51.79701 346.987873174971
51.81712 304.995451939982
51.83723 350.077516538751
51.85735 375.016620538464
51.87746 370.037129408543
51.89757 352.001498597083
51.91769 364.996259665988
51.9378 359
51.95792 360.009727810741
51.97803 366.989490544735
51.99814 358.024547718511
52.01826 380.006790111013
52.03837 353.02062809636
52.05848 355.016348901048
52.0786 341
52.09871 408.000343944267
52.11883 346.957364911498
52.13894 373.018051652646
52.15905 347.018866953707
52.17917 369.981790722586
52.19928 351.028949443133
52.21939 340.991446166417
52.23951 372.011555021259
52.25962 379.003819271252
52.27974 380.976906392391
52.29985 360.971272087397
52.31996 371.938950825805
52.34008 396.006226566518
52.36019 360.020634268684
52.3803 344
52.40042 368.000713863877
52.42053 348.993752659301
52.44064 374.068147133851
52.46076 386.043456917999
52.48087 350.028406330096
52.50099 355.996129653473
52.5211 358
52.54121 378.005311490093
52.56133 368.967684515501
52.58144 351.995886129182
52.60155 375.874222815889
52.62167 418.003738512316
52.64178 371.054883809443
52.6619 359
52.68201 405.987797984931
52.70212 337.988883599032
52.72224 396.078718958016
52.74235 390.970973648728
52.76246 425.993196361379
52.78258 399.000926244705
52.80269 435.984987964568
52.8228 438
52.84292 443.001810090002
52.86303 433.975233387062
52.88315 416.966502681941
52.90326 421.931673828022
52.92337 462.979036939919
52.94349 451.00161919065
52.9636 452
52.98371 400.994713147113
53.00383 431.020319838345
53.02394 408.95991877662
53.04406 400.051383908999
53.06417 382.931949271492
53.08428 462.968191213571
53.1044 426
53.12451 412.997330324934
53.14462 402.996587359976
53.16474 413.038123816388
53.18485 428.988449657427
53.20497 427.989395264627
53.22508 440.000116770601
53.24519 426.006249116484
53.26531 417.99221197091
53.28542 399.997175247873
53.30553 420.04945427528
53.32565 441.990682164593
53.34576 427.988529463377
53.36587 448.001887642107
53.38599 417.016655217768
53.4061 418
53.42622 460.984594819949
53.44633 400.948368627071
53.46644 432.133973769422
53.48656 471.049581982439
53.50667 418.015079418288
53.52678 464.953332180175
53.5469 473
53.56701 448.977570092487
53.58713 419.046086649147
53.60724 472.987874672494
53.62735 425.963882254881
53.64747 504.934597537532
53.66758 471.054165733818
53.68769 454.988079285901
53.70781 493.012166318438
53.72792 477.947346960404
53.74804 431.002438911496
53.76815 470.061019732205
53.78826 461.018761266773
53.80838 473.975074878865
53.82849 488.004888102889
53.8486 465
53.86872 482.042365766583
53.88883 509.966155246187
53.90894 463.987732666621
53.92906 484.060765877946
53.94917 408.059086196271
53.96929 443.96595150225
53.9894 488
54.00951 475.000926757851
54.02963 489.989369373135
54.04974 467.004860384461
54.06985 492.984488106282
54.08997 462.063207778805
54.11008 437.00476796426
54.1302 451
54.15031 474.001064268052
54.17042 447.954185459883
54.19054 426.075941440369
54.21065 492.930489249368
54.23076 469.042439008942
54.25088 474.996815425742
54.27099 472.989793220843
54.29111 504.000813598113
54.31122 474.978931859985
54.33133 480.01669780763
54.35145 475.948612437227
54.37156 454.01274325836
54.39167 460.997769764976
54.41179 461.987818689454
54.4319 494
54.45201 472.003727405821
54.47213 506.009791926112
54.49224 473.944106157866
54.51236 470.998244612433
54.53247 469.981040363283
54.55258 503.953074004036
54.5727 525
54.59281 476.007234605159
54.61292 539.020286640081
54.63304 494.921573188656
54.65315 504.912475725473
54.67327 537.958693739489
54.69338 554.995843284148
54.71349 572.969825060983
54.73361 662.036845607406
54.75372 682.973050442371
54.77383 671.091452574934
54.79395 772.122827829622
54.81406 764.955059561181
54.83417 833.93158592292
54.85429 819.021696784059
54.8744 760
54.89452 661.946025637165
54.91463 655.997833855273
54.93474 630.934174108225
54.95486 624.919038657894
54.97497 684.951696315243
54.99508 674.022728845478
55.0152 657
55.03531 606.961018669123
55.05543 545.003693197784
55.07554 573.939943085889
55.09565 497.062810988005
55.11577 544.933711069304
55.13588 549.993372432368
55.15599 571.995068098332
55.17611 567.002358227491
55.19622 588.019099451191
55.21634 586.956968476981
55.23645 569.025480301617
55.25656 604.931556824807
55.27668 647.911657299954
55.29679 725.014778008347
55.3169 609
55.33702 603.010306892228
55.35713 589.982185647547
55.37724 572.895237988822
55.39736 515.998093042851
55.41747 559.984575358445
55.43759 520.01488056865
55.4577 513
55.47781 470.003288713383
55.49793 519.034789617082
55.51804 489.919819830259
55.53815 466.051780528052
55.55827 443.025374423294
55.57838 453.94755730312
55.5985 505
55.61861 448.98235218032
55.63872 465.02995341745
55.65884 488.063802980579
55.67895 514.028635204038
55.69906 483.996367621313
55.71918 515.990248130438
55.73929 498.997974677965
55.75941 530.007872802175
55.77952 519.995542618453
55.79963 537.034625053155
55.81975 537.914294512415
55.83986 483.093319574338
55.85997 477.936514001117
55.88009 521.004769765949
55.9002 469
55.92031 470.991955235336
55.94043 442.022011022488
55.96054 495.058853605727
55.98066 474.07337710563
56.00077 445.047727592137
56.02088 428.970395865478
56.041 469
56.06111 403.97834064174
56.08122 422.048394562444
56.10134 452.991900438922
56.12145 432.005807578164
56.14157 456.962107433814
56.16168 458.02106839811
56.18179 437.998803737274
56.20191 438.977334982945
56.22202 377.999755516412
56.24213 434.047585449733
56.26225 411.936183939718
56.28236 413.978508141419
56.30248 414.011359971079
56.32259 407.99158434668
56.3427 435
56.36282 418.989404656434
56.38293 425.008977053399
56.40304 428.027008565467
56.42316 443.012717148164
56.44327 422.009135120136
56.46338 436.987342724132
56.4835 432
56.50361 426.00657874121
56.52373 446.005721936225
56.54384 430.972669520047
56.56395 428.999616331712
56.58407 432.971363932555
56.60418 436.055659334298
56.62429 360.007035631442
56.64441 409.015557376261
56.66452 407.029740603701
56.68464 453.968609473056
56.70475 385.924096326811
56.72486 418.934706260581
56.74498 411.025590322592
56.76509 391.00688294145
56.7852 390
56.80532 414.010591098079
56.82543 406.985482883516
56.84554 416.068388960318
56.86566 443.03950809825
56.88577 390.049469795503
56.90589 394.995928517267
56.926 393
56.94611 414.005651306555
56.96623 403.967364408196
56.98634 389.002239284221
57.00645 407.927492687128
57.02657 422.028188854999
57.04668 385.022241460116
57.0668 394
57.08691 411.001770397263
57.10702 402.988604153404
57.12714 393.98260231294
57.14725 379.062984996278
57.16736 366.941938479249
57.18748 417.974950538391
57.20759 407.004845490388
57.22771 414.00087845567
57.24782 412.017558343883
57.26793 439.004061245332
57.28805 413.943402118076
57.30816 411.985282403219
57.32827 409.032349403402
57.34839 390.991823987995
57.3685 433
57.38861 425.988625451611
57.40873 404.969562831073
57.42884 397.03484322401
57.44896 428.956092081146
57.46907 427.02396317836
57.48918 411.011700147203
57.5093 406
57.52941 404.996763767745
57.54952 396.998957505709
57.56964 402.003436553205
57.58975 390.066329800618
57.60987 373.968555028205
57.62998 415.97998406756
57.65009 407.999697580391
57.67021 418.993232420652
57.69032 384.984795988421
57.71043 391.99082206709
57.73055 374.016908327314
57.75066 398.006017067217
57.77078 370.006729521734
57.79089 387.001502087181
57.811 366
57.83112 406.032242542001
57.85123 401.957125466855
57.87134 366.931122003365
57.89146 355.941843871496
57.91157 404.952526936498
57.93168 401.02113605743
57.9518 377
57.97191 360.010610932754
57.99203 387.967790678104
58.01214 331.961409385486
58.03225 371.873610938463
58.05237 391.010458450114
58.07248 379.001583206409
58.09259 373.020233027705
58.11271 329.007178077282
58.13282 388.027982255317
58.15294 363.955883415651
58.17305 375.054379995251
58.19316 386.992807589212
58.21328 387.000504357131
58.23339 382.008245947181
58.2535 367
58.27362 380.986234642193
58.29373 344.973635896372
58.31385 360.054055405418
58.33396 367.006681171233
58.35407 362.003649878907
58.37419 359.005414019044
58.3943 349
58.41441 367.003430822578
58.43453 355.979663719937
58.45464 356.029244397104
58.47475 372.985775442079
58.49487 361.033823762276
58.51498 361.948323665374
58.5351 429
58.55521 391.981864845166
58.57532 389.007253499308
58.59544 384.972643430217
58.61555 368.037573567811
58.63566 365.965539360884
58.65578 396.967534267978
58.67589 415.998919609872
58.69601 397.980958072317
58.71612 366.000949435279
58.73623 390.015835850297
58.75635 377.981209568213
58.77646 377.038234991633
58.79657 353.981320572988
58.81669 389.996104331987
58.8368 359
58.85691 363.013120930116
58.87703 389.01982631302
58.89714 383.966844404618
58.91726 366.030722335292
58.93737 357.999049518564
58.95748 375.957425593278
58.9776 418
58.99771 386.979057540686
59.01782 365.001359744333
59.03794 385.061189834049
59.05805 407.98903648304
59.07817 399.009844532196
59.09828 402.993090055138
59.11839 406.998602443813
59.13851 407.998417635234
59.15862 402.997917825414
59.17873 412.035231185615
59.19885 432.99422708625
59.21896 411.034315344362
59.23908 402.021433341683
59.25919 388.981375810662
59.2793 450
59.29942 412.972123474823
59.31953 428.045783869824
59.33964 436.954691603905
59.35976 416.945535760644
59.37987 465.003854341593
59.39998 418.013536228772
59.4201 455
59.44021 439.986344165565
59.46033 428.003146091911
59.48044 432.996154691936
59.50055 427.986058349564
59.52067 436.017169024776
59.54078 421.977591653891
59.56089 462.998890320042
59.58101 430.997869735306
59.60112 459.003025996323
59.62124 428.972068050943
59.64135 453.088304282457
59.66146 481.939014086755
59.68158 512.978665933813
59.70169 526.990726120581
59.7218 536
59.74192 504.020424693214
59.76203 583.128777256414
59.78215 647.15733603977
59.80226 726.81779609846
59.82237 810.908330862385
59.84249 878.940829915252
59.8626 1035
59.88271 1105.01001002889
59.90283 1119.05493416292
59.92294 1177.09725018114
59.94305 1171.18910122951
59.96317 1046.20506741219
59.98328 917.135631059084
60.0034 794
60.02351 771.997299479317
60.04362 763.002003705181
60.06374 785.072603870516
60.08385 797.114049512818
60.10396 717.113352995712
60.12408 682.07127369764
60.14419 574.042458322104
60.16431 531.981547553593
60.18442 483.963806631327
60.20453 464.972659617081
60.22465 428.862021433286
60.24476 384.004814789831
60.26487 407.000524914348
60.28499 384.996482615246
60.3051 425
60.32522 419.993866000346
60.34533 421.984631253506
60.36544 399.974619507051
60.38556 403.985445783216
60.40567 404.006667665165
60.42578 399.004393940132
60.4459 402
60.46601 422.004425162993
60.48612 413.984322948395
60.50624 404.000295610863
60.52635 406.021805802455
60.54647 395.983633148498
60.56658 421.987319148193
60.58669 407.014349247284
60.60681 383.994365023808
60.62692 391.026071541101
60.64703 413.994825505431
60.66715 402.051174491034
60.68726 449.942517847268
60.70738 424.070064082374
60.72749 374.986083541462
60.7476 435
60.76772 364.977046009503
60.78783 415.061881448527
60.80794 404.954017100048
60.82806 399.988113505562
60.84817 402.01439285669
60.86828 392.988390553882
60.8884 413
60.90851 386.993510225562
60.92863 386.967684873255
60.94874 356.012944816953
60.96885 396.936935578938
60.98897 387.022489006514
61.00908 386.995088289618
61.02919 398.984432856419
61.04931 418.982984093308
61.06942 356.979521518069
61.08954 385.029388719979
61.10965 364.963024675089
61.12976 380.935282038667
61.14988 398.016219967035
61.16999 366.006042327525
61.1901 376
61.21022 357.992903099008
61.23033 384.080439135633
61.25045 430.018799849605
61.27056 409.018353805247
61.29067 418.009859238767
61.31079 395.003078302181
61.3309 411
61.35101 414.010878956232
61.37113 445.006268493995
61.39124 424.98823234712
61.41135 431.055729418897
61.43147 400.964611851498
61.45158 458.988881717219
61.4717 423
61.49181 471.016510590793
61.51192 465.998217788883
61.53204 489.055894122236
61.55215 502.999329783401
61.57226 495.022565587383
61.59238 484.011831025565
61.61249 482.988613478607
61.63261 507.996138113361
61.65272 492.034944874028
61.67283 570.079929022223
61.69295 563.916029976206
61.71306 544.986933106306
61.73317 557.019760946845
61.75329 530.997702070881
61.7734 565
61.79352 547.971695358123
61.81363 543.043584422038
61.83374 579.009517626562
61.85386 550.053958066195
61.87397 536.037449715858
61.89408 509.992489341821
61.9142 531
61.93431 492.009816220087
61.95442 554.010471319776
61.97454 497.912128297228
61.99465 503.959683784855
62.01477 507.985776656115
62.03488 528.979480890666
62.05499 530.01292808604
62.07511 497.995236795421
62.09522 512.010317586091
62.11533 519.046383174754
62.13545 545.918693080901
62.15556 483.016256084854
62.17568 535.964485872456
62.19579 525.004238730804
62.2159 536
62.23602 523.008983527422
62.25613 549.006921234763
62.27624 519.926682702452
62.29636 519.889456433308
62.31647 578.016902946274
62.33659 511.018214028389
62.3567 519
62.37681 467.992349733256
62.39693 506.062537061665
62.41704 509.947287237658
62.43715 483.011922539656
62.45727 494.003199026181
62.47738 467.034331513355
62.49749 447.000413951645
62.51761 445.987437863709
62.53772 418.014737767906
62.55784 467.058078772714
62.57795 447.89541796099
62.59806 424.973959811322
62.61818 451.001036845194
62.63829 429.996911601812
62.6584 461
62.67852 433.981377812321
62.69863 436.99534021831
62.71875 418.965442230194
62.73886 414.020164855836
62.75897 401.994682018539
62.77909 415.000626549659
62.7992 393
62.81931 384.005117804857
62.83943 402.016962533502
62.85954 403.002310318507
62.87965 407.995168571692
62.89977 403.013331932355
62.91988 389.023053871312
62.94 371
62.96011 394.00771797627
62.98022 388.986291453597
63.00034 383.013185326969
63.02045 404.91299584779
63.04056 431.005527589678
63.06068 404.026397528318
63.08079 392.004031801622
63.10091 388.005445973379
63.12102 408.012287264283
63.14113 414.026296833746
63.16125 433.988057289288
63.18136 409.026552025421
63.20147 414.998018709352
63.22159 395.016855268431
63.2417 388
63.26182 462.021671458597
63.28193 422.946625859826
63.30204 420.996963645815
63.32216 402.041548798268
63.34227 397.975849776525
63.36238 412.013888895213
63.3825 387
63.40261 423.009778503158
63.42272 400.956641652932
63.44284 378.039279030804
63.46295 405.058006710381
63.48307 342.051262824971
63.50318 360.971715340407
63.52329 377.985762838349
63.54341 416.010971086844
63.56352 412.988142978839
63.58363 399.966560019438
63.60375 377.991362840264
63.62386 384.022990429631
63.64398 363.992285286222
63.66409 395.991840259999
63.6842 387
63.70432 404.024741062934
63.72443 424.023618686493
63.74454 429.979633865011
63.76466 411.027296722171
63.78477 423.929524577283
63.80489 472.994729512942
63.825 449
63.84511 460.004192826804
63.86523 453.993663909826
63.88534 464.041111869596
63.90545 493.897564610979
63.92557 530.977334743766
63.94568 538.96694214472
63.96579 584.993139503815
63.98591 551.97548347193
64.00602 536.036279605514
64.02614 574.945187906544
64.04625 499.912994190201
64.06636 515.024288418127
64.08648 465.02079205223
64.10659 491.986746881393
64.1267 479
64.14682 447.013029729263
64.16693 475.973772881778
64.18705 414.902583300572
64.20716 420.981146438891
64.22727 417.984406848651
64.24739 442.992738796211
64.2675 437
64.28761 427.993871474599
64.30773 402.938868560983
64.32784 365.980360867588
64.34796 388.923947774664
64.36807 408.025600719812
64.38818 374.014268790484
64.4083 388
64.42841 382.991943803823
64.44852 377.017346561913
64.46864 399.995008433724
64.48875 374.040426847511
64.50886 379.984846387308
64.52898 378.999178656105
64.54909 381.003938831002
64.56921 372.004921238837
64.58932 395.010348181951
64.60943 384.981191673249
64.62955 388.047512270542
64.64966 402.025484272311
64.66977 374.014889899541
64.68989 388.993276262032
64.71 384
64.73012 381.018851904473
64.75023 397.970661065408
64.77034 349.933141297081
64.79046 354.950189639294
64.81057 372.000667929222
64.83068 367.984203881963
64.8508 389
64.87091 344.98201289456
64.89102 347.03076158498
64.91114 379.028900846863
64.93125 367.071883154815
64.95137 352.96549194047
64.97148 388.997851756577
64.99159 356.011220010003
65.01171 365.007965136602
65.03182 365.988497347923
65.05193 350.982382982611
65.07205 355.064406626918
65.09216 384.980037332228
65.11228 372.015205325058
65.13239 369.996962092114
65.1525 374
65.17262 366.997587736811
65.19273 366.987893613319
65.21284 360.027565805379
65.23296 382.00481097255
65.25307 360.006479635588
65.27319 381.990257040148
65.2933 381
65.31341 364.986802193237
65.33353 337.982292907844
65.35364 348.046102101198
65.37375 362.022040695938
65.39387 342.008660491163
65.41398 354.989106845444
65.43409 356.996500180338
65.45421 369.001436440819
65.47432 355.978467140963
65.49444 338.987444915825
65.51455 355.10967971545
65.53466 395.00456009477
65.55478 351.046998019192
65.57489 344.979494492101
65.595 398
65.61512 374.956070000197
65.63523 353.027573035095
65.65535 391.045926351681
65.67546 384.993080575595
65.69557 404.985820165426
65.71569 390.013105576057
65.7358 379
65.75591 406.001308100828
65.77603 379.961927200229
65.79614 384.066890006
65.81626 419.978584765498
65.83637 395.065632135181
65.85648 364.999796420626
65.8766 384
65.89671 377.999436770587
65.91682 394.024483602087
65.93694 401.949495937666
65.95705 359.068957948256
65.97716 356.996811013367
65.99728 351.002661246337
66.01739 348.008910228919
66.03751 334.011638083054
66.05762 381.023308072718
66.07773 368.981664284125
66.09785 371.996999588381
66.11796 358.031374995062
66.13807 352.988998270176
66.15819 362.99940820284
66.1783 360
66.19842 378.008190643638
66.21853 366.968759492457
66.23864 358.03091452837
66.25876 380.998679706797
66.27887 348.072099373718
66.29898 329.960632985573
66.3191 389
66.33921 347.981864818757
66.35933 353.037644048769
66.37944 375.032986127813
66.39955 379.033710240968
66.41967 357.024420644823
66.43978 354.993101009574
66.45989 359.00269041493
66.48001 346.995388823198
66.50012 356.033377140656
66.52023 387.997197206697
66.54035 357.949556973143
66.56046 361.989827609534
66.58058 355.00900728926
66.60069 353.996464794501
66.6208 364
66.64092 354.965607579535
66.66103 317.98896594197
66.68114 346.07449830918
66.70126 364.0090020067
66.72137 352.002400583212
66.74149 359.002062694315
66.7616 349
66.78171 365.994170207231
66.80183 342.0248797453
66.82194 390.034589268817
66.84205 365.042542635833
66.86217 371.008958012557
66.88228 353.991855235527
66.90239 384.992481111332
66.92251 368.98826769256
66.94262 357.998288062994
66.96274 355.983025289659
66.98285 341.969569009479
67.00296 349.921832088938
67.02308 394.986108947525
67.04319 376.008434927674
67.0633 376
67.08342 360.984622957942
67.10353 357.011981700614
67.12365 365.995954427966
67.14376 352.032677287157
67.16387 348.975521294496
67.18399 364.006627740273
67.2041 347
67.22421 405.006197809701
67.24433 366.968809815306
67.26444 389.046762279193
67.28456 387.025999195463
67.30467 381.98854490383
67.32478 392.99972204149
67.3449 390
67.36501 406.990341571992
67.38512 368.999321129436
67.40524 398.996595425088
67.42535 367.988679830356
67.44546 413.943407620787
67.46558 408.995018981367
67.48569 439.985326899468
67.50581 451.00150655064
67.52592 463.027299097942
67.54603 500.051187125225
67.56615 534.120366518243
67.58626 580.970741232012
67.60637 576.968269935015
67.62649 645.952751401072
67.6466 724
67.66672 750.057815691374
67.68683 829.064181971425
67.70694 819.95914309183
67.72706 798.106432190932
67.74717 717.110498780958
67.76728 674.022403308304
67.7874 647
67.80751 597.989332880194
67.82763 608.022168642519
67.84774 606.977950137499
67.86785 613.882677728309
67.88797 686.9073509367
67.90808 721.971490526892
67.92819 730.023693411738
67.94831 649.973159764561
67.96842 641.999603630488
67.98853 660.127814790277
68.00865 777.157152445365
68.02876 785.922807311969
68.04888 888.88369504987
68.06899 964.984772593932
68.0891 967
68.10922 976.023033804537
68.12933 991.981440927899
68.14944 942.85529571122
68.16956 875.093290135315
68.18967 858.986450813261
68.20979 854.026160036378
68.2299 826
68.25001 987.020870562927
68.27013 887.87385470815
68.29024 904.09534432166
68.31035 910.101845817268
68.33047 818.211901177641
68.35058 680.080448070591
68.3707 646
68.39081 564.970020010208
68.41092 559.03103702638
68.43104 581.973089938015
68.45115 537.89924405056
68.47126 522.008288314912
68.49138 514.014421484436
68.51149 490.016824350916
68.5316 448
68.55172 404.971824095981
68.57183 392.994885918324
68.59195 387.977700451346
68.61206 378.011177553241
68.63217 375.011115594298
68.65229 366.998783384548
68.6724 368
68.69251 335.999013207416
68.71263 364.028894904186
68.73274 356.974781617855
68.75286 354.991383758324
68.77297 359.993417726936
68.79308 357.015865211456
68.8132 350
68.83331 391.000069017194
68.85342 355.987955835897
68.87354 382.04270708641
68.89365 367.100839132361
68.91376 334.006392141024
68.93388 363.956206883049
68.95399 383.012879423127
68.97411 348.005832571543
68.99422 384.985175754451
69.01433 331.9994353676
69.03445 387.056816629717
69.05456 359.020133913734
69.07467 377.0184714109
69.09479 338.001527046016
69.1149 374
69.13502 350.9798047148
69.15513 364.053414728316
69.17524 400.048187079231
69.19536 398.060905954001
69.21547 356.050387723987
69.23558 352.969648387625
69.2557 397
69.27581 405.995131602157
69.29593 392.988924540779
69.31604 394.007046017414
69.33615 395.001848457449
69.35627 401.965108383063
69.37638 428.990920033544
69.39649 411.016297648246
69.41661 387.999486945273
69.43672 414.045736464498
69.45683 438.955383033199
69.47695 388.995975228846
69.49706 425.010915968072
69.51718 369.036236760918
69.53729 385.983060125773
69.5574 400
69.57752 381.981381096537
69.59763 375.010059141046
69.61774 391.037512081016
69.63786 407.966927860994
69.65797 407.055978369944
69.67809 363.999161728563
69.6982 398
69.71831 365.994859424477
69.73843 399.060874513781
69.75854 401.910342741644
69.77865 349.025453093786
69.79877 381.960780534278
69.81888 381.99582435324
69.839 397
69.85911 389.004605630555
69.87922 403.98219354169
69.89934 364.980537840252
69.91945 379.963596415508
69.93956 342.995207528544
69.95968 393.953135272208
69.97979 396.015805750361
69.9999 363
70.02002 373.014375053378
70.04013 382.018050661256
70.06025 398.030358514922
70.08036 395.043504229627
70.10047 374.990676311707
70.12059 388.012111452713
70.1407 347
70.16081 408.027606984833
70.18093 419.984617666591
70.20104 409.983486700948
70.22116 402.02062786997
70.24127 395.988260773913
70.26138 397.035978075563
70.2815 351
70.30161 396.01252864769
70.32172 386.002153388948
70.34184 405.99249069103
70.36195 379.019790693389
70.38207 392.00947072146
70.40218 361.020401677378
70.42229 360.003838843037
70.44241 347.00468307317
70.46252 366.991156439136
70.48263 333.980577540339
70.50275 355.062661873933
70.52286 363.00178496902
70.54297 361.005641289607
70.56309 356.002472365499
70.5832 353
70.60332 352.997342006848
70.62343 348.998529686271
70.64354 343.959396680604
70.66366 332.931281635839
70.68377 382.005483590085
70.70388 333.019288588456
70.724 365
70.74411 360.99172975464
70.76423 350.991845724494
70.78434 353.028916210338
70.80445 367.011739288777
70.82457 349.011485028396
70.84468 350.015492745305
70.86479 337.981569771441
70.88491 389.993618319232
70.90502 325.978173101917
70.92513 368.052120286794
70.94525 359.960172830926
70.96536 358.001608862004
70.98548 351.007591344131
71.00559 355.987405268585
71.0257 370
71.04582 318.007538432107
71.06593 369.00554759436
71.08604 313.930476562332
71.10616 337.914827388413
71.12627 359.001977446334
71.14639 349.002154531978
71.1665 355
71.18661 366.014312891441
71.20673 379.930127805743
71.22684 309.980404133173
71.24695 368.868673854466
71.26707 363.063427177344
71.28718 331.993616660126
71.3073 363
71.32741 352.995083280273
71.34752 365.028847119715
71.36764 375.926016539703
71.38775 323.014897586959
71.40786 364.943538753962
71.42798 358.999222835819
71.44809 373.003735746856
71.4682 335
71.48832 316.007254631637
71.50843 332.006844052088
71.52855 322.988215819822
71.54866 329.98340326632
71.56877 329.015865365982
71.58889 322.993413011118
71.609 354
71.62911 366.994157656618
71.64923 354.021460412749
71.66934 381.998820197549
71.68946 354.023554388815
71.70957 365.999840192542
71.72968 343.021345408433
71.7498 342
71.76991 359.007337642155
71.79002 368.005293323936
71.81014 362.952053219599
71.83025 339.982178204935
71.85037 359.024547415911
71.87048 320.998139768949
71.89059 362.989686544714
71.91071 345.995174071454
71.93082 359.006148612235
71.95093 348.990895515004
71.97105 348.970781679544
71.99116 341.936454277525
72.01127 393.971700134325
72.03139 373.007180296366
72.0515 381
72.07162 357.970395958997
72.09173 351.043772413309
72.11184 390.017130768461
72.13196 367.031134807433
72.15207 375.981992078843
72.17218 377.002588265574
72.1923 372
72.21241 367.013541274285
72.23253 395.965267313693
72.25264 327.89734289297
72.27275 329.921292182657
72.29287 360.963972365592
72.31298 367.017017328838
72.33309 350.992849252625
72.35321 385.006711220257
72.37332 356.949766380388
72.39344 331.052866749539
72.41355 387.086266789046
72.43366 380.036643353782
72.45378 367.02103001096
72.47389 345.999511998998
72.494 377
72.51412 400.975462544636
72.53423 356.987065844419
72.55434 382.005234450067
72.57446 359.985655567366
72.59457 405.939497858841
72.61469 404.018511494201
72.6348 354
72.65491 343.022167182339
72.67503 405.033364646505
72.69514 371.905553834989
72.71525 359.919244839913
72.73537 406.966170847451
72.75548 398.008868022851
72.7756 405
72.79571 401.996554573903
72.81582 393.987807216033
72.83594 381.991926096981
72.85605 398.892560726344
72.87616 422.097188306246
72.89628 342.017999285906
72.91639 394.98016305454
72.9365 393
72.95662 431.021451727792
72.97673 414.952085539385
72.99685 398.01967907445
73.01696 409.034640152903
73.03707 370.033233099035
73.05719 385.981462996014
73.0773 419
73.09741 423.998102399535
73.11753 412.965804740893
73.13764 385.962982670799
73.15776 391.931938803418
73.17787 426.992914550168
73.19798 397.037716798815
73.2181 390
73.23821 437.007107077656
73.25832 424.008842482109
73.27844 457.020446387142
73.29855 435.042034993566
73.31867 449.945848970485
73.33878 487.969532174224
73.35889 502.001345278391
73.37901 509.021530831678
73.39912 560.003609602724
73.41923 529.002964879775
73.43935 562.994190148593
73.45946 516.062613889244
73.47957 517.01420219213
73.49969 476.025030557529
73.5198 436
73.53992 430.040906140818
73.56003 476.986322406318
73.58014 430.996333374006
73.60026 471.997289100954
73.62037 432.996699570567
73.64048 480.983671959105
73.6606 433
73.68071 391.993588253938
73.70083 396.012233455335
73.72094 402.020072775477
73.74105 401.083026129565
73.76117 350.048299207817
73.78128 358.963571854154
73.80139 391.994128823864
73.82151 383.995650674001
73.84162 377.981288606245
73.86174 361.029814129176
73.88185 396.032798768156
73.90196 369.086620210947
73.92208 348.980011787248
73.94219 384.994543607728
73.9623 367
73.98242 374.99856715284
74.00253 365.014280368634
74.02264 395.046465777521
74.04276 394.031776243341
74.06287 378.015717413132
74.08299 374.000976665256
74.1031 370
74.12321 367.001733024479
74.14333 379.027944495261
74.16344 387.969317906935
74.18355 359.041848408899
74.20367 358.010569251684
74.22378 339.014724433131
74.2439 358
74.26401 424.002377656883
74.28412 375.968648176307
74.30424 379.978919299724
74.32435 337.106140076433
74.34446 332.919373767871
74.36458 389.961017320039
74.38469 391.011499214486
74.40481 363.987737480362
74.42492 354.010699335064
74.44503 366.986085731696
74.46515 348.021007189885
74.48526 387.923846751491
74.50537 389.057882319669
74.52549 343.00888144189
74.5456 355
74.56571 344.995686789974
74.58583 342.985914157914
74.60594 330.00271801509
74.62606 346.968515476582
74.64617 358.966897672427
74.66628 378.011528921461
74.6864 344
74.70651 347.00058719824
74.72662 340.003872474144
74.74674 349.9846278729
74.76685 331.992411894275
74.78697 355.979833657276
74.80708 347.011932584691
74.82719 342.003751015578
74.84731 336.004563348418
74.86742 355.009836410315
74.88753 347.980889615336
74.90765 338.983423043902
74.92776 332.016754295828
74.94787 327.988915908578
74.96799 348.98527028146
74.9881 372
75.00822 359.979048836094
