3.00117 19264
3.02128 19162
3.0414 18326
3.06151 17898
3.08162 17446
3.10174 17312
3.12185 16320
3.14197 15823
3.16208 15630
3.18219 15233
3.20231 14591
3.22242 14337
3.24253 13562
3.26265 13574
3.28276 12961
3.30288 12732
3.32299 12006
3.3431 11740
3.36322 11603
3.38333 11124
3.40344 10823
3.42356 10580
3.44367 9854
3.46379 9843
3.4839 9459
3.50401 8917
3.52413 8755
3.54424 8278
3.56435 8307
3.58447 7944
3.60458 7576
3.62469 7326
3.64481 6838
3.66492 7122
3.68504 6497
3.70515 6250
3.72526 6010
3.74538 5722
3.76549 5589
3.7856 5403
3.80572 4962
3.82583 4920
3.84595 4560
3.86606 4487
3.88617 4440
3.90629 4161
3.9264 3952
3.94651 3651
3.96663 3687
3.98674 3489
4.00686 3466
4.02697 3262
4.04708 2921
4.0672 3076
4.08731 2853
4.10742 2648
4.12754 2538
4.14765 2401
4.16776 2442
4.18788 2392
4.20799 2191
4.22811 1984
4.24822 1929
4.26833 1982
4.28845 1907
4.30856 1796
4.32867 1738
4.34879 1656
4.3689 1695
4.38902 1740
4.40913 1465
4.42924 1490
4.44936 1473
4.46947 1453
4.48958 1551
4.5097 1353
4.52981 1343
4.54992 1349
4.57004 1275
4.59015 1351
4.61027 1227
4.63038 1158
4.65049 1135
4.67061 1134
4.69072 1162
4.71083 984
4.73095 1132
4.75106 1065
4.77118 1068
4.79129 1074
4.8114 936
4.83152 1027
4.85163 887
4.87174 938
4.89186 965
4.91197 906
4.93209 896
4.9522 765
4.97231 801
4.99243 809
5.01254 735
5.03265 772
5.05277 732
5.07288 730
5.09299 735
5.11311 728
5.13322 738
5.15334 680
5.17345 672
5.19356 697
5.21368 629
5.23379 589
5.2539 640
5.27402 591
5.29413 594
5.31425 599
5.33436 554
5.35447 534
5.37459 536
5.3947 503
5.41481 472
5.43493 483
5.45504 480
5.47516 501
5.49527 475
5.51538 437
5.5355 423
5.55561 486
5.57572 452
5.59584 384
5.61595 420
5.63606 421
5.65618 405
5.67629 416
5.69641 419
5.71652 362
5.73663 356
5.75675 430
5.77686 384
5.79697 387
5.81709 378
5.8372 354
5.85732 380
5.87743 384
5.89754 349
5.91766 346
5.93777 355
5.95788 328
5.978 339
5.99811 343
6.01823 308
6.03834 361
6.05845 340
6.07857 331
6.09868 300
6.11879 331
6.13891 320
6.15902 309
6.17913 306
6.19925 358
6.21936 297
6.23948 341
6.25959 323
6.2797 337
6.29982 292
6.31993 317
6.34004 278
6.36016 303
6.38027 278
6.40039 307
6.4205 309
6.44061 286
6.46073 312
6.48084 310
6.50095 299
6.52107 298
6.54118 294
6.56129 270
6.58141 303
6.60152 303
6.62164 290
6.64175 292
6.66186 294
6.68198 311
6.70209 292
6.7222 293
6.74232 277
6.76243 292
6.78255 283
6.80266 290
6.82277 297
6.84289 270
6.863 275
6.88311 296
6.90323 266
6.92334 277
6.94346 287
6.96357 285
6.98368 280
7.0038 276
7.02391 266
7.04402 297
7.06414 265
7.08425 296
7.10436 295
7.12448 283
7.14459 247
7.16471 280
7.18482 264
7.20493 279
7.22505 265
7.24516 300
7.26527 308
7.28539 267
7.3055 292
7.32562 274
7.34573 295
7.36584 275
7.38596 281
7.40607 320
7.42618 262
7.4463 303
7.46641 297
7.48653 299
7.50664 286
7.52675 315
7.54687 304
7.56698 308
7.58709 282
7.60721 280
7.62732 275
7.64743 262
7.66755 252
7.68766 280
7.70778 271
7.72789 272
7.748 293
7.76812 258
7.78823 250
7.80834 266
7.82846 313
7.84857 295
7.86869 298
7.8888 309
7.90891 295
7.92903 281
7.94914 282
7.96925 320
7.98937 313
8.00948 312
8.0296 289
8.04971 270
8.06982 265
8.08994 305
8.11005 270
8.13016 293
8.15028 297
8.17039 311
8.1905 268
8.21062 297
8.23073 269
8.25085 312
8.27096 301
8.29107 294
8.31119 274
8.3313 263
8.35141 302
8.37153 300
8.39164 273
8.41176 294
8.43187 305
8.45198 314
8.4721 289
8.49221 316
8.51232 280
8.53244 291
8.55255 276
8.57266 311
8.59278 261
8.61289 279
8.63301 265
8.65312 293
8.67323 284
8.69335 305
8.71346 285
8.73357 284
8.75369 321
8.7738 286
8.79392 306
8.81403 320
8.83414 312
8.85426 283
8.87437 324
8.89448 291
8.9146 298
8.93471 265
8.95483 264
8.97494 283
8.99505 300
9.01517 296
9.03528 287
9.05539 272
9.07551 276
9.09562 300
9.11573 284
9.13585 273
9.15596 297
9.17608 258
9.19619 266
9.2163 280
9.23642 293
9.25653 268
9.27664 299
9.29676 266
9.31687 273
9.33699 294
9.3571 284
9.37721 291
9.39733 300
9.41744 285
9.43755 294
9.45767 305
9.47778 312
9.4979 278
9.51801 278
9.53812 276
9.55824 315
9.57835 275
9.59846 263
9.61858 280
9.63869 304
9.6588 295
9.67892 290
9.69903 289
9.71915 294
9.73926 277
9.75937 279
9.77949 311
9.7996 294
9.81971 257
9.83983 267
9.85994 277
9.88006 288
9.90017 282
9.92028 328
9.9404 298
9.96051 281
9.98062 290
10.00074 320
10.02085 290
10.04097 283
10.06108 297
10.08119 293
10.10131 292
10.12142 318
10.14153 273
10.16165 301
10.18176 302
10.20187 299
10.22199 305
10.2421 303
10.26222 305
10.28233 320
10.30244 292
10.32256 308
10.34267 282
10.36278 271
10.3829 295
10.40301 303
10.42313 237
10.44324 269
10.46335 263
10.48347 287
10.50358 279
10.52369 290
10.54381 316
10.56392 315
10.58403 296
10.60415 292
10.62426 301
10.64438 312
10.66449 283
10.6846 297
10.70472 312
10.72483 308
10.74494 273
10.76506 281
10.78517 280
10.80529 277
10.8254 317
10.84551 304
10.86563 287
10.88574 272
10.90585 296
10.92597 279
10.94608 342
10.9662 255
10.98631 300
11.00642 325
11.02654 284
11.04665 343
11.06676 292
11.08688 313
11.10699 281
11.1271 328
11.14722 316
11.16733 284
11.18745 317
11.20756 329
11.22767 302
11.24779 285
11.2679 281
11.28801 290
11.30813 325
11.32824 305
11.34836 312
11.36847 285
11.38858 286
11.4087 369
11.42881 311
11.44892 315
11.46904 330
11.48915 293
11.50927 302
11.52938 299
11.54949 329
11.56961 340
11.58972 290
11.60983 310
11.62995 307
11.65006 336
11.67017 293
11.69029 313
11.7104 338
11.73052 320
11.75063 315
11.77074 351
11.79086 366
11.81097 313
11.83108 309
11.8512 365
11.87131 411
11.89143 369
11.91154 419
11.93165 406
11.95177 402
11.97188 445
11.99199 432
12.01211 411
12.03222 402
12.05234 451
12.07245 473
12.09256 507
12.11268 519
12.13279 554
12.1529 563
12.17302 600
12.19313 629
12.21324 679
12.23336 710
12.25347 795
12.27359 835
12.2937 864
12.31381 830
12.33393 812
12.35404 835
12.37415 721
12.39427 744
12.41438 682
12.4345 609
12.45461 582
12.47472 505
12.49484 486
12.51495 438
12.53506 412
12.55518 429
12.57529 381
12.5954 396
12.61552 362
12.63563 392
12.65575 329
12.67586 315
12.69597 352
12.71609 315
12.7362 322
12.75631 317
12.77643 319
12.79654 315
12.81666 337
12.83677 295
12.85688 285
12.877 276
12.89711 316
12.91722 309
12.93734 288
12.95745 248
12.97757 275
12.99768 270
13.01779 323
13.03791 299
13.05802 312
13.07813 302
13.09825 288
13.11836 260
13.13847 280
13.15859 288
13.1787 277
13.19882 281
13.21893 270
13.23904 280
13.25916 271
13.27927 255
13.29938 262
13.3195 288
13.33961 263
13.35973 257
13.37984 265
13.39995 276
13.42007 268
13.44018 244
13.46029 242
13.48041 274
13.50052 297
13.52064 288
13.54075 294
13.56086 275
13.58098 272
13.60109 256
13.6212 227
13.64132 268
13.66143 277
13.68154 242
13.70166 226
13.72177 255
13.74189 264
13.762 263
13.78211 262
13.80223 302
13.82234 233
13.84245 278
13.86257 270
13.88268 254
13.9028 230
13.92291 250
13.94302 236
13.96314 272
13.98325 260
14.00336 256
14.02348 268
14.04359 241
14.06371 273
14.08382 279
14.10393 253
14.12405 247
14.14416 268
14.16427 249
14.18439 240
14.2045 258
14.22461 252
14.24473 275
14.26484 261
14.28496 244
14.30507 258
14.32518 281
14.3453 257
14.36541 258
14.38552 219
14.40564 245
14.42575 261
14.44587 279
14.46598 266
14.48609 255
14.50621 260
14.52632 259
14.54643 249
14.56655 238
14.58666 230
14.60677 246
14.62689 231
14.647 214
14.66712 255
14.68723 230
14.70734 261
14.72746 250
14.74757 231
14.76768 234
14.7878 279
14.80791 247
14.82803 237
14.84814 250
14.86825 244
14.88837 251
14.90848 276
14.92859 220
14.94871 245
14.96882 249
14.98894 241
15.00905 247
15.02916 251
15.04928 225
15.06939 247
15.0895 255
15.10962 232
15.12973 223
15.14984 291
15.16996 251
15.19007 248
15.21019 252
15.2303 265
15.25041 216
15.27053 236
15.29064 239
15.31075 278
15.33087 227
15.35098 249
15.3711 242
15.39121 213
15.41132 209
15.43144 240
15.45155 237
15.47166 256
15.49178 235
15.51189 247
15.53201 249
15.55212 244
15.57223 217
15.59235 257
15.61246 273
15.63257 256
15.65269 240
15.6728 240
15.69291 234
15.71303 240
15.73314 224
15.75326 248
15.77337 213
15.79348 211
15.8136 245
15.83371 223
15.85382 255
15.87394 242
15.89405 235
15.91417 228
15.93428 242
15.95439 224
15.97451 226
15.99462 208
16.01473 250
16.03485 234
16.05496 223
16.07508 246
16.09519 214
16.1153 254
16.13542 261
16.15553 224
16.17564 236
16.19576 244
16.21587 224
16.23598 230
16.2561 216
16.27621 230
16.29633 244
16.31644 218
16.33655 242
16.35667 233
16.37678 238
16.39689 236
16.41701 225
16.43712 241
16.45724 239
16.47735 223
16.49746 264
16.51758 253
16.53769 246
16.5578 262
16.57792 228
16.59803 246
16.61814 254
16.63826 232
16.65837 247
16.67849 237
16.6986 247
16.71871 207
16.73883 247
16.75894 209
16.77905 213
16.79917 240
16.81928 225
16.8394 214
16.85951 262
16.87962 235
16.89974 234
16.91985 263
16.93996 246
16.96008 264
16.98019 247
17.00031 270
17.02042 251
17.04053 249
17.06065 224
17.08076 259
17.10087 227
17.12099 221
17.1411 200
17.16121 224
17.18133 259
17.20144 232
17.22156 246
17.24167 235
17.26178 247
17.2819 235
17.30201 243
17.32212 265
17.34224 245
17.36235 218
17.38247 251
17.40258 245
17.42269 237
17.44281 226
17.46292 209
17.48303 222
17.50315 256
17.52326 230
17.54338 279
17.56349 227
17.5836 244
17.60372 220
17.62383 248
17.64394 257
17.66406 256
17.68417 244
17.70428 247
17.7244 235
17.74451 278
17.76463 290
17.78474 238
17.80485 259
17.82497 252
17.84508 267
17.86519 253
17.88531 267
17.90542 245
17.92554 236
17.94565 216
17.96576 199
17.98588 244
18.00599 246
18.0261 237
18.04622 251
18.06633 256
18.08645 240
18.10656 245
18.12667 225
18.14679 248
18.1669 234
18.18701 225
18.20713 224
18.22724 224
18.24735 258
18.26747 240
18.28758 281
18.3077 238
18.32781 238
18.34792 225
18.36804 241
18.38815 229
18.40826 210
18.42838 227
18.44849 226
18.46861 236
18.48872 228
18.50883 237
18.52895 236
18.54906 249
18.56917 222
18.58929 230
18.6094 247
18.62951 229
18.64963 245
18.66974 236
18.68986 255
18.70997 248
18.73008 261
18.7502 235
18.77031 258
18.79042 233
18.81054 253
18.83065 248
18.85077 236
18.87088 257
18.89099 250
18.91111 219
18.93122 249
18.95133 238
18.97145 240
18.99156 219
19.01168 283
19.03179 253
19.0519 282
19.07202 240
19.09213 249
19.11224 259
19.13236 262
19.15247 246
19.17258 243
19.1927 267
19.21281 262
19.23293 239
19.25304 239
19.27315 227
19.29327 263
19.31338 234
19.33349 260
19.35361 249
19.37372 271
19.39384 260
19.41395 268
19.43406 264
19.45418 262
19.47429 245
19.4944 299
19.51452 301
19.53463 292
19.55475 294
19.57486 307
19.59497 362
19.61509 335
19.6352 329
19.65531 382
19.67543 373
19.69554 432
19.71565 426
19.73577 483
19.75588 515
19.776 539
19.79611 524
19.81622 600
19.83634 632
19.85645 622
19.87656 670
19.89668 632
19.91679 620
19.93691 616
19.95702 576
19.97713 562
19.99725 553
20.01736 558
20.03747 536
20.05759 591
20.0777 548
20.09782 522
20.11793 533
20.13804 590
20.15816 542
20.17827 520
20.19838 535
20.2185 564
20.23861 592
20.25872 526
20.27884 655
20.29895 604
20.31907 610
20.33918 614
20.35929 619
20.37941 605
20.39952 611
20.41963 625
20.43975 640
20.45986 559
20.47998 641
20.50009 664
20.5202 625
20.54032 614
20.56043 682
20.58054 708
20.60066 773
20.62077 858
20.64088 945
20.661 1153
20.68111 1555
20.70123 1923
20.72134 2433
20.74145 3134
20.76157 3923
20.78168 4684
20.80179 5192
20.82191 5286
20.84202 4881
20.86214 4278
20.88225 3201
20.90236 2434
20.92248 1704
20.94259 1176
20.9627 907
20.98282 751
21.00293 714
21.02305 663
21.04316 626
21.06327 631
21.08339 610
21.1035 620
21.12361 559
21.14373 557
21.16384 632
21.18395 577
21.20407 599
21.22418 569
21.2443 567
21.26441 550
21.28452 538
21.30464 545
21.32475 559
21.34486 560
21.36498 524
21.38509 570
21.40521 520
21.42532 514
21.44543 559
21.46555 530
21.48566 539
21.50577 505
21.52589 543
21.546 486
21.56612 468
21.58623 498
21.60634 450
21.62646 442
21.64657 473
21.66668 462
21.6868 434
21.70691 420
21.72702 435
21.74714 401
21.76725 416
21.78737 423
21.80748 457
21.82759 436
21.84771 419
21.86782 401
21.88793 415
21.90805 408
21.92816 421
21.94828 379
21.96839 406
21.9885 397
22.00862 400
22.02873 372
22.04884 344
22.06896 397
22.08907 388
22.10919 371
22.1293 398
22.14941 381
22.16953 447
22.18964 395
22.20975 382
22.22987 372
22.24998 417
22.27009 404
22.29021 371
22.31032 417
22.33044 392
22.35055 384
22.37066 377
22.39078 405
22.41089 338
22.431 370
22.45112 363
22.47123 345
22.49135 359
22.51146 363
22.53157 374
22.55169 365
22.5718 382
22.59191 386
22.61203 358
22.63214 316
22.65225 362
22.67237 362
22.69248 360
22.7126 378
22.73271 351
22.75282 340
22.77294 338
22.79305 344
22.81316 333
22.83328 358
22.85339 323
22.87351 368
22.89362 353
22.91373 336
22.93385 340
22.95396 353
22.97407 343
22.99419 372
23.0143 357
23.03442 321
23.05453 348
23.07464 317
23.09476 309
23.11487 351
23.13498 364
23.1551 343
23.17521 338
23.19532 338
23.21544 357
23.23555 368
23.25567 336
23.27578 335
23.29589 303
23.31601 345
23.33612 337
23.35623 303
23.37635 328
23.39646 320
23.41658 337
23.43669 330
23.4568 313
23.47692 355
23.49703 329
23.51714 367
23.53726 326
23.55737 350
23.57749 335
23.5976 351
23.61771 320
23.63783 317
23.65794 351
23.67805 333
23.69817 332
23.71828 337
23.73839 288
23.75851 361
23.77862 338
23.79874 358
23.81885 361
23.83896 353
23.85908 386
23.87919 361
23.8993 434
23.91942 365
23.93953 396
23.95965 374
23.97976 401
23.99987 414
24.01999 369
24.0401 371
24.06021 381
24.08033 354
24.10044 362
24.12056 378
24.14067 354
24.16078 378
24.1809 343
24.20101 350
24.22112 348
24.24124 360
24.26135 356
24.28146 375
24.30158 368
24.32169 392
24.34181 343
24.36192 373
24.38203 390
24.40215 330
24.42226 391
24.44237 378
24.46249 416
24.4826 377
24.50272 421
24.52283 413
24.54294 422
24.56306 438
24.58317 448
24.60328 467
24.6234 515
24.64351 517
24.66362 505
24.68374 481
24.70385 585
24.72397 583
24.74408 642
24.76419 685
24.78431 684
24.80442 699
24.82453 755
24.84465 743
24.86476 719
24.88488 729
24.90499 679
24.9251 684
24.94522 598
24.96533 615
24.98544 567
25.00556 511
25.02567 535
25.04579 459
25.0659 427
25.08601 473
25.10613 483
25.12624 464
25.14635 487
25.16647 513
25.18658 503
25.20669 520
25.22681 497
25.24692 433
25.26704 464
25.28715 437
25.30726 460
25.32738 445
25.34749 419
25.3676 431
25.38772 408
25.40783 431
25.42795 368
25.44806 445
25.46817 410
25.48829 386
25.5084 430
25.52851 401
25.54863 395
25.56874 370
25.58886 361
25.60897 434
25.62908 443
25.6492 409
25.66931 439
25.68942 440
25.70954 486
25.72965 438
25.74976 484
25.76988 439
25.78999 506
25.81011 503
25.83022 461
25.85033 464
25.87045 484
25.89056 479
25.91067 506
25.93079 515
25.9509 481
25.97102 543
25.99113 532
26.01124 561
26.03136 530
26.05147 618
26.07158 574
26.0917 628
26.11181 635
26.13193 611
26.15204 726
26.17215 756
26.19227 816
26.21238 840
26.23249 865
26.25261 947
26.27272 995
26.29283 1049
26.31295 1170
26.33306 1344
26.35318 1565
26.37329 1890
26.3934 2415
26.41352 3092
26.43363 4057
26.45374 5638
26.47386 7588
26.49397 10534
26.51409 13784
26.5342 17230
26.55431 20449
26.57443 23201
26.59454 23509
26.61465 22733
26.63477 19772
26.65488 15275
26.67499 11695
26.69511 8442
26.71522 5535
26.73534 3437
26.75545 2201
26.77556 1612
26.79568 1356
26.81579 1204
26.8359 1095
26.85602 1002
26.87613 923
26.89625 861
26.91636 777
26.93647 762
26.95659 675
26.9767 650
26.99681 599
27.01693 549
27.03704 516
27.05716 528
27.07727 527
27.09738 558
27.1175 483
27.13761 486
27.15772 466
27.17784 445
27.19795 482
27.21806 441
27.23818 456
27.25829 400
27.27841 439
27.29852 447
27.31863 496
27.33875 446
27.35886 463
27.37897 479
27.39909 463
27.4192 447
27.43932 470
27.45943 483
27.47954 457
27.49966 415
27.51977 386
27.53988 389
27.56 409
27.58011 348
27.60023 422
27.62034 358
27.64045 416
27.66057 411
27.68068 375
27.70079 373
27.72091 376
27.74102 370
27.76113 391
27.78125 404
27.80136 355
27.82148 340
27.84159 339
27.8617 355
27.88182 368
27.90193 356
27.92204 351
27.94216 350
27.96227 376
27.98239 331
28.0025 354
28.02261 318
28.04273 326
28.06284 349
28.08295 313
28.10307 353
28.12318 348
28.1433 299
28.16341 323
28.18352 339
28.20364 345
28.22375 336
28.24386 308
28.26398 302
28.28409 338
28.3042 317
28.32432 314
28.34443 356
28.36455 348
28.38466 327
28.40477 289
28.42489 290
28.445 342
28.46511 327
28.48523 306
28.50534 271
28.52546 302
28.54557 326
28.56568 334
28.5858 310
28.60591 352
28.62602 325
28.64614 304
28.66625 301
28.68636 308
28.70648 289
28.72659 346
28.74671 331
28.76682 300
28.78693 289
28.80705 317
28.82716 286
28.84727 319
28.86739 313
28.8875 283
28.90762 328
28.92773 271
28.94784 309
28.96796 289
28.98807 301
29.00818 306
29.0283 281
29.04841 293
29.06853 271
29.08864 298
29.10875 305
29.12887 311
29.14898 284
29.16909 279
29.18921 314
29.20932 280
29.22943 332
29.24955 293
29.26966 330
29.28978 298
29.30989 319
29.33 311
29.35012 310
29.37023 269
29.39034 261
29.41046 269
29.43057 301
29.45069 303
29.4708 277
29.49091 287
29.51103 296
29.53114 286
29.55125 281
29.57137 304
29.59148 266
29.6116 304
29.63171 258
29.65182 278
29.67194 261
29.69205 265
29.71216 268
29.73228 303
29.75239 299
29.7725 314
29.79262 315
29.81273 284
29.83285 296
29.85296 304
29.87307 281
29.89319 265
29.9133 294
29.93341 307
29.95353 287
29.97364 273
29.99376 267
30.01387 292
30.03398 266
30.0541 290
30.07421 287
30.09432 277
30.11444 290
30.13455 270
30.15467 296
30.17478 302
30.19489 285
30.21501 305
30.23512 270
30.25523 276
30.27535 284
30.29546 257
30.31557 297
30.33569 311
30.3558 265
30.37592 304
30.39603 269
30.41614 259
30.43626 264
30.45637 305
30.47648 272
30.4966 290
30.51671 286
30.53683 296
30.55694 283
30.57705 272
30.59717 279
30.61728 280
30.63739 293
30.65751 277
30.67762 260
30.69773 313
30.71785 279
30.73796 291
30.75808 269
30.77819 253
30.7983 256
30.81842 276
30.83853 295
30.85864 277
30.87876 249
30.89887 263
30.91899 281
30.9391 266
30.95921 264
30.97933 250
30.99944 257
31.01955 252
31.03967 271
31.05978 234
31.0799 288
31.10001 270
31.12012 257
31.14024 256
31.16035 275
31.18046 266
31.20058 296
31.22069 250
31.2408 247
31.26092 247
31.28103 289
31.30115 271
31.32126 278
31.34137 235
31.36149 257
31.3816 261
31.40171 275
31.42183 286
31.44194 295
31.46206 252
31.48217 255
31.50228 245
31.5224 275
31.54251 245
31.56262 235
31.58274 251
31.60285 275
31.62297 265
31.64308 264
31.66319 234
31.68331 272
31.70342 260
31.72353 263
31.74365 291
31.76376 258
31.78387 247
31.80399 251
31.8241 259
31.84422 256
31.86433 263
31.88444 261
31.90456 284
31.92467 271
31.94478 260
31.9649 254
31.98501 284
32.00513 270
32.02524 244
32.04535 274
32.06547 289
32.08558 286
32.10569 271
32.12581 275
32.14592 219
32.16604 260
32.18615 286
32.20626 247
32.22638 256
32.24649 273
32.2666 251
32.28672 257
32.30683 261
32.32694 296
32.34706 258
32.36717 261
32.38729 271
32.4074 285
32.42751 279
32.44763 278
32.46774 278
32.48785 287
32.50797 253
32.52808 290
32.5482 268
32.56831 277
32.58842 242
32.60854 283
32.62865 278
32.64876 250
32.66888 276
32.68899 307
32.7091 277
32.72922 285
32.74933 262
32.76945 271
32.78956 288
32.80967 305
32.82979 313
32.8499 277
32.87001 305
32.89013 310
32.91024 294
32.93036 288
32.95047 294
32.97058 332
32.9907 302
33.01081 326
33.03092 331
33.05104 319
33.07115 320
33.09127 315
33.11138 306
33.13149 339
33.15161 337
33.17172 338
33.19183 340
33.21195 360
33.23206 366
33.25217 353
33.27229 333
33.2924 321
33.31252 304
33.33263 329
33.35274 324
33.37286 315
33.39297 277
33.41308 301
33.4332 274
33.45331 296
33.47343 290
33.49354 296
33.51365 295
33.53377 294
33.55388 284
33.57399 317
33.59411 276
33.61422 307
33.63434 279
33.65445 263
33.67456 263
33.69468 269
33.71479 284
33.7349 302
33.75502 285
33.77513 275
33.79524 278
33.81536 292
33.83547 286
33.85559 255
33.8757 249
33.89581 265
33.91593 235
33.93604 270
33.95615 266
33.97627 230
33.99638 256
34.0165 228
34.03661 247
34.05672 241
34.07684 261
34.09695 232
34.11706 234
34.13718 260
34.15729 245
34.17741 286
34.19752 241
34.21763 254
34.23775 265
34.25786 246
34.27797 251
34.29809 235
34.3182 249
34.33831 243
34.35843 278
34.37854 261
34.39866 254
34.41877 267
34.43888 287
34.459 271
34.47911 273
34.49922 265
34.51934 300
34.53945 319
34.55957 301
34.57968 272
34.59979 307
34.61991 299
34.64002 276
34.66013 321
34.68025 304
34.70036 304
34.72047 341
34.74059 378
34.7607 382
34.78082 389
34.80093 407
34.82104 416
34.84116 440
34.86127 473
34.88138 470
34.9015 485
34.92161 472
34.94173 446
34.96184 446
34.98195 421
35.00207 401
35.02218 424
35.04229 412
35.06241 406
35.08252 407
35.10264 357
35.12275 392
35.14286 376
35.16298 366
35.18309 370
35.2032 371
35.22332 386
35.24343 410
35.26354 395
35.28366 380
35.30377 400
35.32389 408
35.344 423
35.36411 431
35.38423 432
35.40434 380
35.42445 421
35.44457 428
35.46468 473
35.4848 427
35.50491 410
35.52502 466
35.54514 458
35.56525 481
35.58536 430
35.60548 519
35.62559 464
35.64571 471
35.66582 455
35.68593 475
35.70605 493
35.72616 476
35.74627 489
35.76639 508
35.7865 468
35.80661 467
35.82673 498
35.84684 516
35.86696 526
35.88707 480
35.90718 475
35.9273 500
35.94741 475
35.96752 497
35.98764 485
36.00775 464
36.02787 446
36.04798 415
36.06809 409
36.08821 431
36.10832 398
36.12843 429
36.14855 375
36.16866 419
36.18878 423
36.20889 413
36.229 453
36.24912 458
36.26923 480
36.28934 514
36.30946 570
36.32957 653
36.34968 747
36.3698 904
36.38991 1085
36.41003 1295
36.43014 1402
36.45025 1636
36.47037 1761
36.49048 1805
36.51059 1677
36.53071 1593
36.55082 1364
36.57094 1164
36.59105 991
36.61116 841
36.63128 690
36.65139 584
36.6715 467
36.69162 472
36.71173 417
36.73184 347
36.75196 372
36.77207 362
36.79219 372
36.8123 391
36.83241 352
36.85253 393
36.87264 349
36.89275 387
36.91287 375
36.93298 335
36.9531 350
36.97321 361
36.99332 326
37.01344 355
37.03355 315
37.05366 327
37.07378 333
37.09389 326
37.11401 334
37.13412 314
37.15423 306
37.17435 314
37.19446 284
37.21457 338
37.23469 334
37.2548 318
37.27491 281
37.29503 311
37.31514 345
37.33526 309
37.35537 346
37.37548 295
37.3956 306
37.41571 297
37.43582 310
37.45594 311
37.47605 330
37.49617 332
37.51628 346
37.53639 324
37.55651 347
37.57662 317
37.59673 350
37.61685 358
37.63696 333
37.65708 358
37.67719 373
37.6973 327
37.71742 371
37.73753 338
37.75764 387
37.77776 364
37.79787 338
37.81798 328
37.8381 324
37.85821 346
37.87833 334
37.89844 320
37.91855 329
37.93867 342
37.95878 368
37.97889 350
37.99901 361
38.01912 398
38.03924 358
38.05935 372
38.07946 366
38.09958 388
38.11969 383
38.1398 349
38.15992 392
38.18003 375
38.20015 406
38.22026 403
38.24037 413
38.26049 438
38.2806 458
38.30071 442
38.32083 460
38.34094 536
38.36105 488
38.38117 532
38.40128 467
38.4214 495
38.44151 473
38.46162 474
38.48174 466
38.50185 464
38.52196 423
38.54208 430
38.56219 455
38.58231 422
38.60242 428
38.62253 413
38.64265 377
38.66276 378
38.68287 342
38.70299 326
38.7231 383
38.74321 377
38.76333 357
38.78344 355
38.80356 338
38.82367 376
38.84378 351
38.8639 337
38.88401 340
38.90412 329
38.92424 354
38.94435 359
38.96447 344
38.98458 408
39.00469 377
39.02481 414
39.04492 397
39.06503 395
39.08515 430
39.10526 426
39.12538 481
39.14549 480
39.1656 486
39.18572 505
39.20583 539
39.22594 609
39.24606 664
39.26617 709
39.28628 876
39.3064 987
39.32651 1141
39.34663 1364
39.36674 1519
39.38685 1606
39.40697 1689
39.42708 1585
39.44719 1425
39.46731 1344
39.48742 1165
39.50754 931
39.52765 842
39.54776 695
39.56788 543
39.58799 491
39.6081 392
39.62822 346
39.64833 341
39.66845 319
39.68856 307
39.70867 338
39.72879 297
39.7489 288
39.76901 291
39.78913 290
39.80924 278
39.82935 325
39.84947 322
39.86958 302
39.8897 335
39.90981 327
39.92992 320
39.95004 302
39.97015 362
39.99026 320
40.01038 363
40.03049 369
40.05061 401
40.07072 433
40.09083 503
40.11095 590
40.13106 609
40.15117 681
40.17129 765
40.1914 871
40.21152 914
40.23163 894
40.25174 890
40.27186 839
40.29197 724
40.31208 648
40.3322 648
40.35231 554
40.37242 496
40.39254 432
40.41265 395
40.43277 365
40.45288 334
40.47299 292
40.49311 302
40.51322 298
40.53333 304
40.55345 322
40.57356 287
40.59368 304
40.61379 292
40.6339 308
40.65402 303
40.67413 301
40.69424 334
40.71436 298
40.73447 297
40.75458 304
40.7747 307
40.79481 298
40.81493 291
40.83504 282
40.85515 312
40.87527 345
40.89538 290
40.91549 289
40.93561 323
40.95572 305
40.97584 309
40.99595 299
41.01606 310
41.03618 349
41.05629 292
41.0764 286
41.09652 261
41.11663 304
41.13675 335
41.15686 282
41.17697 298
41.19709 309
41.2172 308
41.23731 291
41.25743 294
41.27754 296
41.29765 288
41.31777 264
41.33788 284
41.358 307
41.37811 266
41.39822 255
41.41834 259
41.43845 285
41.45856 307
41.47868 261
41.49879 284
41.51891 252
41.53902 262
41.55913 281
41.57925 289
41.59936 297
41.61947 255
41.63959 281
41.6597 228
41.67982 284
41.69993 290
41.72004 251
41.74016 294
41.76027 286
41.78038 281
41.8005 270
41.82061 284
41.84072 289
41.86084 237
41.88095 277
41.90107 274
41.92118 250
41.94129 310
41.96141 299
41.98152 294
42.00163 281
42.02175 290
42.04186 263
42.06198 336
42.08209 287
42.1022 294
42.12232 320
42.14243 306
42.16254 389
42.18266 397
42.20277 418
42.22289 448
42.243 491
42.26311 615
42.28323 704
42.30334 780
42.32345 1004
42.34357 1029
42.36368 1204
42.38379 1261
42.40391 1114
42.42402 1123
42.44414 1019
42.46425 832
42.48436 814
42.50448 691
42.52459 612
42.5447 549
42.56482 462
42.58493 370
42.60505 345
42.62516 307
42.64527 284
42.66539 289
42.6855 265
42.70561 254
42.72573 263
42.74584 247
42.76595 242
42.78607 254
42.80618 252
42.8263 261
42.84641 241
42.86652 268
42.88664 261
42.90675 240
42.92686 238
42.94698 231
42.96709 244
42.98721 265
43.00732 217
43.02743 238
43.04755 258
43.06766 255
43.08777 245
43.10789 228
43.128 234
43.14812 245
43.16823 238
43.18834 270
43.20846 245
43.22857 256
43.24868 237
43.2688 258
43.28891 250
43.30902 257
43.32914 261
43.34925 233
43.36937 231
43.38948 251
43.40959 237
43.42971 240
43.44982 229
43.46993 242
43.49005 251
43.51016 233
43.53028 229
43.55039 222
43.5705 235
43.59062 243
43.61073 262
43.63084 250
43.65096 250
43.67107 285
43.69119 298
43.7113 258
43.73141 259
43.75153 298
43.77164 241
43.79175 235
43.81187 268
43.83198 277
43.85209 220
43.87221 253
43.89232 244
43.91244 256
43.93255 215
43.95266 225
43.97278 222
43.99289 247
44.013 214
44.03312 247
44.05323 250
44.07335 248
44.09346 236
44.11357 257
44.13369 260
44.1538 223
44.17391 229
44.19403 249
44.21414 226
44.23426 225
44.25437 228
44.27448 233
44.2946 228
44.31471 238
44.33482 256
44.35494 211
44.37505 256
44.39516 220
44.41528 213
44.43539 220
44.45551 235
44.47562 227
44.49573 222
44.51585 221
44.53596 226
44.55607 251
44.57619 232
44.5963 203
44.61642 208
44.63653 223
44.65664 214
44.67676 221
44.69687 260
44.71698 261
44.7371 214
44.75721 240
44.77732 224
44.79744 232
44.81755 248
44.83767 240
44.85778 247
44.87789 260
44.89801 266
44.91812 249
44.93823 215
44.95835 266
44.97846 254
44.99858 239
45.01869 246
45.0388 248
45.05892 285
45.07903 275
45.09914 261
45.11926 243
45.13937 270
45.15949 280
45.1796 289
45.19971 286
45.21983 266
45.23994 300
45.26005 288
45.28017 278
45.30028 323
45.32039 317
45.34051 314
45.36062 313
45.38074 326
45.40085 310
45.42096 334
45.44108 328
45.46119 325
45.4813 315
45.50142 318
45.52153 381
45.54165 413
45.56176 426
45.58187 458
45.60199 483
45.6221 557
45.64221 663
45.66233 722
45.68244 797
45.70256 890
45.72267 838
45.74278 880
45.7629 820
45.78301 766
45.80312 710
45.82324 627
45.84335 584
45.86346 540
45.88358 440
45.90369 426
45.92381 339
45.94392 306
45.96403 277
45.98415 285
46.00426 266
46.02437 283
46.04449 299
46.0646 253
46.08472 276
46.10483 278
46.12494 264
46.14506 241
46.16517 264
46.18528 225
46.2054 250
46.22551 264
46.24563 254
46.26574 229
46.28585 248
46.30597 236
46.32608 261
46.34619 266
46.36631 242
46.38642 271
46.40653 216
46.42665 254
46.44676 238
46.46688 237
46.48699 241
46.5071 247
46.52722 200
46.54733 257
46.56744 266
46.58756 275
46.60767 289
46.62779 253
46.6479 252
46.66801 292
46.68813 236
46.70824 221
46.72835 256
46.74847 265
46.76858 261
46.78869 276
46.80881 248
46.82892 244
46.84904 267
46.86915 260
46.88926 250
46.90938 265
46.92949 239
46.9496 257
46.96972 240
46.98983 223
47.00995 254
47.03006 222
47.05017 237
47.07029 234
47.0904 246
47.11051 277
47.13063 245
47.15074 244
47.17086 215
47.19097 240
47.21108 222
47.2312 233
47.25131 265
47.27142 242
47.29154 232
47.31165 248
47.33176 237
47.35188 246
47.37199 237
47.39211 260
47.41222 221
47.43233 240
47.45245 248
47.47256 252
47.49267 243
47.51279 212
47.5329 255
47.55302 229
47.57313 210
47.59324 255
47.61336 272
47.63347 239
47.65358 236
47.6737 254
47.69381 271
47.71393 250
47.73404 285
47.75415 245
47.77427 265
47.79438 247
47.81449 264
47.83461 243
47.85472 245
47.87483 283
47.89495 273
47.91506 284
47.93518 267
47.95529 259
47.9754 285
47.99552 298
48.01563 254
48.03574 266
48.05586 228
48.07597 277
48.09609 243
48.1162 244
48.13631 249
48.15643 256
48.17654 276
48.19665 260
48.21677 261
48.23688 269
48.257 237
48.27711 260
48.29722 258
48.31734 217
48.33745 254
48.35756 250
48.37768 251
48.39779 276
48.4179 254
48.43802 229
48.45813 268
48.47825 234
48.49836 241
48.51847 281
48.53859 242
48.5587 253
48.57881 237
48.59893 244
48.61904 248
48.63916 255
48.65927 266
48.67938 275
48.6995 252
48.71961 258
48.73972 218
48.75984 288
48.77995 244
48.80006 264
48.82018 238
48.84029 251
48.86041 235
48.88052 255
48.90063 241
48.92075 250
48.94086 252
48.96097 273
48.98109 255
49.0012 259
49.02132 239
49.04143 248
49.06154 244
49.08166 246
49.10177 254
49.12188 249
49.142 253
49.16211 257
49.18223 257
49.20234 262
49.22245 279
49.24257 242
49.26268 260
49.28279 260
49.30291 262
49.32302 260
49.34313 266
49.36325 250
49.38336 272
49.40348 279
49.42359 242
49.4437 283
49.46382 302
49.48393 275
49.50404 261
49.52416 309
49.54427 296
49.56439 296
49.5845 287
49.60461 313
49.62473 319
49.64484 321
49.66495 340
49.68507 328
49.70518 311
49.7253 327
49.74541 389
49.76552 344
49.78564 425
49.80575 400
49.82586 468
49.84598 542
49.86609 581
49.8862 653
49.90632 783
49.92643 967
49.94655 1163
49.96666 1460
49.98677 1711
50.00689 1919
50.027 2320
50.04711 2511
50.06723 2630
50.08734 2542
50.10746 2281
50.12757 2029
50.14768 1804
50.1678 1653
50.18791 1415
50.20802 1366
50.22814 1247
50.24825 993
50.26837 759
50.28848 612
50.30859 490
50.32871 410
50.34882 369
50.36893 319
50.38905 317
50.40916 348
50.42927 321
50.44939 329
50.4695 291
50.48962 310
50.50973 341
50.52984 300
50.54996 322
50.57007 354
50.59018 280
50.6103 281
50.63041 280
50.65053 265
50.67064 298
50.69075 255
50.71087 269
50.73098 257
50.75109 258
50.77121 266
50.79132 262
50.81143 248
50.83155 267
50.85166 240
50.87178 259
50.89189 249
50.912 267
50.93212 266
50.95223 246
50.97234 261
50.99246 279
51.01257 236
51.03269 247
51.0528 250
51.07291 257
51.09303 272
51.11314 246
51.13325 241
51.15337 230
51.17348 256
51.1936 247
51.21371 215
51.23382 227
51.25394 254
51.27405 209
51.29416 214
51.31428 239
51.33439 234
51.3545 203
51.37462 228
51.39473 234
51.41485 238
51.43496 244
51.45507 225
51.47519 209
51.4953 219
51.51541 216
51.53553 215
51.55564 251
51.57576 224
51.59587 222
51.61598 252
51.6361 223
51.65621 220
51.67632 213
51.69644 223
51.71655 203
51.73667 225
51.75678 242
51.77689 220
51.79701 223
51.81712 239
51.83723 242
51.85735 234
51.87746 241
51.89757 209
51.91769 228
51.9378 192
51.95792 224
51.97803 216
51.99814 211
52.01826 224
52.03837 223
52.05848 223
52.0786 225
52.09871 238
52.11883 217
52.13894 237
52.15905 218
52.17917 225
52.19928 224
52.21939 238
52.23951 235
52.25962 230
52.27974 241
52.29985 226
52.31996 203
52.34008 229
52.36019 236
52.3803 191
52.40042 214
52.42053 219
52.44064 246
52.46076 178
52.48087 235
52.50099 197
52.5211 218
52.54121 232
52.56133 212
52.58144 240
52.60155 234
52.62167 206
52.64178 213
52.6619 253
52.68201 235
52.70212 209
52.72224 210
52.74235 239
52.76246 241
52.78258 211
52.80269 241
52.8228 240
52.84292 203
52.86303 247
52.88315 242
52.90326 223
52.92337 244
52.94349 251
52.9636 227
52.98371 216
53.00383 243
53.02394 264
53.04406 246
53.06417 242
53.08428 232
53.1044 220
53.12451 233
53.14462 234
53.16474 251
53.18485 255
53.20497 258
53.22508 259
53.24519 241
53.26531 254
53.28542 251
53.30553 264
53.32565 257
53.34576 260
53.36587 266
53.38599 297
53.4061 293
53.42622 255
53.44633 227
53.46644 266
53.48656 282
53.50667 279
53.52678 265
53.5469 314
53.56701 278
53.58713 297
53.60724 283
53.62735 297
53.64747 306
53.66758 281
53.68769 284
53.70781 295
53.72792 257
53.74804 262
53.76815 261
53.78826 284
53.80838 278
53.82849 304
53.8486 278
53.86872 280
53.88883 312
53.90894 311
53.92906 305
53.94917 292
53.96929 324
53.9894 305
54.00951 305
54.02963 338
54.04974 332
54.06985 308
54.08997 295
54.11008 330
54.1302 366
54.15031 348
54.17042 323
54.19054 320
54.21065 355
54.23076 345
54.25088 342
54.27099 347
54.29111 343
54.31122 334
54.33133 352
54.35145 344
54.37156 324
54.39167 342
54.41179 316
54.4319 342
54.45201 367
54.47213 336
54.49224 358
54.51236 359
54.53247 379
54.55258 384
54.5727 409
54.59281 404
54.61292 402
54.63304 476
54.65315 503
54.67327 547
54.69338 640
54.71349 745
54.73361 829
54.75372 849
54.77383 969
54.79395 942
54.81406 976
54.83417 907
54.85429 802
54.8744 766
54.89452 707
54.91463 646
54.93474 652
54.95486 614
54.97497 657
54.99508 543
55.0152 506
55.03531 464
55.05543 440
55.07554 457
55.09565 442
55.11577 425
55.13588 463
55.15599 513
55.17611 523
55.19622 535
55.21634 547
55.23645 590
55.25656 581
55.27668 595
55.29679 578
55.3169 513
55.33702 476
55.35713 476
55.37724 477
55.39736 455
55.41747 447
55.43759 419
55.4577 387
55.47781 392
55.49793 341
55.51804 333
55.53815 320
55.55827 297
55.57838 332
55.5985 278
55.61861 297
55.63872 280
55.65884 279
55.67895 274
55.69906 249
55.71918 285
55.73929 269
55.75941 266
55.77952 282
55.79963 224
55.81975 261
55.83986 275
55.85997 281
55.88009 275
55.9002 284
55.92031 280
55.94043 269
55.96054 249
55.98066 240
56.00077 260
56.02088 232
56.041 273
56.06111 245
56.08122 256
56.10134 261
56.12145 241
56.14157 270
56.16168 271
56.18179 270
56.20191 255
56.22202 248
56.24213 283
56.26225 280
56.28236 272
56.30248 253
56.32259 259
56.3427 242
56.36282 267
56.38293 260
56.40304 289
56.42316 284
56.44327 283
56.46338 243
56.4835 275
56.50361 284
56.52373 257
56.54384 261
56.56395 285
56.58407 282
56.60418 257
56.62429 272
56.64441 231
56.66452 256
56.68464 243
56.70475 249
56.72486 263
56.74498 242
56.76509 270
56.7852 273
56.80532 266
56.82543 256
56.84554 268
56.86566 264
56.88577 249
56.90589 240
56.926 278
56.94611 251
56.96623 259
56.98634 270
57.00645 281
57.02657 231
57.04668 265
57.0668 286
57.08691 259
57.10702 256
57.12714 279
57.14725 264
57.16736 307
57.18748 298
57.20759 267
57.22771 263
57.24782 272
57.26793 276
57.28805 260
57.30816 248
57.32827 262
57.34839 255
57.3685 255
57.38861 255
57.40873 275
57.42884 246
57.44896 243
57.46907 226
57.48918 273
57.5093 243
57.52941 240
57.54952 237
57.56964 240
57.58975 235
57.60987 260
57.62998 240
57.65009 225
57.67021 219
57.69032 253
57.71043 243
57.73055 246
57.75066 229
57.77078 236
57.79089 224
57.811 249
57.83112 256
57.85123 253
57.87134 252
57.89146 218
57.91157 247
57.93168 241
57.9518 250
57.97191 249
57.99203 225
58.01214 233
58.03225 230
58.05237 245
58.07248 217
58.09259 247
58.11271 216
58.13282 226
58.15294 220
58.17305 250
58.19316 245
58.21328 223
58.23339 247
58.2535 231
58.27362 247
58.29373 240
58.31385 227
58.33396 253
58.35407 226
58.37419 250
58.3943 241
58.41441 241
58.43453 238
58.45464 232
58.47475 245
58.49487 234
58.51498 243
58.5351 218
58.55521 244
58.57532 223
58.59544 207
58.61555 231
58.63566 220
58.65578 213
58.67589 225
58.69601 226
58.71612 223
58.73623 257
58.75635 225
58.77646 243
58.79657 219
58.81669 232
58.8368 249
58.85691 210
58.87703 209
58.89714 248
58.91726 235
58.93737 223
58.95748 222
58.9776 239
58.99771 243
59.01782 248
59.03794 227
59.05805 237
59.07817 242
59.09828 232
59.11839 239
59.13851 254
59.15862 254
59.17873 247
59.19885 239
59.21896 238
59.23908 250
59.25919 251
59.2793 229
59.29942 270
59.31953 263
59.33964 289
59.35976 223
59.37987 263
59.39998 281
59.4201 290
59.44021 262
59.46033 306
59.48044 302
59.50055 315
59.52067 298
59.54078 321
59.56089 338
59.58101 372
59.60112 401
59.62124 385
59.64135 412
59.66146 474
59.68158 534
59.70169 618
59.7218 658
59.74192 829
59.76203 911
59.78215 1126
59.80226 1253
59.82237 1407
59.84249 1630
59.8626 1808
59.88271 1728
59.90283 1597
59.92294 1397
59.94305 1263
59.96317 1103
59.98328 1051
60.0034 1036
60.02351 1038
60.04362 947
60.06374 879
60.08385 754
60.10396 624
60.12408 528
60.14419 460
60.16431 357
60.18442 333
60.20453 298
60.22465 292
60.24476 307
60.26487 290
60.28499 273
60.3051 284
60.32522 274
60.34533 278
60.36544 279
60.38556 248
60.40567 248
60.42578 233
60.4459 247
60.46601 234
60.48612 243
60.50624 245
60.52635 237
60.54647 239
60.56658 269
60.58669 200
60.60681 211
60.62692 236
60.64703 234
60.66715 217
60.68726 270
60.70738 238
60.72749 219
60.7476 199
60.76772 217
60.78783 234
60.80794 216
60.82806 243
60.84817 228
60.86828 236
60.8884 224
60.90851 268
60.92863 239
60.94874 207
60.96885 224
60.98897 266
61.00908 241
61.02919 220
61.04931 233
61.06942 220
61.08954 215
61.10965 255
61.12976 220
61.14988 219
61.16999 221
61.1901 235
61.21022 227
61.23033 231
61.25045 229
61.27056 224
61.29067 218
61.31079 228
61.3309 247
61.35101 211
61.37113 229
61.39124 224
61.41135 253
61.43147 251
61.45158 217
61.4717 218
61.49181 261
61.51192 237
61.53204 243
61.55215 263
61.57226 250
61.59238 226
61.61249 258
61.63261 252
61.65272 257
61.67283 223
61.69295 262
61.71306 244
61.73317 227
61.75329 272
61.7734 259
61.79352 249
61.81363 265
61.83374 283
61.85386 253
61.87397 274
61.89408 279
61.9142 301
61.93431 299
61.95442 319
61.97454 296
61.99465 312
62.01477 325
62.03488 341
62.05499 361
62.07511 329
62.09522 347
62.11533 392
62.13545 355
62.15556 401
62.17568 423
62.19579 391
62.2159 399
62.23602 385
62.25613 413
62.27624 370
62.29636 368
62.31647 374
62.33659 400
62.3567 376
62.37681 354
62.39693 339
62.41704 335
62.43715 320
62.45727 350
62.47738 303
62.49749 335
62.51761 321
62.53772 282
62.55784 282
62.57795 273
62.59806 275
62.61818 268
62.63829 274
62.6584 254
62.67852 286
62.69863 246
62.71875 275
62.73886 302
62.75897 264
62.77909 254
62.7992 244
62.81931 257
62.83943 276
62.85954 227
62.87965 220
62.89977 267
62.91988 248
62.94 211
62.96011 241
62.98022 230
63.00034 234
63.02045 237
63.04056 230
63.06068 260
63.08079 256
63.10091 240
63.12102 239
63.14113 231
63.16125 248
63.18136 251
63.20147 225
63.22159 251
63.2417 246
63.26182 262
63.28193 252
63.30204 246
63.32216 264
63.34227 241
63.36238 257
63.3825 234
63.40261 247
63.42272 264
63.44284 269
63.46295 242
63.48307 253
63.50318 235
63.52329 227
63.54341 259
63.56352 272
63.58363 275
63.60375 261
63.62386 262
63.64398 269
63.66409 269
63.6842 284
63.70432 284
63.72443 305
63.74454 327
63.76466 319
63.78477 313
63.80489 321
63.825 343
63.84511 360
63.86523 427
63.88534 416
63.90545 471
63.92557 536
63.94568 558
63.96579 525
63.98591 498
64.00602 453
64.02614 478
64.04625 449
64.06636 382
64.08648 425
64.10659 386
64.1267 386
64.14682 382
64.16693 363
64.18705 335
64.20716 339
64.22727 308
64.24739 285
64.2675 269
64.28761 240
64.30773 259
64.32784 263
64.34796 235
64.36807 236
64.38818 222
64.4083 241
64.42841 282
64.44852 230
64.46864 246
64.48875 224
64.50886 231
64.52898 215
64.54909 227
64.56921 233
64.58932 232
64.60943 220
64.62955 260
64.64966 255
64.66977 220
64.68989 250
64.71 240
64.73012 193
64.75023 203
64.77034 214
64.79046 228
64.81057 215
64.83068 231
64.8508 239
64.87091 214
64.89102 218
64.91114 223
64.93125 235
64.95137 255
64.97148 205
64.99159 233
65.01171 203
65.03182 222
65.05193 238
65.07205 250
65.09216 219
65.11228 218
65.13239 225
65.1525 224
65.17262 216
65.19273 211
65.21284 226
65.23296 209
65.25307 219
65.27319 216
65.2933 218
65.31341 234
65.33353 230
65.35364 238
65.37375 232
65.39387 254
65.41398 225
65.43409 222
65.45421 219
65.47432 233
65.49444 237
65.51455 220
65.53466 234
65.55478 240
65.57489 236
65.595 263
65.61512 265
65.63523 253
65.65535 253
65.67546 306
65.69557 274
65.71569 249
65.7358 268
65.75591 267
65.77603 269
65.79614 272
65.81626 250
65.83637 233
65.85648 274
65.8766 273
65.89671 249
65.91682 262
65.93694 239
65.95705 251
65.97716 193
65.99728 234
66.01739 223
66.03751 231
66.05762 225
66.07773 216
66.09785 220
66.11796 238
66.13807 220
66.15819 201
66.1783 212
66.19842 195
66.21853 244
66.23864 232
66.25876 231
66.27887 240
66.29898 219
66.3191 241
66.33921 216
66.35933 199
66.37944 240
66.39955 203
66.41967 205
66.43978 248
66.45989 203
66.48001 203
66.50012 189
66.52023 205
66.54035 234
66.56046 208
66.58058 214
66.60069 224
66.6208 203
66.64092 221
66.66103 234
66.68114 225
66.70126 240
66.72137 208
66.74149 223
66.7616 227
66.78171 204
66.80183 238
66.82194 215
66.84205 231
66.86217 221
66.88228 251
66.90239 253
66.92251 253
66.94262 227
66.96274 224
66.98285 230
67.00296 233
67.02308 244
67.04319 237
67.0633 252
67.08342 213
67.10353 257
67.12365 250
67.14376 260
67.16387 245
67.18399 250
67.2041 268
67.22421 262
67.24433 288
67.26444 273
67.28456 284
67.30467 268
67.32478 284
67.3449 291
67.36501 312
67.38512 311
67.40524 351
67.42535 366
67.44546 410
67.46558 390
67.48569 407
67.50581 502
67.52592 566
67.54603 614
67.56615 755
67.58626 802
67.60637 948
67.62649 1029
67.6466 1063
67.66672 1051
67.68683 1042
67.70694 979
67.72706 843
67.74717 795
67.76728 730
67.7874 745
67.80751 789
67.82763 785
67.84774 791
67.86785 811
67.88797 860
67.90808 862
67.92819 891
67.94831 878
67.96842 907
67.98853 1092
68.00865 1161
68.02876 1197
68.04888 1430
68.06899 1408
68.0891 1349
68.10922 1323
68.12933 1199
68.14944 1324
68.16956 1220
68.18967 1254
68.20979 1266
68.2299 1271
68.25001 1239
68.27013 1215
68.29024 1061
68.31035 942
68.33047 752
68.35058 723
68.3707 673
68.39081 621
68.41092 590
68.43104 569
68.45115 550
68.47126 472
68.49138 443
68.51149 354
68.5316 315
68.55172 309
68.57183 302
68.59195 280
68.61206 231
68.63217 276
68.65229 255
68.6724 279
68.69251 244
68.71263 236
68.73274 261
68.75286 246
68.77297 236
68.79308 243
68.8132 263
68.83331 248
68.85342 243
68.87354 237
68.89365 265
68.91376 249
68.93388 252
68.95399 257
68.97411 230
68.99422 245
69.01433 218
69.03445 208
69.05456 257
69.07467 217
69.09479 243
69.1149 210
69.13502 217
69.15513 222
69.17524 229
69.19536 218
69.21547 221
69.23558 212
69.2557 226
69.27581 223
69.29593 222
69.31604 188
69.33615 223
69.35627 233
69.37638 210
69.39649 233
69.41661 218
69.43672 229
69.45683 210
69.47695 253
69.49706 219
69.51718 200
69.53729 213
69.5574 204
69.57752 216
69.59763 217
69.61774 207
69.63786 235
69.65797 231
69.67809 216
69.6982 232
69.71831 218
69.73843 206
69.75854 226
69.77865 215
69.79877 218
69.81888 220
69.839 239
69.85911 209
69.87922 218
69.89934 225
69.91945 227
69.93956 200
69.95968 248
69.97979 222
69.9999 247
70.02002 245
70.04013 225
70.06025 228
70.08036 239
70.10047 218
70.12059 221
70.1407 204
70.16081 238
70.18093 234
70.20104 215
70.22116 199
70.24127 204
70.26138 213
70.2815 206
70.30161 224
70.32172 210
70.34184 243
70.36195 219
70.38207 224
70.40218 219
70.42229 201
70.44241 208
70.46252 224
70.48263 204
70.50275 180
70.52286 227
70.54297 206
70.56309 207
70.5832 244
70.60332 195
70.62343 227
70.64354 196
70.66366 189
70.68377 221
70.70388 228
70.724 189
70.74411 209
70.76423 212
70.78434 224
70.80445 204
70.82457 223
70.84468 174
70.86479 208
70.88491 213
70.90502 214
70.92513 215
70.94525 199
70.96536 240
70.98548 210
71.00559 207
71.0257 207
71.04582 184
71.06593 198
71.08604 199
71.10616 220
71.12627 217
71.14639 205
71.1665 216
71.18661 199
71.20673 199
71.22684 184
71.24695 237
71.26707 224
71.28718 208
71.3073 199
71.32741 206
71.34752 197
71.36764 212
71.38775 225
71.40786 222
71.42798 238
71.44809 221
71.4682 228
71.48832 221
71.50843 225
71.52855 227
71.54866 222
71.56877 209
71.58889 206
71.609 226
71.62911 202
71.64923 231
71.66934 222
71.68946 215
71.70957 227
71.72968 212
71.7498 219
71.76991 222
71.79002 245
71.81014 218
71.83025 232
71.85037 212
71.87048 240
71.89059 254
71.91071 224
71.93082 205
71.95093 224
71.97105 222
71.99116 213
72.01127 233
72.03139 224
72.0515 209
72.07162 193
72.09173 223
72.11184 223
72.13196 233
72.15207 212
72.17218 223
72.1923 247
72.21241 236
72.23253 217
72.25264 208
72.27275 234
72.29287 228
72.31298 215
72.33309 211
72.35321 219
72.37332 203
72.39344 225
72.41355 230
72.43366 199
72.45378 237
72.47389 212
72.494 198
72.51412 201
72.53423 201
72.55434 215
72.57446 226
72.59457 208
72.61469 212
72.6348 184
72.65491 196
72.67503 197
72.69514 211
72.71525 191
72.73537 201
72.75548 197
72.7756 246
72.79571 209
72.81582 210
72.83594 205
72.85605 211
72.87616 222
72.89628 202
72.91639 224
72.9365 210
72.95662 220
72.97673 223
72.99685 248
73.01696 246
73.03707 241
73.05719 227
73.0773 220
73.09741 255
73.11753 244
73.13764 218
73.15776 269
73.17787 281
73.19798 303
73.2181 285
73.23821 342
73.25832 334
73.27844 352
73.29855 403
73.31867 425
73.33878 484
73.35889 497
73.37901 503
73.39912 498
73.41923 466
73.43935 469
73.45946 419
73.47957 394
73.49969 339
73.5198 366
73.53992 335
73.56003 365
73.58014 361
73.60026 361
73.62037 381
73.64048 333
73.6606 331
73.68071 278
73.70083 237
73.72094 255
73.74105 251
73.76117 277
73.78128 229
73.80139 230
73.82151 216
73.84162 218
73.86174 228
73.88185 218
73.90196 218
73.92208 251
73.94219 213
73.9623 201
73.98242 201
74.00253 183
74.02264 217
74.04276 207
74.06287 245
74.08299 194
74.1031 195
74.12321 198
74.14333 213
74.16344 228
74.18355 192
74.20367 184
74.22378 203
74.2439 180
74.26401 214
74.28412 221
74.30424 218
74.32435 207
74.34446 193
74.36458 190
74.38469 218
74.40481 229
74.42492 207
74.44503 192
74.46515 190
74.48526 184
74.50537 204
74.52549 194
74.5456 202
74.56571 205
74.58583 202
74.60594 190
74.62606 208
74.64617 203
74.66628 212
74.6864 256
74.70651 223
74.72662 208
74.74674 224
74.76685 188
74.78697 203
74.80708 196
74.82719 207
74.84731 233
74.86742 214
74.88753 212
74.90765 226
74.92776 229
74.94787 203
74.96799 239
74.9881 237
75.00822 214
