3.00117 19675
3.02128 18743
3.0414 18694
3.06151 17636
3.08162 17373
3.10174 16875
3.12185 16233
3.14197 15973
3.16208 15350
3.18219 14949
3.20231 14954
3.22242 14455
3.24253 13755
3.26265 13143
3.28276 12785
3.30288 12625
3.32299 12339
3.3431 11991
3.36322 11268
3.38333 11054
3.40344 10853
3.42356 10378
3.44367 9993
3.46379 9427
3.4839 9452
3.50401 9194
3.52413 8635
3.54424 8572
3.56435 8123
3.58447 7864
3.60458 7560
3.62469 7256
3.64481 7011
3.66492 6507
3.68504 6510
3.70515 6534
3.72526 5917
3.74538 5882
3.76549 5468
3.7856 5161
3.80572 5409
3.82583 4848
3.84595 4672
3.86606 4600
3.88617 4395
3.90629 4286
3.9264 3845
3.94651 3950
3.96663 3559
3.98674 3635
4.00686 3490
4.02697 3149
4.04708 3151
4.0672 2938
4.08731 2710
4.10742 2676
4.12754 2501
4.14765 2419
4.16776 2386
4.18788 2372
4.20799 2377
4.22811 1956
4.24822 2088
4.26833 2033
4.28845 1899
4.30856 1951
4.32867 1635
4.34879 1762
4.3689 1740
4.38902 1713
4.40913 1730
4.42924 1492
4.44936 1488
4.46947 1489
4.48958 1514
4.5097 1529
4.52981 1435
4.54992 1424
4.57004 1341
4.59015 1229
4.61027 1332
4.63038 1233
4.65049 1262
4.67061 1124
4.69072 1198
4.71083 1174
4.73095 1087
4.75106 1069
4.77118 1024
4.79129 1023
4.8114 1033
4.83152 946
4.85163 1027
4.87174 929
4.89186 903
4.91197 936
4.93209 852
4.9522 883
4.97231 874
4.99243 904
5.01254 798
5.03265 774
5.05277 811
5.07288 758
5.09299 762
5.11311 775
5.13322 718
5.15334 691
5.17345 687
5.19356 677
5.21368 730
5.23379 628
5.2539 638
5.27402 657
5.29413 687
5.31425 606
5.33436 632
5.35447 587
5.37459 587
5.3947 605
5.41481 591
5.43493 556
5.45504 530
5.47516 511
5.49527 573
5.51538 536
5.5355 518
5.55561 507
5.57572 496
5.59584 501
5.61595 476
5.63606 470
5.65618 446
5.67629 489
5.69641 474
5.71652 431
5.73663 409
5.75675 415
5.77686 431
5.79697 442
5.81709 410
5.8372 428
5.85732 403
5.87743 404
5.89754 383
5.91766 394
5.93777 361
5.95788 361
5.978 441
5.99811 431
6.01823 384
6.03834 384
6.05845 374
6.07857 424
6.09868 362
6.11879 376
6.13891 366
6.15902 396
6.17913 386
6.19925 377
6.21936 380
6.23948 370
6.25959 364
6.2797 380
6.29982 344
6.31993 440
6.34004 368
6.36016 329
6.38027 358
6.40039 343
6.4205 361
6.44061 325
6.46073 371
6.48084 359
6.50095 350
6.52107 388
6.54118 357
6.56129 369
6.58141 339
6.60152 311
6.62164 317
6.64175 322
6.66186 345
6.68198 390
6.70209 345
6.7222 382
6.74232 349
6.76243 293
6.78255 308
6.80266 359
6.82277 304
6.84289 357
6.863 356
6.88311 319
6.90323 300
6.92334 329
6.94346 347
6.96357 287
6.98368 307
7.0038 323
7.02391 343
7.04402 348
7.06414 344
7.08425 311
7.10436 317
7.12448 329
7.14459 298
7.16471 334
7.18482 355
7.20493 339
7.22505 317
7.24516 286
7.26527 312
7.28539 346
7.3055 344
7.32562 371
7.34573 300
7.36584 337
7.38596 335
7.40607 345
7.42618 327
7.4463 343
7.46641 328
7.48653 334
7.50664 337
7.52675 331
7.54687 290
7.56698 322
7.58709 351
7.60721 348
7.62732 347
7.64743 314
7.66755 332
7.68766 327
7.70778 347
7.72789 354
7.748 347
7.76812 336
7.78823 311
7.80834 382
7.82846 353
7.84857 349
7.86869 307
7.8888 352
7.90891 334
7.92903 360
7.94914 304
7.96925 319
7.98937 343
8.00948 353
8.0296 349
8.04971 334
8.06982 327
8.08994 328
8.11005 349
8.13016 378
8.15028 338
8.17039 316
8.1905 354
8.21062 330
8.23073 388
8.25085 337
8.27096 325
8.29107 361
8.31119 352
8.3313 371
8.35141 325
8.37153 379
8.39164 357
8.41176 376
8.43187 322
8.45198 349
8.4721 347
8.49221 305
8.51232 339
8.53244 354
8.55255 342
8.57266 343
8.59278 373
8.61289 335
8.63301 355
8.65312 330
8.67323 363
8.69335 358
8.71346 362
8.73357 371
8.75369 341
8.7738 336
8.79392 368
8.81403 340
8.83414 342
8.85426 328
8.87437 368
8.89448 360
8.9146 353
8.93471 388
8.95483 321
8.97494 334
8.99505 360
9.01517 316
9.03528 367
9.05539 342
9.07551 353
9.09562 327
9.11573 334
9.13585 368
9.15596 328
9.17608 345
9.19619 335
9.2163 363
9.23642 317
9.25653 331
9.27664 346
9.29676 327
9.31687 373
9.33699 350
9.3571 351
9.37721 326
9.39733 336
9.41744 324
9.43755 364
9.45767 342
9.47778 369
9.4979 325
9.51801 362
9.53812 327
9.55824 343
9.57835 362
9.59846 354
9.61858 345
9.63869 330
9.6588 342
9.67892 338
9.69903 365
9.71915 363
9.73926 340
9.75937 358
9.77949 305
9.7996 354
9.81971 377
9.83983 340
9.85994 393
9.88006 356
9.90017 332
9.92028 338
9.9404 316
9.96051 351
9.98062 314
10.00074 352
10.02085 318
10.04097 338
10.06108 355
10.08119 355
10.10131 355
10.12142 350
10.14153 350
10.16165 352
10.18176 338
10.20187 348
10.22199 337
10.2421 367
10.26222 329
10.28233 360
10.30244 334
10.32256 332
10.34267 319
10.36278 318
10.3829 358
10.40301 347
10.42313 341
10.44324 319
10.46335 336
10.48347 343
10.50358 345
10.52369 355
10.54381 348
10.56392 363
10.58403 320
10.60415 334
10.62426 349
10.64438 320
10.66449 345
10.6846 345
10.70472 341
10.72483 343
10.74494 338
10.76506 341
10.78517 321
10.80529 322
10.8254 374
10.84551 339
10.86563 339
10.88574 334
10.90585 315
10.92597 343
10.94608 357
10.9662 314
10.98631 315
11.00642 395
11.02654 365
11.04665 328
11.06676 343
11.08688 342
11.10699 351
11.1271 331
11.14722 371
11.16733 310
11.18745 301
11.20756 332
11.22767 332
11.24779 337
11.2679 383
11.28801 391
11.30813 353
11.32824 330
11.34836 316
11.36847 371
11.38858 358
11.4087 350
11.42881 351
11.44892 386
11.46904 363
11.48915 360
11.50927 351
11.52938 346
11.54949 331
11.56961 315
11.58972 361
11.60983 367
11.62995 348
11.65006 345
11.67017 352
11.69029 389
11.7104 379
11.73052 394
11.75063 353
11.77074 379
11.79086 329
11.81097 371
11.83108 339
11.8512 383
11.87131 387
11.89143 388
11.91154 392
11.93165 356
11.95177 375
11.97188 400
11.99199 398
12.01211 375
12.03222 399
12.05234 429
12.07245 382
12.09256 421
12.11268 410
12.13279 402
12.1529 410
12.17302 445
12.19313 463
12.21324 501
12.23336 517
12.25347 510
12.27359 524
12.2937 533
12.31381 592
12.33393 534
12.35404 598
12.37415 587
12.39427 536
12.41438 545
12.4345 526
12.45461 520
12.47472 462
12.49484 452
12.51495 454
12.53506 457
12.55518 440
12.57529 397
12.5954 412
12.61552 401
12.63563 367
12.65575 361
12.67586 375
12.69597 378
12.71609 401
12.7362 368
12.75631 383
12.77643 364
12.79654 368
12.81666 365
12.83677 367
12.85688 350
12.877 358
12.89711 359
12.91722 365
12.93734 374
12.95745 330
12.97757 322
12.99768 355
13.01779 344
13.03791 326
13.05802 315
13.07813 332
13.09825 339
13.11836 339
13.13847 308
13.15859 322
13.1787 313
13.19882 323
13.21893 314
13.23904 335
13.25916 301
13.27927 321
13.29938 314
13.3195 367
13.33961 366
13.35973 348
13.37984 352
13.39995 356
13.42007 343
13.44018 332
13.46029 314
13.48041 344
13.50052 348
13.52064 319
13.54075 335
13.56086 342
13.58098 320
13.60109 333
13.6212 309
13.64132 308
13.66143 342
13.68154 331
13.70166 343
13.72177 329
13.74189 317
13.762 343
13.78211 308
13.80223 296
13.82234 304
13.84245 296
13.86257 312
13.88268 294
13.9028 327
13.92291 312
13.94302 332
13.96314 347
13.98325 331
14.00336 348
14.02348 327
14.04359 318
14.06371 329
14.08382 306
14.10393 307
14.12405 315
14.14416 313
14.16427 322
14.18439 334
14.2045 326
14.22461 299
14.24473 312
14.26484 330
14.28496 305
14.30507 346
14.32518 288
14.3453 329
14.36541 281
14.38552 316
14.40564 327
14.42575 298
14.44587 324
14.46598 312
14.48609 282
14.50621 325
14.52632 337
14.54643 321
14.56655 315
14.58666 293
14.60677 341
14.62689 337
14.647 311
14.66712 322
14.68723 310
14.70734 327
14.72746 308
14.74757 299
14.76768 280
14.7878 339
14.80791 310
14.82803 307
14.84814 304
14.86825 293
14.88837 326
14.90848 304
14.92859 348
14.94871 315
14.96882 294
14.98894 313
15.00905 287
15.02916 300
15.04928 345
15.06939 284
15.0895 319
15.10962 326
15.12973 323
15.14984 322
15.16996 288
15.19007 299
15.21019 331
15.2303 325
15.25041 277
15.27053 323
15.29064 337
15.31075 323
15.33087 338
15.35098 296
15.3711 310
15.39121 288
15.41132 335
15.43144 332
15.45155 314
15.47166 348
15.49178 275
15.51189 314
15.53201 294
15.55212 351
15.57223 299
15.59235 327
15.61246 308
15.63257 275
15.65269 318
15.6728 316
15.69291 313
15.71303 291
15.73314 335
15.75326 304
15.77337 310
15.79348 295
15.8136 316
15.83371 281
15.85382 296
15.87394 269
15.89405 322
15.91417 311
15.93428 348
15.95439 341
15.97451 326
15.99462 282
16.01473 295
16.03485 291
16.05496 311
16.07508 293
16.09519 324
16.1153 333
16.13542 287
16.15553 315
16.17564 316
16.19576 306
16.21587 333
16.23598 328
16.2561 317
16.27621 305
16.29633 333
16.31644 281
16.33655 290
16.35667 318
16.37678 297
16.39689 303
16.41701 315
16.43712 332
16.45724 288
16.47735 332
16.49746 346
16.51758 301
16.53769 302
16.5578 299
16.57792 319
16.59803 302
16.61814 320
16.63826 323
16.65837 326
16.67849 354
16.6986 310
16.71871 299
16.73883 316
16.75894 322
16.77905 325
16.79917 334
16.81928 327
16.8394 332
16.85951 325
16.87962 280
16.89974 305
16.91985 356
16.93996 299
16.96008 301
16.98019 288
17.00031 350
17.02042 300
17.04053 312
17.06065 290
17.08076 297
17.10087 304
17.12099 341
17.1411 295
17.16121 288
17.18133 299
17.20144 312
17.22156 321
17.24167 288
17.26178 306
17.2819 319
17.30201 310
17.32212 325
17.34224 316
17.36235 317
17.38247 307
17.40258 316
17.42269 303
17.44281 305
17.46292 279
17.48303 311
17.50315 307
17.52326 315
17.54338 304
17.56349 299
17.5836 323
17.60372 349
17.62383 318
17.64394 328
17.66406 321
17.68417 327
17.70428 362
17.7244 308
17.74451 297
17.76463 340
17.78474 364
17.80485 331
17.82497 383
17.84508 337
17.86519 342
17.88531 321
17.90542 334
17.92554 309
17.94565 336
17.96576 296
17.98588 340
18.00599 325
18.0261 339
18.04622 364
18.06633 350
18.08645 385
18.10656 363
18.12667 363
18.14679 428
18.1669 414
18.18701 438
18.20713 464
18.22724 520
18.24735 526
18.26747 540
18.28758 621
18.3077 578
18.32781 603
18.34792 610
18.36804 531
18.38815 487
18.40826 514
18.42838 452
18.44849 413
18.46861 389
18.48872 377
18.50883 354
18.52895 370
18.54906 362
18.56917 323
18.58929 332
18.6094 346
18.62951 335
18.64963 304
18.66974 316
18.68986 329
18.70997 313
18.73008 342
18.7502 313
18.77031 353
18.79042 335
18.81054 280
18.83065 345
18.85077 303
18.87088 327
18.89099 327
18.91111 285
18.93122 347
18.95133 314
18.97145 314
18.99156 337
19.01168 354
19.03179 314
19.0519 304
19.07202 305
19.09213 300
19.11224 302
19.13236 283
19.15247 284
19.17258 380
19.1927 304
19.21281 333
19.23293 360
19.25304 334
19.27315 341
19.29327 311
19.31338 286
19.33349 282
19.35361 324
19.37372 339
19.39384 327
19.41395 350
19.43406 334
19.45418 328
19.47429 304
19.4944 320
19.51452 364
19.53463 309
19.55475 347
19.57486 340
19.59497 382
19.61509 326
19.6352 377
19.65531 363
19.67543 360
19.69554 382
19.71565 383
19.73577 411
19.75588 410
19.776 418
19.79611 428
19.81622 443
19.83634 445
19.85645 479
19.87656 509
19.89668 460
19.91679 499
19.93691 490
19.95702 489
19.97713 467
19.99725 485
20.01736 480
20.03747 482
20.05759 454
20.0777 443
20.09782 457
20.11793 502
20.13804 505
20.15816 504
20.17827 501
20.19838 541
20.2185 559
20.23861 543
20.25872 585
20.27884 618
20.29895 570
20.31907 595
20.33918 573
20.35929 528
20.37941 593
20.39952 559
20.41963 550
20.43975 588
20.45986 553
20.47998 576
20.50009 599
20.5202 619
20.54032 658
20.56043 602
20.58054 658
20.60066 639
20.62077 622
20.64088 646
20.661 681
20.68111 774
20.70123 891
20.72134 1141
20.74145 1468
20.76157 1960
20.78168 2732
20.80179 3832
20.82191 4976
20.84202 5679
20.86214 5908
20.88225 5405
20.90236 4388
20.92248 3091
20.94259 2181
20.9627 1347
20.98282 936
21.00293 725
21.02305 615
21.04316 647
21.06327 597
21.08339 587
21.1035 558
21.12361 584
21.14373 534
21.16384 581
21.18395 485
21.20407 528
21.22418 550
21.2443 482
21.26441 466
21.28452 508
21.30464 489
21.32475 536
21.34486 518
21.36498 493
21.38509 507
21.40521 552
21.42532 489
21.44543 543
21.46555 474
21.48566 511
21.50577 511
21.52589 479
21.546 466
21.56612 463
21.58623 473
21.60634 464
21.62646 461
21.64657 455
21.66668 455
21.6868 465
21.70691 452
21.72702 417
21.74714 456
21.76725 411
21.78737 431
21.80748 463
21.82759 430
21.84771 418
21.86782 437
21.88793 427
21.90805 405
21.92816 414
21.94828 396
21.96839 425
21.9885 425
22.00862 381
22.02873 414
22.04884 428
22.06896 403
22.08907 397
22.10919 407
22.1293 379
22.14941 400
22.16953 395
22.18964 423
22.20975 397
22.22987 336
22.24998 365
22.27009 350
22.29021 395
22.31032 374
22.33044 408
22.35055 434
22.37066 391
22.39078 376
22.41089 363
22.431 395
22.45112 353
22.47123 386
22.49135 363
22.51146 380
22.53157 359
22.55169 374
22.5718 353
22.59191 392
22.61203 359
22.63214 372
22.65225 386
22.67237 355
22.69248 374
22.7126 344
22.73271 385
22.75282 388
22.77294 370
22.79305 355
22.81316 378
22.83328 378
22.85339 369
22.87351 390
22.89362 375
22.91373 373
22.93385 358
22.95396 374
22.97407 385
22.99419 354
23.0143 401
23.03442 356
23.05453 376
23.07464 362
23.09476 384
23.11487 374
23.13498 392
23.1551 366
23.17521 376
23.19532 353
23.21544 384
23.23555 383
23.25567 383
23.27578 351
23.29589 329
23.31601 365
23.33612 357
23.35623 358
23.37635 381
23.39646 341
23.41658 371
23.43669 385
23.4568 365
23.47692 346
23.49703 397
23.51714 353
23.53726 382
23.55737 371
23.57749 337
23.5976 356
23.61771 367
23.63783 386
23.65794 373
23.67805 373
23.69817 369
23.71828 375
23.73839 396
23.75851 408
23.77862 383
23.79874 361
23.81885 429
23.83896 389
23.85908 407
23.87919 399
23.8993 420
23.91942 421
23.93953 424
23.95965 418
23.97976 433
23.99987 499
24.01999 442
24.0401 462
24.06021 453
24.08033 458
24.10044 447
24.12056 469
24.14067 416
24.16078 409
24.1809 400
24.20101 410
24.22112 429
24.24124 444
24.26135 482
24.28146 430
24.30158 417
24.32169 405
24.34181 381
24.36192 386
24.38203 440
24.40215 422
24.42226 423
24.44237 412
24.46249 417
24.4826 448
24.50272 410
24.52283 435
24.54294 428
24.56306 445
24.58317 384
24.60328 418
24.6234 436
24.64351 460
24.66362 480
24.68374 449
24.70385 483
24.72397 467
24.74408 505
24.76419 483
24.78431 459
24.80442 530
24.82453 514
24.84465 556
24.86476 566
24.88488 505
24.90499 499
24.9251 530
24.94522 510
24.96533 478
24.98544 476
25.00556 461
25.02567 459
25.04579 459
25.0659 470
25.08601 511
25.10613 439
25.12624 451
25.14635 457
25.16647 427
25.18658 460
25.20669 431
25.22681 466
25.24692 472
25.26704 436
25.28715 451
25.30726 443
25.32738 472
25.34749 411
25.3676 410
25.38772 403
25.40783 397
25.42795 423
25.44806 418
25.46817 377
25.48829 378
25.5084 370
25.52851 376
25.54863 407
25.56874 429
25.58886 410
25.60897 392
25.62908 409
25.6492 425
25.66931 447
25.68942 455
25.70954 523
25.72965 492
25.74976 486
25.76988 506
25.78999 485
25.81011 546
25.83022 473
25.85033 491
25.87045 514
25.89056 553
25.91067 524
25.93079 523
25.9509 506
25.97102 538
25.99113 561
26.01124 542
26.03136 556
26.05147 596
26.07158 606
26.0917 593
26.11181 625
26.13193 654
26.15204 659
26.17215 694
26.19227 733
26.21238 802
26.23249 759
26.25261 867
26.27272 831
26.29283 918
26.31295 959
26.33306 984
26.35318 1069
26.37329 1200
26.3934 1308
26.41352 1521
26.43363 1854
26.45374 2251
26.47386 2996
26.49397 4243
26.51409 5905
26.5342 8520
26.55431 12361
26.57443 17418
26.59454 22489
26.61465 26112
26.63477 27085
26.65488 24527
26.67499 19821
26.69511 15128
26.71522 11291
26.73534 7370
26.75545 4348
26.77556 2428
26.79568 1784
26.81579 1532
26.8359 1336
26.85602 1285
26.87613 1173
26.89625 1125
26.91636 956
26.93647 928
26.95659 856
26.9767 787
26.99681 715
27.01693 691
27.03704 673
27.05716 662
27.07727 598
27.09738 601
27.1175 518
27.13761 504
27.15772 491
27.17784 499
27.19795 489
27.21806 484
27.23818 507
27.25829 474
27.27841 522
27.29852 489
27.31863 495
27.33875 452
27.35886 491
27.37897 479
27.39909 460
27.4192 454
27.43932 453
27.45943 460
27.47954 459
27.49966 421
27.51977 446
27.53988 490
27.56 453
27.58011 418
27.60023 413
27.62034 463
27.64045 425
27.66057 429
27.68068 387
27.70079 456
27.72091 413
27.74102 398
27.76113 450
27.78125 404
27.80136 422
27.82148 435
27.84159 375
27.8617 388
27.88182 385
27.90193 377
27.92204 389
27.94216 440
27.96227 367
27.98239 403
28.0025 420
28.02261 424
28.04273 378
28.06284 384
28.08295 407
28.10307 416
28.12318 368
28.1433 393
28.16341 411
28.18352 395
28.20364 352
28.22375 370
28.24386 462
28.26398 395
28.28409 400
28.3042 386
28.32432 383
28.34443 418
28.36455 364
28.38466 360
28.40477 391
28.42489 356
28.445 381
28.46511 366
28.48523 376
28.50534 361
28.52546 406
28.54557 390
28.56568 375
28.5858 395
28.60591 350
28.62602 380
28.64614 408
28.66625 348
28.68636 369
28.70648 391
28.72659 365
28.74671 382
28.76682 360
28.78693 332
28.80705 326
28.82716 356
28.84727 384
28.86739 357
28.8875 357
28.90762 337
28.92773 361
28.94784 379
28.96796 354
28.98807 365
29.00818 340
29.0283 371
29.04841 388
29.06853 337
29.08864 358
29.10875 342
29.12887 357
29.14898 354
29.16909 317
29.18921 366
29.20932 349
29.22943 342
29.24955 347
29.26966 333
29.28978 326
29.30989 328
29.33 360
29.35012 352
29.37023 353
29.39034 351
29.41046 332
29.43057 335
29.45069 336
29.4708 352
29.49091 336
29.51103 369
29.53114 338
29.55125 369
29.57137 334
29.59148 327
29.6116 296
29.63171 403
29.65182 335
29.67194 350
29.69205 310
29.71216 340
29.73228 372
29.75239 351
29.7725 345
29.79262 343
29.81273 338
29.83285 347
29.85296 304
29.87307 334
29.89319 339
29.9133 326
29.93341 325
29.95353 325
29.97364 369
29.99376 334
30.01387 335
30.03398 377
30.0541 353
30.07421 341
30.09432 350
30.11444 364
30.13455 373
30.15467 353
30.17478 322
30.19489 342
30.21501 375
30.23512 367
30.25523 371
30.27535 332
30.29546 374
30.31557 337
30.33569 358
30.3558 343
30.37592 337
30.39603 361
30.41614 340
30.43626 333
30.45637 374
30.47648 351
30.4966 353
30.51671 359
30.53683 321
30.55694 356
30.57705 364
30.59717 349
30.61728 341
30.63739 331
30.65751 339
30.67762 350
30.69773 334
30.71785 325
30.73796 321
30.75808 385
30.77819 331
30.7983 346
30.81842 333
30.83853 351
30.85864 333
30.87876 291
30.89887 320
30.91899 361
30.9391 331
30.95921 373
30.97933 321
30.99944 338
31.01955 326
31.03967 356
31.05978 329
31.0799 333
31.10001 330
31.12012 363
31.14024 329
31.16035 332
31.18046 371
31.20058 292
31.22069 340
31.2408 318
31.26092 347
31.28103 340
31.30115 318
31.32126 346
31.34137 319
31.36149 315
31.3816 298
31.40171 329
31.42183 344
31.44194 351
31.46206 355
31.48217 334
31.50228 308
31.5224 352
31.54251 322
31.56262 335
31.58274 357
31.60285 317
31.62297 333
31.64308 334
31.66319 287
31.68331 370
31.70342 352
31.72353 296
31.74365 341
31.76376 307
31.78387 331
31.80399 346
31.8241 357
31.84422 348
31.86433 315
31.88444 355
31.90456 331
31.92467 312
31.94478 319
31.9649 349
31.98501 306
32.00513 332
32.02524 343
32.04535 382
32.06547 336
32.08558 367
32.10569 340
32.12581 346
32.14592 343
32.16604 354
32.18615 376
32.20626 310
32.22638 317
32.24649 345
32.2666 334
32.28672 341
32.30683 340
32.32694 320
32.34706 355
32.36717 369
32.38729 318
32.4074 385
32.42751 348
32.44763 356
32.46774 346
32.48785 338
32.50797 386
32.52808 372
32.5482 367
32.56831 375
32.58842 400
32.60854 388
32.62865 362
32.64876 364
32.66888 366
32.68899 352
32.7091 391
32.72922 368
32.74933 410
32.76945 396
32.78956 409
32.80967 363
32.82979 388
32.8499 383
32.87001 408
32.89013 403
32.91024 374
32.93036 414
32.95047 398
32.97058 415
32.9907 453
33.01081 473
33.03092 448
33.05104 489
33.07115 491
33.09127 509
33.11138 504
33.13149 472
33.15161 543
33.17172 548
33.19183 500
33.21195 503
33.23206 513
33.25217 493
33.27229 494
33.2924 474
33.31252 488
33.33263 464
33.35274 458
33.37286 436
33.39297 430
33.41308 423
33.4332 447
33.45331 436
33.47343 415
33.49354 414
33.51365 422
33.53377 435
33.55388 424
33.57399 405
33.59411 435
33.61422 410
33.63434 385
33.65445 374
33.67456 413
33.69468 414
33.71479 387
33.7349 352
33.75502 348
33.77513 362
33.79524 369
33.81536 396
33.83547 361
33.85559 363
33.8757 352
33.89581 366
33.91593 365
33.93604 378
33.95615 375
33.97627 355
33.99638 379
34.0165 350
34.03661 324
34.05672 334
34.07684 346
34.09695 325
34.11706 322
34.13718 357
34.15729 324
34.17741 345
34.19752 320
34.21763 345
34.23775 357
34.25786 372
34.27797 329
34.29809 350
34.3182 321
34.33831 341
34.35843 330
34.37854 334
34.39866 344
34.41877 343
34.43888 352
34.459 321
34.47911 340
34.49922 329
34.51934 343
34.53945 337
34.55957 378
34.57968 326
34.59979 357
34.61991 358
34.64002 313
34.66013 380
34.68025 379
34.70036 335
34.72047 375
34.74059 369
34.7607 368
34.78082 374
34.80093 386
34.82104 401
34.84116 378
34.86127 404
34.88138 428
34.9015 396
34.92161 429
34.94173 439
34.96184 426
34.98195 424
35.00207 459
35.02218 413
35.04229 440
35.06241 403
35.08252 401
35.10264 405
35.12275 437
35.14286 353
35.16298 429
35.18309 455
35.2032 413
35.22332 412
35.24343 433
35.26354 458
35.28366 415
35.30377 452
35.32389 429
35.344 437
35.36411 388
35.38423 462
35.40434 461
35.42445 426
35.44457 459
35.46468 452
35.4848 480
35.50491 486
35.52502 487
35.54514 487
35.56525 481
35.58536 542
35.60548 543
35.62559 572
35.64571 489
35.66582 578
35.68593 566
35.70605 580
35.72616 599
35.74627 551
35.76639 593
35.7865 564
35.80661 561
35.82673 543
35.84684 543
35.86696 459
35.88707 555
35.90718 513
35.9273 491
35.94741 473
35.96752 472
35.98764 465
36.00775 452
36.02787 470
36.04798 480
36.06809 454
36.08821 416
36.10832 435
36.12843 429
36.14855 435
36.16866 466
36.18878 376
36.20889 445
36.229 450
36.24912 426
36.26923 495
36.28934 466
36.30946 509
36.32957 545
36.34968 587
36.3698 591
36.38991 733
36.41003 859
36.43014 951
36.45025 1275
36.47037 1539
36.49048 1850
36.51059 2162
36.53071 2189
36.55082 1942
36.57094 1732
36.59105 1494
36.61116 1285
36.63128 1152
36.65139 1022
36.6715 814
36.69162 607
36.71173 512
36.73184 464
36.75196 444
36.77207 434
36.79219 478
36.8123 409
36.83241 379
36.85253 440
36.87264 405
36.89275 388
36.91287 414
36.93298 424
36.9531 416
36.97321 450
36.99332 371
37.01344 391
37.03355 399
37.05366 399
37.07378 416
37.09389 426
37.11401 433
37.13412 374
37.15423 369
37.17435 402
37.19446 378
37.21457 405
37.23469 382
37.2548 380
37.27491 367
37.29503 382
37.31514 364
37.33526 378
37.35537 388
37.37548 384
37.3956 353
37.41571 400
37.43582 386
37.45594 398
37.47605 375
37.49617 344
37.51628 376
37.53639 380
37.55651 387
37.57662 424
37.59673 376
37.61685 432
37.63696 400
37.65708 400
37.67719 400
37.6973 372
37.71742 392
37.73753 372
37.75764 407
37.77776 350
37.79787 380
37.81798 393
37.8381 378
37.85821 402
37.87833 364
37.89844 337
37.91855 381
37.93867 359
37.95878 352
37.97889 353
37.99901 404
38.01912 365
38.03924 327
38.05935 374
38.07946 370
38.09958 355
38.11969 384
38.1398 385
38.15992 375
38.18003 383
38.20015 379
38.22026 363
38.24037 420
38.26049 354
38.2806 417
38.30071 410
38.32083 393
38.34094 391
38.36105 403
38.38117 420
38.40128 420
38.4214 422
38.44151 439
38.46162 402
38.48174 390
38.50185 400
38.52196 393
38.54208 426
38.56219 419
38.58231 362
38.60242 396
38.62253 406
38.64265 393
38.66276 407
38.68287 374
38.70299 357
38.7231 348
38.74321 354
38.76333 383
38.78344 356
38.80356 368
38.82367 314
38.84378 355
38.8639 355
38.88401 398
38.90412 384
38.92424 367
38.94435 389
38.96447 384
38.98458 374
39.00469 345
39.02481 388
39.04492 378
39.06503 374
39.08515 406
39.10526 411
39.12538 407
39.14549 453
39.1656 408
39.18572 421
39.20583 471
39.22594 485
39.24606 514
39.26617 492
39.28628 570
39.3064 672
39.32651 753
39.34663 917
39.36674 1066
39.38685 1355
39.40697 1579
39.42708 1886
39.44719 1936
39.46731 1852
39.48742 1588
39.50754 1274
39.52765 1231
39.54776 1141
39.56788 989
39.58799 892
39.6081 691
39.62822 540
39.64833 428
39.66845 410
39.68856 347
39.70867 397
39.72879 385
39.7489 409
39.76901 366
39.78913 385
39.80924 387
39.82935 404
39.84947 390
39.86958 358
39.8897 424
39.90981 344
39.92992 372
39.95004 387
39.97015 377
39.99026 389
40.01038 369
40.03049 415
40.05061 409
40.07072 428
40.09083 462
40.11095 497
40.13106 509
40.15117 574
40.17129 609
40.1914 725
40.21152 806
40.23163 966
40.25174 1121
40.27186 1142
40.29197 1102
40.31208 938
40.3322 792
40.35231 767
40.37242 758
40.39254 712
40.41265 595
40.43277 533
40.45288 445
40.47299 351
40.49311 401
40.51322 398
40.53333 379
40.55345 366
40.57356 388
40.59368 381
40.61379 371
40.6339 379
40.65402 387
40.67413 395
40.69424 358
40.71436 397
40.73447 400
40.75458 375
40.7747 362
40.79481 360
40.81493 379
40.83504 392
40.85515 386
40.87527 386
40.89538 409
40.91549 393
40.93561 401
40.95572 373
40.97584 386
40.99595 392
41.01606 393
41.03618 344
41.05629 328
41.0764 385
41.09652 396
41.11663 407
41.13675 375
41.15686 412
41.17697 369
41.19709 425
41.2172 392
41.23731 374
41.25743 389
41.27754 367
41.29765 360
41.31777 340
41.33788 351
41.358 367
41.37811 361
41.39822 324
41.41834 369
41.43845 340
41.45856 375
41.47868 359
41.49879 378
41.51891 349
41.53902 357
41.55913 330
41.57925 373
41.59936 358
41.61947 381
41.63959 381
41.6597 330
41.67982 380
41.69993 346
41.72004 374
41.74016 377
41.76027 356
41.78038 315
41.8005 335
41.82061 321
41.84072 310
41.86084 328
41.88095 331
41.90107 341
41.92118 317
41.94129 369
41.96141 337
41.98152 363
42.00163 355
42.02175 349
42.04186 362
42.06198 336
42.08209 393
42.1022 347
42.12232 340
42.14243 373
42.16254 381
42.18266 394
42.20277 378
42.22289 442
42.243 414
42.26311 479
42.28323 555
42.30334 614
42.32345 685
42.34357 838
42.36368 1025
42.38379 1151
42.40391 1314
42.42402 1541
42.44414 1315
42.46425 1159
42.48436 1026
42.50448 993
42.52459 853
42.5447 848
42.56482 685
42.58493 572
42.60505 487
42.62516 427
42.64527 374
42.66539 358
42.6855 389
42.70561 361
42.72573 340
42.74584 321
42.76595 360
42.78607 316
42.80618 337
42.8263 328
42.84641 341
42.86652 298
42.88664 296
42.90675 325
42.92686 311
42.94698 319
42.96709 338
42.98721 342
43.00732 303
43.02743 310
43.04755 318
43.06766 320
43.08777 306
43.10789 280
43.128 347
43.14812 340
43.16823 316
43.18834 324
43.20846 305
43.22857 288
43.24868 299
43.2688 318
43.28891 302
43.30902 307
43.32914 302
43.34925 303
43.36937 318
43.38948 291
43.40959 320
43.42971 314
43.44982 307
43.46993 305
43.49005 298
43.51016 306
43.53028 317
43.55039 311
43.5705 297
43.59062 317
43.61073 320
43.63084 292
43.65096 286
43.67107 297
43.69119 334
43.7113 323
43.73141 315
43.75153 335
43.77164 318
43.79175 310
43.81187 333
43.83198 317
43.85209 308
43.87221 305
43.89232 289
43.91244 313
43.93255 289
43.95266 311
43.97278 303
43.99289 300
44.013 290
44.03312 290
44.05323 301
44.07335 310
44.09346 324
44.11357 306
44.13369 324
44.1538 334
44.17391 318
44.19403 314
44.21414 323
44.23426 325
44.25437 307
44.27448 305
44.2946 350
44.31471 339
44.33482 303
44.35494 317
44.37505 307
44.39516 306
44.41528 288
44.43539 298
44.45551 302
44.47562 317
44.49573 344
44.51585 363
44.53596 292
44.55607 287
44.57619 292
44.5963 321
44.61642 337
44.63653 279
44.65664 309
44.67676 307
44.69687 283
44.71698 297
44.7371 308
44.75721 269
44.77732 305
44.79744 310
44.81755 296
44.83767 289
44.85778 295
44.87789 273
44.89801 313
44.91812 309
44.93823 312
44.95835 282
44.97846 294
44.99858 309
45.01869 305
45.0388 295
45.05892 356
45.07903 312
45.09914 315
45.11926 318
45.13937 323
45.15949 337
45.1796 311
45.19971 315
45.21983 327
45.23994 357
45.26005 336
45.28017 348
45.30028 372
45.32039 331
45.34051 336
45.36062 314
45.38074 356
45.40085 333
45.42096 375
45.44108 357
45.46119 405
45.4813 350
45.50142 381
45.52153 362
45.54165 359
45.56176 423
45.58187 409
45.60199 469
45.6221 469
45.64221 479
45.66233 594
45.68244 639
45.70256 787
45.72267 946
45.74278 956
45.7629 1008
45.78301 1013
45.80312 787
45.82324 754
45.84335 715
45.86346 679
45.88358 634
45.90369 646
45.92381 528
45.94392 467
45.96403 405
45.98415 389
46.00426 339
46.02437 308
46.04449 336
46.0646 308
46.08472 298
46.10483 324
46.12494 326
46.14506 340
46.16517 335
46.18528 317
46.2054 321
46.22551 311
46.24563 300
46.26574 323
46.28585 277
46.30597 326
46.32608 318
46.34619 319
46.36631 317
46.38642 330
46.40653 353
46.42665 298
46.44676 320
46.46688 334
46.48699 305
46.5071 325
46.52722 313
46.54733 315
46.56744 301
46.58756 323
46.60767 316
46.62779 319
46.6479 315
46.66801 317
46.68813 308
46.70824 291
46.72835 290
46.74847 301
46.76858 313
46.78869 289
46.80881 310
46.82892 306
46.84904 331
46.86915 306
46.88926 327
46.90938 304
46.92949 330
46.9496 296
46.96972 310
46.98983 331
47.00995 284
47.03006 293
47.05017 323
47.07029 300
47.0904 311
47.11051 292
47.13063 329
47.15074 294
47.17086 284
47.19097 318
47.21108 308
47.2312 307
47.25131 323
47.27142 304
47.29154 297
47.31165 293
47.33176 338
47.35188 280
47.37199 300
47.39211 284
47.41222 323
47.43233 311
47.45245 297
47.47256 342
47.49267 329
47.51279 326
47.5329 303
47.55302 273
47.57313 296
47.59324 321
47.61336 321
47.63347 275
47.65358 289
47.6737 299
47.69381 299
47.71393 325
47.73404 307
47.75415 301
47.77427 335
47.79438 331
47.81449 337
47.83461 308
47.85472 273
47.87483 296
47.89495 306
47.91506 321
47.93518 287
47.95529 323
47.9754 322
47.99552 326
48.01563 291
48.03574 293
48.05586 307
48.07597 308
48.09609 320
48.1162 300
48.13631 307
48.15643 306
48.17654 309
48.19665 314
48.21677 307
48.23688 329
48.257 310
48.27711 311
48.29722 336
48.31734 326
48.33745 332
48.35756 319
48.37768 322
48.39779 334
48.4179 294
48.43802 295
48.45813 287
48.47825 317
48.49836 296
48.51847 332
48.53859 324
48.5587 296
48.57881 316
48.59893 304
48.61904 297
48.63916 341
48.65927 302
48.67938 311
48.6995 315
48.71961 325
48.73972 307
48.75984 321
48.77995 307
48.80006 328
48.82018 322
48.84029 311
48.86041 356
48.88052 344
48.90063 356
48.92075 308
48.94086 321
48.96097 332
48.98109 341
49.0012 313
49.02132 311
49.04143 317
49.06154 310
49.08166 352
49.10177 326
49.12188 339
49.142 360
49.16211 311
49.18223 329
49.20234 354
49.22245 359
49.24257 343
49.26268 321
49.28279 363
49.30291 354
49.32302 389
49.34313 359
49.36325 349
49.38336 353
49.40348 340
49.42359 382
49.4437 360
49.46382 386
49.48393 384
49.50404 387
49.52416 396
49.54427 387
49.56439 393
49.5845 428
49.60461 391
49.62473 415
49.64484 356
49.66495 409
49.68507 414
49.70518 423
49.7253 426
49.74541 443
49.76552 446
49.78564 459
49.80575 420
49.82586 484
49.84598 512
49.86609 502
49.8862 562
49.90632 659
49.92643 664
49.94655 760
49.96666 904
49.98677 1048
50.00689 1418
50.027 1703
50.04711 2024
50.06723 2365
50.08734 2761
50.10746 2912
50.12757 2825
50.14768 2420
50.1678 2014
50.18791 1725
50.20802 1658
50.22814 1649
50.24825 1614
50.26837 1401
50.28848 1142
50.30859 810
50.32871 590
50.34882 505
50.36893 455
50.38905 431
50.40916 436
50.42927 408
50.44939 401
50.4695 397
50.48962 412
50.50973 389
50.52984 428
50.54996 410
50.57007 362
50.59018 414
50.6103 420
50.63041 406
50.65053 398
50.67064 371
50.69075 389
50.71087 371
50.73098 368
50.75109 384
50.77121 332
50.79132 370
50.81143 313
50.83155 339
50.85166 326
50.87178 316
50.89189 329
50.912 325
50.93212 317
50.95223 331
50.97234 331
50.99246 334
51.01257 315
51.03269 312
51.0528 328
51.07291 326
51.09303 340
51.11314 319
51.13325 322
51.15337 311
51.17348 285
51.1936 341
51.21371 335
51.23382 354
51.25394 307
51.27405 289
51.29416 307
51.31428 305
51.33439 319
51.3545 307
51.37462 308
51.39473 286
51.41485 287
51.43496 304
51.45507 331
51.47519 298
51.4953 335
51.51541 284
51.53553 317
51.55564 301
51.57576 306
51.59587 300
51.61598 297
51.6361 304
51.65621 293
51.67632 280
51.69644 303
51.71655 310
51.73667 311
51.75678 283
51.77689 307
51.79701 289
51.81712 303
51.83723 331
51.85735 295
51.87746 298
51.89757 287
51.91769 318
51.9378 337
51.95792 319
51.97803 305
51.99814 296
52.01826 290
52.03837 292
52.05848 291
52.0786 314
52.09871 326
52.11883 303
52.13894 313
52.15905 292
52.17917 337
52.19928 330
52.21939 317
52.23951 323
52.25962 302
52.27974 313
52.29985 344
52.31996 286
52.34008 318
52.36019 329
52.3803 309
52.40042 288
52.42053 313
52.44064 321
52.46076 296
52.48087 314
52.50099 321
52.5211 283
52.54121 288
52.56133 300
52.58144 282
52.60155 301
52.62167 288
52.64178 298
52.6619 334
52.68201 336
52.70212 316
52.72224 312
52.74235 324
52.76246 298
52.78258 275
52.80269 304
52.8228 328
52.84292 280
52.86303 325
52.88315 302
52.90326 318
52.92337 314
52.94349 287
52.9636 295
52.98371 318
53.00383 327
53.02394 302
53.04406 279
53.06417 313
53.08428 302
53.1044 308
53.12451 290
53.14462 282
53.16474 311
53.18485 323
53.20497 323
53.22508 342
53.24519 305
53.26531 325
53.28542 298
53.30553 280
53.32565 322
53.34576 334
53.36587 327
53.38599 313
53.4061 327
53.42622 339
53.44633 327
53.46644 333
53.48656 305
53.50667 315
53.52678 321
53.5469 324
53.56701 385
53.58713 349
53.60724 359
53.62735 334
53.64747 375
53.66758 327
53.68769 366
53.70781 356
53.72792 373
53.74804 360
53.76815 337
53.78826 376
53.80838 392
53.82849 341
53.8486 366
53.86872 442
53.88883 368
53.90894 403
53.92906 394
53.94917 417
53.96929 409
53.9894 409
54.00951 419
54.02963 415
54.04974 448
54.06985 421
54.08997 405
54.11008 420
54.1302 455
54.15031 434
54.17042 444
54.19054 422
54.21065 434
54.23076 448
54.25088 406
54.27099 430
54.29111 420
54.31122 473
54.33133 425
54.35145 414
54.37156 432
54.39167 447
54.41179 428
54.4319 404
54.45201 438
54.47213 425
54.49224 388
54.51236 411
54.53247 399
54.55258 415
54.5727 444
54.59281 419
54.61292 442
54.63304 449
54.65315 473
54.67327 489
54.69338 541
54.71349 527
54.73361 611
54.75372 714
54.77383 838
54.79395 951
54.81406 1005
54.83417 1115
54.85429 1078
54.8744 926
54.89452 848
54.91463 788
54.93474 712
54.95486 703
54.97497 753
54.99508 728
55.0152 660
55.03531 598
55.05543 508
55.07554 499
55.09565 422
55.11577 469
55.13588 447
55.15599 461
55.17611 480
55.19622 484
55.21634 567
55.23645 584
55.25656 639
55.27668 652
55.29679 712
55.3169 673
55.33702 588
55.35713 541
55.37724 506
55.39736 491
55.41747 491
55.43759 496
55.4577 474
55.47781 461
55.49793 421
55.51804 380
55.53815 352
55.55827 337
55.57838 337
55.5985 358
55.61861 365
55.63872 329
55.65884 313
55.67895 328
55.69906 340
55.71918 357
55.73929 349
55.75941 328
55.77952 317
55.79963 335
55.81975 317
55.83986 287
55.85997 321
55.88009 359
55.9002 321
55.92031 317
55.94043 307
55.96054 304
55.98066 311
56.00077 306
56.02088 310
56.041 293
56.06111 343
56.08122 307
56.10134 334
56.12145 338
56.14157 309
56.16168 306
56.18179 310
56.20191 318
56.22202 307
56.24213 309
56.26225 286
56.28236 309
56.30248 315
56.32259 312
56.3427 289
56.36282 316
56.38293 318
56.40304 297
56.42316 282
56.44327 302
56.46338 291
56.4835 311
56.50361 328
56.52373 303
56.54384 326
56.56395 322
56.58407 308
56.60418 296
56.62429 337
56.64441 314
56.66452 329
56.68464 287
56.70475 307
56.72486 328
56.74498 318
56.76509 299
56.7852 318
56.80532 303
56.82543 306
56.84554 307
56.86566 339
56.88577 306
56.90589 278
56.926 323
56.94611 275
56.96623 275
56.98634 312
57.00645 313
57.02657 319
57.04668 297
57.0668 298
57.08691 311
57.10702 332
57.12714 329
57.14725 328
57.16736 349
57.18748 373
57.20759 342
57.22771 311
57.24782 308
57.26793 340
57.28805 327
57.30816 329
57.32827 339
57.34839 292
57.3685 314
57.38861 318
57.40873 349
57.42884 309
57.44896 302
57.46907 332
57.48918 302
57.5093 307
57.52941 322
57.54952 338
57.56964 310
57.58975 337
57.60987 325
57.62998 362
57.65009 321
57.67021 294
57.69032 294
57.71043 328
57.73055 325
57.75066 303
57.77078 298
57.79089 294
57.811 338
57.83112 337
57.85123 361
57.87134 312
57.89146 328
57.91157 313
57.93168 317
57.9518 302
57.97191 343
57.99203 309
58.01214 314
58.03225 305
58.05237 322
58.07248 336
58.09259 326
58.11271 317
58.13282 274
58.15294 321
58.17305 323
58.19316 318
58.21328 336
58.23339 301
58.2535 319
58.27362 315
58.29373 328
58.31385 301
58.33396 283
58.35407 311
58.37419 311
58.3943 298
58.41441 286
58.43453 274
58.45464 312
58.47475 294
58.49487 288
58.51498 284
58.5351 284
58.55521 303
58.57532 320
58.59544 276
58.61555 311
58.63566 292
58.65578 283
58.67589 315
58.69601 352
58.71612 307
58.73623 284
58.75635 284
58.77646 294
58.79657 319
58.81669 303
58.8368 300
58.85691 317
58.87703 309
58.89714 299
58.91726 313
58.93737 304
58.95748 311
58.9776 316
58.99771 307
59.01782 287
59.03794 293
59.05805 280
59.07817 274
59.09828 310
59.11839 293
59.13851 289
59.15862 296
59.17873 320
59.19885 292
59.21896 336
59.23908 324
59.25919 303
59.2793 338
59.29942 344
59.31953 313
59.33964 317
59.35976 302
59.37987 317
59.39998 292
59.4201 308
59.44021 339
59.46033 332
59.48044 332
59.50055 354
59.52067 391
59.54078 367
59.56089 392
59.58101 382
59.60112 381
59.62124 428
59.64135 409
59.66146 445
59.68158 446
59.70169 522
59.7218 522
59.74192 566
59.76203 646
59.78215 723
59.80226 892
59.82237 1013
59.84249 1218
59.8626 1439
59.88271 1699
59.90283 1820
59.92294 1909
59.94305 1909
59.96317 1584
59.98328 1351
60.0034 1171
60.02351 1067
60.04362 1040
60.06374 1123
60.08385 1188
60.10396 1081
60.12408 903
60.14419 731
60.16431 621
60.18442 458
60.20453 452
60.22465 391
60.24476 392
60.26487 367
60.28499 367
60.3051 334
60.32522 333
60.34533 306
60.36544 339
60.38556 331
60.40567 338
60.42578 294
60.4459 324
60.46601 356
60.48612 325
60.50624 295
60.52635 270
60.54647 284
60.56658 306
60.58669 282
60.60681 337
60.62692 275
60.64703 323
60.66715 323
60.68726 287
60.70738 314
60.72749 310
60.7476 298
60.76772 305
60.78783 280
60.80794 316
60.82806 284
60.84817 279
60.86828 297
60.8884 296
60.90851 318
60.92863 305
60.94874 303
60.96885 294
60.98897 316
61.00908 277
61.02919 301
61.04931 324
61.06942 289
61.08954 272
61.10965 307
61.12976 298
61.14988 336
61.16999 270
61.1901 308
61.21022 293
61.23033 328
61.25045 290
61.27056 286
61.29067 319
61.31079 273
61.3309 298
61.35101 316
61.37113 252
61.39124 287
61.41135 320
61.43147 311
61.45158 290
61.4717 298
61.49181 309
61.51192 303
61.53204 282
61.55215 310
61.57226 328
61.59238 326
61.61249 308
61.63261 311
61.65272 263
61.67283 314
61.69295 336
61.71306 312
61.73317 338
61.75329 306
61.7734 290
61.79352 317
61.81363 322
61.83374 298
61.85386 305
61.87397 316
61.89408 347
61.9142 328
61.93431 362
61.95442 335
61.97454 336
61.99465 309
62.01477 351
62.03488 353
62.05499 347
62.07511 340
62.09522 400
62.11533 339
62.13545 359
62.15556 373
62.17568 341
62.19579 392
62.2159 345
62.23602 372
62.25613 357
62.27624 336
62.29636 377
62.31647 391
62.33659 386
62.3567 359
62.37681 357
62.39693 395
62.41704 369
62.43715 375
62.45727 362
62.47738 394
62.49749 359
62.51761 381
62.53772 341
62.55784 334
62.57795 371
62.59806 368
62.61818 380
62.63829 383
62.6584 342
62.67852 349
62.69863 338
62.71875 322
62.73886 344
62.75897 312
62.77909 357
62.7992 302
62.81931 343
62.83943 311
62.85954 346
62.87965 307
62.89977 310
62.91988 286
62.94 306
62.96011 317
62.98022 324
63.00034 330
63.02045 318
63.04056 320
63.06068 299
63.08079 320
63.10091 332
63.12102 322
63.14113 310
63.16125 320
63.18136 312
63.20147 291
63.22159 276
63.2417 301
63.26182 316
63.28193 294
63.30204 323
63.32216 307
63.34227 322
63.36238 297
63.3825 327
63.40261 326
63.42272 339
63.44284 311
63.46295 293
63.48307 321
63.50318 317
63.52329 334
63.54341 338
63.56352 309
63.58363 324
63.60375 322
63.62386 336
63.64398 339
63.66409 338
63.6842 328
63.70432 338
63.72443 327
63.74454 354
63.76466 381
63.78477 335
63.80489 374
63.825 389
63.84511 412
63.86523 439
63.88534 433
63.90545 472
63.92557 481
63.94568 564
63.96579 617
63.98591 633
64.00602 675
64.02614 591
64.04625 569
64.06636 550
64.08648 458
64.10659 467
64.1267 457
64.14682 522
64.16693 463
64.18705 484
64.20716 463
64.22727 452
64.24739 384
64.2675 393
64.28761 369
64.30773 373
64.32784 333
64.34796 357
64.36807 351
64.38818 336
64.4083 319
64.42841 320
64.44852 326
64.46864 332
64.48875 323
64.50886 332
64.52898 342
64.54909 339
64.56921 321
64.58932 315
64.60943 281
64.62955 296
64.64966 309
64.66977 338
64.68989 312
64.71 286
64.73012 351
64.75023 315
64.77034 288
64.79046 290
64.81057 291
64.83068 287
64.8508 308
64.87091 286
64.89102 306
64.91114 305
64.93125 268
64.95137 319
64.97148 301
64.99159 264
65.01171 271
65.03182 281
65.05193 307
65.07205 285
65.09216 297
65.11228 286
65.13239 297
65.1525 286
65.17262 259
65.19273 279
65.21284 296
65.23296 317
65.25307 303
65.27319 276
65.2933 301
65.31341 296
65.33353 289
65.35364 271
65.37375 327
65.39387 271
65.41398 307
65.43409 285
65.45421 292
65.47432 307
65.49444 279
65.51455 285
65.53466 260
65.55478 297
65.57489 297
65.595 286
65.61512 302
65.63523 322
65.65535 357
65.67546 355
65.69557 366
65.71569 339
65.7358 339
65.75591 336
65.77603 376
65.79614 332
65.81626 302
65.83637 309
65.85648 345
65.8766 306
65.89671 288
65.91682 323
65.93694 324
65.95705 289
65.97716 305
65.99728 287
66.01739 298
66.03751 311
66.05762 282
66.07773 331
66.09785 289
66.11796 263
66.13807 275
66.15819 292
66.1783 293
66.19842 321
66.21853 286
66.23864 309
66.25876 294
66.27887 327
66.29898 267
66.3191 284
66.33921 288
66.35933 294
66.37944 300
66.39955 283
66.41967 268
66.43978 281
66.45989 290
66.48001 290
66.50012 293
66.52023 277
66.54035 298
66.56046 299
66.58058 330
66.60069 291
66.6208 274
66.64092 273
66.66103 291
66.68114 293
66.70126 299
66.72137 302
66.74149 268
66.7616 312
66.78171 296
66.80183 276
66.82194 282
66.84205 288
66.86217 293
66.88228 332
66.90239 318
66.92251 300
66.94262 317
66.96274 298
66.98285 315
67.00296 324
67.02308 287
67.04319 324
67.0633 286
67.08342 319
67.10353 329
67.12365 298
67.14376 285
67.16387 287
67.18399 308
67.2041 281
67.22421 308
67.24433 334
67.26444 324
67.28456 323
67.30467 283
67.32478 340
67.3449 340
67.36501 334
67.38512 336
67.40524 352
67.42535 352
67.44546 369
67.46558 418
67.48569 416
67.50581 434
67.52592 451
67.54603 508
67.56615 553
67.58626 631
67.60637 757
67.62649 870
67.6466 971
67.66672 1117
67.68683 1162
67.70694 1232
67.72706 1172
67.74717 1047
67.76728 857
67.7874 801
67.80751 764
67.82763 770
67.84774 798
67.86785 862
67.88797 853
67.90808 916
67.92819 912
67.94831 826
67.96842 810
67.98853 820
68.00865 914
68.02876 1151
68.04888 1282
68.06899 1423
68.0891 1527
68.10922 1592
68.12933 1531
68.14944 1324
68.16956 1215
68.18967 1147
68.20979 1239
68.2299 1287
68.25001 1385
68.27013 1469
68.29024 1420
68.31035 1378
68.33047 1128
68.35058 948
68.3707 741
68.39081 678
68.41092 635
68.43104 638
68.45115 652
68.47126 680
68.49138 596
68.51149 557
68.5316 490
68.55172 451
68.57183 435
68.59195 372
68.61206 331
68.63217 355
68.65229 347
68.6724 342
68.69251 339
68.71263 327
68.73274 334
68.75286 293
68.77297 312
68.79308 307
68.8132 299
68.83331 268
68.85342 295
68.87354 300
68.89365 305
68.91376 306
68.93388 330
68.95399 293
68.97411 308
68.99422 286
69.01433 303
69.03445 314
69.05456 312
69.07467 278
69.09479 308
69.1149 292
69.13502 251
69.15513 316
69.17524 298
69.19536 259
69.21547 317
69.23558 263
69.2557 271
69.27581 316
69.29593 307
69.31604 284
69.33615 288
69.35627 283
69.37638 278
69.39649 293
69.41661 267
69.43672 298
69.45683 286
69.47695 288
69.49706 279
69.51718 292
69.53729 266
69.5574 270
69.57752 266
69.59763 288
69.61774 284
69.63786 271
69.65797 272
69.67809 305
69.6982 265
69.71831 262
69.73843 275
69.75854 273
69.77865 278
69.79877 288
69.81888 324
69.839 268
69.85911 275
69.87922 280
69.89934 272
69.91945 278
69.93956 302
69.95968 284
69.97979 262
69.9999 276
70.02002 260
70.04013 281
70.06025 275
70.08036 268
70.10047 271
70.12059 262
70.1407 276
70.16081 311
70.18093 270
70.20104 301
70.22116 297
70.24127 258
70.26138 272
70.2815 276
70.30161 288
70.32172 277
70.34184 273
70.36195 263
70.38207 288
70.40218 270
70.42229 279
70.44241 283
70.46252 290
70.48263 282
70.50275 271
70.52286 253
70.54297 266
70.56309 278
70.5832 290
70.60332 317
70.62343 271
70.64354 290
70.66366 262
70.68377 294
70.70388 287
70.724 286
70.74411 292
70.76423 287
70.78434 256
70.80445 263
70.82457 258
70.84468 281
70.86479 296
70.88491 258
70.90502 261
70.92513 292
70.94525 268
70.96536 262
70.98548 242
71.00559 248
71.0257 279
71.04582 279
71.06593 280
71.08604 261
71.10616 292
71.12627 279
71.14639 251
71.1665 263
71.18661 274
71.20673 284
71.22684 252
71.24695 286
71.26707 241
71.28718 262
71.3073 250
71.32741 284
71.34752 300
71.36764 268
71.38775 283
71.40786 283
71.42798 264
71.44809 286
71.4682 285
71.48832 256
71.50843 287
71.52855 308
71.54866 281
71.56877 256
71.58889 272
71.609 257
71.62911 237
71.64923 282
71.66934 280
71.68946 263
71.70957 240
71.72968 285
71.7498 265
71.76991 275
71.79002 286
71.81014 273
71.83025 278
71.85037 296
71.87048 289
71.89059 287
71.91071 282
71.93082 287
71.95093 270
71.97105 283
71.99116 290
72.01127 312
72.03139 292
72.0515 286
72.07162 274
72.09173 305
72.11184 280
72.13196 285
72.15207 266
72.17218 276
72.1923 288
72.21241 301
72.23253 288
72.25264 288
72.27275 285
72.29287 270
72.31298 271
72.33309 286
72.35321 292
72.37332 273
72.39344 267
72.41355 272
72.43366 284
72.45378 262
72.47389 306
72.494 266
72.51412 266
72.53423 292
72.55434 302
72.57446 301
72.59457 304
72.61469 270
72.6348 265
72.65491 271
72.67503 261
72.69514 269
72.71525 302
72.73537 273
72.75548 282
72.7756 286
72.79571 297
72.81582 287
72.83594 249
72.85605 305
72.87616 268
72.89628 270
72.91639 281
72.9365 254
72.95662 284
72.97673 264
72.99685 274
73.01696 281
73.03707 266
73.05719 296
73.0773 313
73.09741 312
73.11753 300
73.13764 286
73.15776 296
73.17787 329
73.19798 312
73.2181 316
73.23821 342
73.25832 339
73.27844 381
73.29855 352
73.31867 431
73.33878 459
73.35889 492
73.37901 556
73.39912 549
73.41923 591
73.43935 598
73.45946 517
73.47957 490
73.49969 459
73.5198 429
73.53992 402
73.56003 393
73.58014 397
73.60026 404
73.62037 458
73.64048 474
73.6606 439
73.68071 394
73.70083 351
73.72094 300
73.74105 307
73.76117 288
73.78128 292
73.80139 254
73.82151 304
73.84162 283
73.86174 274
73.88185 281
73.90196 267
73.92208 265
73.94219 280
73.9623 286
73.98242 270
74.00253 262
74.02264 286
74.04276 269
74.06287 268
74.08299 252
74.1031 253
74.12321 281
74.14333 274
74.16344 274
74.18355 269
74.20367 264
74.22378 255
74.2439 258
74.26401 248
74.28412 264
74.30424 278
74.32435 265
74.34446 278
74.36458 274
74.38469 254
74.40481 268
74.42492 282
74.44503 253
74.46515 272
74.48526 250
74.50537 278
74.52549 266
74.5456 268
74.56571 274
74.58583 269
74.60594 243
74.62606 271
74.64617 257
74.66628 256
74.6864 273
74.70651 248
74.72662 256
74.74674 268
74.76685 273
74.78697 282
74.80708 260
74.82719 284
74.84731 273
74.86742 269
74.88753 257
74.90765 286
74.92776 255
74.94787 291
74.96799 279
74.9881 268
75.00822 278
