3.00117 19889
3.02128 18971
3.0414 19021
3.06151 18244
3.08162 17804
3.10174 17378
3.12185 16882
3.14197 16571
3.16208 15703
3.18219 15709
3.20231 14860
3.22242 14300
3.24253 14019
3.26265 13524
3.28276 13733
3.30288 12840
3.32299 12280
3.3431 11881
3.36322 11879
3.38333 11374
3.40344 10776
3.42356 10370
3.44367 10272
3.46379 9731
3.4839 9622
3.50401 9226
3.52413 8908
3.54424 8790
3.56435 8250
3.58447 8341
3.60458 7606
3.62469 7416
3.64481 7503
3.66492 6988
3.68504 6871
3.70515 6339
3.72526 6030
3.74538 5998
3.76549 5598
3.7856 5463
3.80572 5337
3.82583 5092
3.84595 4831
3.86606 4600
3.88617 4633
3.90629 4282
3.9264 4057
3.94651 3968
3.96663 3810
3.98674 3811
4.00686 3502
4.02697 3450
4.04708 3306
4.0672 3013
4.08731 3209
4.10742 2831
4.12754 2780
4.14765 2784
4.16776 2601
4.18788 2549
4.20799 2338
4.22811 2297
4.24822 2351
4.26833 2189
4.28845 2124
4.30856 1991
4.32867 2054
4.34879 2043
4.3689 1882
4.38902 1914
4.40913 1746
4.42924 1769
4.44936 1806
4.46947 1673
4.48958 1707
4.5097 1586
4.52981 1481
4.54992 1584
4.57004 1545
4.59015 1424
4.61027 1468
4.63038 1452
4.65049 1558
4.67061 1468
4.69072 1306
4.71083 1349
4.73095 1291
4.75106 1325
4.77118 1253
4.79129 1254
4.8114 1195
4.83152 1154
4.85163 1219
4.87174 1143
4.89186 1214
4.91197 1092
4.93209 1061
4.9522 1117
4.97231 1053
4.99243 1019
5.01254 983
5.03265 965
5.05277 1029
5.07288 1023
5.09299 924
5.11311 856
5.13322 921
5.15334 915
5.17345 929
5.19356 849
5.21368 846
5.23379 806
5.2539 876
5.27402 887
5.29413 819
5.31425 786
5.33436 840
5.35447 771
5.37459 692
5.3947 771
5.41481 716
5.43493 723
5.45504 740
5.47516 710
5.49527 713
5.51538 704
5.5355 690
5.55561 673
5.57572 680
5.59584 638
5.61595 679
5.63606 601
5.65618 666
5.67629 636
5.69641 646
5.71652 601
5.73663 640
5.75675 623
5.77686 575
5.79697 547
5.81709 541
5.8372 565
5.85732 574
5.87743 593
5.89754 534
5.91766 562
5.93777 590
5.95788 534
5.978 570
5.99811 539
6.01823 544
6.03834 466
6.05845 559
6.07857 533
6.09868 522
6.11879 501
6.13891 495
6.15902 610
6.17913 539
6.19925 509
6.21936 592
6.23948 566
6.25959 535
6.2797 505
6.29982 496
6.31993 529
6.34004 510
6.36016 509
6.38027 487
6.40039 500
6.4205 530
6.44061 511
6.46073 507
6.48084 519
6.50095 513
6.52107 513
6.54118 461
6.56129 477
6.58141 535
6.60152 484
6.62164 500
6.64175 458
6.66186 465
6.68198 462
6.70209 483
6.7222 484
6.74232 490
6.76243 500
6.78255 489
6.80266 496
6.82277 484
6.84289 453
6.863 480
6.88311 551
6.90323 428
6.92334 475
6.94346 436
6.96357 508
6.98368 471
7.0038 460
7.02391 476
7.04402 465
7.06414 483
7.08425 443
7.10436 488
7.12448 500
7.14459 445
7.16471 451
7.18482 429
7.20493 491
7.22505 464
7.24516 454
7.26527 474
7.28539 477
7.3055 415
7.32562 443
7.34573 457
7.36584 490
7.38596 420
7.40607 486
7.42618 482
7.4463 471
7.46641 405
7.48653 437
7.50664 449
7.52675 461
7.54687 489
7.56698 469
7.58709 444
7.60721 404
7.62732 430
7.64743 473
7.66755 388
7.68766 439
7.70778 460
7.72789 485
7.748 462
7.76812 441
7.78823 457
7.80834 457
7.82846 452
7.84857 478
7.86869 448
7.8888 443
7.90891 460
7.92903 441
7.94914 439
7.96925 454
7.98937 482
8.00948 436
8.0296 443
8.04971 454
8.06982 458
8.08994 442
8.11005 428
8.13016 446
8.15028 466
8.17039 470
8.1905 479
8.21062 491
8.23073 410
8.25085 453
8.27096 446
8.29107 429
8.31119 420
8.3313 474
8.35141 457
8.37153 466
8.39164 413
8.41176 415
8.43187 451
8.45198 416
8.4721 455
8.49221 469
8.51232 449
8.53244 447
8.55255 474
8.57266 486
8.59278 446
8.61289 484
8.63301 490
8.65312 478
8.67323 478
8.69335 470
8.71346 481
8.73357 517
8.75369 518
8.7738 447
8.79392 508
8.81403 471
8.83414 468
8.85426 492
8.87437 436
8.89448 473
8.9146 441
8.93471 461
8.95483 451
8.97494 445
8.99505 476
9.01517 446
9.03528 474
9.05539 447
9.07551 429
9.09562 447
9.11573 446
9.13585 423
9.15596 463
9.17608 433
9.19619 431
9.2163 409
9.23642 444
9.25653 411
9.27664 431
9.29676 412
9.31687 436
9.33699 494
9.3571 422
9.37721 406
9.39733 484
9.41744 440
9.43755 462
9.45767 445
9.47778 428
9.4979 454
9.51801 417
9.53812 410
9.55824 415
9.57835 406
9.59846 410
9.61858 394
9.63869 417
9.6588 401
9.67892 429
9.69903 390
9.71915 453
9.73926 421
9.75937 441
9.77949 494
9.7996 480
9.81971 450
9.83983 451
9.85994 451
9.88006 386
9.90017 436
9.92028 446
9.9404 433
9.96051 418
9.98062 411
10.00074 410
10.02085 407
10.04097 483
10.06108 406
10.08119 398
10.10131 438
10.12142 420
10.14153 445
10.16165 412
10.18176 455
10.20187 446
10.22199 445
10.2421 415
10.26222 408
10.28233 439
10.30244 457
10.32256 481
10.34267 480
10.36278 445
10.3829 487
10.40301 536
10.42313 541
10.44324 585
10.46335 553
10.48347 587
10.50358 563
10.52369 561
10.54381 551
10.56392 455
10.58403 487
10.60415 431
10.62426 435
10.64438 446
10.66449 426
10.6846 414
10.70472 449
10.72483 430
10.74494 463
10.76506 428
10.78517 412
10.80529 471
10.8254 416
10.84551 466
10.86563 420
10.88574 433
10.90585 472
10.92597 419
10.94608 431
10.9662 418
10.98631 431
11.00642 419
11.02654 468
11.04665 447
11.06676 490
11.08688 467
11.10699 465
11.1271 425
11.14722 433
11.16733 417
11.18745 403
11.20756 453
11.22767 417
11.24779 426
11.2679 464
11.28801 405
11.30813 438
11.32824 453
11.34836 446
11.36847 417
11.38858 496
11.4087 463
11.42881 451
11.44892 464
11.46904 438
11.48915 446
11.50927 516
11.52938 497
11.54949 482
11.56961 445
11.58972 485
11.60983 448
11.62995 485
11.65006 482
11.67017 516
11.69029 473
11.7104 517
11.73052 491
11.75063 508
11.77074 526
11.79086 447
11.81097 515
11.83108 515
11.8512 466
11.87131 517
11.89143 503
11.91154 469
11.93165 477
11.95177 535
11.97188 472
11.99199 489
12.01211 494
12.03222 517
12.05234 595
12.07245 465
12.09256 543
12.11268 569
12.13279 541
12.1529 550
12.17302 592
12.19313 569
12.21324 550
12.23336 528
12.25347 567
12.27359 552
12.2937 498
12.31381 542
12.33393 519
12.35404 504
12.37415 528
12.39427 551
12.41438 470
12.4345 502
12.45461 510
12.47472 490
12.49484 486
12.51495 461
12.53506 460
12.55518 409
12.57529 436
12.5954 504
12.61552 453
12.63563 425
12.65575 447
12.67586 414
12.69597 432
12.71609 399
12.7362 375
12.75631 439
12.77643 423
12.79654 392
12.81666 416
12.83677 398
12.85688 373
12.877 398
12.89711 392
12.91722 359
12.93734 367
12.95745 394
12.97757 408
12.99768 346
13.01779 375
13.03791 359
13.05802 355
13.07813 359
13.09825 388
13.11836 395
13.13847 348
13.15859 355
13.1787 364
13.19882 386
13.21893 365
13.23904 398
13.25916 399
13.27927 391
13.29938 384
13.3195 379
13.33961 335
13.35973 350
13.37984 358
13.39995 438
13.42007 388
13.44018 395
13.46029 353
13.48041 376
13.50052 386
13.52064 378
13.54075 406
13.56086 440
13.58098 416
13.60109 462
13.6212 448
13.64132 458
13.66143 489
13.68154 487
13.70166 452
13.72177 430
13.74189 466
13.762 453
13.78211 427
13.80223 398
13.82234 459
13.84245 393
13.86257 443
13.88268 406
13.9028 424
13.92291 434
13.94302 376
13.96314 389
13.98325 356
14.00336 374
14.02348 398
14.04359 370
14.06371 390
14.08382 384
14.10393 325
14.12405 345
14.14416 356
14.16427 359
14.18439 322
14.2045 325
14.22461 340
14.24473 324
14.26484 366
14.28496 343
14.30507 346
14.32518 360
14.3453 357
14.36541 329
14.38552 314
14.40564 355
14.42575 383
14.44587 310
14.46598 305
14.48609 352
14.50621 349
14.52632 329
14.54643 354
14.56655 312
14.58666 325
14.60677 351
14.62689 363
14.647 321
14.66712 350
14.68723 364
14.70734 338
14.72746 355
14.74757 359
14.76768 330
14.7878 363
14.80791 329
14.82803 292
14.84814 364
14.86825 382
14.88837 332
14.90848 390
14.92859 310
14.94871 344
14.96882 373
14.98894 378
15.00905 366
15.02916 356
15.04928 405
15.06939 383
15.0895 393
15.10962 383
15.12973 379
15.14984 370
15.16996 344
15.19007 417
15.21019 369
15.2303 354
15.25041 381
15.27053 346
15.29064 366
15.31075 346
15.33087 349
15.35098 353
15.3711 331
15.39121 350
15.41132 332
15.43144 286
15.45155 336
15.47166 316
15.49178 331
15.51189 345
15.53201 355
15.55212 315
15.57223 311
15.59235 304
15.61246 351
15.63257 350
15.65269 353
15.6728 342
15.69291 330
15.71303 327
15.73314 336
15.75326 359
15.77337 336
15.79348 350
15.8136 332
15.83371 346
15.85382 350
15.87394 329
15.89405 354
15.91417 304
15.93428 356
15.95439 347
15.97451 359
15.99462 352
16.01473 348
16.03485 342
16.05496 316
16.07508 321
16.09519 342
16.1153 321
16.13542 304
16.15553 355
16.17564 346
16.19576 341
16.21587 315
16.23598 301
16.2561 334
16.27621 345
16.29633 347
16.31644 337
16.33655 346
16.35667 324
16.37678 326
16.39689 327
16.41701 359
16.43712 331
16.45724 357
16.47735 311
16.49746 363
16.51758 313
16.53769 314
16.5578 372
16.57792 321
16.59803 334
16.61814 325
16.63826 341
16.65837 353
16.67849 332
16.6986 347
16.71871 402
16.73883 317
16.75894 327
16.77905 335
16.79917 340
16.81928 344
16.8394 350
16.85951 335
16.87962 325
16.89974 358
16.91985 338
16.93996 305
16.96008 325
16.98019 328
17.00031 363
17.02042 313
17.04053 365
17.06065 307
17.08076 321
17.10087 351
17.12099 363
17.1411 364
17.16121 360
17.18133 338
17.20144 318
17.22156 306
17.24167 329
17.26178 320
17.2819 346
17.30201 347
17.32212 354
17.34224 325
17.36235 352
17.38247 376
17.40258 354
17.42269 352
17.44281 311
17.46292 346
17.48303 322
17.50315 332
17.52326 356
17.54338 351
17.56349 340
17.5836 333
17.60372 324
17.62383 364
17.64394 335
17.66406 352
17.68417 331
17.70428 346
17.7244 354
17.74451 373
17.76463 349
17.78474 354
17.80485 336
17.82497 315
17.84508 347
17.86519 326
17.88531 369
17.90542 325
17.92554 359
17.94565 362
17.96576 356
17.98588 384
18.00599 335
18.0261 331
18.04622 355
18.06633 346
18.08645 387
18.10656 337
18.12667 421
18.14679 393
18.1669 397
18.18701 373
18.20713 409
18.22724 349
18.24735 381
18.26747 382
18.28758 365
18.3077 386
18.32781 350
18.34792 360
18.36804 365
18.38815 346
18.40826 318
18.42838 363
18.44849 376
18.46861 346
18.48872 343
18.50883 372
18.52895 352
18.54906 353
18.56917 400
18.58929 346
18.6094 310
18.62951 349
18.64963 359
18.66974 403
18.68986 368
18.70997 328
18.73008 345
18.7502 331
18.77031 371
18.79042 366
18.81054 344
18.83065 357
18.85077 341
18.87088 395
18.89099 349
18.91111 360
18.93122 382
18.95133 394
18.97145 384
18.99156 386
19.01168 380
19.03179 360
19.0519 346
19.07202 350
19.09213 355
19.11224 384
19.13236 405
19.15247 349
19.17258 399
19.1927 400
19.21281 382
19.23293 411
19.25304 473
19.27315 424
19.29327 409
19.31338 434
19.33349 427
19.35361 429
19.37372 455
19.39384 447
19.41395 417
19.43406 428
19.45418 447
19.47429 437
19.4944 429
19.51452 454
19.53463 488
19.55475 493
19.57486 492
19.59497 514
19.61509 546
19.6352 527
19.65531 557
19.67543 535
19.69554 568
19.71565 567
19.73577 603
19.75588 589
19.776 657
19.79611 631
19.81622 696
19.83634 754
19.85645 712
19.87656 774
19.89668 740
19.91679 715
19.93691 697
19.95702 737
19.97713 731
19.99725 720
20.01736 728
20.03747 714
20.05759 708
20.0777 713
20.09782 704
20.11793 721
20.13804 670
20.15816 676
20.17827 678
20.19838 639
20.2185 648
20.23861 684
20.25872 666
20.27884 640
20.29895 665
20.31907 728
20.33918 672
20.35929 643
20.37941 643
20.39952 614
20.41963 632
20.43975 625
20.45986 632
20.47998 675
20.50009 646
20.5202 592
20.54032 649
20.56043 649
20.58054 647
20.60066 598
20.62077 633
20.64088 635
20.661 673
20.68111 685
20.70123 766
20.72134 803
20.74145 833
20.76157 884
20.78168 1085
20.80179 1261
20.82191 1409
20.84202 1351
20.86214 1403
20.88225 1273
20.90236 1120
20.92248 960
20.94259 921
20.9627 918
20.98282 873
21.00293 853
21.02305 929
21.04316 822
21.06327 760
21.08339 750
21.1035 708
21.12361 670
21.14373 643
21.16384 629
21.18395 615
21.20407 589
21.22418 637
21.2443 609
21.26441 592
21.28452 569
21.30464 648
21.32475 663
21.34486 640
21.36498 621
21.38509 647
21.40521 611
21.42532 632
21.44543 672
21.46555 632
21.48566 651
21.50577 648
21.52589 710
21.546 664
21.56612 716
21.58623 762
21.60634 679
21.62646 652
21.64657 643
21.66668 701
21.6868 610
21.70691 649
21.72702 616
21.74714 598
21.76725 632
21.78737 621
21.80748 598
21.82759 682
21.84771 659
21.86782 678
21.88793 780
21.90805 898
21.92816 937
21.94828 987
21.96839 1062
21.9885 1055
22.00862 1013
22.02873 912
22.04884 778
22.06896 707
22.08907 639
22.10919 609
22.1293 596
22.14941 584
22.16953 519
22.18964 489
22.20975 552
22.22987 511
22.24998 551
22.27009 511
22.29021 528
22.31032 572
22.33044 528
22.35055 539
22.37066 554
22.39078 559
22.41089 552
22.431 561
22.45112 581
22.47123 528
22.49135 540
22.51146 574
22.53157 605
22.55169 538
22.5718 546
22.59191 570
22.61203 540
22.63214 529
22.65225 520
22.67237 546
22.69248 547
22.7126 538
22.73271 569
22.75282 542
22.77294 607
22.79305 623
22.81316 600
22.83328 619
22.85339 625
22.87351 682
22.89362 647
22.91373 635
22.93385 664
22.95396 629
22.97407 598
22.99419 598
23.0143 584
23.03442 522
23.05453 512
23.07464 518
23.09476 551
23.11487 567
23.13498 579
23.1551 534
23.17521 573
23.19532 532
23.21544 560
23.23555 557
23.25567 539
23.27578 472
23.29589 597
23.31601 573
23.33612 588
23.35623 598
23.37635 530
23.39646 579
23.41658 572
23.43669 670
23.4568 692
23.47692 704
23.49703 778
23.51714 853
23.53726 885
23.55737 880
23.57749 951
23.5976 1019
23.61771 953
23.63783 989
23.65794 898
23.67805 963
23.69817 811
23.71828 836
23.73839 759
23.75851 696
23.77862 743
23.79874 679
23.81885 727
23.83896 707
23.85908 730
23.87919 696
23.8993 744
23.91942 719
23.93953 697
23.95965 701
23.97976 704
23.99987 696
24.01999 674
24.0401 667
24.06021 681
24.08033 636
24.10044 659
24.12056 678
24.14067 669
24.16078 652
24.1809 710
24.20101 743
24.22112 717
24.24124 739
24.26135 733
24.28146 756
24.30158 712
24.32169 691
24.34181 751
24.36192 704
24.38203 701
24.40215 674
24.42226 699
24.44237 629
24.46249 650
24.4826 658
24.50272 580
24.52283 610
24.54294 647
24.56306 627
24.58317 679
24.60328 601
24.6234 555
24.64351 675
24.66362 645
24.68374 620
24.70385 670
24.72397 619
24.74408 685
24.76419 655
24.78431 613
24.80442 633
24.82453 607
24.84465 628
24.86476 589
24.88488 630
24.90499 620
24.9251 620
24.94522 700
24.96533 621
24.98544 639
25.00556 641
25.02567 630
25.04579 634
25.0659 617
25.08601 613
25.10613 663
25.12624 624
25.14635 616
25.16647 574
25.18658 610
25.20669 602
25.22681 614
25.24692 594
25.26704 586
25.28715 563
25.30726 554
25.32738 592
25.34749 570
25.3676 579
25.38772 596
25.40783 622
25.42795 601
25.44806 650
25.46817 666
25.48829 628
25.5084 700
25.52851 753
25.54863 753
25.56874 784
25.58886 800
25.60897 795
25.62908 774
25.6492 743
25.66931 789
25.68942 720
25.70954 706
25.72965 717
25.74976 702
25.76988 661
25.78999 658
25.81011 622
25.83022 584
25.85033 583
25.87045 569
25.89056 562
25.91067 551
25.93079 543
25.9509 529
25.97102 585
25.99113 524
26.01124 512
26.03136 545
26.05147 560
26.07158 550
26.0917 531
26.11181 561
26.13193 562
26.15204 524
26.17215 574
26.19227 601
26.21238 640
26.23249 658
26.25261 634
26.27272 619
26.29283 727
26.31295 706
26.33306 798
26.35318 755
26.37329 760
26.3934 808
26.41352 902
26.43363 946
26.45374 1013
26.47386 1176
26.49397 1452
26.51409 1856
26.5342 2279
26.55431 2843
26.57443 3498
26.59454 3905
26.61465 4085
26.63477 3855
26.65488 3465
26.67499 2832
26.69511 2206
26.71522 1758
26.73534 1371
26.75545 1009
26.77556 948
26.79568 871
26.81579 825
26.8359 757
26.85602 787
26.87613 806
26.89625 835
26.91636 826
26.93647 785
26.95659 795
26.9767 800
26.99681 816
27.01693 889
27.03704 844
27.05716 866
27.07727 866
27.09738 835
27.1175 814
27.13761 731
27.15772 776
27.17784 711
27.19795 715
27.21806 639
27.23818 681
27.25829 675
27.27841 702
27.29852 811
27.31863 887
27.33875 1012
27.35886 1045
27.37897 1233
27.39909 1350
27.4192 1379
27.43932 1505
27.45943 1534
27.47954 1423
27.49966 1470
27.51977 1362
27.53988 1251
27.56 1111
27.58011 1024
27.60023 1007
27.62034 1030
27.64045 1105
27.66057 1185
27.68068 1362
27.70079 1431
27.72091 1492
27.74102 1652
27.76113 1653
27.78125 1486
27.80136 1489
27.82148 1467
27.84159 1442
27.8617 1332
27.88182 1277
27.90193 1323
27.92204 1367
27.94216 1393
27.96227 1299
27.98239 1202
28.0025 1139
28.02261 1000
28.04273 860
28.06284 769
28.08295 618
28.10307 652
28.12318 576
28.1433 623
28.16341 565
28.18352 647
28.20364 633
28.22375 613
28.24386 665
28.26398 635
28.28409 631
28.3042 655
28.32432 595
28.34443 621
28.36455 539
28.38466 536
28.40477 564
28.42489 555
28.445 549
28.46511 518
28.48523 517
28.50534 547
28.52546 480
28.54557 462
28.56568 412
28.5858 470
28.60591 432
28.62602 461
28.64614 419
28.66625 435
28.68636 434
28.70648 473
28.72659 417
28.74671 367
28.76682 452
28.78693 409
28.80705 428
28.82716 387
28.84727 457
28.86739 397
28.8875 418
28.90762 392
28.92773 413
28.94784 429
28.96796 434
28.98807 408
29.00818 421
29.0283 453
29.04841 421
29.06853 400
29.08864 380
29.10875 401
29.12887 431
29.14898 418
29.16909 428
29.18921 390
29.20932 412
29.22943 394
29.24955 419
29.26966 442
29.28978 406
29.30989 431
29.33 431
29.35012 433
29.37023 404
29.39034 463
29.41046 420
29.43057 430
29.45069 458
29.4708 458
29.49091 480
29.51103 482
29.53114 441
29.55125 498
29.57137 459
29.59148 428
29.6116 446
29.63171 538
29.65182 509
29.67194 554
29.69205 591
29.71216 636
29.73228 616
29.75239 693
29.7725 666
29.79262 668
29.81273 712
29.83285 665
29.85296 704
29.87307 625
29.89319 669
29.9133 620
29.93341 613
29.95353 635
29.97364 606
29.99376 577
30.01387 602
30.03398 585
30.0541 575
30.07421 598
30.09432 560
30.11444 629
30.13455 570
30.15467 481
30.17478 497
30.19489 548
30.21501 552
30.23512 558
30.25523 578
30.27535 645
30.29546 628
30.31557 674
30.33569 696
30.3558 636
30.37592 661
30.39603 683
30.41614 644
30.43626 623
30.45637 593
30.47648 638
30.4966 573
30.51671 525
30.53683 556
30.55694 483
30.57705 503
30.59717 498
30.61728 478
30.63739 470
30.65751 482
30.67762 568
30.69773 527
30.71785 564
30.73796 574
30.75808 580
30.77819 616
30.7983 628
30.81842 591
30.83853 542
30.85864 529
30.87876 514
30.89887 475
30.91899 477
30.9391 463
30.95921 449
30.97933 395
30.99944 439
31.01955 396
31.03967 468
31.05978 428
31.0799 361
31.10001 396
31.12012 412
31.14024 412
31.16035 426
31.18046 401
31.20058 435
31.22069 438
31.2408 452
31.26092 495
31.28103 447
31.30115 458
31.32126 510
31.34137 423
31.36149 472
31.3816 489
31.40171 449
31.42183 437
31.44194 444
31.46206 472
31.48217 396
31.50228 397
31.5224 414
31.54251 398
31.56262 408
31.58274 415
31.60285 421
31.62297 354
31.64308 400
31.66319 408
31.68331 442
31.70342 434
31.72353 404
31.74365 432
31.76376 389
31.78387 428
31.80399 428
31.8241 375
31.84422 428
31.86433 371
31.88444 352
31.90456 421
31.92467 378
31.94478 436
31.9649 375
31.98501 397
32.00513 395
32.02524 395
32.04535 379
32.06547 388
32.08558 415
32.10569 408
32.12581 416
32.14592 421
32.16604 424
32.18615 456
32.20626 458
32.22638 451
32.24649 428
32.2666 457
32.28672 450
32.30683 430
32.32694 456
32.34706 481
32.36717 436
32.38729 442
32.4074 511
32.42751 446
32.44763 429
32.46774 427
32.48785 438
32.50797 418
32.52808 466
32.5482 450
32.56831 445
32.58842 457
32.60854 421
32.62865 432
32.64876 479
32.66888 429
32.68899 416
32.7091 447
32.72922 414
32.74933 417
32.76945 397
32.78956 461
32.80967 435
32.82979 445
32.8499 426
32.87001 451
32.89013 474
32.91024 529
32.93036 536
32.95047 505
32.97058 525
32.9907 477
33.01081 511
33.03092 522
33.05104 503
33.07115 518
33.09127 509
33.11138 485
33.13149 521
33.15161 472
33.17172 451
33.19183 435
33.21195 429
33.23206 397
33.25217 400
33.27229 389
33.2924 360
33.31252 385
33.33263 427
33.35274 423
33.37286 409
33.39297 384
33.41308 401
33.4332 358
33.45331 404
33.47343 398
33.49354 384
33.51365 377
33.53377 364
33.55388 393
33.57399 358
33.59411 366
33.61422 391
33.63434 385
33.65445 413
33.67456 407
33.69468 412
33.71479 407
33.7349 418
33.75502 411
33.77513 449
33.79524 464
33.81536 432
33.83547 455
33.85559 433
33.8757 451
33.89581 416
33.91593 447
33.93604 419
33.95615 396
33.97627 428
33.99638 418
34.0165 417
34.03661 453
34.05672 429
34.07684 444
34.09695 466
34.11706 460
34.13718 494
34.15729 481
34.17741 486
34.19752 488
34.21763 507
34.23775 500
34.25786 466
34.27797 460
34.29809 518
34.3182 529
34.33831 500
34.35843 520
34.37854 569
34.39866 531
34.41877 518
34.43888 479
34.459 514
34.47911 525
34.49922 499
34.51934 508
34.53945 465
34.55957 505
34.57968 516
34.59979 478
34.61991 499
34.64002 514
34.66013 486
34.68025 499
34.70036 527
34.72047 505
34.74059 535
34.7607 517
34.78082 572
34.80093 520
34.82104 633
34.84116 610
34.86127 598
34.88138 658
34.9015 584
34.92161 598
34.94173 636
34.96184 662
34.98195 651
35.00207 743
35.02218 729
35.04229 716
35.06241 693
35.08252 754
35.10264 802
35.12275 786
35.14286 814
35.16298 795
35.18309 814
35.2032 840
35.22332 833
35.24343 869
35.26354 839
35.28366 810
35.30377 831
35.32389 802
35.344 795
35.36411 740
35.38423 781
35.40434 785
35.42445 712
35.44457 719
35.46468 715
35.4848 711
35.50491 709
35.52502 747
35.54514 701
35.56525 693
35.58536 689
35.60548 611
35.62559 707
35.64571 618
35.66582 653
35.68593 627
35.70605 604
35.72616 558
35.74627 562
35.76639 569
35.7865 545
35.80661 540
35.82673 548
35.84684 513
35.86696 522
35.88707 510
35.90718 550
35.9273 527
35.94741 530
35.96752 529
35.98764 496
36.00775 542
36.02787 529
36.04798 543
36.06809 525
36.08821 546
36.10832 537
36.12843 528
36.14855 506
36.16866 488
36.18878 472
36.20889 518
36.229 500
36.24912 525
36.26923 534
36.28934 548
36.30946 469
36.32957 539
36.34968 526
36.3698 547
36.38991 566
36.41003 601
36.43014 587
36.45025 639
36.47037 646
36.49048 744
36.51059 708
36.53071 744
36.55082 717
36.57094 658
36.59105 621
36.61116 590
36.63128 577
36.65139 521
36.6715 516
36.69162 522
36.71173 506
36.73184 529
36.75196 496
36.77207 525
36.79219 496
36.8123 494
36.83241 529
36.85253 496
36.87264 512
36.89275 485
36.91287 512
36.93298 526
36.9531 473
36.97321 524
36.99332 542
37.01344 510
37.03355 523
37.05366 518
37.07378 501
37.09389 514
37.11401 506
37.13412 543
37.15423 492
37.17435 485
37.19446 484
37.21457 471
37.23469 466
37.2548 465
37.27491 502
37.29503 501
37.31514 528
37.33526 466
37.35537 486
37.37548 524
37.3956 484
37.41571 455
37.43582 488
37.45594 492
37.47605 485
37.49617 526
37.51628 510
37.53639 523
37.55651 530
37.57662 523
37.59673 504
37.61685 535
37.63696 546
37.65708 465
37.67719 495
37.6973 459
37.71742 495
37.73753 497
37.75764 493
37.77776 439
37.79787 511
37.81798 483
37.8381 503
37.85821 498
37.87833 488
37.89844 463
37.91855 501
37.93867 459
37.95878 499
37.97889 448
37.99901 464
38.01912 464
38.03924 475
38.05935 471
38.07946 473
38.09958 480
38.11969 512
38.1398 515
38.15992 499
38.18003 482
38.20015 506
38.22026 525
38.24037 532
38.26049 500
38.2806 519
38.30071 574
38.32083 550
38.34094 540
38.36105 534
38.38117 558
38.40128 529
38.4214 512
38.44151 539
38.46162 527
38.48174 497
38.50185 506
38.52196 529
38.54208 534
38.56219 508
38.58231 521
38.60242 520
38.62253 517
38.64265 506
38.66276 474
38.68287 462
38.70299 490
38.7231 476
38.74321 460
38.76333 439
38.78344 471
38.80356 467
38.82367 476
38.84378 492
38.8639 494
38.88401 496
38.90412 462
38.92424 455
38.94435 483
38.96447 486
38.98458 503
39.00469 501
39.02481 455
39.04492 500
39.06503 471
39.08515 521
39.10526 525
39.12538 492
39.14549 507
39.1656 477
39.18572 479
39.20583 472
39.22594 511
39.24606 500
39.26617 507
39.28628 483
39.3064 525
39.32651 473
39.34663 556
39.36674 587
39.38685 559
39.40697 609
39.42708 667
39.44719 655
39.46731 600
39.48742 614
39.50754 557
39.52765 530
39.54776 533
39.56788 505
39.58799 484
39.6081 478
39.62822 441
39.64833 411
39.66845 456
39.68856 443
39.70867 417
39.72879 410
39.7489 393
39.76901 404
39.78913 381
39.80924 388
39.82935 412
39.84947 405
39.86958 425
39.8897 396
39.90981 428
39.92992 414
39.95004 421
39.97015 426
39.99026 396
40.01038 405
40.03049 411
40.05061 410
40.07072 420
40.09083 425
40.11095 415
40.13106 445
40.15117 483
40.17129 442
40.1914 510
40.21152 510
40.23163 568
40.25174 554
40.27186 535
40.29197 514
40.31208 473
40.3322 482
40.35231 539
40.37242 469
40.39254 467
40.41265 424
40.43277 448
40.45288 429
40.47299 441
40.49311 441
40.51322 447
40.53333 447
40.55345 456
40.57356 415
40.59368 398
40.61379 426
40.6339 381
40.65402 403
40.67413 435
40.69424 415
40.71436 422
40.73447 427
40.75458 436
40.7747 447
40.79481 436
40.81493 463
40.83504 446
40.85515 419
40.87527 426
40.89538 406
40.91549 415
40.93561 422
40.95572 406
40.97584 456
40.99595 395
41.01606 373
41.03618 443
41.05629 417
41.0764 404
41.09652 421
41.11663 426
41.13675 427
41.15686 416
41.17697 453
41.19709 435
41.2172 423
41.23731 419
41.25743 403
41.27754 390
41.29765 422
41.31777 400
41.33788 389
41.358 410
41.37811 421
41.39822 388
41.41834 429
41.43845 406
41.45856 443
41.47868 401
41.49879 411
41.51891 432
41.53902 462
41.55913 491
41.57925 488
41.59936 503
41.61947 553
41.63959 547
41.6597 540
41.67982 546
41.69993 530
41.72004 529
41.74016 536
41.76027 542
41.78038 478
41.8005 483
41.82061 435
41.84072 465
41.86084 474
41.88095 410
41.90107 429
41.92118 396
41.94129 407
41.96141 397
41.98152 422
42.00163 384
42.02175 367
42.04186 391
42.06198 406
42.08209 418
42.1022 405
42.12232 399
42.14243 424
42.16254 427
42.18266 441
42.20277 430
42.22289 401
42.243 422
42.26311 451
42.28323 459
42.30334 444
42.32345 515
42.34357 525
42.36368 477
42.38379 544
42.40391 590
42.42402 583
42.44414 551
42.46425 554
42.48436 507
42.50448 503
42.52459 481
42.5447 468
42.56482 480
42.58493 444
42.60505 427
42.62516 425
42.64527 429
42.66539 426
42.6855 441
42.70561 450
42.72573 433
42.74584 461
42.76595 447
42.78607 489
42.80618 482
42.8263 455
42.84641 480
42.86652 483
42.88664 475
42.90675 494
42.92686 424
42.94698 422
42.96709 446
42.98721 404
43.00732 432
43.02743 432
43.04755 455
43.06766 380
43.08777 392
43.10789 419
43.128 394
43.14812 351
43.16823 401
43.18834 426
43.20846 374
43.22857 362
43.24868 367
43.2688 386
43.28891 368
43.30902 357
43.32914 370
43.34925 381
43.36937 343
43.38948 326
43.40959 340
43.42971 387
43.44982 354
43.46993 330
43.49005 375
43.51016 368
43.53028 411
43.55039 331
43.5705 392
43.59062 383
43.61073 372
43.63084 379
43.65096 367
43.67107 369
43.69119 366
43.7113 374
43.73141 384
43.75153 353
43.77164 392
43.79175 366
43.81187 378
43.83198 363
43.85209 382
43.87221 353
43.89232 387
43.91244 355
43.93255 384
43.95266 346
43.97278 375
43.99289 380
44.013 379
44.03312 385
44.05323 374
44.07335 374
44.09346 413
44.11357 375
44.13369 376
44.1538 345
44.17391 390
44.19403 359
44.21414 409
44.23426 401
44.25437 345
44.27448 401
44.2946 375
44.31471 368
44.33482 352
44.35494 344
44.37505 386
44.39516 354
44.41528 326
44.43539 379
44.45551 355
44.47562 390
44.49573 405
44.51585 371
44.53596 397
44.55607 374
44.57619 340
44.5963 355
44.61642 342
44.63653 375
44.65664 364
44.67676 397
44.69687 415
44.71698 391
44.7371 376
44.75721 406
44.77732 383
44.79744 432
44.81755 409
44.83767 414
44.85778 364
44.87789 381
44.89801 397
44.91812 419
44.93823 416
44.95835 383
44.97846 368
44.99858 386
45.01869 408
45.0388 367
45.05892 417
45.07903 399
45.09914 391
45.11926 405
45.13937 429
45.15949 381
45.1796 393
45.19971 379
45.21983 389
45.23994 410
45.26005 436
45.28017 411
45.30028 381
45.32039 417
45.34051 346
45.36062 407
45.38074 386
45.40085 394
45.42096 425
45.44108 406
45.46119 403
45.4813 396
45.50142 392
45.52153 382
45.54165 404
45.56176 386
45.58187 417
45.60199 438
45.6221 428
45.64221 427
45.66233 444
45.68244 445
45.70256 467
45.72267 456
45.74278 481
45.7629 491
45.78301 465
45.80312 482
45.82324 452
45.84335 459
45.86346 497
45.88358 466
45.90369 461
45.92381 409
45.94392 407
45.96403 434
45.98415 388
46.00426 385
46.02437 396
46.04449 378
46.0646 398
46.08472 377
46.10483 385
46.12494 381
46.14506 410
46.16517 382
46.18528 401
46.2054 394
46.22551 422
46.24563 371
46.26574 383
46.28585 392
46.30597 366
46.32608 368
46.34619 389
46.36631 364
46.38642 357
46.40653 359
46.42665 390
46.44676 371
46.46688 366
46.48699 384
46.5071 357
46.52722 423
46.54733 378
46.56744 381
46.58756 393
46.60767 356
46.62779 381
46.6479 381
46.66801 376
46.68813 416
46.70824 341
46.72835 406
46.74847 394
46.76858 373
46.78869 416
46.80881 391
46.82892 386
46.84904 401
46.86915 416
46.88926 405
46.90938 382
46.92949 343
46.9496 363
46.96972 329
46.98983 397
47.00995 353
47.03006 350
47.05017 387
47.07029 404
47.0904 384
47.11051 433
47.13063 372
47.15074 395
47.17086 380
47.19097 401
47.21108 375
47.2312 388
47.25131 407
47.27142 376
47.29154 373
47.31165 379
47.33176 406
47.35188 387
47.37199 413
47.39211 419
47.41222 413
47.43233 399
47.45245 402
47.47256 422
47.49267 414
47.51279 429
47.5329 393
47.55302 404
47.57313 430
47.59324 392
47.61336 406
47.63347 394
47.65358 392
47.6737 395
47.69381 415
47.71393 400
47.73404 376
47.75415 394
47.77427 408
47.79438 360
47.81449 386
47.83461 364
47.85472 396
47.87483 366
47.89495 370
47.91506 374
47.93518 374
47.95529 358
47.9754 379
47.99552 359
48.01563 348
48.03574 379
48.05586 377
48.07597 408
48.09609 395
48.1162 360
48.13631 356
48.15643 365
48.17654 362
48.19665 420
48.21677 417
48.23688 424
48.257 412
48.27711 387
48.29722 381
48.31734 379
48.33745 361
48.35756 382
48.37768 397
48.39779 389
48.4179 382
48.43802 411
48.45813 415
48.47825 387
48.49836 403
48.51847 402
48.53859 409
48.5587 370
48.57881 350
48.59893 388
48.61904 420
48.63916 385
48.65927 381
48.67938 353
48.6995 395
48.71961 367
48.73972 383
48.75984 386
48.77995 380
48.80006 378
48.82018 360
48.84029 398
48.86041 390
48.88052 388
48.90063 388
48.92075 378
48.94086 350
48.96097 389
48.98109 423
49.0012 434
49.02132 400
49.04143 429
49.06154 480
49.08166 448
49.10177 426
49.12188 422
49.142 442
49.16211 453
49.18223 423
49.20234 449
49.22245 412
49.24257 406
49.26268 465
49.28279 426
49.30291 393
49.32302 406
49.34313 372
49.36325 411
49.38336 409
49.40348 422
49.42359 435
49.4437 388
49.46382 401
49.48393 378
49.50404 426
49.52416 429
49.54427 376
49.56439 401
49.5845 406
49.60461 385
49.62473 423
49.64484 408
49.66495 408
49.68507 422
49.70518 419
49.7253 442
49.74541 430
49.76552 441
49.78564 447
49.80575 463
49.82586 481
49.84598 448
49.86609 458
49.8862 466
49.90632 504
49.92643 454
49.94655 504
49.96666 517
49.98677 498
50.00689 561
50.027 631
50.04711 696
50.06723 757
50.08734 705
50.10746 731
50.12757 672
50.14768 627
50.1678 547
50.18791 561
50.20802 528
50.22814 512
50.24825 543
50.26837 489
50.28848 464
50.30859 393
50.32871 392
50.34882 387
50.36893 371
50.38905 363
50.40916 380
50.42927 447
50.44939 420
50.4695 447
50.48962 465
50.50973 442
50.52984 509
50.54996 464
50.57007 481
50.59018 509
50.6103 477
50.63041 520
50.65053 513
50.67064 534
50.69075 503
50.71087 502
50.73098 468
50.75109 462
50.77121 449
50.79132 479
50.81143 477
50.83155 464
50.85166 449
50.87178 476
50.89189 450
50.912 478
50.93212 446
50.95223 448
50.97234 410
50.99246 422
51.01257 417
51.03269 464
51.0528 409
51.07291 427
51.09303 401
51.11314 395
51.13325 423
51.15337 395
51.17348 443
51.1936 424
51.21371 435
51.23382 411
51.25394 415
51.27405 439
51.29416 433
51.31428 407
51.33439 429
51.3545 419
51.37462 384
51.39473 397
51.41485 398
51.43496 385
51.45507 372
51.47519 390
51.4953 407
51.51541 399
51.53553 382
51.55564 322
51.57576 371
51.59587 364
51.61598 325
51.6361 333
51.65621 328
51.67632 351
51.69644 333
51.71655 354
51.73667 378
51.75678 340
51.77689 335
51.79701 328
51.81712 347
51.83723 325
51.85735 334
51.87746 351
51.89757 337
51.91769 357
51.9378 333
51.95792 373
51.97803 369
51.99814 369
52.01826 339
52.03837 326
52.05848 337
52.0786 341
52.09871 352
52.11883 372
52.13894 369
52.15905 355
52.17917 352
52.19928 370
52.21939 334
52.23951 354
52.25962 394
52.27974 352
52.29985 354
52.31996 356
52.34008 330
52.36019 357
52.3803 381
52.40042 361
52.42053 389
52.44064 343
52.46076 374
52.48087 368
52.50099 331
52.5211 334
52.54121 349
52.56133 403
52.58144 389
52.60155 423
52.62167 364
52.64178 392
52.6619 339
52.68201 387
52.70212 382
52.72224 390
52.74235 387
52.76246 382
52.78258 396
52.80269 405
52.8228 409
52.84292 400
52.86303 372
52.88315 344
52.90326 422
52.92337 379
52.94349 421
52.9636 396
52.98371 398
53.00383 417
53.02394 413
53.04406 419
53.06417 378
53.08428 433
53.1044 399
53.12451 389
53.14462 394
53.16474 421
53.18485 406
53.20497 396
53.22508 385
53.24519 389
53.26531 406
53.28542 369
53.30553 395
53.32565 396
53.34576 446
53.36587 380
53.38599 380
53.4061 383
53.42622 385
53.44633 397
53.46644 405
53.48656 369
53.50667 345
53.52678 411
53.5469 357
53.56701 399
53.58713 375
53.60724 354
53.62735 375
53.64747 381
53.66758 368
53.68769 372
53.70781 388
53.72792 410
53.74804 392
53.76815 440
53.78826 420
53.80838 438
53.82849 422
53.8486 414
53.86872 383
53.88883 423
53.90894 415
53.92906 439
53.94917 414
53.96929 440
53.9894 409
54.00951 404
54.02963 434
54.04974 440
54.06985 456
54.08997 436
54.11008 410
54.1302 417
54.15031 418
54.17042 422
54.19054 416
54.21065 417
54.23076 409
54.25088 429
54.27099 390
54.29111 460
54.31122 442
54.33133 464
54.35145 445
54.37156 439
54.39167 430
54.41179 406
54.4319 418
54.45201 432
54.47213 435
54.49224 409
54.51236 446
54.53247 413
54.55258 390
54.5727 425
54.59281 414
54.61292 438
54.63304 443
54.65315 409
54.67327 423
54.69338 450
54.71349 431
54.73361 439
54.75372 461
54.77383 525
54.79395 528
54.81406 531
54.83417 545
54.85429 522
54.8744 518
54.89452 509
54.91463 470
54.93474 485
54.95486 460
54.97497 472
54.99508 423
55.0152 432
55.03531 444
55.05543 428
55.07554 477
55.09565 440
55.11577 435
55.13588 411
55.15599 395
55.17611 436
55.19622 430
55.21634 440
55.23645 433
55.25656 448
55.27668 422
55.29679 431
55.3169 428
55.33702 441
55.35713 426
55.37724 400
55.39736 396
55.41747 423
55.43759 434
55.4577 439
55.47781 439
55.49793 417
55.51804 451
55.53815 359
55.55827 394
55.57838 399
55.5985 396
55.61861 387
55.63872 400
55.65884 358
55.67895 380
55.69906 410
55.71918 405
55.73929 399
55.75941 406
55.77952 377
55.79963 386
55.81975 367
55.83986 368
55.85997 407
55.88009 395
55.9002 371
55.92031 396
55.94043 352
55.96054 380
55.98066 368
56.00077 357
56.02088 394
56.041 384
56.06111 392
56.08122 395
56.10134 404
56.12145 404
56.14157 371
56.16168 371
56.18179 389
56.20191 417
56.22202 392
56.24213 375
56.26225 433
56.28236 355
56.30248 371
56.32259 382
56.3427 415
56.36282 419
56.38293 399
56.40304 371
56.42316 411
56.44327 382
56.46338 372
56.4835 385
56.50361 396
56.52373 375
56.54384 373
56.56395 419
56.58407 391
56.60418 399
56.62429 423
56.64441 404
56.66452 432
56.68464 392
56.70475 396
56.72486 379
56.74498 418
56.76509 402
56.7852 420
56.80532 405
56.82543 372
56.84554 388
56.86566 393
56.88577 410
56.90589 394
56.926 387
56.94611 384
56.96623 390
56.98634 368
57.00645 383
57.02657 410
57.04668 395
57.0668 378
57.08691 349
57.10702 384
57.12714 396
57.14725 403
57.16736 377
57.18748 374
57.20759 365
57.22771 357
57.24782 365
57.26793 339
57.28805 370
57.30816 370
57.32827 373
57.34839 405
57.3685 386
57.38861 373
57.40873 350
57.42884 381
57.44896 368
57.46907 371
57.48918 348
57.5093 385
57.52941 386
57.54952 385
57.56964 345
57.58975 356
57.60987 373
57.62998 371
57.65009 374
57.67021 354
57.69032 377
57.71043 403
57.73055 405
57.75066 348
57.77078 371
57.79089 372
57.811 363
57.83112 361
57.85123 383
57.87134 391
57.89146 361
57.91157 370
57.93168 390
57.9518 380
57.97191 345
57.99203 362
58.01214 383
58.03225 372
58.05237 355
58.07248 368
58.09259 333
58.11271 340
58.13282 349
58.15294 332
58.17305 367
58.19316 385
58.21328 372
58.23339 374
58.2535 391
58.27362 344
58.29373 362
58.31385 378
58.33396 356
58.35407 355
58.37419 368
58.3943 415
58.41441 355
58.43453 349
58.45464 353
58.47475 413
58.49487 391
58.51498 368
58.5351 373
58.55521 392
58.57532 342
58.59544 373
58.61555 394
58.63566 385
58.65578 388
58.67589 370
58.69601 385
58.71612 381
58.73623 399
58.75635 362
58.77646 353
58.79657 343
58.81669 381
58.8368 319
58.85691 376
58.87703 340
58.89714 394
58.91726 373
58.93737 346
58.95748 327
58.9776 317
58.99771 357
59.01782 358
59.03794 379
59.05805 323
59.07817 358
59.09828 375
59.11839 353
59.13851 379
59.15862 379
59.17873 360
59.19885 351
59.21896 349
59.23908 399
59.25919 362
59.2793 362
59.29942 297
59.31953 366
59.33964 388
59.35976 367
59.37987 371
59.39998 372
59.4201 357
59.44021 337
59.46033 377
59.48044 373
59.50055 355
59.52067 378
59.54078 353
59.56089 379
59.58101 353
59.60112 366
59.62124 391
59.64135 381
59.66146 359
59.68158 371
59.70169 413
59.7218 379
59.74192 394
59.76203 432
59.78215 408
59.80226 494
59.82237 504
59.84249 561
59.8626 577
59.88271 600
59.90283 605
59.92294 602
59.94305 556
59.96317 540
59.98328 487
60.0034 485
60.02351 459
60.04362 500
60.06374 463
60.08385 489
60.10396 497
60.12408 493
60.14419 448
60.16431 379
60.18442 433
60.20453 445
60.22465 421
60.24476 392
60.26487 408
60.28499 418
60.3051 381
60.32522 402
60.34533 412
60.36544 363
60.38556 404
60.40567 383
60.42578 368
60.4459 379
60.46601 394
60.48612 350
60.50624 372
60.52635 359
60.54647 353
60.56658 371
60.58669 375
60.60681 376
60.62692 398
60.64703 390
60.66715 359
60.68726 422
60.70738 365
60.72749 390
60.7476 345
60.76772 393
60.78783 377
60.80794 388
60.82806 374
60.84817 383
60.86828 369
60.8884 346
60.90851 397
60.92863 373
60.94874 410
60.96885 361
60.98897 391
61.00908 361
61.02919 379
61.04931 357
61.06942 410
61.08954 387
61.10965 376
61.12976 368
61.14988 407
61.16999 404
61.1901 343
61.21022 385
61.23033 369
61.25045 385
61.27056 406
61.29067 388
61.31079 425
61.3309 420
61.35101 397
61.37113 360
61.39124 403
61.41135 387
61.43147 383
61.45158 401
61.4717 361
61.49181 414
61.51192 397
61.53204 415
61.55215 418
61.57226 400
61.59238 401
61.61249 407
61.63261 408
61.65272 440
61.67283 408
61.69295 409
61.71306 430
61.73317 408
61.75329 409
61.7734 446
61.79352 429
61.81363 432
61.83374 462
61.85386 445
61.87397 438
61.89408 453
61.9142 496
61.93431 492
61.95442 457
61.97454 468
61.99465 482
62.01477 510
62.03488 502
62.05499 500
62.07511 509
62.09522 492
62.11533 514
62.13545 560
62.15556 533
62.17568 528
62.19579 553
62.2159 578
62.23602 546
62.25613 559
62.27624 509
62.29636 530
62.31647 541
62.33659 482
62.3567 537
62.37681 552
62.39693 495
62.41704 468
62.43715 478
62.45727 513
62.47738 485
62.49749 457
62.51761 486
62.53772 505
62.55784 479
62.57795 456
62.59806 468
62.61818 422
62.63829 467
62.6584 439
62.67852 423
62.69863 456
62.71875 435
62.73886 395
62.75897 420
62.77909 416
62.7992 410
62.81931 422
62.83943 408
62.85954 409
62.87965 374
62.89977 388
62.91988 399
62.94 411
62.96011 388
62.98022 408
63.00034 390
63.02045 420
63.04056 360
63.06068 373
63.08079 389
63.10091 407
63.12102 415
63.14113 445
63.16125 392
63.18136 383
63.20147 367
63.22159 395
63.2417 412
63.26182 399
63.28193 373
63.30204 380
63.32216 416
63.34227 376
63.36238 384
63.3825 393
63.40261 377
63.42272 393
63.44284 385
63.46295 375
63.48307 410
63.50318 416
63.52329 439
63.54341 392
63.56352 406
63.58363 427
63.60375 384
63.62386 406
63.64398 400
63.66409 391
63.6842 412
63.70432 442
63.72443 441
63.74454 431
63.76466 441
63.78477 441
63.80489 471
63.825 417
63.84511 474
63.86523 467
63.88534 454
63.90545 441
63.92557 438
63.94568 439
63.96579 462
63.98591 447
64.00602 453
64.02614 456
64.04625 401
64.06636 402
64.08648 421
64.10659 438
64.1267 426
64.14682 414
64.16693 422
64.18705 409
64.20716 400
64.22727 363
64.24739 398
64.2675 404
64.28761 382
64.30773 408
64.32784 367
64.34796 376
64.36807 350
64.38818 393
64.4083 397
64.42841 357
64.44852 355
64.46864 374
64.48875 383
64.50886 376
64.52898 354
64.54909 340
64.56921 366
64.58932 360
64.60943 365
64.62955 343
64.64966 358
64.66977 360
64.68989 359
64.71 353
64.73012 336
64.75023 376
64.77034 383
64.79046 385
64.81057 349
64.83068 339
64.8508 383
64.87091 386
64.89102 377
64.91114 363
64.93125 356
64.95137 384
64.97148 362
64.99159 332
65.01171 356
65.03182 348
65.05193 363
65.07205 343
65.09216 381
65.11228 362
65.13239 326
65.1525 348
65.17262 373
65.19273 364
65.21284 407
65.23296 385
65.25307 399
65.27319 374
65.2933 356
65.31341 410
65.33353 371
65.35364 352
65.37375 380
65.39387 386
65.41398 372
65.43409 364
65.45421 364
65.47432 358
65.49444 365
65.51455 364
65.53466 360
65.55478 346
65.57489 388
65.595 367
65.61512 372
65.63523 337
65.65535 378
65.67546 357
65.69557 339
65.71569 388
65.7358 357
65.75591 300
65.77603 357
65.79614 357
65.81626 348
65.83637 347
65.85648 372
65.8766 315
65.89671 355
65.91682 364
65.93694 379
65.95705 354
65.97716 353
65.99728 344
66.01739 360
66.03751 368
66.05762 378
66.07773 343
66.09785 344
66.11796 373
66.13807 374
66.15819 357
66.1783 347
66.19842 362
66.21853 328
66.23864 351
66.25876 330
66.27887 353
66.29898 361
66.3191 354
66.33921 362
66.35933 342
66.37944 341
66.39955 346
66.41967 335
66.43978 328
66.45989 341
66.48001 321
66.50012 333
66.52023 325
66.54035 349
66.56046 307
66.58058 362
66.60069 338
66.6208 332
66.64092 329
66.66103 342
66.68114 342
66.70126 347
66.72137 325
66.74149 331
66.7616 335
66.78171 297
66.80183 355
66.82194 351
66.84205 349
66.86217 350
66.88228 340
66.90239 328
66.92251 353
66.94262 338
66.96274 356
66.98285 355
67.00296 320
67.02308 336
67.04319 325
67.0633 354
67.08342 357
67.10353 341
67.12365 331
67.14376 366
67.16387 369
67.18399 334
67.2041 332
67.22421 338
67.24433 337
67.26444 340
67.28456 319
67.30467 311
67.32478 310
67.3449 355
67.36501 376
67.38512 339
67.40524 363
67.42535 338
67.44546 338
67.46558 347
67.48569 354
67.50581 375
67.52592 392
67.54603 390
67.56615 406
67.58626 417
67.60637 442
67.62649 492
67.6466 475
67.66672 472
67.68683 475
67.70694 487
67.72706 461
67.74717 460
67.76728 448
67.7874 421
67.80751 439
67.82763 444
67.84774 420
67.86785 445
67.88797 449
67.90808 466
67.92819 463
67.94831 418
67.96842 432
67.98853 448
68.00865 465
68.02876 452
68.04888 505
68.06899 548
68.0891 549
68.10922 544
68.12933 518
68.14944 517
68.16956 519
68.18967 475
68.20979 501
68.2299 507
68.25001 530
68.27013 514
68.29024 529
68.31035 505
68.33047 462
68.35058 442
68.3707 474
68.39081 425
68.41092 425
68.43104 420
68.45115 392
68.47126 400
68.49138 394
68.51149 400
68.5316 357
68.55172 362
68.57183 361
68.59195 380
68.61206 407
68.63217 324
68.65229 328
68.6724 356
68.69251 358
68.71263 367
68.73274 362
68.75286 334
68.77297 352
68.79308 335
68.8132 364
68.83331 349
68.85342 346
68.87354 374
68.89365 335
68.91376 360
68.93388 343
68.95399 354
68.97411 328
68.99422 329
69.01433 342
69.03445 373
69.05456 359
69.07467 364
69.09479 335
69.1149 369
69.13502 363
69.15513 344
69.17524 369
69.19536 330
69.21547 363
69.23558 346
69.2557 365
69.27581 401
69.29593 383
69.31604 364
69.33615 339
69.35627 359
69.37638 351
69.39649 384
69.41661 345
69.43672 352
69.45683 359
69.47695 317
69.49706 327
69.51718 343
69.53729 360
69.5574 353
69.57752 358
69.59763 374
69.61774 358
69.63786 353
69.65797 352
69.67809 341
69.6982 356
69.71831 354
69.73843 340
69.75854 350
69.77865 321
69.79877 356
69.81888 349
69.839 379
69.85911 354
69.87922 329
69.89934 366
69.91945 380
69.93956 336
69.95968 339
69.97979 332
69.9999 351
70.02002 326
70.04013 338
70.06025 347
70.08036 329
70.10047 322
70.12059 346
70.1407 335
70.16081 324
70.18093 331
70.20104 340
70.22116 320
70.24127 372
70.26138 349
70.2815 327
70.30161 329
70.32172 322
70.34184 359
70.36195 311
70.38207 354
70.40218 303
70.42229 335
70.44241 294
70.46252 361
70.48263 330
70.50275 314
70.52286 320
70.54297 316
70.56309 337
70.5832 313
70.60332 333
70.62343 333
70.64354 315
70.66366 315
70.68377 326
70.70388 347
70.724 311
70.74411 308
70.76423 308
70.78434 349
70.80445 341
70.82457 321
70.84468 326
70.86479 338
70.88491 349
70.90502 315
70.92513 335
70.94525 362
70.96536 336
70.98548 340
71.00559 343
71.0257 340
71.04582 335
71.06593 341
71.08604 328
71.10616 347
71.12627 338
71.14639 364
71.1665 317
71.18661 336
71.20673 356
71.22684 342
71.24695 332
71.26707 367
71.28718 347
71.3073 378
71.32741 383
71.34752 372
71.36764 341
71.38775 364
71.40786 326
71.42798 339
71.44809 354
71.4682 316
71.48832 352
71.50843 327
71.52855 364
71.54866 344
71.56877 339
71.58889 354
71.609 328
71.62911 350
71.64923 380
71.66934 342
71.68946 325
71.70957 335
71.72968 358
71.7498 337
71.76991 340
71.79002 342
71.81014 342
71.83025 340
71.85037 365
71.87048 339
71.89059 347
71.91071 347
71.93082 333
71.95093 331
71.97105 331
71.99116 350
72.01127 330
72.03139 306
72.0515 341
72.07162 303
72.09173 353
72.11184 357
72.13196 339
72.15207 319
72.17218 337
72.1923 324
72.21241 325
72.23253 333
72.25264 341
72.27275 306
72.29287 322
72.31298 353
72.33309 347
72.35321 343
72.37332 366
72.39344 306
72.41355 311
72.43366 359
72.45378 339
72.47389 359
72.494 320
72.51412 369
72.53423 327
72.55434 370
72.57446 341
72.59457 381
72.61469 343
72.6348 348
72.65491 336
72.67503 365
72.69514 350
72.71525 352
72.73537 350
72.75548 323
72.7756 336
72.79571 346
72.81582 340
72.83594 338
72.85605 364
72.87616 360
72.89628 337
72.91639 322
72.9365 356
72.95662 331
72.97673 335
72.99685 324
73.01696 367
73.03707 369
73.05719 327
73.0773 345
73.09741 348
73.11753 352
73.13764 343
73.15776 342
73.17787 361
73.19798 354
73.2181 348
73.23821 358
73.25832 360
73.27844 358
73.29855 388
73.31867 373
73.33878 371
73.35889 392
73.37901 369
73.39912 393
73.41923 415
73.43935 387
73.45946 382
73.47957 388
73.49969 376
73.5198 372
73.53992 389
73.56003 355
73.58014 413
73.60026 381
73.62037 381
73.64048 352
73.6606 369
73.68071 398
73.70083 355
73.72094 387
73.74105 348
73.76117 382
73.78128 376
73.80139 329
73.82151 379
73.84162 360
73.86174 356
73.88185 375
73.90196 382
73.92208 343
73.94219 351
73.9623 352
73.98242 358
74.00253 358
74.02264 363
74.04276 373
74.06287 357
74.08299 371
74.1031 355
74.12321 356
74.14333 365
74.16344 369
74.18355 358
74.20367 345
74.22378 382
74.2439 334
74.26401 391
74.28412 376
74.30424 365
74.32435 352
74.34446 347
74.36458 344
74.38469 355
74.40481 322
74.42492 365
74.44503 408
74.46515 386
74.48526 380
74.50537 372
74.52549 393
74.5456 367
74.56571 348
74.58583 380
74.60594 369
74.62606 392
74.64617 374
74.66628 347
74.6864 381
74.70651 365
74.72662 316
74.74674 345
74.76685 337
74.78697 358
74.80708 373
74.82719 341
74.84731 332
74.86742 359
74.88753 358
74.90765 327
74.92776 363
74.94787 364
74.96799 366
74.9881 335
75.00822 323
