3.00117 19716
3.02128 19562
3.0414 18863
3.06151 18085
3.08162 17941
3.10174 17175
3.12185 17095
3.14197 16439
3.16208 16149
3.18219 15289
3.20231 14915
3.22242 14910
3.24253 14145
3.26265 13855
3.28276 13323
3.30288 12894
3.32299 12449
3.3431 12069
3.36322 12038
3.38333 11467
3.40344 10953
3.42356 10753
3.44367 10294
3.46379 9818
3.4839 9680
3.50401 9264
3.52413 9208
3.54424 8697
3.56435 8507
3.58447 8247
3.60458 7840
3.62469 7809
3.64481 7198
3.66492 7177
3.68504 6892
3.70515 6197
3.72526 6575
3.74538 6025
3.76549 5853
3.7856 5764
3.80572 5323
3.82583 5342
3.84595 4853
3.86606 4776
3.88617 4694
3.90629 4403
3.9264 4401
3.94651 4054
3.96663 3885
3.98674 3691
4.00686 3565
4.02697 3620
4.04708 3211
4.0672 3172
4.08731 3082
4.10742 2947
4.12754 2813
4.14765 2782
4.16776 2736
4.18788 2517
4.20799 2414
4.22811 2476
4.24822 2310
4.26833 2122
4.28845 2178
4.30856 1995
4.32867 2078
4.34879 2060
4.3689 1888
4.38902 1925
4.40913 1852
4.42924 1850
4.44936 1835
4.46947 1696
4.48958 1733
4.5097 1698
4.52981 1577
4.54992 1687
4.57004 1613
4.59015 1480
4.61027 1547
4.63038 1548
4.65049 1477
4.67061 1462
4.69072 1400
4.71083 1382
4.73095 1416
4.75106 1350
4.77118 1319
4.79129 1249
4.8114 1287
4.83152 1250
4.85163 1311
4.87174 1137
4.89186 1194
4.91197 1176
4.93209 1182
4.9522 1152
4.97231 1063
4.99243 1102
5.01254 1060
5.03265 1099
5.05277 1096
5.07288 1058
5.09299 1030
5.11311 1010
5.13322 980
5.15334 1048
5.17345 965
5.19356 956
5.21368 1046
5.23379 934
5.2539 934
5.27402 914
5.29413 839
5.31425 933
5.33436 824
5.35447 889
5.37459 807
5.3947 772
5.41481 777
5.43493 759
5.45504 839
5.47516 773
5.49527 811
5.51538 759
5.5355 777
5.55561 810
5.57572 741
5.59584 738
5.61595 740
5.63606 693
5.65618 699
5.67629 742
5.69641 722
5.71652 749
5.73663 703
5.75675 672
5.77686 679
5.79697 716
5.81709 671
5.8372 656
5.85732 677
5.87743 690
5.89754 674
5.91766 645
5.93777 705
5.95788 674
5.978 695
5.99811 654
6.01823 684
6.03834 646
6.05845 638
6.07857 659
6.09868 640
6.11879 673
6.13891 691
6.15902 658
6.17913 621
6.19925 623
6.21936 609
6.23948 620
6.25959 665
6.2797 605
6.29982 635
6.31993 631
6.34004 623
6.36016 621
6.38027 597
6.40039 622
6.4205 606
6.44061 608
6.46073 614
6.48084 556
6.50095 646
6.52107 599
6.54118 552
6.56129 571
6.58141 587
6.60152 583
6.62164 579
6.64175 612
6.66186 580
6.68198 587
6.70209 586
6.7222 593
6.74232 579
6.76243 573
6.78255 589
6.80266 562
6.82277 608
6.84289 586
6.863 636
6.88311 568
6.90323 565
6.92334 570
6.94346 619
6.96357 589
6.98368 636
7.0038 662
7.02391 635
7.04402 613
7.06414 589
7.08425 658
7.10436 612
7.12448 608
7.14459 641
7.16471 637
7.18482 608
7.20493 631
7.22505 644
7.24516 628
7.26527 619
7.28539 649
7.3055 626
7.32562 635
7.34573 613
7.36584 625
7.38596 650
7.40607 623
7.42618 615
7.4463 638
7.46641 637
7.48653 641
7.50664 621
7.52675 648
7.54687 615
7.56698 639
7.58709 619
7.60721 629
7.62732 575
7.64743 590
7.66755 596
7.68766 618
7.70778 598
7.72789 637
7.748 595
7.76812 601
7.78823 636
7.80834 573
7.82846 642
7.84857 572
7.86869 629
7.8888 591
7.90891 562
7.92903 573
7.94914 596
7.96925 616
7.98937 605
8.00948 603
8.0296 585
8.04971 591
8.06982 612
8.08994 638
8.11005 570
8.13016 583
8.15028 541
8.17039 594
8.1905 531
8.21062 534
8.23073 604
8.25085 596
8.27096 568
8.29107 561
8.31119 562
8.3313 583
8.35141 559
8.37153 577
8.39164 587
8.41176 590
8.43187 583
8.45198 554
8.4721 592
8.49221 589
8.51232 572
8.53244 598
8.55255 552
8.57266 624
8.59278 573
8.61289 599
8.63301 589
8.65312 583
8.67323 581
8.69335 594
8.71346 597
8.73357 653
8.75369 635
8.7738 682
8.79392 706
8.81403 664
8.83414 724
8.85426 695
8.87437 641
8.89448 628
8.9146 648
8.93471 592
8.95483 586
8.97494 567
8.99505 576
9.01517 602
9.03528 611
9.05539 564
9.07551 545
9.09562 559
9.11573 520
9.13585 576
9.15596 567
9.17608 479
9.19619 518
9.2163 575
9.23642 535
9.25653 485
9.27664 583
9.29676 538
9.31687 524
9.33699 522
9.3571 515
9.37721 505
9.39733 518
9.41744 530
9.43755 552
9.45767 489
9.47778 483
9.4979 509
9.51801 515
9.53812 561
9.55824 519
9.57835 512
9.59846 546
9.61858 563
9.63869 527
9.6588 575
9.67892 535
9.69903 505
9.71915 546
9.73926 567
9.75937 484
9.77949 540
9.7996 548
9.81971 516
9.83983 554
9.85994 485
9.88006 507
9.90017 516
9.92028 578
9.9404 529
9.96051 543
9.98062 507
10.00074 525
10.02085 521
10.04097 497
10.06108 562
10.08119 533
10.10131 522
10.12142 472
10.14153 532
10.16165 542
10.18176 508
10.20187 507
10.22199 511
10.2421 495
10.26222 533
10.28233 529
10.30244 522
10.32256 550
10.34267 527
10.36278 493
10.3829 537
10.40301 474
10.42313 501
10.44324 502
10.46335 486
10.48347 497
10.50358 504
10.52369 500
10.54381 558
10.56392 461
10.58403 505
10.60415 533
10.62426 515
10.64438 500
10.66449 481
10.6846 473
10.70472 505
10.72483 556
10.74494 516
10.76506 496
10.78517 523
10.80529 560
10.8254 502
10.84551 568
10.86563 560
10.88574 525
10.90585 564
10.92597 527
10.94608 576
10.9662 543
10.98631 533
11.00642 538
11.02654 537
11.04665 521
11.06676 526
11.08688 558
11.10699 478
11.1271 514
11.14722 554
11.16733 568
11.18745 566
11.20756 564
11.22767 522
11.24779 546
11.2679 516
11.28801 569
11.30813 569
11.32824 562
11.34836 554
11.36847 585
11.38858 572
11.4087 563
11.42881 588
11.44892 581
11.46904 563
11.48915 557
11.50927 580
11.52938 559
11.54949 566
11.56961 642
11.58972 562
11.60983 624
11.62995 606
11.65006 637
11.67017 647
11.69029 615
11.7104 605
11.73052 636
11.75063 662
11.77074 650
11.79086 697
11.81097 655
11.83108 696
11.8512 700
11.87131 729
11.89143 732
11.91154 778
11.93165 788
11.95177 785
11.97188 828
11.99199 907
12.01211 802
12.03222 958
12.05234 963
12.07245 984
12.09256 1030
12.11268 1055
12.13279 1044
12.1529 1164
12.17302 1126
12.19313 1196
12.21324 1293
12.23336 1185
12.25347 1227
12.27359 1249
12.2937 1308
12.31381 1236
12.33393 1225
12.35404 1178
12.37415 1182
12.39427 1119
12.41438 1072
12.4345 986
12.45461 912
12.47472 879
12.49484 897
12.51495 843
12.53506 781
12.55518 744
12.57529 681
12.5954 681
12.61552 632
12.63563 643
12.65575 631
12.67586 573
12.69597 610
12.71609 592
12.7362 593
12.75631 564
12.77643 544
12.79654 540
12.81666 545
12.83677 531
12.85688 556
12.877 527
12.89711 546
12.91722 471
12.93734 521
12.95745 544
12.97757 574
12.99768 530
13.01779 486
13.03791 496
13.05802 460
13.07813 443
13.09825 449
13.11836 452
13.13847 513
13.15859 500
13.1787 463
13.19882 540
13.21893 460
13.23904 503
13.25916 491
13.27927 459
13.29938 503
13.3195 445
13.33961 481
13.35973 472
13.37984 491
13.39995 480
13.42007 477
13.44018 486
13.46029 451
13.48041 481
13.50052 462
13.52064 517
13.54075 507
13.56086 488
13.58098 471
13.60109 473
13.6212 473
13.64132 433
13.66143 486
13.68154 493
13.70166 448
13.72177 479
13.74189 445
13.762 489
13.78211 446
13.80223 459
13.82234 470
13.84245 473
13.86257 458
13.88268 492
13.9028 471
13.92291 437
13.94302 508
13.96314 462
13.98325 484
14.00336 497
14.02348 463
14.04359 448
14.06371 495
14.08382 473
14.10393 446
14.12405 476
14.14416 476
14.16427 467
14.18439 501
14.2045 498
14.22461 423
14.24473 465
14.26484 452
14.28496 428
14.30507 440
14.32518 437
14.3453 443
14.36541 473
14.38552 451
14.40564 466
14.42575 441
14.44587 442
14.46598 462
14.48609 442
14.50621 417
14.52632 429
14.54643 419
14.56655 454
14.58666 470
14.60677 460
14.62689 459
14.647 385
14.66712 444
14.68723 453
14.70734 471
14.72746 440
14.74757 456
14.76768 450
14.7878 495
14.80791 422
14.82803 423
14.84814 466
14.86825 446
14.88837 428
14.90848 475
14.92859 441
14.94871 455
14.96882 427
14.98894 463
15.00905 434
15.02916 420
15.04928 419
15.06939 432
15.0895 426
15.10962 450
15.12973 457
15.14984 396
15.16996 437
15.19007 437
15.21019 443
15.2303 390
15.25041 437
15.27053 475
15.29064 465
15.31075 442
15.33087 426
15.35098 442
15.3711 418
15.39121 457
15.41132 454
15.43144 394
15.45155 466
15.47166 432
15.49178 432
15.51189 474
15.53201 441
15.55212 439
15.57223 364
15.59235 484
15.61246 449
15.63257 448
15.65269 416
15.6728 443
15.69291 443
15.71303 449
15.73314 442
15.75326 413
15.77337 463
15.79348 439
15.8136 463
15.83371 425
15.85382 430
15.87394 419
15.89405 429
15.91417 437
15.93428 419
15.95439 425
15.97451 450
15.99462 436
16.01473 449
16.03485 419
16.05496 438
16.07508 475
16.09519 439
16.1153 476
16.13542 416
16.15553 412
16.17564 409
16.19576 420
16.21587 410
16.23598 453
16.2561 467
16.27621 448
16.29633 417
16.31644 397
16.33655 401
16.35667 452
16.37678 428
16.39689 422
16.41701 396
16.43712 439
16.45724 454
16.47735 434
16.49746 495
16.51758 416
16.53769 427
16.5578 448
16.57792 436
16.59803 459
16.61814 429
16.63826 443
16.65837 432
16.67849 412
16.6986 415
16.71871 468
16.73883 507
16.75894 405
16.77905 449
16.79917 439
16.81928 469
16.8394 448
16.85951 449
16.87962 400
16.89974 417
16.91985 456
16.93996 448
16.96008 441
16.98019 414
17.00031 404
17.02042 480
17.04053 442
17.06065 429
17.08076 492
17.10087 436
17.12099 461
17.1411 434
17.16121 490
17.18133 426
17.20144 442
17.22156 430
17.24167 430
17.26178 402
17.2819 428
17.30201 437
17.32212 437
17.34224 476
17.36235 414
17.38247 453
17.40258 423
17.42269 467
17.44281 480
17.46292 406
17.48303 487
17.50315 478
17.52326 451
17.54338 427
17.56349 483
17.5836 486
17.60372 480
17.62383 425
17.64394 470
17.66406 478
17.68417 452
17.70428 479
17.7244 495
17.74451 488
17.76463 444
17.78474 503
17.80485 482
17.82497 460
17.84508 484
17.86519 490
17.88531 518
17.90542 479
17.92554 490
17.94565 506
17.96576 487
17.98588 503
18.00599 493
18.0261 476
18.04622 427
18.06633 472
18.08645 518
18.10656 518
18.12667 554
18.14679 459
18.1669 470
18.18701 495
18.20713 488
18.22724 534
18.24735 444
18.26747 477
18.28758 509
18.3077 428
18.32781 450
18.34792 460
18.36804 465
18.38815 475
18.40826 476
18.42838 471
18.44849 470
18.46861 431
18.48872 473
18.50883 438
18.52895 473
18.54906 443
18.56917 473
18.58929 507
18.6094 490
18.62951 451
18.64963 488
18.66974 474
18.68986 462
18.70997 445
18.73008 474
18.7502 434
18.77031 491
18.79042 461
18.81054 455
18.83065 456
18.85077 472
18.87088 446
18.89099 453
18.91111 486
18.93122 502
18.95133 433
18.97145 485
18.99156 493
19.01168 537
19.03179 483
19.0519 496
19.07202 496
19.09213 529
19.11224 526
19.13236 495
19.15247 509
19.17258 562
19.1927 553
19.21281 548
19.23293 594
19.25304 578
19.27315 588
19.29327 604
19.31338 606
19.33349 580
19.35361 618
19.37372 585
19.39384 589
19.41395 633
19.43406 620
19.45418 581
19.47429 628
19.4944 624
19.51452 682
19.53463 660
19.55475 677
19.57486 703
19.59497 778
19.61509 762
19.6352 863
19.65531 859
19.67543 988
19.69554 1005
19.71565 1074
19.73577 1100
19.75588 1164
19.776 1147
19.79611 1206
19.81622 1210
19.83634 1277
19.85645 1279
19.87656 1229
19.89668 1180
19.91679 1190
19.93691 1078
19.95702 1066
19.97713 1095
19.99725 1085
20.01736 1055
20.03747 1039
20.05759 1077
20.0777 1046
20.09782 1034
20.11793 955
20.13804 964
20.15816 1053
20.17827 962
20.19838 1019
20.2185 1089
20.23861 1042
20.25872 1044
20.27884 1021
20.29895 1110
20.31907 940
20.33918 1036
20.35929 1056
20.37941 1059
20.39952 1024
20.41963 1012
20.43975 1077
20.45986 965
20.47998 1082
20.50009 991
20.5202 986
20.54032 1036
20.56043 1047
20.58054 1009
20.60066 1013
20.62077 1072
20.64088 1076
20.661 1105
20.68111 1140
20.70123 1177
20.72134 1190
20.74145 1270
20.76157 1267
20.78168 1376
20.80179 1341
20.82191 1289
20.84202 1304
20.86214 1189
20.88225 1200
20.90236 1150
20.92248 1064
20.94259 1035
20.9627 1038
20.98282 1060
21.00293 1068
21.02305 1027
21.04316 1058
21.06327 1018
21.08339 1097
21.1035 1074
21.12361 1056
21.14373 1110
21.16384 1063
21.18395 1043
21.20407 1069
21.22418 1060
21.2443 1095
21.26441 1103
21.28452 1101
21.30464 1056
21.32475 1085
21.34486 1024
21.36498 1034
21.38509 998
21.40521 1015
21.42532 1031
21.44543 935
21.46555 986
21.48566 995
21.50577 857
21.52589 890
21.546 904
21.56612 901
21.58623 869
21.60634 852
21.62646 797
21.64657 837
21.66668 874
21.6868 791
21.70691 785
21.72702 801
21.74714 808
21.76725 812
21.78737 799
21.80748 807
21.82759 708
21.84771 765
21.86782 727
21.88793 820
21.90805 791
21.92816 708
21.94828 700
21.96839 791
21.9885 757
22.00862 734
22.02873 741
22.04884 745
22.06896 723
22.08907 767
22.10919 679
22.1293 733
22.14941 744
22.16953 726
22.18964 688
22.20975 691
22.22987 796
22.24998 706
22.27009 724
22.29021 747
22.31032 748
22.33044 766
22.35055 703
22.37066 755
22.39078 684
22.41089 710
22.431 689
22.45112 665
22.47123 734
22.49135 718
22.51146 770
22.53157 718
22.55169 708
22.5718 696
22.59191 676
22.61203 719
22.63214 703
22.65225 729
22.67237 686
22.69248 670
22.7126 719
22.73271 697
22.75282 774
22.77294 756
22.79305 724
22.81316 687
22.83328 779
22.85339 733
22.87351 730
22.89362 722
22.91373 718
22.93385 706
22.95396 765
22.97407 653
22.99419 687
23.0143 671
23.03442 650
23.05453 657
23.07464 692
23.09476 643
23.11487 666
23.13498 707
23.1551 667
23.17521 669
23.19532 699
23.21544 666
23.23555 690
23.25567 653
23.27578 678
23.29589 645
23.31601 672
23.33612 659
23.35623 715
23.37635 643
23.39646 738
23.41658 680
23.43669 677
23.4568 694
23.47692 718
23.49703 705
23.51714 719
23.53726 675
23.55737 714
23.57749 668
23.5976 707
23.61771 696
23.63783 674
23.65794 713
23.67805 668
23.69817 697
23.71828 714
23.73839 702
23.75851 710
23.77862 715
23.79874 701
23.81885 677
23.83896 647
23.85908 673
23.87919 700
23.8993 685
23.91942 672
23.93953 681
23.95965 686
23.97976 673
23.99987 667
24.01999 708
24.0401 689
24.06021 678
24.08033 667
24.10044 674
24.12056 688
24.14067 697
24.16078 709
24.1809 679
24.20101 793
24.22112 721
24.24124 770
24.26135 747
24.28146 749
24.30158 734
24.32169 797
24.34181 770
24.36192 801
24.38203 702
24.40215 742
24.42226 818
24.44237 771
24.46249 866
24.4826 855
24.50272 809
24.52283 848
24.54294 878
24.56306 902
24.58317 968
24.60328 947
24.6234 1011
24.64351 1065
24.66362 997
24.68374 1086
24.70385 1064
24.72397 1078
24.74408 1103
24.76419 1238
24.78431 1125
24.80442 1131
24.82453 1129
24.84465 1143
24.86476 1146
24.88488 1050
24.90499 1016
24.9251 1014
24.94522 1011
24.96533 984
24.98544 931
25.00556 952
25.02567 911
25.04579 844
25.0659 928
25.08601 858
25.10613 881
25.12624 857
25.14635 826
25.16647 828
25.18658 826
25.20669 782
25.22681 841
25.24692 783
25.26704 807
25.28715 772
25.30726 760
25.32738 717
25.34749 765
25.3676 739
25.38772 850
25.40783 781
25.42795 808
25.44806 822
25.46817 794
25.48829 813
25.5084 715
25.52851 747
25.54863 776
25.56874 741
25.58886 744
25.60897 777
25.62908 736
25.6492 746
25.66931 739
25.68942 729
25.70954 692
25.72965 726
25.74976 718
25.76988 666
25.78999 694
25.81011 712
25.83022 700
25.85033 686
25.87045 744
25.89056 618
25.91067 689
25.93079 722
25.9509 685
25.97102 768
25.99113 702
26.01124 708
26.03136 718
26.05147 651
26.07158 735
26.0917 705
26.11181 703
26.13193 713
26.15204 787
26.17215 726
26.19227 737
26.21238 776
26.23249 785
26.25261 847
26.27272 860
26.29283 905
26.31295 917
26.33306 953
26.35318 1062
26.37329 1081
26.3934 1138
26.41352 1292
26.43363 1405
26.45374 1582
26.47386 1733
26.49397 1940
26.51409 1943
26.5342 2132
26.55431 2236
26.57443 2123
26.59454 2098
26.61465 2007
26.63477 1820
26.65488 1549
26.67499 1315
26.69511 1174
26.71522 989
26.73534 958
26.75545 842
26.77556 868
26.79568 797
26.81579 780
26.8359 768
26.85602 774
26.87613 736
26.89625 772
26.91636 680
26.93647 728
26.95659 723
26.9767 689
26.99681 736
27.01693 712
27.03704 690
27.05716 627
27.07727 655
27.09738 682
27.1175 659
27.13761 642
27.15772 655
27.17784 608
27.19795 657
27.21806 649
27.23818 609
27.25829 593
27.27841 679
27.29852 679
27.31863 647
27.33875 673
27.35886 694
27.37897 707
27.39909 688
27.4192 712
27.43932 709
27.45943 682
27.47954 666
27.49966 620
27.51977 630
27.53988 624
27.56 646
27.58011 574
27.60023 612
27.62034 564
27.64045 613
27.66057 638
27.68068 609
27.70079 625
27.72091 633
27.74102 602
27.76113 611
27.78125 583
27.80136 611
27.82148 616
27.84159 570
27.8617 608
27.88182 564
27.90193 634
27.92204 584
27.94216 557
27.96227 574
27.98239 550
28.0025 580
28.02261 551
28.04273 570
28.06284 531
28.08295 516
28.10307 537
28.12318 552
28.1433 497
28.16341 529
28.18352 520
28.20364 519
28.22375 540
28.24386 567
28.26398 558
28.28409 546
28.3042 558
28.32432 486
28.34443 551
28.36455 533
28.38466 527
28.40477 500
28.42489 541
28.445 577
28.46511 488
28.48523 537
28.50534 533
28.52546 512
28.54557 531
28.56568 546
28.5858 558
28.60591 564
28.62602 555
28.64614 501
28.66625 484
28.68636 533
28.70648 557
28.72659 500
28.74671 558
28.76682 513
28.78693 498
28.80705 526
28.82716 441
28.84727 457
28.86739 529
28.8875 527
28.90762 527
28.92773 484
28.94784 534
28.96796 509
28.98807 509
29.00818 521
29.0283 485
29.04841 530
29.06853 539
29.08864 467
29.10875 528
29.12887 509
29.14898 564
29.16909 485
29.18921 502
29.20932 491
29.22943 521
29.24955 534
29.26966 506
29.28978 504
29.30989 507
29.33 530
29.35012 497
29.37023 534
29.39034 492
29.41046 525
29.43057 535
29.45069 526
29.4708 507
29.49091 515
29.51103 495
29.53114 481
29.55125 541
29.57137 549
29.59148 542
29.6116 557
29.63171 583
29.65182 541
29.67194 560
29.69205 586
29.71216 639
29.73228 616
29.75239 559
29.7725 610
29.79262 609
29.81273 582
29.83285 573
29.85296 580
29.87307 539
29.89319 562
29.9133 531
29.93341 605
29.95353 493
29.97364 503
29.99376 488
30.01387 573
30.03398 536
30.0541 496
30.07421 496
30.09432 507
30.11444 481
30.13455 506
30.15467 498
30.17478 525
30.19489 518
30.21501 479
30.23512 472
30.25523 493
30.27535 530
30.29546 492
30.31557 431
30.33569 545
30.3558 470
30.37592 546
30.39603 472
30.41614 512
30.43626 506
30.45637 525
30.47648 508
30.4966 485
30.51671 511
30.53683 531
30.55694 510
30.57705 523
30.59717 534
30.61728 534
30.63739 542
30.65751 526
30.67762 513
30.69773 521
30.71785 552
30.73796 544
30.75808 529
30.77819 511
30.7983 487
30.81842 557
30.83853 528
30.85864 525
30.87876 508
30.89887 471
30.91899 539
30.9391 526
30.95921 531
30.97933 541
30.99944 480
31.01955 490
31.03967 495
31.05978 540
31.0799 505
31.10001 526
31.12012 524
31.14024 522
31.16035 547
31.18046 538
31.20058 550
31.22069 495
31.2408 505
31.26092 490
31.28103 518
31.30115 495
31.32126 521
31.34137 518
31.36149 470
31.3816 479
31.40171 437
31.42183 474
31.44194 516
31.46206 473
31.48217 492
31.50228 504
31.5224 479
31.54251 493
31.56262 489
31.58274 485
31.60285 501
31.62297 467
31.64308 456
31.66319 480
31.68331 491
31.70342 536
31.72353 494
31.74365 446
31.76376 481
31.78387 487
31.80399 548
31.8241 503
31.84422 497
31.86433 520
31.88444 483
31.90456 492
31.92467 493
31.94478 545
31.9649 550
31.98501 501
32.00513 505
32.02524 515
32.04535 494
32.06547 508
32.08558 510
32.10569 497
32.12581 497
32.14592 483
32.16604 493
32.18615 510
32.20626 479
32.22638 486
32.24649 509
32.2666 455
32.28672 536
32.30683 499
32.32694 517
32.34706 517
32.36717 482
32.38729 510
32.4074 491
32.42751 492
32.44763 520
32.46774 519
32.48785 461
32.50797 467
32.52808 495
32.5482 505
32.56831 468
32.58842 534
32.60854 470
32.62865 455
32.64876 500
32.66888 512
32.68899 451
32.7091 491
32.72922 531
32.74933 522
32.76945 454
32.78956 455
32.80967 493
32.82979 470
32.8499 444
32.87001 474
32.89013 492
32.91024 487
32.93036 518
32.95047 549
32.97058 504
32.9907 539
33.01081 491
33.03092 482
33.05104 526
33.07115 511
33.09127 531
33.11138 517
33.13149 533
33.15161 534
33.17172 531
33.19183 548
33.21195 548
33.23206 549
33.25217 555
33.27229 562
33.2924 582
33.31252 499
33.33263 523
33.35274 577
33.37286 555
33.39297 559
33.41308 584
33.4332 571
33.45331 538
33.47343 552
33.49354 523
33.51365 601
33.53377 509
33.55388 529
33.57399 542
33.59411 551
33.61422 522
33.63434 556
33.65445 563
33.67456 588
33.69468 501
33.71479 565
33.7349 573
33.75502 538
33.77513 565
33.79524 575
33.81536 538
33.83547 544
33.85559 538
33.8757 594
33.89581 606
33.91593 581
33.93604 617
33.95615 614
33.97627 571
33.99638 587
34.0165 665
34.03661 642
34.05672 693
34.07684 702
34.09695 676
34.11706 667
34.13718 693
34.15729 684
34.17741 686
34.19752 688
34.21763 657
34.23775 670
34.25786 677
34.27797 670
34.29809 717
34.3182 657
34.33831 712
34.35843 655
34.37854 654
34.39866 653
34.41877 678
34.43888 687
34.459 670
34.47911 673
34.49922 660
34.51934 684
34.53945 677
34.55957 737
34.57968 723
34.59979 705
34.61991 739
34.64002 738
34.66013 804
34.68025 802
34.70036 801
34.72047 832
34.74059 924
34.7607 917
34.78082 912
34.80093 921
34.82104 974
34.84116 942
34.86127 1031
34.88138 950
34.9015 955
34.92161 977
34.94173 942
34.96184 914
34.98195 918
35.00207 884
35.02218 882
35.04229 844
35.06241 811
35.08252 786
35.10264 799
35.12275 736
35.14286 748
35.16298 761
35.18309 805
35.2032 828
35.22332 749
35.24343 788
35.26354 777
35.28366 767
35.30377 789
35.32389 722
35.344 742
35.36411 764
35.38423 702
35.40434 696
35.42445 777
35.44457 770
35.46468 737
35.4848 715
35.50491 701
35.52502 722
35.54514 733
35.56525 708
35.58536 757
35.60548 677
35.62559 711
35.64571 750
35.66582 774
35.68593 730
35.70605 740
35.72616 762
35.74627 786
35.76639 788
35.7865 832
35.80661 790
35.82673 722
35.84684 782
35.86696 779
35.88707 788
35.90718 737
35.9273 749
35.94741 807
35.96752 778
35.98764 694
36.00775 725
36.02787 718
36.04798 748
36.06809 677
36.08821 712
36.10832 673
36.12843 661
36.14855 721
36.16866 690
36.18878 661
36.20889 713
36.229 706
36.24912 747
36.26923 719
36.28934 713
36.30946 708
36.32957 714
36.34968 721
36.3698 792
36.38991 706
36.41003 784
36.43014 702
36.45025 729
36.47037 811
36.49048 778
36.51059 801
36.53071 770
36.55082 729
36.57094 739
36.59105 728
36.61116 687
36.63128 780
36.65139 726
36.6715 680
36.69162 701
36.71173 712
36.73184 718
36.75196 717
36.77207 723
36.79219 739
36.8123 780
36.83241 812
36.85253 754
36.87264 712
36.89275 793
36.91287 791
36.93298 793
36.9531 770
36.97321 740
36.99332 741
37.01344 741
37.03355 742
37.05366 719
37.07378 728
37.09389 731
37.11401 741
37.13412 686
37.15423 767
37.17435 729
37.19446 672
37.21457 749
37.23469 753
37.2548 718
37.27491 638
37.29503 705
37.31514 668
37.33526 710
37.35537 725
37.37548 686
37.3956 696
37.41571 693
37.43582 735
37.45594 729
37.47605 711
37.49617 728
37.51628 700
37.53639 730
37.55651 692
37.57662 742
37.59673 708
37.61685 746
37.63696 708
37.65708 705
37.67719 698
37.6973 703
37.71742 697
37.73753 690
37.75764 725
37.77776 726
37.79787 678
37.81798 703
37.8381 686
37.85821 681
37.87833 649
37.89844 653
37.91855 658
37.93867 664
37.95878 727
37.97889 692
37.99901 754
38.01912 762
38.03924 729
38.05935 649
38.07946 759
38.09958 758
38.11969 764
38.1398 738
38.15992 726
38.18003 748
38.20015 817
38.22026 814
38.24037 820
38.26049 811
38.2806 802
38.30071 831
38.32083 777
38.34094 862
38.36105 809
38.38117 761
38.40128 792
38.4214 805
38.44151 778
38.46162 773
38.48174 753
38.50185 730
38.52196 700
38.54208 731
38.56219 755
38.58231 735
38.60242 725
38.62253 733
38.64265 668
38.66276 693
38.68287 622
38.70299 675
38.7231 690
38.74321 696
38.76333 629
38.78344 682
38.80356 654
38.82367 677
38.84378 697
38.8639 620
38.88401 711
38.90412 670
38.92424 695
38.94435 664
38.96447 718
38.98458 698
39.00469 707
39.02481 663
39.04492 675
39.06503 678
39.08515 681
39.10526 680
39.12538 721
39.14549 700
39.1656 699
39.18572 691
39.20583 753
39.22594 678
39.24606 732
39.26617 685
39.28628 712
39.3064 655
39.32651 676
39.34663 634
39.36674 704
39.38685 658
39.40697 692
39.42708 656
39.44719 631
39.46731 602
39.48742 616
39.50754 611
39.52765 601
39.54776 565
39.56788 570
39.58799 603
39.6081 590
39.62822 592
39.64833 569
39.66845 545
39.68856 567
39.70867 590
39.72879 535
39.7489 540
39.76901 592
39.78913 575
39.80924 557
39.82935 568
39.84947 593
39.86958 595
39.8897 575
39.90981 575
39.92992 587
39.95004 608
39.97015 627
39.99026 574
40.01038 555
40.03049 611
40.05061 605
40.07072 576
40.09083 598
40.11095 634
40.13106 667
40.15117 654
40.17129 626
40.1914 624
40.21152 646
40.23163 603
40.25174 547
40.27186 605
40.29197 607
40.31208 586
40.3322 610
40.35231 573
40.37242 606
40.39254 591
40.41265 562
40.43277 528
40.45288 526
40.47299 567
40.49311 531
40.51322 572
40.53333 553
40.55345 521
40.57356 550
40.59368 579
40.61379 528
40.6339 559
40.65402 584
40.67413 574
40.69424 532
40.71436 533
40.73447 498
40.75458 556
40.7747 579
40.79481 554
40.81493 557
40.83504 580
40.85515 588
40.87527 624
40.89538 573
40.91549 576
40.93561 576
40.95572 556
40.97584 598
40.99595 602
41.01606 499
41.03618 561
41.05629 589
41.0764 585
41.09652 578
41.11663 581
41.13675 566
41.15686 530
41.17697 549
41.19709 589
41.2172 604
41.23731 568
41.25743 567
41.27754 571
41.29765 509
41.31777 600
41.33788 591
41.358 609
41.37811 586
41.39822 559
41.41834 587
41.43845 551
41.45856 608
41.47868 540
41.49879 559
41.51891 539
41.53902 550
41.55913 543
41.57925 540
41.59936 648
41.61947 562
41.63959 533
41.6597 546
41.67982 577
41.69993 569
41.72004 567
41.74016 529
41.76027 568
41.78038 587
41.8005 534
41.82061 567
41.84072 507
41.86084 488
41.88095 563
41.90107 503
41.92118 532
41.94129 545
41.96141 496
41.98152 497
42.00163 496
42.02175 499
42.04186 516
42.06198 511
42.08209 508
42.1022 538
42.12232 552
42.14243 535
42.16254 506
42.18266 591
42.20277 506
42.22289 530
42.243 546
42.26311 591
42.28323 551
42.30334 563
42.32345 534
42.34357 553
42.36368 559
42.38379 581
42.40391 553
42.42402 555
42.44414 564
42.46425 503
42.48436 507
42.50448 490
42.52459 482
42.5447 506
42.56482 542
42.58493 461
42.60505 507
42.62516 479
42.64527 488
42.66539 487
42.6855 465
42.70561 504
42.72573 448
42.74584 438
42.76595 509
42.78607 482
42.80618 503
42.8263 474
42.84641 472
42.86652 448
42.88664 477
42.90675 461
42.92686 494
42.94698 460
42.96709 451
42.98721 457
43.00732 474
43.02743 489
43.04755 482
43.06766 452
43.08777 481
43.10789 484
43.128 497
43.14812 453
43.16823 463
43.18834 457
43.20846 439
43.22857 404
43.24868 476
43.2688 465
43.28891 473
43.30902 466
43.32914 493
43.34925 456
43.36937 458
43.38948 469
43.40959 465
43.42971 505
43.44982 469
43.46993 443
43.49005 492
43.51016 467
43.53028 477
43.55039 465
43.5705 527
43.59062 483
43.61073 441
43.63084 485
43.65096 490
43.67107 452
43.69119 455
43.7113 470
43.73141 438
43.75153 487
43.77164 499
43.79175 451
43.81187 487
43.83198 468
43.85209 523
43.87221 492
43.89232 475
43.91244 492
43.93255 509
43.95266 468
43.97278 488
43.99289 489
44.013 470
44.03312 469
44.05323 489
44.07335 483
44.09346 469
44.11357 478
44.13369 494
44.1538 462
44.17391 481
44.19403 485
44.21414 476
44.23426 472
44.25437 457
44.27448 484
44.2946 483
44.31471 482
44.33482 475
44.35494 524
44.37505 455
44.39516 466
44.41528 492
44.43539 477
44.45551 466
44.47562 462
44.49573 455
44.51585 519
44.53596 516
44.55607 525
44.57619 459
44.5963 480
44.61642 488
44.63653 458
44.65664 515
44.67676 527
44.69687 498
44.71698 502
44.7371 500
44.75721 489
44.77732 539
44.79744 499
44.81755 512
44.83767 515
44.85778 500
44.87789 513
44.89801 495
44.91812 556
44.93823 474
44.95835 556
44.97846 535
44.99858 555
45.01869 537
45.0388 524
45.05892 538
45.07903 542
45.09914 551
45.11926 526
45.13937 548
45.15949 541
45.1796 566
45.19971 577
45.21983 572
45.23994 527
45.26005 569
45.28017 566
45.30028 599
45.32039 592
45.34051 571
45.36062 578
45.38074 575
45.40085 555
45.42096 575
45.44108 562
45.46119 554
45.4813 569
45.50142 580
45.52153 571
45.54165 581
45.56176 570
45.58187 583
45.60199 524
45.6221 592
45.64221 543
45.66233 545
45.68244 573
45.70256 544
45.72267 574
45.74278 541
45.7629 560
45.78301 562
45.80312 539
45.82324 535
45.84335 518
45.86346 511
45.88358 532
45.90369 550
45.92381 489
45.94392 503
45.96403 510
45.98415 498
46.00426 517
46.02437 529
46.04449 483
46.0646 513
46.08472 500
46.10483 474
46.12494 526
46.14506 489
46.16517 526
46.18528 506
46.2054 546
46.22551 493
46.24563 481
46.26574 492
46.28585 477
46.30597 496
46.32608 490
46.34619 493
46.36631 458
46.38642 496
46.40653 475
46.42665 459
46.44676 524
46.46688 490
46.48699 521
46.5071 486
46.52722 525
46.54733 488
46.56744 514
46.58756 497
46.60767 524
46.62779 483
46.6479 478
46.66801 526
46.68813 491
46.70824 499
46.72835 506
46.74847 496
46.76858 513
46.78869 522
46.80881 501
46.82892 511
46.84904 540
46.86915 498
46.88926 504
46.90938 523
46.92949 499
46.9496 467
46.96972 496
46.98983 512
47.00995 477
47.03006 457
47.05017 481
47.07029 479
47.0904 534
47.11051 503
47.13063 514
47.15074 483
47.17086 491
47.19097 516
47.21108 499
47.2312 508
47.25131 499
47.27142 477
47.29154 487
47.31165 462
47.33176 484
47.35188 494
47.37199 499
47.39211 473
47.41222 494
47.43233 475
47.45245 465
47.47256 501
47.49267 434
47.51279 498
47.5329 486
47.55302 458
47.57313 508
47.59324 438
47.61336 467
47.63347 475
47.65358 498
47.6737 498
47.69381 474
47.71393 532
47.73404 472
47.75415 490
47.77427 475
47.79438 510
47.81449 484
47.83461 478
47.85472 465
47.87483 492
47.89495 490
47.91506 492
47.93518 478
47.95529 472
47.9754 457
47.99552 470
48.01563 491
48.03574 479
48.05586 457
48.07597 499
48.09609 497
48.1162 501
48.13631 497
48.15643 500
48.17654 458
48.19665 441
48.21677 477
48.23688 453
48.257 489
48.27711 479
48.29722 457
48.31734 499
48.33745 459
48.35756 448
48.37768 477
48.39779 493
48.4179 507
48.43802 500
48.45813 485
48.47825 492
48.49836 478
48.51847 475
48.53859 471
48.5587 473
48.57881 477
48.59893 445
48.61904 465
48.63916 441
48.65927 430
48.67938 438
48.6995 441
48.71961 420
48.73972 456
48.75984 449
48.77995 506
48.80006 485
48.82018 489
48.84029 484
48.86041 488
48.88052 477
48.90063 489
48.92075 436
48.94086 461
48.96097 417
48.98109 442
49.0012 488
49.02132 469
49.04143 483
49.06154 459
49.08166 471
49.10177 460
49.12188 421
49.142 483
49.16211 439
49.18223 453
49.20234 459
49.22245 458
49.24257 480
49.26268 469
49.28279 516
49.30291 466
49.32302 444
49.34313 451
49.36325 485
49.38336 454
49.40348 436
49.42359 429
49.4437 484
49.46382 457
49.48393 463
49.50404 454
49.52416 490
49.54427 510
49.56439 491
49.5845 507
49.60461 478
49.62473 444
49.64484 473
49.66495 421
49.68507 465
49.70518 452
49.7253 461
49.74541 463
49.76552 455
49.78564 459
49.80575 495
49.82586 454
49.84598 523
49.86609 513
49.8862 508
49.90632 550
49.92643 551
49.94655 527
49.96666 609
49.98677 527
50.00689 610
50.027 558
50.04711 582
50.06723 614
50.08734 558
50.10746 558
50.12757 552
50.14768 532
50.1678 473
50.18791 491
50.20802 519
50.22814 494
50.24825 458
50.26837 489
50.28848 487
50.30859 465
50.32871 444
50.34882 491
50.36893 480
50.38905 432
50.40916 478
50.42927 501
50.44939 529
50.4695 488
50.48962 498
50.50973 524
50.52984 477
50.54996 526
50.57007 529
50.59018 518
50.6103 468
50.63041 491
50.65053 505
50.67064 520
50.69075 518
50.71087 496
50.73098 493
50.75109 462
50.77121 502
50.79132 483
50.81143 449
50.83155 502
50.85166 483
50.87178 461
50.89189 438
50.912 458
50.93212 495
50.95223 449
50.97234 460
50.99246 484
51.01257 454
51.03269 449
51.0528 468
51.07291 460
51.09303 482
51.11314 435
51.13325 474
51.15337 459
51.17348 483
51.1936 490
51.21371 464
51.23382 446
51.25394 469
51.27405 436
51.29416 449
51.31428 445
51.33439 466
51.3545 480
51.37462 466
51.39473 442
51.41485 464
51.43496 408
51.45507 431
51.47519 428
51.4953 441
51.51541 418
51.53553 457
51.55564 435
51.57576 446
51.59587 452
51.61598 442
51.6361 474
51.65621 447
51.67632 430
51.69644 473
51.71655 450
51.73667 429
51.75678 440
51.77689 474
51.79701 459
51.81712 469
51.83723 461
51.85735 432
51.87746 456
51.89757 426
51.91769 471
51.9378 465
51.95792 429
51.97803 397
51.99814 434
52.01826 485
52.03837 470
52.05848 447
52.0786 458
52.09871 433
52.11883 429
52.13894 433
52.15905 453
52.17917 442
52.19928 481
52.21939 484
52.23951 453
52.25962 452
52.27974 456
52.29985 476
52.31996 457
52.34008 441
52.36019 429
52.3803 443
52.40042 449
52.42053 431
52.44064 458
52.46076 460
52.48087 446
52.50099 453
52.5211 448
52.54121 509
52.56133 489
52.58144 432
52.60155 412
52.62167 412
52.64178 505
52.6619 463
52.68201 489
52.70212 518
52.72224 462
52.74235 482
52.76246 471
52.78258 434
52.80269 481
52.8228 505
52.84292 480
52.86303 470
52.88315 466
52.90326 485
52.92337 476
52.94349 442
52.9636 468
52.98371 521
53.00383 478
53.02394 465
53.04406 466
53.06417 481
53.08428 506
53.1044 493
53.12451 495
53.14462 564
53.16474 509
53.18485 509
53.20497 479
53.22508 499
53.24519 529
53.26531 491
53.28542 488
53.30553 524
53.32565 480
53.34576 510
53.36587 543
53.38599 558
53.4061 512
53.42622 531
53.44633 531
53.46644 516
53.48656 539
53.50667 555
53.52678 531
53.5469 543
53.56701 516
53.58713 545
53.60724 531
53.62735 529
53.64747 532
53.66758 501
53.68769 490
53.70781 572
53.72792 550
53.74804 518
53.76815 525
53.78826 536
53.80838 532
53.82849 571
53.8486 535
53.86872 550
53.88883 534
53.90894 546
53.92906 545
53.94917 546
53.96929 554
53.9894 532
54.00951 556
54.02963 579
54.04974 567
54.06985 568
54.08997 573
54.11008 603
54.1302 600
54.15031 546
54.17042 573
54.19054 589
54.21065 584
54.23076 576
54.25088 559
54.27099 567
54.29111 585
54.31122 587
54.33133 610
54.35145 572
54.37156 574
54.39167 581
54.41179 635
54.4319 614
54.45201 563
54.47213 643
54.49224 598
54.51236 553
54.53247 632
54.55258 580
54.5727 569
54.59281 615
54.61292 628
54.63304 643
54.65315 665
54.67327 658
54.69338 610
54.71349 652
54.73361 706
54.75372 672
54.77383 699
54.79395 638
54.81406 640
54.83417 634
54.85429 667
54.8744 629
54.89452 619
54.91463 647
54.93474 637
54.95486 660
54.97497 626
54.99508 662
55.0152 654
55.03531 632
55.05543 635
55.07554 585
55.09565 611
55.11577 633
55.13588 643
55.15599 718
55.17611 685
55.19622 638
55.21634 635
55.23645 641
55.25656 649
55.27668 642
55.29679 599
55.3169 596
55.33702 658
55.35713 584
55.37724 608
55.39736 615
55.41747 571
55.43759 557
55.4577 547
55.47781 595
55.49793 611
55.51804 556
55.53815 562
55.55827 586
55.57838 557
55.5985 540
55.61861 582
55.63872 563
55.65884 588
55.67895 516
55.69906 533
55.71918 566
55.73929 558
55.75941 598
55.77952 559
55.79963 567
55.81975 533
55.83986 532
55.85997 533
55.88009 531
55.9002 501
55.92031 544
55.94043 559
55.96054 544
55.98066 527
56.00077 551
56.02088 573
56.041 517
56.06111 503
56.08122 541
56.10134 549
56.12145 571
56.14157 541
56.16168 529
56.18179 526
56.20191 506
56.22202 514
56.24213 532
56.26225 553
56.28236 511
56.30248 559
56.32259 552
56.3427 527
56.36282 516
56.38293 485
56.40304 495
56.42316 482
56.44327 534
56.46338 527
56.4835 505
56.50361 514
56.52373 476
56.54384 505
56.56395 530
56.58407 536
56.60418 515
56.62429 529
56.64441 536
56.66452 510
56.68464 527
56.70475 503
56.72486 526
56.74498 573
56.76509 522
56.7852 481
56.80532 502
56.82543 487
56.84554 506
56.86566 492
56.88577 537
56.90589 492
56.926 495
56.94611 530
56.96623 474
56.98634 532
57.00645 516
57.02657 467
57.04668 498
57.0668 516
57.08691 477
57.10702 507
57.12714 464
57.14725 463
57.16736 471
57.18748 498
57.20759 497
57.22771 454
57.24782 511
57.26793 464
57.28805 493
57.30816 500
57.32827 471
57.34839 453
57.3685 522
57.38861 473
57.40873 479
57.42884 470
57.44896 471
57.46907 465
57.48918 458
57.5093 507
57.52941 477
57.54952 495
57.56964 477
57.58975 473
57.60987 480
57.62998 488
57.65009 476
57.67021 516
57.69032 480
57.71043 492
57.73055 470
57.75066 520
57.77078 513
57.79089 467
57.811 454
57.83112 500
57.85123 489
57.87134 477
57.89146 445
57.91157 464
57.93168 496
57.9518 462
57.97191 483
57.99203 430
58.01214 464
58.03225 478
58.05237 482
58.07248 503
58.09259 472
58.11271 482
58.13282 463
58.15294 463
58.17305 471
58.19316 456
58.21328 461
58.23339 464
58.2535 431
58.27362 438
58.29373 509
58.31385 471
58.33396 459
58.35407 497
58.37419 467
58.3943 483
58.41441 489
58.43453 436
58.45464 501
58.47475 465
58.49487 482
58.51498 455
58.5351 495
58.55521 484
58.57532 532
58.59544 450
58.61555 476
58.63566 464
58.65578 447
58.67589 490
58.69601 456
58.71612 469
58.73623 488
58.75635 444
58.77646 456
58.79657 470
58.81669 515
58.8368 483
58.85691 477
58.87703 485
58.89714 493
58.91726 508
58.93737 446
58.95748 467
58.9776 497
58.99771 489
59.01782 485
59.03794 502
59.05805 529
59.07817 519
59.09828 483
59.11839 486
59.13851 522
59.15862 507
59.17873 514
59.19885 467
59.21896 453
59.23908 534
59.25919 527
59.2793 496
59.29942 522
59.31953 507
59.33964 481
59.35976 526
59.37987 504
59.39998 513
59.4201 554
59.44021 486
59.46033 511
59.48044 516
59.50055 521
59.52067 516
59.54078 543
59.56089 517
59.58101 567
59.60112 521
59.62124 518
59.64135 551
59.66146 521
59.68158 547
59.70169 538
59.7218 557
59.74192 600
59.76203 609
59.78215 593
59.80226 613
59.82237 581
59.84249 593
59.8626 597
59.88271 587
59.90283 581
59.92294 544
59.94305 568
59.96317 555
59.98328 580
60.0034 585
60.02351 584
60.04362 567
60.06374 552
60.08385 592
60.10396 560
60.12408 564
60.14419 525
60.16431 582
60.18442 553
60.20453 597
60.22465 563
60.24476 577
60.26487 546
60.28499 570
60.3051 561
60.32522 560
60.34533 559
60.36544 566
60.38556 566
60.40567 542
60.42578 525
60.4459 516
60.46601 539
60.48612 515
60.50624 516
60.52635 543
60.54647 518
60.56658 513
60.58669 524
60.60681 506
60.62692 522
60.64703 506
60.66715 522
60.68726 513
60.70738 534
60.72749 526
60.7476 489
60.76772 476
60.78783 496
60.80794 497
60.82806 521
60.84817 530
60.86828 484
60.8884 515
60.90851 488
60.92863 486
60.94874 491
60.96885 493
60.98897 504
61.00908 539
61.02919 528
61.04931 524
61.06942 452
61.08954 507
61.10965 496
61.12976 491
61.14988 514
61.16999 529
61.1901 468
61.21022 544
61.23033 485
61.25045 539
61.27056 494
61.29067 551
61.31079 511
61.3309 516
61.35101 527
61.37113 509
61.39124 514
61.41135 535
61.43147 558
61.45158 565
61.4717 531
61.49181 548
61.51192 530
61.53204 548
61.55215 531
61.57226 546
61.59238 545
61.61249 560
61.63261 581
61.65272 550
61.67283 554
61.69295 559
61.71306 577
61.73317 586
61.75329 573
61.7734 573
61.79352 555
61.81363 599
61.83374 623
61.85386 584
61.87397 595
61.89408 632
61.9142 610
61.93431 639
61.95442 656
61.97454 667
61.99465 644
62.01477 626
62.03488 692
62.05499 693
62.07511 689
62.09522 674
62.11533 713
62.13545 687
62.15556 679
62.17568 665
62.19579 666
62.2159 706
62.23602 635
62.25613 657
62.27624 703
62.29636 651
62.31647 708
62.33659 661
62.3567 627
62.37681 598
62.39693 617
62.41704 564
62.43715 586
62.45727 639
62.47738 546
62.49749 521
62.51761 589
62.53772 531
62.55784 590
62.57795 535
62.59806 540
62.61818 524
62.63829 526
62.6584 489
62.67852 489
62.69863 505
62.71875 524
62.73886 514
62.75897 516
62.77909 475
62.7992 511
62.81931 482
62.83943 503
62.85954 458
62.87965 496
62.89977 523
62.91988 476
62.94 485
62.96011 530
62.98022 456
63.00034 501
63.02045 494
63.04056 467
63.06068 513
63.08079 482
63.10091 514
63.12102 486
63.14113 495
63.16125 475
63.18136 479
63.20147 478
63.22159 484
63.2417 495
63.26182 488
63.28193 478
63.30204 512
63.32216 498
63.34227 468
63.36238 539
63.3825 488
63.40261 487
63.42272 528
63.44284 498
63.46295 500
63.48307 505
63.50318 474
63.52329 514
63.54341 491
63.56352 511
63.58363 520
63.60375 486
63.62386 474
63.64398 509
63.66409 515
63.6842 482
63.70432 525
63.72443 489
63.74454 487
63.76466 477
63.78477 500
63.80489 516
63.825 541
63.84511 485
63.86523 511
63.88534 481
63.90545 472
63.92557 488
63.94568 483
63.96579 516
63.98591 524
64.00602 512
64.02614 482
64.04625 515
64.06636 498
64.08648 479
64.10659 473
64.1267 485
64.14682 485
64.16693 497
64.18705 493
64.20716 474
64.22727 481
64.24739 484
64.2675 468
64.28761 510
64.30773 509
64.32784 500
64.34796 451
64.36807 450
64.38818 454
64.4083 489
64.42841 470
64.44852 474
64.46864 460
64.48875 481
64.50886 442
64.52898 467
64.54909 472
64.56921 454
64.58932 483
64.60943 468
64.62955 478
64.64966 453
64.66977 446
64.68989 476
64.71 453
64.73012 467
64.75023 448
64.77034 479
64.79046 480
64.81057 470
64.83068 459
64.8508 437
64.87091 496
64.89102 469
64.91114 432
64.93125 488
64.95137 446
64.97148 423
64.99159 466
65.01171 506
65.03182 453
65.05193 438
65.07205 439
65.09216 457
65.11228 457
65.13239 462
65.1525 447
65.17262 445
65.19273 468
65.21284 408
65.23296 461
65.25307 455
65.27319 442
65.2933 469
65.31341 469
65.33353 471
65.35364 426
65.37375 435
65.39387 446
65.41398 416
65.43409 450
65.45421 449
65.47432 448
65.49444 427
65.51455 462
65.53466 467
65.55478 416
65.57489 451
65.595 446
65.61512 441
65.63523 428
65.65535 464
65.67546 444
65.69557 455
65.71569 487
65.7358 445
65.75591 418
65.77603 426
65.79614 449
65.81626 423
65.83637 443
65.85648 413
65.8766 397
65.89671 461
65.91682 423
65.93694 480
65.95705 451
65.97716 451
65.99728 443
66.01739 482
66.03751 462
66.05762 435
66.07773 462
66.09785 458
66.11796 484
66.13807 482
66.15819 460
66.1783 442
66.19842 454
66.21853 465
66.23864 455
66.25876 423
66.27887 456
66.29898 486
66.3191 461
66.33921 457
66.35933 459
66.37944 477
66.39955 459
66.41967 476
66.43978 418
66.45989 452
66.48001 456
66.50012 450
66.52023 447
66.54035 463
66.56046 429
66.58058 438
66.60069 466
66.6208 432
66.64092 462
66.66103 476
66.68114 470
66.70126 436
66.72137 468
66.74149 428
66.7616 468
66.78171 457
66.80183 478
66.82194 452
66.84205 434
66.86217 442
66.88228 461
66.90239 455
66.92251 454
66.94262 429
66.96274 434
66.98285 448
67.00296 447
67.02308 474
67.04319 450
67.0633 452
67.08342 465
67.10353 446
67.12365 449
67.14376 441
67.16387 406
67.18399 500
67.2041 449
67.22421 481
67.24433 488
67.26444 458
67.28456 458
67.30467 464
67.32478 446
67.3449 438
67.36501 508
67.38512 431
67.40524 468
67.42535 482
67.44546 473
67.46558 476
67.48569 475
67.50581 483
67.52592 474
67.54603 472
67.56615 473
67.58626 506
67.60637 540
67.62649 522
67.6466 509
67.66672 515
67.68683 498
67.70694 525
67.72706 456
67.74717 517
67.76728 496
67.7874 529
67.80751 449
67.82763 504
67.84774 518
67.86785 517
67.88797 475
67.90808 535
67.92819 498
67.94831 494
67.96842 536
67.98853 544
68.00865 550
68.02876 523
68.04888 518
68.06899 562
68.0891 511
68.10922 551
68.12933 500
68.14944 528
68.16956 522
68.18967 569
68.20979 520
68.2299 530
68.25001 533
68.27013 505
68.29024 491
68.31035 511
68.33047 492
68.35058 494
68.3707 469
68.39081 458
68.41092 507
68.43104 483
68.45115 447
68.47126 427
68.49138 468
68.51149 494
68.5316 490
68.55172 465
68.57183 443
68.59195 468
68.61206 461
68.63217 467
68.65229 460
68.6724 438
68.69251 438
68.71263 438
68.73274 502
68.75286 438
68.77297 433
68.79308 442
68.8132 439
68.83331 454
68.85342 467
68.87354 439
68.89365 457
68.91376 439
68.93388 438
68.95399 457
68.97411 469
68.99422 447
69.01433 457
69.03445 445
69.05456 465
69.07467 472
69.09479 443
69.1149 440
69.13502 496
69.15513 451
69.17524 465
69.19536 477
69.21547 470
69.23558 456
69.2557 428
69.27581 475
69.29593 451
69.31604 466
69.33615 472
69.35627 480
69.37638 439
69.39649 493
69.41661 457
69.43672 447
69.45683 512
69.47695 489
69.49706 448
69.51718 481
69.53729 491
69.5574 481
69.57752 468
69.59763 447
69.61774 446
69.63786 458
69.65797 442
69.67809 429
69.6982 506
69.71831 440
69.73843 435
69.75854 445
69.77865 435
69.79877 488
69.81888 465
69.839 470
69.85911 479
69.87922 455
69.89934 444
69.91945 460
69.93956 468
69.95968 483
69.97979 446
69.9999 449
70.02002 464
70.04013 497
70.06025 477
70.08036 477
70.10047 493
70.12059 472
70.1407 468
70.16081 465
70.18093 460
70.20104 469
70.22116 455
70.24127 439
70.26138 474
70.2815 450
70.30161 496
70.32172 469
70.34184 480
70.36195 442
70.38207 462
70.40218 483
70.42229 432
70.44241 451
70.46252 468
70.48263 446
70.50275 435
70.52286 465
70.54297 419
70.56309 408
70.5832 456
70.60332 472
70.62343 456
70.64354 420
70.66366 435
70.68377 436
70.70388 431
70.724 464
70.74411 439
70.76423 440
70.78434 434
70.80445 428
70.82457 441
70.84468 441
70.86479 472
70.88491 429
70.90502 448
70.92513 453
70.94525 447
70.96536 461
70.98548 452
71.00559 459
71.0257 435
71.04582 462
71.06593 479
71.08604 501
71.10616 453
71.12627 456
71.14639 433
71.1665 468
71.18661 452
71.20673 487
71.22684 470
71.24695 440
71.26707 452
71.28718 422
71.3073 431
71.32741 497
71.34752 417
71.36764 393
71.38775 483
71.40786 423
71.42798 420
71.44809 439
71.4682 450
71.48832 480
71.50843 450
71.52855 435
71.54866 453
71.56877 439
71.58889 450
71.609 461
71.62911 429
71.64923 461
71.66934 428
71.68946 488
71.70957 450
71.72968 495
71.7498 464
71.76991 450
71.79002 466
71.81014 471
71.83025 483
71.85037 467
71.87048 472
71.89059 455
71.91071 447
71.93082 485
71.95093 483
71.97105 474
71.99116 461
72.01127 480
72.03139 426
72.0515 470
72.07162 500
72.09173 472
72.11184 509
72.13196 466
72.15207 461
72.17218 485
72.1923 482
72.21241 463
72.23253 509
72.25264 478
72.27275 490
72.29287 483
72.31298 500
72.33309 519
72.35321 503
72.37332 440
72.39344 504
72.41355 470
72.43366 486
72.45378 486
72.47389 494
72.494 512
72.51412 467
72.53423 478
72.55434 443
72.57446 442
72.59457 497
72.61469 468
72.6348 474
72.65491 441
72.67503 488
72.69514 506
72.71525 482
72.73537 473
72.75548 510
72.7756 475
72.79571 509
72.81582 512
72.83594 499
72.85605 499
72.87616 476
72.89628 403
72.91639 458
72.9365 466
72.95662 490
72.97673 511
72.99685 476
73.01696 498
73.03707 471
73.05719 499
73.0773 513
73.09741 473
73.11753 466
73.13764 504
73.15776 462
73.17787 471
73.19798 464
73.2181 522
73.23821 486
73.25832 507
73.27844 503
73.29855 477
73.31867 511
73.33878 485
73.35889 510
73.37901 532
73.39912 474
73.41923 499
73.43935 511
73.45946 514
73.47957 504
73.49969 535
73.5198 510
73.53992 505
73.56003 499
73.58014 457
73.60026 491
73.62037 486
73.64048 467
73.6606 501
73.68071 485
73.70083 497
73.72094 469
73.74105 481
73.76117 489
73.78128 498
73.80139 485
73.82151 454
73.84162 490
73.86174 468
73.88185 470
73.90196 471
73.92208 467
73.94219 459
73.9623 451
73.98242 458
74.00253 440
74.02264 462
74.04276 448
74.06287 491
74.08299 496
74.1031 430
74.12321 450
74.14333 469
74.16344 418
74.18355 460
74.20367 461
74.22378 455
74.2439 420
74.26401 492
74.28412 496
74.30424 434
74.32435 447
74.34446 467
74.36458 405
74.38469 463
74.40481 459
74.42492 407
74.44503 431
74.46515 460
74.48526 508
74.50537 460
74.52549 450
74.5456 435
74.56571 469
74.58583 454
74.60594 457
74.62606 466
74.64617 472
74.66628 465
74.6864 459
74.70651 432
74.72662 444
74.74674 449
74.76685 451
74.78697 420
74.80708 460
74.82719 462
74.84731 443
74.86742 438
74.88753 448
74.90765 429
74.92776 436
74.94787 433
74.96799 460
74.9881 428
75.00822 449
