3.00117 22789
3.02128 21977
3.0414 21269
3.06151 20565
3.08162 19903
3.10174 19926
3.12185 18927
3.14197 18348
3.16208 18096
3.18219 17392
3.20231 16979
3.22242 16501
3.24253 15912
3.26265 15379
3.28276 14747
3.30288 14478
3.32299 13831
3.3431 13690
3.36322 12953
3.38333 12476
3.40344 12265
3.42356 11595
3.44367 11563
3.46379 10889
3.4839 10637
3.50401 10375
3.52413 9696
3.54424 9643
3.56435 9050
3.58447 8696
3.60458 8529
3.62469 8067
3.64481 7894
3.66492 7281
3.68504 7295
3.70515 7113
3.72526 6616
3.74538 6497
3.76549 6035
3.7856 5833
3.80572 5678
3.82583 5479
3.84595 5157
3.86606 4915
3.88617 4777
3.90629 4546
3.9264 4177
3.94651 4134
3.96663 3767
3.98674 3640
4.00686 3691
4.02697 3311
4.04708 3391
4.0672 2961
4.08731 2794
4.10742 3029
4.12754 2614
4.14765 2565
4.16776 2325
4.18788 2196
4.20799 2336
4.22811 2100
4.24822 2099
4.26833 1927
4.28845 1953
4.30856 2000
4.32867 1816
4.34879 1757
4.3689 1650
4.38902 1593
4.40913 1666
4.42924 1591
4.44936 1543
4.46947 1384
4.48958 1395
4.5097 1395
4.52981 1416
4.54992 1278
4.57004 1186
4.59015 1174
4.61027 1238
4.63038 1247
4.65049 1127
4.67061 1149
4.69072 1138
4.71083 1147
4.73095 1056
4.75106 997
4.77118 956
4.79129 1011
4.8114 1001
4.83152 871
4.85163 884
4.87174 861
4.89186 849
4.91197 807
4.93209 829
4.9522 749
4.97231 732
4.99243 740
5.01254 687
5.03265 716
5.05277 688
5.07288 699
5.09299 699
5.11311 660
5.13322 605
5.15334 620
5.17345 600
5.19356 547
5.21368 567
5.23379 587
5.2539 522
5.27402 574
5.29413 485
5.31425 465
5.33436 513
5.35447 456
5.37459 487
5.3947 413
5.41481 451
5.43493 418
5.45504 338
5.47516 394
5.49527 371
5.51538 386
5.5355 372
5.55561 324
5.57572 351
5.59584 320
5.61595 392
5.63606 399
5.65618 315
5.67629 271
5.69641 339
5.71652 310
5.73663 295
5.75675 329
5.77686 284
5.79697 298
5.81709 290
5.8372 242
5.85732 238
5.87743 256
5.89754 244
5.91766 277
5.93777 271
5.95788 246
5.978 276
5.99811 224
6.01823 256
6.03834 240
6.05845 215
6.07857 216
6.09868 256
6.11879 223
6.13891 203
6.15902 216
6.17913 221
6.19925 201
6.21936 201
6.23948 238
6.25959 229
6.2797 228
6.29982 229
6.31993 200
6.34004 225
6.36016 203
6.38027 205
6.40039 212
6.4205 224
6.44061 181
6.46073 210
6.48084 221
6.50095 213
6.52107 220
6.54118 212
6.56129 177
6.58141 181
6.60152 223
6.62164 185
6.64175 192
6.66186 207
6.68198 193
6.70209 168
6.7222 155
6.74232 192
6.76243 181
6.78255 218
6.80266 199
6.82277 152
6.84289 199
6.863 177
6.88311 212
6.90323 182
6.92334 184
6.94346 181
6.96357 201
6.98368 212
7.0038 203
7.02391 210
7.04402 199
7.06414 157
7.08425 176
7.10436 183
7.12448 188
7.14459 175
7.16471 165
7.18482 179
7.20493 184
7.22505 203
7.24516 184
7.26527 208
7.28539 151
7.3055 182
7.32562 174
7.34573 185
7.36584 177
7.38596 150
7.40607 176
7.42618 197
7.4463 177
7.46641 175
7.48653 177
7.50664 175
7.52675 185
7.54687 212
7.56698 189
7.58709 174
7.60721 184
7.62732 187
7.64743 179
7.66755 172
7.68766 194
7.70778 167
7.72789 182
7.748 186
7.76812 167
7.78823 163
7.80834 167
7.82846 200
7.84857 201
7.86869 177
7.8888 202
7.90891 171
7.92903 182
7.94914 173
7.96925 179
7.98937 203
8.00948 190
8.0296 204
8.04971 191
8.06982 178
8.08994 186
8.11005 208
8.13016 184
8.15028 186
8.17039 199
8.1905 205
8.21062 192
8.23073 175
8.25085 196
8.27096 192
8.29107 201
8.31119 220
8.3313 194
8.35141 178
8.37153 202
8.39164 180
8.41176 188
8.43187 211
8.45198 219
8.4721 191
8.49221 211
8.51232 162
8.53244 194
8.55255 210
8.57266 191
8.59278 202
8.61289 208
8.63301 188
8.65312 205
8.67323 174
8.69335 207
8.71346 217
8.73357 222
8.75369 190
8.7738 191
8.79392 202
8.81403 170
8.83414 248
8.85426 230
8.87437 220
8.89448 199
8.9146 221
8.93471 198
8.95483 214
8.97494 190
8.99505 187
9.01517 203
9.03528 205
9.05539 204
9.07551 166
9.09562 203
9.11573 195
9.13585 151
9.15596 167
9.17608 201
9.19619 197
9.2163 191
9.23642 179
9.25653 190
9.27664 219
9.29676 186
9.31687 187
9.33699 193
9.3571 201
9.37721 201
9.39733 200
9.41744 184
9.43755 192
9.45767 225
9.47778 224
9.4979 210
9.51801 207
9.53812 221
9.55824 200
9.57835 221
9.59846 199
9.61858 171
9.63869 219
9.6588 186
9.67892 202
9.69903 187
9.71915 176
9.73926 219
9.75937 199
9.77949 209
9.7996 202
9.81971 191
9.83983 179
9.85994 193
9.88006 202
9.90017 159
9.92028 199
9.9404 188
9.96051 198
9.98062 197
10.00074 210
10.02085 195
10.04097 172
10.06108 208
10.08119 205
10.10131 199
10.12142 190
10.14153 196
10.16165 185
10.18176 181
10.20187 187
10.22199 250
10.2421 199
10.26222 184
10.28233 188
10.30244 176
10.32256 151
10.34267 194
10.36278 197
10.3829 197
10.40301 179
10.42313 195
10.44324 207
10.46335 188
10.48347 212
10.50358 191
10.52369 206
10.54381 164
10.56392 238
10.58403 206
10.60415 196
10.62426 202
10.64438 190
10.66449 212
10.6846 244
10.70472 168
10.72483 178
10.74494 187
10.76506 189
10.78517 217
10.80529 166
10.8254 200
10.84551 164
10.86563 185
10.88574 184
10.90585 198
10.92597 189
10.94608 185
10.9662 195
10.98631 189
11.00642 222
11.02654 182
11.04665 155
11.06676 176
11.08688 206
11.10699 181
11.1271 191
11.14722 185
11.16733 186
11.18745 199
11.20756 195
11.22767 180
11.24779 188
11.2679 203
11.28801 186
11.30813 171
11.32824 202
11.34836 196
11.36847 212
11.38858 199
11.4087 184
11.42881 199
11.44892 204
11.46904 203
11.48915 182
11.50927 186
11.52938 197
11.54949 183
11.56961 189
11.58972 186
11.60983 198
11.62995 187
11.65006 190
11.67017 197
11.69029 220
11.7104 189
11.73052 185
11.75063 211
11.77074 182
11.79086 230
11.81097 208
11.83108 181
11.8512 204
11.87131 215
11.89143 198
11.91154 187
11.93165 218
11.95177 204
11.97188 232
11.99199 189
12.01211 207
12.03222 226
12.05234 239
12.07245 220
12.09256 187
12.11268 205
12.13279 208
12.1529 225
12.17302 212
12.19313 223
12.21324 228
12.23336 211
12.25347 235
12.27359 207
12.2937 250
12.31381 220
12.33393 225
12.35404 189
12.37415 236
12.39427 226
12.41438 229
12.4345 205
12.45461 219
12.47472 215
12.49484 206
12.51495 206
12.53506 207
12.55518 197
12.57529 209
12.5954 219
12.61552 193
12.63563 200
12.65575 203
12.67586 196
12.69597 219
12.71609 204
12.7362 204
12.75631 206
12.77643 163
12.79654 178
12.81666 171
12.83677 179
12.85688 216
12.877 205
12.89711 176
12.91722 177
12.93734 188
12.95745 182
12.97757 200
12.99768 189
13.01779 217
13.03791 203
13.05802 215
13.07813 199
13.09825 246
13.11836 280
13.13847 244
13.15859 264
13.1787 262
13.19882 220
13.21893 241
13.23904 197
13.25916 188
13.27927 243
13.29938 206
13.3195 214
13.33961 192
13.35973 208
13.37984 216
13.39995 215
13.42007 211
13.44018 200
13.46029 206
13.48041 199
13.50052 206
13.52064 228
13.54075 242
13.56086 251
13.58098 246
13.60109 327
13.6212 350
13.64132 315
13.66143 361
13.68154 317
13.70166 308
13.72177 261
13.74189 226
13.762 224
13.78211 231
13.80223 227
13.82234 190
13.84245 228
13.86257 223
13.88268 229
13.9028 254
13.92291 254
13.94302 221
13.96314 226
13.98325 216
14.00336 209
14.02348 204
14.04359 199
14.06371 192
14.08382 203
14.10393 194
14.12405 185
14.14416 188
14.16427 182
14.18439 170
14.2045 179
14.22461 162
14.24473 176
14.26484 169
14.28496 178
14.30507 157
14.32518 169
14.3453 179
14.36541 159
14.38552 190
14.40564 178
14.42575 170
14.44587 183
14.46598 173
14.48609 199
14.50621 154
14.52632 166
14.54643 179
14.56655 170
14.58666 157
14.60677 182
14.62689 183
14.647 175
14.66712 176
14.68723 181
14.70734 191
14.72746 174
14.74757 181
14.76768 177
14.7878 177
14.80791 204
14.82803 189
14.84814 207
14.86825 220
14.88837 232
14.90848 269
14.92859 274
14.94871 261
14.96882 243
14.98894 246
15.00905 238
15.02916 208
15.04928 253
15.06939 230
15.0895 234
15.10962 203
15.12973 201
15.14984 210
15.16996 195
15.19007 181
15.21019 220
15.2303 218
15.25041 206
15.27053 189
15.29064 222
15.31075 184
15.33087 180
15.35098 161
15.3711 175
15.39121 186
15.41132 169
15.43144 161
15.45155 158
15.47166 158
15.49178 162
15.51189 165
15.53201 169
15.55212 185
15.57223 175
15.59235 171
15.61246 153
15.63257 190
15.65269 143
15.6728 142
15.69291 179
15.71303 187
15.73314 198
15.75326 170
15.77337 164
15.79348 192
15.8136 171
15.83371 171
15.85382 181
15.87394 163
15.89405 162
15.91417 184
15.93428 178
15.95439 179
15.97451 140
15.99462 143
16.01473 169
16.03485 147
16.05496 140
16.07508 170
16.09519 155
16.1153 165
16.13542 174
16.15553 173
16.17564 180
16.19576 169
16.21587 178
16.23598 158
16.2561 155
16.27621 170
16.29633 150
16.31644 173
16.33655 140
16.35667 162
16.37678 179
16.39689 177
16.41701 170
16.43712 167
16.45724 168
16.47735 164
16.49746 166
16.51758 155
16.53769 154
16.5578 183
16.57792 157
16.59803 161
16.61814 153
16.63826 149
16.65837 159
16.67849 160
16.6986 147
16.71871 170
16.73883 159
16.75894 148
16.77905 193
16.79917 156
16.81928 174
16.8394 149
16.85951 151
16.87962 178
16.89974 171
16.91985 170
16.93996 174
16.96008 182
16.98019 159
17.00031 158
17.02042 191
17.04053 183
17.06065 168
17.08076 154
17.10087 167
17.12099 146
17.1411 152
17.16121 165
17.18133 149
17.20144 158
17.22156 142
17.24167 159
17.26178 156
17.2819 179
17.30201 183
17.32212 142
17.34224 156
17.36235 151
17.38247 162
17.40258 180
17.42269 136
17.44281 183
17.46292 163
17.48303 166
17.50315 156
17.52326 157
17.54338 146
17.56349 160
17.5836 186
17.60372 164
17.62383 178
17.64394 170
17.66406 142
17.68417 141
17.70428 151
17.7244 161
17.74451 147
17.76463 158
17.78474 155
17.80485 166
17.82497 186
17.84508 169
17.86519 186
17.88531 166
17.90542 165
17.92554 161
17.94565 161
17.96576 160
17.98588 162
18.00599 184
18.0261 157
18.04622 146
18.06633 195
18.08645 167
18.10656 160
18.12667 176
18.14679 185
18.1669 162
18.18701 178
18.20713 168
18.22724 180
18.24735 155
18.26747 190
18.28758 168
18.3077 165
18.32781 156
18.34792 165
18.36804 157
18.38815 166
18.40826 149
18.42838 171
18.44849 155
18.46861 171
18.48872 179
18.50883 148
18.52895 171
18.54906 143
18.56917 167
18.58929 147
18.6094 180
18.62951 188
18.64963 178
18.66974 176
18.68986 173
18.70997 176
18.73008 216
18.7502 184
18.77031 180
18.79042 183
18.81054 173
18.83065 209
18.85077 174
18.87088 188
18.89099 150
18.91111 187
18.93122 188
18.95133 171
18.97145 200
18.99156 188
19.01168 161
19.03179 169
19.0519 176
19.07202 151
19.09213 161
19.11224 187
19.13236 172
19.15247 173
19.17258 181
19.1927 177
19.21281 179
19.23293 219
19.25304 197
19.27315 241
19.29327 214
19.31338 233
19.33349 235
19.35361 206
19.37372 193
19.39384 203
19.41395 173
19.43406 201
19.45418 184
19.47429 173
19.4944 192
19.51452 206
19.53463 180
19.55475 207
19.57486 186
19.59497 185
19.61509 205
19.6352 192
19.65531 196
19.67543 207
19.69554 198
19.71565 191
19.73577 236
19.75588 209
19.776 249
19.79611 234
19.81622 254
19.83634 235
19.85645 247
19.87656 262
19.89668 250
19.91679 252
19.93691 279
19.95702 258
19.97713 261
19.99725 252
20.01736 250
20.03747 279
20.05759 235
20.0777 259
20.09782 256
20.11793 236
20.13804 258
20.15816 247
20.17827 248
20.19838 266
20.2185 289
20.23861 269
20.25872 293
20.27884 289
20.29895 275
20.31907 283
20.33918 296
20.35929 303
20.37941 290
20.39952 358
20.41963 334
20.43975 339
20.45986 332
20.47998 352
20.50009 389
20.5202 389
20.54032 395
20.56043 388
20.58054 431
20.60066 453
20.62077 469
20.64088 480
20.661 617
20.68111 693
20.70123 897
20.72134 1136
20.74145 1502
20.76157 2249
20.78168 3036
20.80179 4125
20.82191 5293
20.84202 6241
20.86214 6756
20.88225 6363
20.90236 4847
20.92248 3766
20.94259 2670
20.9627 1972
20.98282 1502
21.00293 1489
21.02305 1395
21.04316 1319
21.06327 1101
21.08339 938
21.1035 764
21.12361 624
21.14373 515
21.16384 427
21.18395 395
21.20407 372
21.22418 296
21.2443 311
21.26441 329
21.28452 305
21.30464 294
21.32475 290
21.34486 266
21.36498 294
21.38509 289
21.40521 283
21.42532 256
21.44543 289
21.46555 255
21.48566 266
21.50577 253
21.52589 258
21.546 270
21.56612 248
21.58623 249
21.60634 260
21.62646 218
21.64657 237
21.66668 254
21.6868 223
21.70691 243
21.72702 244
21.74714 257
21.76725 223
21.78737 232
21.80748 251
21.82759 238
21.84771 263
21.86782 280
21.88793 287
21.90805 363
21.92816 403
21.94828 389
21.96839 475
21.9885 503
22.00862 519
22.02873 474
22.04884 504
22.06896 424
22.08907 369
22.10919 375
22.1293 339
22.14941 346
22.16953 319
22.18964 323
22.20975 332
22.22987 340
22.24998 362
22.27009 404
22.29021 416
22.31032 467
22.33044 412
22.35055 395
22.37066 378
22.39078 370
22.41089 352
22.431 335
22.45112 286
22.47123 313
22.49135 320
22.51146 315
22.53157 270
22.55169 331
22.5718 315
22.59191 320
22.61203 314
22.63214 302
22.65225 308
22.67237 330
22.69248 294
22.7126 295
22.73271 248
22.75282 247
22.77294 252
22.79305 257
22.81316 261
22.83328 237
22.85339 245
22.87351 265
22.89362 322
22.91373 275
22.93385 308
22.95396 289
22.97407 320
22.99419 365
23.0143 412
23.03442 420
23.05453 404
23.07464 423
23.09476 437
23.11487 461
23.13498 503
23.1551 526
23.17521 526
23.19532 561
23.21544 572
23.23555 550
23.25567 523
23.27578 470
23.29589 412
23.31601 390
23.33612 375
23.35623 395
23.37635 387
23.39646 371
23.41658 379
23.43669 365
23.4568 382
23.47692 374
23.49703 446
23.51714 468
23.53726 473
23.55737 470
23.57749 466
23.5976 458
23.61771 492
23.63783 409
23.65794 398
23.67805 403
23.69817 351
23.71828 309
23.73839 328
23.75851 350
23.77862 383
23.79874 422
23.81885 397
23.83896 415
23.85908 447
23.87919 489
23.8993 472
23.91942 516
23.93953 537
23.95965 566
23.97976 652
23.99987 658
24.01999 620
24.0401 560
24.06021 567
24.08033 494
24.10044 513
24.12056 410
24.14067 436
24.16078 423
24.1809 395
24.20101 386
24.22112 429
24.24124 410
24.26135 468
24.28146 488
24.30158 513
24.32169 469
24.34181 486
24.36192 436
24.38203 389
24.40215 380
24.42226 369
24.44237 303
24.46249 339
24.4826 356
24.50272 327
24.52283 325
24.54294 311
24.56306 321
24.58317 310
24.60328 333
24.6234 348
24.64351 373
24.66362 368
24.68374 400
24.70385 353
24.72397 377
24.74408 391
24.76419 354
24.78431 319
24.80442 313
24.82453 328
24.84465 353
24.86476 327
24.88488 346
24.90499 326
24.9251 294
24.94522 316
24.96533 288
24.98544 312
25.00556 284
25.02567 330
25.04579 268
25.0659 306
25.08601 245
25.10613 288
25.12624 259
25.14635 306
25.16647 295
25.18658 298
25.20669 267
25.22681 291
25.24692 270
25.26704 293
25.28715 292
25.30726 300
25.32738 323
25.34749 315
25.3676 357
25.38772 406
25.40783 417
25.42795 472
25.44806 552
25.46817 567
25.48829 698
25.5084 824
25.52851 884
25.54863 959
25.56874 878
25.58886 930
25.60897 869
25.62908 844
25.6492 773
25.66931 736
25.68942 677
25.70954 614
25.72965 558
25.74976 531
25.76988 522
25.78999 474
25.81011 462
25.83022 431
25.85033 440
25.87045 437
25.89056 460
25.91067 411
25.93079 425
25.9509 489
25.97102 457
25.99113 434
26.01124 479
26.03136 478
26.05147 511
26.07158 523
26.0917 554
26.11181 576
26.13193 562
26.15204 650
26.17215 701
26.19227 738
26.21238 781
26.23249 858
26.25261 940
26.27272 1018
26.29283 1105
26.31295 1220
26.33306 1399
26.35318 1580
26.37329 1765
26.3934 2223
26.41352 2485
26.43363 2925
26.45374 3342
26.47386 4378
26.49397 5631
26.51409 7590
26.5342 10464
26.55431 14044
26.57443 19027
26.59454 23825
26.61465 28547
26.63477 30846
26.65488 28124
26.67499 22318
26.69511 17325
26.71522 13060
26.73534 8632
26.75545 4954
26.77556 2841
26.79568 2027
26.81579 1660
26.8359 1522
26.85602 1436
26.87613 1270
26.89625 1272
26.91636 1331
26.93647 1244
26.95659 1232
26.9767 1345
26.99681 1280
27.01693 1476
27.03704 1353
27.05716 1453
27.07727 1380
27.09738 1288
27.1175 1144
27.13761 1092
27.15772 909
27.17784 819
27.19795 801
27.21806 847
27.23818 882
27.25829 875
27.27841 893
27.29852 975
27.31863 1078
27.33875 1279
27.35886 1498
27.37897 1562
27.39909 1822
27.4192 2159
27.43932 2302
27.45943 2393
27.47954 2226
27.49966 1960
27.51977 1835
27.53988 1498
27.56 1101
27.58011 970
27.60023 866
27.62034 698
27.64045 679
27.66057 666
27.68068 643
27.70079 686
27.72091 707
27.74102 722
27.76113 652
27.78125 733
27.80136 640
27.82148 666
27.84159 719
27.8617 826
27.88182 889
27.90193 914
27.92204 938
27.94216 991
27.96227 868
27.98239 785
28.0025 685
28.02261 618
28.04273 539
28.06284 497
28.08295 439
28.10307 475
28.12318 444
28.1433 407
28.16341 427
28.18352 429
28.20364 456
28.22375 436
28.24386 397
28.26398 415
28.28409 390
28.3042 358
28.32432 339
28.34443 312
28.36455 303
28.38466 307
28.40477 253
28.42489 308
28.445 286
28.46511 266
28.48523 266
28.50534 259
28.52546 279
28.54557 264
28.56568 259
28.5858 257
28.60591 238
28.62602 228
28.64614 280
28.66625 283
28.68636 227
28.70648 251
28.72659 246
28.74671 232
28.76682 239
28.78693 224
28.80705 255
28.82716 232
28.84727 230
28.86739 226
28.8875 257
28.90762 225
28.92773 243
28.94784 246
28.96796 214
28.98807 252
29.00818 243
29.0283 263
29.04841 244
29.06853 249
29.08864 272
29.10875 245
29.12887 221
29.14898 287
29.16909 267
29.18921 278
29.20932 274
29.22943 261
29.24955 298
29.26966 275
29.28978 310
29.30989 334
29.33 337
29.35012 363
29.37023 343
29.39034 360
29.41046 426
29.43057 455
29.45069 471
29.4708 452
29.49091 409
29.51103 418
29.53114 367
29.55125 360
29.57137 334
29.59148 306
29.6116 335
29.63171 333
29.65182 330
29.67194 350
29.69205 308
29.71216 292
29.73228 325
29.75239 304
29.7725 319
29.79262 342
29.81273 323
29.83285 318
29.85296 374
29.87307 351
29.89319 397
29.9133 351
29.93341 358
29.95353 383
29.97364 413
29.99376 424
30.01387 414
30.03398 414
30.0541 458
30.07421 459
30.09432 523
30.11444 490
30.13455 548
30.15467 557
30.17478 559
30.19489 586
30.21501 565
30.23512 521
30.25523 552
30.27535 497
30.29546 430
30.31557 417
30.33569 415
30.3558 359
30.37592 374
30.39603 367
30.41614 393
30.43626 387
30.45637 379
30.47648 364
30.4966 355
30.51671 333
30.53683 310
30.55694 328
30.57705 355
30.59717 331
30.61728 337
30.63739 368
30.65751 444
30.67762 487
30.69773 513
30.71785 533
30.73796 593
30.75808 562
30.77819 570
30.7983 595
30.81842 538
30.83853 556
30.85864 483
30.87876 464
30.89887 424
30.91899 385
30.9391 379
30.95921 293
30.97933 261
30.99944 271
31.01955 247
31.03967 251
31.05978 230
31.0799 230
31.10001 232
31.12012 198
31.14024 243
31.16035 225
31.18046 218
31.20058 234
31.22069 211
31.2408 223
31.26092 233
31.28103 225
31.30115 267
31.32126 229
31.34137 229
31.36149 178
31.3816 208
31.40171 222
31.42183 249
31.44194 182
31.46206 218
31.48217 212
31.50228 175
31.5224 186
31.54251 200
31.56262 184
31.58274 198
31.60285 183
31.62297 185
31.64308 172
31.66319 187
31.68331 183
31.70342 196
31.72353 173
31.74365 175
31.76376 188
31.78387 208
31.80399 173
31.8241 196
31.84422 197
31.86433 194
31.88444 198
31.90456 180
31.92467 187
31.94478 178
31.9649 231
31.98501 193
32.00513 204
32.02524 190
32.04535 221
32.06547 219
32.08558 247
32.10569 246
32.12581 280
32.14592 275
32.16604 296
32.18615 285
32.20626 268
32.22638 251
32.24649 270
32.2666 320
32.28672 287
32.30683 283
32.32694 292
32.34706 271
32.36717 319
32.38729 291
32.4074 290
32.42751 304
32.44763 305
32.46774 298
32.48785 291
32.50797 275
32.52808 258
32.5482 233
32.56831 203
32.58842 196
32.60854 233
32.62865 175
32.64876 172
32.66888 159
32.68899 167
32.7091 167
32.72922 184
32.74933 188
32.76945 164
32.78956 183
32.80967 185
32.82979 192
32.8499 177
32.87001 156
32.89013 151
32.91024 151
32.93036 161
32.95047 150
32.97058 154
32.9907 168
33.01081 158
33.03092 153
33.05104 163
33.07115 182
33.09127 169
33.11138 136
33.13149 140
33.15161 161
33.17172 147
33.19183 170
33.21195 162
33.23206 127
33.25217 150
33.27229 154
33.2924 170
33.31252 155
33.33263 143
33.35274 164
33.37286 167
33.39297 178
33.41308 162
33.4332 170
33.45331 143
33.47343 158
33.49354 172
33.51365 151
33.53377 164
33.55388 148
33.57399 159
33.59411 167
33.61422 163
33.63434 154
33.65445 142
33.67456 178
33.69468 174
33.71479 181
33.7349 184
33.75502 172
33.77513 179
33.79524 177
33.81536 170
33.83547 166
33.85559 179
33.8757 215
33.89581 174
33.91593 209
33.93604 205
33.95615 211
33.97627 209
33.99638 194
34.0165 231
34.03661 186
34.05672 245
34.07684 245
34.09695 277
34.11706 282
34.13718 318
34.15729 323
34.17741 340
34.19752 356
34.21763 347
34.23775 314
34.25786 313
34.27797 307
34.29809 309
34.3182 293
34.33831 291
34.35843 262
34.37854 268
34.39866 244
34.41877 277
34.43888 233
34.459 250
34.47911 249
34.49922 268
34.51934 278
34.53945 273
34.55957 261
34.57968 291
34.59979 286
34.61991 349
34.64002 332
34.66013 293
34.68025 297
34.70036 284
34.72047 270
34.74059 297
34.7607 275
34.78082 250
34.80093 309
34.82104 285
34.84116 310
34.86127 314
34.88138 356
34.9015 324
34.92161 338
34.94173 309
34.96184 304
34.98195 341
35.00207 362
35.02218 344
35.04229 346
35.06241 304
35.08252 341
35.10264 344
35.12275 319
35.14286 311
35.16298 319
35.18309 328
35.2032 311
35.22332 341
35.24343 324
35.26354 292
35.28366 284
35.30377 344
35.32389 315
35.344 301
35.36411 337
35.38423 321
35.40434 327
35.42445 310
35.44457 364
35.46468 378
35.4848 390
35.50491 385
35.52502 363
35.54514 364
35.56525 331
35.58536 313
35.60548 334
35.62559 313
35.64571 304
35.66582 284
35.68593 275
35.70605 247
35.72616 260
35.74627 259
35.76639 238
35.7865 204
35.80661 259
35.82673 263
35.84684 240
35.86696 242
35.88707 246
35.90718 266
35.9273 248
35.94741 264
35.96752 239
35.98764 213
36.00775 234
36.02787 223
36.04798 207
36.06809 202
36.08821 232
36.10832 230
36.12843 225
36.14855 218
36.16866 232
36.18878 223
36.20889 263
36.229 269
36.24912 268
36.26923 286
36.28934 285
36.30946 320
36.32957 386
36.34968 431
36.3698 516
36.38991 602
36.41003 734
36.43014 957
36.45025 1144
36.47037 1368
36.49048 1761
36.51059 1933
36.53071 2083
36.55082 1884
36.57094 1654
36.59105 1264
36.61116 1225
36.63128 1092
36.65139 860
36.6715 603
36.69162 422
36.71173 355
36.73184 321
36.75196 286
36.77207 287
36.79219 321
36.8123 262
36.83241 265
36.85253 295
36.87264 301
36.89275 297
36.91287 290
36.93298 308
36.9531 304
36.97321 309
36.99332 303
37.01344 279
37.03355 270
37.05366 280
37.07378 264
37.09389 255
37.11401 247
37.13412 252
37.15423 233
37.17435 243
37.19446 215
37.21457 220
37.23469 209
37.2548 211
37.27491 202
37.29503 196
37.31514 206
37.33526 220
37.35537 221
37.37548 213
37.3956 182
37.41571 186
37.43582 200
37.45594 196
37.47605 209
37.49617 190
37.51628 193
37.53639 190
37.55651 195
37.57662 233
37.59673 218
37.61685 213
37.63696 228
37.65708 176
37.67719 230
37.6973 204
37.71742 192
37.73753 209
37.75764 187
37.77776 186
37.79787 199
37.81798 155
37.8381 171
37.85821 166
37.87833 180
37.89844 168
37.91855 166
37.93867 158
37.95878 179
37.97889 169
37.99901 177
38.01912 182
38.03924 178
38.05935 171
38.07946 157
38.09958 192
38.11969 209
38.1398 176
38.15992 179
38.18003 188
38.20015 196
38.22026 200
38.24037 180
38.26049 193
38.2806 191
38.30071 171
38.32083 225
38.34094 201
38.36105 238
38.38117 212
38.40128 217
38.4214 227
38.44151 251
38.46162 258
38.48174 255
38.50185 282
38.52196 284
38.54208 273
38.56219 292
38.58231 290
38.60242 250
38.62253 301
38.64265 231
38.66276 244
38.68287 241
38.70299 220
38.7231 197
38.74321 202
38.76333 189
38.78344 215
38.80356 186
38.82367 200
38.84378 179
38.8639 204
38.88401 186
38.90412 192
38.92424 199
38.94435 180
38.96447 198
38.98458 172
39.00469 219
39.02481 240
39.04492 204
39.06503 205
39.08515 236
39.10526 208
39.12538 232
39.14549 267
39.1656 253
39.18572 274
39.20583 301
39.22594 326
39.24606 354
39.26617 450
39.28628 452
39.3064 575
39.32651 673
39.34663 803
39.36674 1058
39.38685 1253
39.40697 1536
39.42708 1791
39.44719 1884
39.46731 1794
39.48742 1567
39.50754 1166
39.52765 1041
39.54776 980
39.56788 899
39.58799 681
39.6081 476
39.62822 367
39.64833 279
39.66845 252
39.68856 226
39.70867 247
39.72879 229
39.7489 211
39.76901 206
39.78913 192
39.80924 162
39.82935 204
39.84947 184
39.86958 202
39.8897 175
39.90981 217
39.92992 219
39.95004 232
39.97015 260
39.99026 212
40.01038 218
40.03049 270
40.05061 298
40.07072 301
40.09083 313
40.11095 340
40.13106 385
40.15117 438
40.17129 545
40.1914 652
40.21152 729
40.23163 819
40.25174 968
40.27186 965
40.29197 911
40.31208 763
40.3322 686
40.35231 570
40.37242 600
40.39254 518
40.41265 429
40.43277 332
40.45288 250
40.47299 243
40.49311 233
40.51322 220
40.53333 215
40.55345 206
40.57356 210
40.59368 199
40.61379 185
40.6339 196
40.65402 177
40.67413 188
40.69424 202
40.71436 171
40.73447 198
40.75458 183
40.7747 176
40.79481 178
40.81493 196
40.83504 162
40.85515 207
40.87527 166
40.89538 181
40.91549 163
40.93561 181
40.95572 168
40.97584 167
40.99595 166
41.01606 178
41.03618 201
41.05629 174
41.0764 163
41.09652 174
41.11663 202
41.13675 186
41.15686 216
41.17697 184
41.19709 181
41.2172 202
41.23731 177
41.25743 198
41.27754 170
41.29765 187
41.31777 181
41.33788 190
41.358 166
41.37811 185
41.39822 178
41.41834 152
41.43845 211
41.45856 201
41.47868 191
41.49879 220
41.51891 220
41.53902 223
41.55913 233
41.57925 237
41.59936 261
41.61947 274
41.63959 283
41.6597 304
41.67982 377
41.69993 383
41.72004 436
41.74016 458
41.76027 454
41.78038 496
41.8005 538
41.82061 473
41.84072 432
41.86084 419
41.88095 384
41.90107 423
41.92118 360
41.94129 312
41.96141 258
41.98152 263
42.00163 206
42.02175 242
42.04186 218
42.06198 239
42.08209 218
42.1022 234
42.12232 240
42.14243 252
42.16254 290
42.18266 303
42.20277 286
42.22289 295
42.243 349
42.26311 379
42.28323 464
42.30334 516
42.32345 632
42.34357 771
42.36368 931
42.38379 1122
42.40391 1256
42.42402 1487
42.44414 1384
42.46425 1194
42.48436 960
42.50448 911
42.52459 849
42.5447 794
42.56482 699
42.58493 522
42.60505 414
42.62516 306
42.64527 313
42.66539 288
42.6855 298
42.70561 276
42.72573 272
42.74584 252
42.76595 295
42.78607 250
42.80618 221
42.8263 223
42.84641 240
42.86652 239
42.88664 218
42.90675 203
42.92686 192
42.94698 182
42.96709 215
42.98721 178
43.00732 189
43.02743 182
43.04755 177
43.06766 184
43.08777 205
43.10789 173
43.128 201
43.14812 193
43.16823 205
43.18834 209
43.20846 189
43.22857 194
43.24868 172
43.2688 151
43.28891 168
43.30902 169
43.32914 174
43.34925 182
43.36937 174
43.38948 162
43.40959 168
43.42971 189
43.44982 198
43.46993 223
43.49005 198
43.51016 192
43.53028 202
43.55039 211
43.5705 200
43.59062 179
43.61073 218
43.63084 193
43.65096 210
43.67107 201
43.69119 168
43.7113 165
43.73141 171
43.75153 161
43.77164 159
43.79175 165
43.81187 174
43.83198 175
43.85209 171
43.87221 161
43.89232 152
43.91244 169
43.93255 161
43.95266 165
43.97278 162
43.99289 177
44.013 192
44.03312 172
44.05323 173
44.07335 172
44.09346 184
44.11357 187
44.13369 182
44.1538 194
44.17391 209
44.19403 196
44.21414 196
44.23426 198
44.25437 199
44.27448 184
44.2946 178
44.31471 187
44.33482 176
44.35494 158
44.37505 165
44.39516 158
44.41528 130
44.43539 185
44.45551 151
44.47562 181
44.49573 142
44.51585 186
44.53596 184
44.55607 170
44.57619 174
44.5963 173
44.61642 187
44.63653 184
44.65664 151
44.67676 178
44.69687 159
44.71698 176
44.7371 168
44.75721 184
44.77732 170
44.79744 165
44.81755 153
44.83767 162
44.85778 149
44.87789 175
44.89801 146
44.91812 163
44.93823 161
44.95835 180
44.97846 175
44.99858 161
45.01869 163
45.0388 181
45.05892 176
45.07903 181
45.09914 179
45.11926 160
45.13937 172
45.15949 170
45.1796 160
45.19971 180
45.21983 167
45.23994 170
45.26005 172
45.28017 179
45.30028 208
45.32039 230
45.34051 208
45.36062 225
45.38074 226
45.40085 233
45.42096 235
45.44108 279
45.46119 272
45.4813 303
45.50142 266
45.52153 317
45.54165 337
45.56176 330
45.58187 394
45.60199 402
45.6221 432
45.64221 506
45.66233 542
45.68244 616
45.70256 771
45.72267 852
45.74278 879
45.7629 968
45.78301 968
45.80312 823
45.82324 698
45.84335 567
45.86346 600
45.88358 576
45.90369 551
45.92381 461
45.94392 361
45.96403 291
45.98415 236
46.00426 240
46.02437 206
46.04449 230
46.0646 197
46.08472 182
46.10483 174
46.12494 202
46.14506 225
46.16517 205
46.18528 207
46.2054 198
46.22551 209
46.24563 193
46.26574 223
46.28585 203
46.30597 195
46.32608 188
46.34619 193
46.36631 183
46.38642 166
46.40653 180
46.42665 181
46.44676 154
46.46688 154
46.48699 155
46.5071 141
46.52722 159
46.54733 160
46.56744 173
46.58756 131
46.60767 145
46.62779 131
46.6479 186
46.66801 131
46.68813 168
46.70824 148
46.72835 149
46.74847 163
46.76858 126
46.78869 193
46.80881 147
46.82892 163
46.84904 183
46.86915 177
46.88926 166
46.90938 166
46.92949 189
46.9496 177
46.96972 204
46.98983 208
47.00995 225
47.03006 207
47.05017 214
47.07029 253
47.0904 252
47.11051 260
47.13063 238
47.15074 213
47.17086 232
47.19097 202
47.21108 220
47.2312 218
47.25131 200
47.27142 214
47.29154 185
47.31165 205
47.33176 201
47.35188 200
47.37199 213
47.39211 235
47.41222 198
47.43233 226
47.45245 211
47.47256 199
47.49267 221
47.51279 187
47.5329 184
47.55302 189
47.57313 184
47.59324 170
47.61336 185
47.63347 168
47.65358 174
47.6737 174
47.69381 159
47.71393 151
47.73404 164
47.75415 153
47.77427 163
47.79438 140
47.81449 164
47.83461 161
47.85472 163
47.87483 154
47.89495 166
47.91506 160
47.93518 155
47.95529 174
47.9754 169
47.99552 140
48.01563 152
48.03574 169
48.05586 195
48.07597 166
48.09609 138
48.1162 203
48.13631 180
48.15643 179
48.17654 182
48.19665 148
48.21677 185
48.23688 163
48.257 175
48.27711 156
48.29722 157
48.31734 167
48.33745 175
48.35756 177
48.37768 164
48.39779 167
48.4179 156
48.43802 165
48.45813 159
48.47825 156
48.49836 158
48.51847 150
48.53859 148
48.5587 159
48.57881 161
48.59893 182
48.61904 186
48.63916 190
48.65927 212
48.67938 187
48.6995 198
48.71961 224
48.73972 185
48.75984 226
48.77995 226
48.80006 229
48.82018 209
48.84029 251
48.86041 233
48.88052 217
48.90063 213
48.92075 222
48.94086 232
48.96097 257
48.98109 210
49.0012 258
49.02132 221
49.04143 211
49.06154 210
49.08166 234
49.10177 211
49.12188 232
49.142 227
49.16211 211
49.18223 221
49.20234 213
49.22245 196
49.24257 214
49.26268 210
49.28279 193
49.30291 205
49.32302 158
49.34313 192
49.36325 169
49.38336 172
49.40348 181
49.42359 176
49.4437 210
49.46382 180
49.48393 180
49.50404 178
49.52416 187
49.54427 187
49.56439 236
49.5845 191
49.60461 230
49.62473 224
49.64484 228
49.66495 235
49.68507 270
49.70518 262
49.7253 285
49.74541 265
49.76552 298
49.78564 296
49.80575 358
49.82586 395
49.84598 435
49.86609 470
49.8862 502
49.90632 607
49.92643 712
49.94655 788
49.96666 940
49.98677 1143
50.00689 1389
50.027 1647
50.04711 2019
50.06723 2326
50.08734 2643
50.10746 2844
50.12757 2878
50.14768 2414
50.1678 1886
50.18791 1572
50.20802 1510
50.22814 1482
50.24825 1467
50.26837 1293
50.28848 1029
50.30859 754
50.32871 522
50.34882 427
50.36893 406
50.38905 419
50.40916 430
50.42927 486
50.44939 452
50.4695 522
50.48962 522
50.50973 591
50.52984 559
50.54996 581
50.57007 522
50.59018 510
50.6103 499
50.63041 455
50.65053 457
50.67064 414
50.69075 379
50.71087 379
50.73098 352
50.75109 343
50.77121 358
50.79132 309
50.81143 295
50.83155 306
50.85166 281
50.87178 279
50.89189 279
50.912 263
50.93212 244
50.95223 230
50.97234 224
50.99246 216
51.01257 217
51.03269 203
51.0528 211
51.07291 227
51.09303 209
51.11314 216
51.13325 211
51.15337 222
51.17348 214
51.1936 209
51.21371 193
51.23382 214
51.25394 197
51.27405 178
51.29416 177
51.31428 192
51.33439 198
51.3545 157
51.37462 133
51.39473 185
51.41485 165
51.43496 148
51.45507 145
51.47519 165
51.4953 156
51.51541 142
51.53553 152
51.55564 136
51.57576 156
51.59587 141
51.61598 136
51.6361 141
51.65621 153
51.67632 154
51.69644 150
51.71655 147
51.73667 152
51.75678 152
51.77689 146
51.79701 128
51.81712 133
51.83723 148
51.85735 137
51.87746 133
51.89757 146
51.91769 151
51.9378 121
51.95792 168
51.97803 127
51.99814 130
52.01826 162
52.03837 131
52.05848 140
52.0786 172
52.09871 140
52.11883 144
52.13894 139
52.15905 143
52.17917 124
52.19928 137
52.21939 126
52.23951 158
52.25962 149
52.27974 152
52.29985 150
52.31996 141
52.34008 151
52.36019 142
52.3803 180
52.40042 165
52.42053 145
52.44064 186
52.46076 173
52.48087 188
52.50099 171
52.5211 169
52.54121 175
52.56133 144
52.58144 161
52.60155 184
52.62167 157
52.64178 172
52.6619 190
52.68201 166
52.70212 160
52.72224 172
52.74235 170
52.76246 164
52.78258 154
52.80269 165
52.8228 169
52.84292 179
52.86303 160
52.88315 151
52.90326 170
52.92337 163
52.94349 153
52.9636 171
52.98371 144
53.00383 161
53.02394 151
53.04406 156
53.06417 171
53.08428 157
53.1044 172
53.12451 163
53.14462 152
53.16474 156
53.18485 170
53.20497 147
53.22508 147
53.24519 151
53.26531 153
53.28542 200
53.30553 165
53.32565 178
53.34576 155
53.36587 156
53.38599 154
53.4061 177
53.42622 172
53.44633 178
53.46644 152
53.48656 146
53.50667 160
53.52678 131
53.5469 141
53.56701 142
53.58713 133
53.60724 141
53.62735 151
53.64747 144
53.66758 155
53.68769 155
53.70781 158
53.72792 144
53.74804 150
53.76815 142
53.78826 161
53.80838 155
53.82849 141
53.8486 168
53.86872 159
53.88883 166
53.90894 163
53.92906 162
53.94917 172
53.96929 131
53.9894 152
54.00951 176
54.02963 176
54.04974 175
54.06985 159
54.08997 172
54.11008 163
54.1302 170
54.15031 137
54.17042 165
54.19054 177
54.21065 166
54.23076 169
54.25088 169
54.27099 170
54.29111 174
54.31122 192
54.33133 188
54.35145 175
54.37156 151
54.39167 196
54.41179 177
54.4319 192
54.45201 181
54.47213 201
54.49224 188
54.51236 199
54.53247 176
54.55258 212
54.5727 206
54.59281 239
54.61292 263
54.63304 265
54.65315 308
54.67327 322
54.69338 393
54.71349 409
54.73361 488
54.75372 566
54.77383 647
54.79395 750
54.81406 868
54.83417 912
54.85429 892
54.8744 828
54.89452 674
54.91463 588
54.93474 527
54.95486 573
54.97497 547
54.99508 549
55.0152 507
55.03531 433
55.05543 340
55.07554 269
55.09565 296
55.11577 274
55.13588 277
55.15599 286
55.17611 281
55.19622 349
55.21634 395
55.23645 435
55.25656 439
55.27668 470
55.29679 456
55.3169 408
55.33702 438
55.35713 343
55.37724 357
55.39736 362
55.41747 345
55.43759 340
55.4577 315
55.47781 293
55.49793 279
55.51804 220
55.53815 214
55.55827 198
55.57838 194
55.5985 196
55.61861 197
55.63872 185
55.65884 173
55.67895 195
55.69906 173
55.71918 194
55.73929 181
55.75941 160
55.77952 155
55.79963 172
55.81975 151
55.83986 140
55.85997 172
55.88009 147
55.9002 155
55.92031 143
55.94043 159
55.96054 139
55.98066 157
56.00077 154
56.02088 151
56.041 153
56.06111 155
56.08122 152
56.10134 164
56.12145 146
56.14157 135
56.16168 131
56.18179 115
56.20191 135
56.22202 137
56.24213 145
56.26225 120
56.28236 135
56.30248 116
56.32259 115
56.3427 119
56.36282 137
56.38293 144
56.40304 145
56.42316 148
56.44327 157
56.46338 139
56.4835 128
56.50361 130
56.52373 136
56.54384 152
56.56395 142
56.58407 141
56.60418 144
56.62429 137
56.64441 166
56.66452 152
56.68464 156
56.70475 175
56.72486 169
56.74498 168
56.76509 164
56.7852 173
56.80532 171
56.82543 162
56.84554 184
56.86566 157
56.88577 150
56.90589 156
56.926 146
56.94611 142
56.96623 140
56.98634 133
57.00645 124
57.02657 146
57.04668 152
57.0668 189
57.08691 157
57.10702 146
57.12714 154
57.14725 176
57.16736 199
57.18748 205
57.20759 204
57.22771 193
57.24782 190
57.26793 199
57.28805 204
57.30816 197
57.32827 171
57.34839 181
57.3685 176
57.38861 160
57.40873 171
57.42884 159
57.44896 164
57.46907 182
57.48918 154
57.5093 152
57.52941 134
57.54952 162
57.56964 142
57.58975 127
57.60987 130
57.62998 149
57.65009 126
57.67021 137
57.69032 154
57.71043 144
57.73055 126
57.75066 150
57.77078 134
57.79089 134
57.811 128
57.83112 139
57.85123 133
57.87134 150
57.89146 130
57.91157 133
57.93168 143
57.9518 155
57.97191 143
57.99203 158
58.01214 184
58.03225 137
58.05237 128
58.07248 130
58.09259 157
58.11271 154
58.13282 164
58.15294 140
58.17305 161
58.19316 155
58.21328 133
58.23339 143
58.2535 151
58.27362 153
58.29373 153
58.31385 133
58.33396 159
58.35407 149
58.37419 160
58.3943 155
58.41441 148
58.43453 155
58.45464 168
58.47475 192
58.49487 175
58.51498 190
58.5351 170
58.55521 180
58.57532 167
58.59544 188
58.61555 185
58.63566 227
58.65578 174
58.67589 194
58.69601 169
58.71612 158
58.73623 180
58.75635 166
58.77646 177
58.79657 169
58.81669 160
58.8368 164
58.85691 151
58.87703 163
58.89714 152
58.91726 122
58.93737 150
58.95748 159
58.9776 137
58.99771 152
59.01782 136
59.03794 149
59.05805 134
59.07817 140
59.09828 125
59.11839 144
59.13851 152
59.15862 157
59.17873 141
59.19885 149
59.21896 156
59.23908 136
59.25919 150
59.2793 146
59.29942 164
59.31953 178
59.33964 161
59.35976 180
59.37987 177
59.39998 204
59.4201 189
59.44021 191
59.46033 199
59.48044 202
59.50055 210
59.52067 192
59.54078 213
59.56089 224
59.58101 252
59.60112 268
59.62124 269
59.64135 280
59.66146 343
59.68158 376
59.70169 390
59.7218 443
59.74192 512
59.76203 573
59.78215 653
59.80226 871
59.82237 984
59.84249 1035
59.8626 1323
59.88271 1506
59.90283 1596
59.92294 1723
59.94305 1597
59.96317 1417
59.98328 1112
60.0034 907
60.02351 833
60.04362 825
60.06374 955
60.08385 922
60.10396 807
60.12408 684
60.14419 511
60.16431 388
60.18442 306
60.20453 253
60.22465 236
60.24476 214
60.26487 224
60.28499 232
60.3051 203
60.32522 178
60.34533 190
60.36544 180
60.38556 186
60.40567 194
60.42578 188
60.4459 152
60.46601 174
60.48612 156
60.50624 154
60.52635 149
60.54647 159
60.56658 189
60.58669 166
60.60681 148
60.62692 151
60.64703 150
60.66715 148
60.68726 136
60.70738 171
60.72749 160
60.7476 157
60.76772 163
60.78783 159
60.80794 167
60.82806 171
60.84817 167
60.86828 156
60.8884 164
60.90851 173
60.92863 151
60.94874 175
60.96885 170
60.98897 183
61.00908 170
61.02919 174
61.04931 196
61.06942 205
61.08954 204
61.10965 198
61.12976 196
61.14988 190
61.16999 171
61.1901 193
61.21022 219
61.23033 194
61.25045 157
61.27056 188
61.29067 179
61.31079 186
61.3309 180
61.35101 176
61.37113 190
61.39124 161
61.41135 129
61.43147 178
61.45158 167
61.4717 158
61.49181 136
61.51192 165
61.53204 141
61.55215 156
61.57226 187
61.59238 150
61.61249 160
61.63261 171
61.65272 148
61.67283 153
61.69295 154
61.71306 147
61.73317 155
61.75329 140
61.7734 156
61.79352 156
61.81363 159
61.83374 143
61.85386 132
61.87397 122
61.89408 158
61.9142 143
61.93431 151
61.95442 153
61.97454 162
61.99465 134
62.01477 142
62.03488 136
62.05499 138
62.07511 185
62.09522 150
62.11533 144
62.13545 170
62.15556 140
62.17568 154
62.19579 137
62.2159 158
62.23602 163
62.25613 165
62.27624 159
62.29636 144
62.31647 148
62.33659 153
62.3567 152
62.37681 150
62.39693 145
62.41704 171
62.43715 154
62.45727 165
62.47738 158
62.49749 157
62.51761 143
62.53772 138
62.55784 177
62.57795 158
62.59806 161
62.61818 164
62.63829 181
62.6584 175
62.67852 187
62.69863 187
62.71875 151
62.73886 161
62.75897 179
62.77909 159
62.7992 180
62.81931 183
62.83943 184
62.85954 183
62.87965 178
62.89977 174
62.91988 184
62.94 170
62.96011 162
62.98022 177
63.00034 196
63.02045 203
63.04056 167
63.06068 188
63.08079 176
63.10091 193
63.12102 173
63.14113 166
63.16125 188
63.18136 170
63.20147 153
63.22159 163
63.2417 174
63.26182 171
63.28193 189
63.30204 185
63.32216 187
63.34227 169
63.36238 162
63.3825 161
63.40261 155
63.42272 154
63.44284 139
63.46295 164
63.48307 183
63.50318 166
63.52329 154
63.54341 169
63.56352 181
63.58363 172
63.60375 184
63.62386 186
63.64398 182
63.66409 203
63.6842 191
63.70432 209
63.72443 211
63.74454 222
63.76466 216
63.78477 234
63.80489 267
63.825 257
63.84511 288
63.86523 336
63.88534 344
63.90545 344
63.92557 404
63.94568 395
63.96579 418
63.98591 437
64.00602 496
64.02614 442
64.04625 384
64.06636 321
64.08648 288
64.10659 289
64.1267 316
64.14682 311
64.16693 283
64.18705 281
64.20716 288
64.22727 247
64.24739 192
64.2675 182
64.28761 172
64.30773 147
64.32784 171
64.34796 138
64.36807 145
64.38818 136
64.4083 133
64.42841 129
64.44852 136
64.46864 143
64.48875 153
64.50886 120
64.52898 137
64.54909 154
64.56921 144
64.58932 146
64.60943 127
64.62955 131
64.64966 136
64.66977 130
64.68989 131
64.71 126
64.73012 123
64.75023 143
64.77034 150
64.79046 164
64.81057 159
64.83068 147
64.8508 149
64.87091 167
64.89102 153
64.91114 158
64.93125 172
64.95137 155
64.97148 146
64.99159 161
65.01171 142
65.03182 157
65.05193 186
65.07205 173
65.09216 146
65.11228 172
65.13239 170
65.1525 196
65.17262 173
65.19273 168
65.21284 183
65.23296 175
65.25307 154
65.27319 168
65.2933 155
65.31341 186
65.33353 183
65.35364 181
65.37375 188
65.39387 171
65.41398 166
65.43409 172
65.45421 170
65.47432 169
65.49444 188
65.51455 170
65.53466 162
65.55478 184
65.57489 178
65.595 166
65.61512 161
65.63523 181
65.65535 204
65.67546 164
65.69557 203
65.71569 187
65.7358 206
65.75591 213
65.77603 206
65.79614 184
65.81626 190
65.83637 140
65.85648 182
65.8766 169
65.89671 188
65.91682 168
65.93694 145
65.95705 169
65.97716 169
65.99728 176
66.01739 171
66.03751 144
66.05762 141
66.07773 165
66.09785 147
66.11796 147
66.13807 167
66.15819 169
66.1783 162
66.19842 172
66.21853 205
66.23864 195
66.25876 189
66.27887 177
66.29898 177
66.3191 188
66.33921 152
66.35933 166
66.37944 179
66.39955 154
66.41967 173
66.43978 170
66.45989 149
66.48001 174
66.50012 171
66.52023 166
66.54035 152
66.56046 154
66.58058 141
66.60069 155
66.6208 119
66.64092 151
66.66103 145
66.68114 142
66.70126 148
66.72137 149
66.74149 143
66.7616 114
66.78171 146
66.80183 167
66.82194 153
66.84205 130
66.86217 145
66.88228 151
66.90239 154
66.92251 153
66.94262 138
66.96274 184
66.98285 148
67.00296 164
67.02308 153
67.04319 187
67.0633 155
67.08342 184
67.10353 165
67.12365 161
67.14376 164
67.16387 189
67.18399 188
67.2041 194
67.22421 196
67.24433 178
67.26444 203
67.28456 198
67.30467 183
67.32478 188
67.3449 188
67.36501 219
67.38512 224
67.40524 241
67.42535 256
67.44546 259
67.46558 297
67.48569 322
67.50581 357
67.52592 390
67.54603 453
67.56615 510
67.58626 530
67.60637 621
67.62649 776
67.6466 822
67.66672 903
67.68683 978
67.70694 954
67.72706 976
67.74717 826
67.76728 714
67.7874 626
67.80751 606
67.82763 674
67.84774 660
67.86785 697
67.88797 764
67.90808 802
67.92819 733
67.94831 788
67.96842 703
67.98853 788
68.00865 872
68.02876 932
68.04888 1077
68.06899 1212
68.0891 1214
68.10922 1299
68.12933 1272
68.14944 1178
68.16956 1095
68.18967 1036
68.20979 1011
68.2299 1115
68.25001 1161
68.27013 1162
68.29024 1197
68.31035 1143
68.33047 981
68.35058 778
68.3707 630
68.39081 567
68.41092 490
68.43104 464
68.45115 493
68.47126 454
68.49138 463
68.51149 398
68.5316 330
68.55172 292
68.57183 221
68.59195 194
68.61206 183
68.63217 200
68.65229 185
68.6724 185
68.69251 155
68.71263 155
68.73274 171
68.75286 170
68.77297 148
68.79308 171
68.8132 168
68.83331 168
68.85342 146
68.87354 136
68.89365 143
68.91376 128
68.93388 154
68.95399 165
68.97411 151
68.99422 132
69.01433 145
69.03445 133
69.05456 150
69.07467 146
69.09479 121
69.1149 136
69.13502 166
69.15513 146
69.17524 153
69.19536 134
69.21547 124
69.23558 138
69.2557 120
69.27581 139
69.29593 122
69.31604 136
69.33615 120
69.35627 144
69.37638 144
69.39649 147
69.41661 158
69.43672 137
69.45683 135
69.47695 129
69.49706 134
69.51718 137
69.53729 143
69.5574 134
69.57752 147
69.59763 149
69.61774 127
69.63786 129
69.65797 138
69.67809 131
69.6982 101
69.71831 126
69.73843 154
69.75854 123
69.77865 130
69.79877 145
69.81888 127
69.839 153
69.85911 143
69.87922 126
69.89934 129
69.91945 121
69.93956 142
69.95968 130
69.97979 126
69.9999 121
70.02002 135
70.04013 141
70.06025 110
70.08036 132
70.10047 110
70.12059 128
70.1407 133
70.16081 132
70.18093 135
70.20104 122
70.22116 136
70.24127 125
70.26138 135
70.2815 131
70.30161 132
70.32172 121
70.34184 118
70.36195 129
70.38207 118
70.40218 118
70.42229 123
70.44241 137
70.46252 138
70.48263 137
70.50275 125
70.52286 135
70.54297 147
70.56309 139
70.5832 123
70.60332 126
70.62343 138
70.64354 138
70.66366 126
70.68377 138
70.70388 122
70.724 123
70.74411 149
70.76423 146
70.78434 143
70.80445 124
70.82457 154
70.84468 139
70.86479 129
70.88491 117
70.90502 148
70.92513 123
70.94525 144
70.96536 131
70.98548 145
71.00559 134
71.0257 119
71.04582 134
71.06593 127
71.08604 135
71.10616 121
71.12627 127
71.14639 117
71.1665 113
71.18661 143
71.20673 114
71.22684 119
71.24695 134
71.26707 115
71.28718 134
71.3073 124
71.32741 139
71.34752 133
71.36764 130
71.38775 124
71.40786 157
71.42798 158
71.44809 131
71.4682 150
71.48832 159
71.50843 161
71.52855 153
71.54866 129
71.56877 132
71.58889 145
71.609 140
71.62911 152
71.64923 142
71.66934 146
71.68946 145
71.70957 111
71.72968 167
71.7498 164
71.76991 134
71.79002 144
71.81014 146
71.83025 137
71.85037 129
71.87048 138
71.89059 124
71.91071 126
71.93082 134
71.95093 137
71.97105 129
71.99116 170
72.01127 148
72.03139 151
72.0515 140
72.07162 153
72.09173 157
72.11184 144
72.13196 148
72.15207 146
72.17218 156
72.1923 130
72.21241 152
72.23253 136
72.25264 191
72.27275 139
72.29287 128
72.31298 137
72.33309 140
72.35321 144
72.37332 146
72.39344 137
72.41355 129
72.43366 146
72.45378 130
72.47389 113
72.494 117
72.51412 147
72.53423 141
72.55434 128
72.57446 110
72.59457 149
72.61469 135
72.6348 132
72.65491 139
72.67503 116
72.69514 128
72.71525 143
72.73537 122
72.75548 134
72.7756 138
72.79571 139
72.81582 135
72.83594 124
72.85605 139
72.87616 175
72.89628 135
72.91639 153
72.9365 163
72.95662 150
72.97673 143
72.99685 182
73.01696 168
73.03707 147
73.05719 184
73.0773 186
73.09741 177
73.11753 170
73.13764 201
73.15776 186
73.17787 222
73.19798 183
73.2181 232
73.23821 241
73.25832 260
73.27844 282
73.29855 279
73.31867 318
73.33878 319
73.35889 348
73.37901 367
73.39912 394
73.41923 439
73.43935 408
73.45946 439
73.47957 356
73.49969 312
73.5198 262
73.53992 245
73.56003 277
73.58014 269
73.60026 266
73.62037 271
73.64048 289
73.6606 292
73.68071 249
73.70083 222
73.72094 173
73.74105 173
73.76117 155
73.78128 151
73.80139 152
73.82151 154
73.84162 151
73.86174 144
73.88185 129
73.90196 128
73.92208 150
73.94219 142
73.9623 138
73.98242 111
74.00253 135
74.02264 149
74.04276 136
74.06287 138
74.08299 147
74.1031 133
74.12321 126
74.14333 133
74.16344 140
74.18355 140
74.20367 130
74.22378 128
74.2439 131
74.26401 139
74.28412 132
74.30424 119
74.32435 128
74.34446 138
74.36458 133
74.38469 155
74.40481 127
74.42492 137
74.44503 145
74.46515 137
74.48526 122
74.50537 145
74.52549 133
74.5456 152
74.56571 145
74.58583 142
74.60594 151
74.62606 145
74.64617 145
74.66628 132
74.6864 145
74.70651 147
74.72662 167
74.74674 144
74.76685 113
74.78697 164
74.80708 156
74.82719 172
74.84731 145
74.86742 137
74.88753 148
74.90765 169
74.92776 147
74.94787 148
74.96799 126
74.9881 145
75.00822 154
