3.00117 20347
3.02128 20026
3.0414 19210
3.06151 18510
3.08162 17992
3.10174 17838
3.12185 17328
3.14197 16571
3.16208 16395
3.18219 15905
3.20231 15426
3.22242 14825
3.24253 14267
3.26265 13721
3.28276 13482
3.30288 13267
3.32299 12751
3.3431 12421
3.36322 11707
3.38333 11312
3.40344 11249
3.42356 10730
3.44367 10485
3.46379 10021
3.4839 9754
3.50401 9442
3.52413 9160
3.54424 8839
3.56435 8458
3.58447 8126
3.60458 7941
3.62469 7466
3.64481 7282
3.66492 6854
3.68504 6723
3.70515 6728
3.72526 6286
3.74538 6035
3.76549 5658
3.7856 5377
3.80572 5163
3.82583 4987
3.84595 4943
3.86606 4556
3.88617 4218
3.90629 4293
3.9264 4000
3.94651 3876
3.96663 3483
3.98674 3406
4.00686 3554
4.02697 3182
4.04708 3038
4.0672 2928
4.08731 2835
4.10742 2664
4.12754 2510
4.14765 2392
4.16776 2339
4.18788 2134
4.20799 2142
4.22811 2141
4.24822 1926
4.26833 1792
4.28845 1779
4.30856 1802
4.32867 1831
4.34879 1583
4.3689 1528
4.38902 1468
4.40913 1507
4.42924 1492
4.44936 1366
4.46947 1343
4.48958 1318
4.5097 1298
4.52981 1321
4.54992 1194
4.57004 1231
4.59015 1149
4.61027 1205
4.63038 1179
4.65049 1092
4.67061 1053
4.69072 1003
4.71083 1000
4.73095 1014
4.75106 855
4.77118 929
4.79129 876
4.8114 886
4.83152 903
4.85163 809
4.87174 803
4.89186 817
4.91197 779
4.93209 793
4.9522 752
4.97231 732
4.99243 665
5.01254 669
5.03265 707
5.05277 646
5.07288 662
5.09299 565
5.11311 533
5.13322 589
5.15334 540
5.17345 578
5.19356 563
5.21368 488
5.23379 516
5.2539 495
5.27402 500
5.29413 533
5.31425 453
5.33436 499
5.35447 435
5.37459 497
5.3947 453
5.41481 431
5.43493 410
5.45504 406
5.47516 363
5.49527 399
5.51538 365
5.5355 366
5.55561 366
5.57572 346
5.59584 349
5.61595 343
5.63606 358
5.65618 348
5.67629 326
5.69641 335
5.71652 286
5.73663 320
5.75675 274
5.77686 285
5.79697 276
5.81709 266
5.8372 243
5.85732 280
5.87743 258
5.89754 269
5.91766 266
5.93777 283
5.95788 271
5.978 254
5.99811 235
6.01823 270
6.03834 265
6.05845 260
6.07857 247
6.09868 239
6.11879 229
6.13891 250
6.15902 280
6.17913 229
6.19925 220
6.21936 216
6.23948 226
6.25959 219
6.2797 240
6.29982 190
6.31993 225
6.34004 196
6.36016 203
6.38027 224
6.40039 232
6.4205 202
6.44061 202
6.46073 210
6.48084 239
6.50095 201
6.52107 185
6.54118 205
6.56129 213
6.58141 207
6.60152 227
6.62164 191
6.64175 214
6.66186 192
6.68198 232
6.70209 251
6.7222 198
6.74232 175
6.76243 198
6.78255 214
6.80266 200
6.82277 197
6.84289 193
6.863 221
6.88311 213
6.90323 195
6.92334 199
6.94346 185
6.96357 199
6.98368 212
7.0038 206
7.02391 187
7.04402 205
7.06414 202
7.08425 205
7.10436 176
7.12448 192
7.14459 219
7.16471 178
7.18482 210
7.20493 182
7.22505 221
7.24516 204
7.26527 208
7.28539 206
7.3055 225
7.32562 187
7.34573 216
7.36584 185
7.38596 171
7.40607 217
7.42618 196
7.4463 225
7.46641 210
7.48653 196
7.50664 238
7.52675 208
7.54687 214
7.56698 220
7.58709 200
7.60721 227
7.62732 220
7.64743 215
7.66755 214
7.68766 219
7.70778 215
7.72789 217
7.748 226
7.76812 214
7.78823 223
7.80834 196
7.82846 219
7.84857 195
7.86869 230
7.8888 207
7.90891 198
7.92903 186
7.94914 235
7.96925 254
7.98937 226
8.00948 215
8.0296 218
8.04971 218
8.06982 226
8.08994 226
8.11005 200
8.13016 204
8.15028 199
8.17039 220
8.1905 224
8.21062 244
8.23073 219
8.25085 229
8.27096 231
8.29107 231
8.31119 225
8.3313 217
8.35141 212
8.37153 220
8.39164 190
8.41176 251
8.43187 192
8.45198 233
8.4721 194
8.49221 254
8.51232 236
8.53244 234
8.55255 247
8.57266 235
8.59278 257
8.61289 250
8.63301 238
8.65312 216
8.67323 229
8.69335 237
8.71346 210
8.73357 221
8.75369 238
8.7738 235
8.79392 227
8.81403 243
8.83414 224
8.85426 234
8.87437 258
8.89448 266
8.9146 219
8.93471 234
8.95483 245
8.97494 222
8.99505 262
9.01517 250
9.03528 238
9.05539 208
9.07551 237
9.09562 245
9.11573 229
9.13585 220
9.15596 249
9.17608 237
9.19619 223
9.2163 217
9.23642 256
9.25653 210
9.27664 227
9.29676 234
9.31687 226
9.33699 251
9.3571 217
9.37721 226
9.39733 250
9.41744 212
9.43755 221
9.45767 239
9.47778 247
9.4979 268
9.51801 212
9.53812 253
9.55824 234
9.57835 252
9.59846 226
9.61858 210
9.63869 251
9.6588 212
9.67892 238
9.69903 240
9.71915 242
9.73926 203
9.75937 189
9.77949 242
9.7996 227
9.81971 241
9.83983 230
9.85994 238
9.88006 260
9.90017 250
9.92028 239
9.9404 252
9.96051 238
9.98062 232
10.00074 212
10.02085 245
10.04097 233
10.06108 203
10.08119 230
10.10131 248
10.12142 240
10.14153 212
10.16165 235
10.18176 243
10.20187 248
10.22199 256
10.2421 219
10.26222 223
10.28233 233
10.30244 208
10.32256 236
10.34267 212
10.36278 254
10.3829 235
10.40301 233
10.42313 244
10.44324 208
10.46335 200
10.48347 239
10.50358 246
10.52369 236
10.54381 242
10.56392 212
10.58403 243
10.60415 220
10.62426 226
10.64438 242
10.66449 219
10.6846 237
10.70472 219
10.72483 224
10.74494 213
10.76506 220
10.78517 245
10.80529 240
10.8254 280
10.84551 226
10.86563 246
10.88574 240
10.90585 247
10.92597 238
10.94608 234
10.9662 204
10.98631 225
11.00642 254
11.02654 258
11.04665 241
11.06676 236
11.08688 218
11.10699 230
11.1271 220
11.14722 267
11.16733 243
11.18745 243
11.20756 251
11.22767 231
11.24779 240
11.2679 260
11.28801 244
11.30813 221
11.32824 242
11.34836 269
11.36847 227
11.38858 278
11.4087 236
11.42881 234
11.44892 254
11.46904 240
11.48915 261
11.50927 221
11.52938 209
11.54949 245
11.56961 226
11.58972 253
11.60983 245
11.62995 269
11.65006 238
11.67017 237
11.69029 231
11.7104 269
11.73052 229
11.75063 272
11.77074 247
11.79086 264
11.81097 236
11.83108 293
11.8512 268
11.87131 230
11.89143 294
11.91154 273
11.93165 268
11.95177 265
11.97188 299
11.99199 298
12.01211 284
12.03222 283
12.05234 289
12.07245 337
12.09256 331
12.11268 303
12.13279 292
12.1529 315
12.17302 316
12.19313 367
12.21324 362
12.23336 367
12.25347 328
12.27359 342
12.2937 346
12.31381 366
12.33393 325
12.35404 352
12.37415 329
12.39427 304
12.41438 300
12.4345 299
12.45461 288
12.47472 294
12.49484 292
12.51495 300
12.53506 278
12.55518 262
12.57529 234
12.5954 260
12.61552 232
12.63563 229
12.65575 263
12.67586 249
12.69597 235
12.71609 259
12.7362 211
12.75631 234
12.77643 265
12.79654 235
12.81666 245
12.83677 218
12.85688 228
12.877 204
12.89711 225
12.91722 246
12.93734 243
12.95745 221
12.97757 219
12.99768 199
13.01779 244
13.03791 214
13.05802 222
13.07813 226
13.09825 226
13.11836 201
13.13847 219
13.15859 212
13.1787 205
13.19882 230
13.21893 221
13.23904 206
13.25916 222
13.27927 225
13.29938 218
13.3195 247
13.33961 197
13.35973 212
13.37984 199
13.39995 210
13.42007 228
13.44018 218
13.46029 225
13.48041 198
13.50052 203
13.52064 214
13.54075 213
13.56086 237
13.58098 207
13.60109 215
13.6212 230
13.64132 240
13.66143 231
13.68154 243
13.70166 224
13.72177 205
13.74189 240
13.762 206
13.78211 223
13.80223 223
13.82234 217
13.84245 187
13.86257 208
13.88268 219
13.9028 229
13.92291 198
13.94302 199
13.96314 223
13.98325 197
14.00336 206
14.02348 198
14.04359 227
14.06371 209
14.08382 189
14.10393 203
14.12405 219
14.14416 216
14.16427 179
14.18439 202
14.2045 209
14.22461 195
14.24473 226
14.26484 174
14.28496 192
14.30507 219
14.32518 210
14.3453 215
14.36541 215
14.38552 193
14.40564 200
14.42575 192
14.44587 205
14.46598 168
14.48609 196
14.50621 202
14.52632 193
14.54643 194
14.56655 199
14.58666 190
14.60677 200
14.62689 196
14.647 201
14.66712 211
14.68723 197
14.70734 176
14.72746 181
14.74757 195
14.76768 205
14.7878 189
14.80791 193
14.82803 212
14.84814 176
14.86825 205
14.88837 181
14.90848 220
14.92859 170
14.94871 198
14.96882 174
14.98894 182
15.00905 179
15.02916 182
15.04928 202
15.06939 230
15.0895 181
15.10962 226
15.12973 203
15.14984 193
15.16996 213
15.19007 201
15.21019 195
15.2303 172
15.25041 181
15.27053 169
15.29064 180
15.31075 180
15.33087 194
15.35098 208
15.3711 194
15.39121 175
15.41132 187
15.43144 166
15.45155 186
15.47166 180
15.49178 178
15.51189 163
15.53201 195
15.55212 185
15.57223 194
15.59235 188
15.61246 192
15.63257 182
15.65269 202
15.6728 187
15.69291 176
15.71303 186
15.73314 183
15.75326 188
15.77337 182
15.79348 190
15.8136 191
15.83371 163
15.85382 166
15.87394 176
15.89405 180
15.91417 190
15.93428 174
15.95439 168
15.97451 175
15.99462 175
16.01473 182
16.03485 182
16.05496 192
16.07508 184
16.09519 182
16.1153 172
16.13542 199
16.15553 193
16.17564 193
16.19576 177
16.21587 187
16.23598 200
16.2561 172
16.27621 167
16.29633 168
16.31644 199
16.33655 183
16.35667 190
16.37678 170
16.39689 173
16.41701 177
16.43712 176
16.45724 195
16.47735 212
16.49746 184
16.51758 165
16.53769 189
16.5578 161
16.57792 166
16.59803 177
16.61814 184
16.63826 165
16.65837 170
16.67849 179
16.6986 173
16.71871 161
16.73883 150
16.75894 180
16.77905 174
16.79917 214
16.81928 178
16.8394 186
16.85951 168
16.87962 168
16.89974 157
16.91985 191
16.93996 186
16.96008 170
16.98019 193
17.00031 177
17.02042 167
17.04053 166
17.06065 181
17.08076 194
17.10087 202
17.12099 178
17.1411 175
17.16121 148
17.18133 197
17.20144 165
17.22156 168
17.24167 159
17.26178 182
17.2819 185
17.30201 200
17.32212 185
17.34224 147
17.36235 191
17.38247 168
17.40258 197
17.42269 163
17.44281 188
17.46292 182
17.48303 200
17.50315 170
17.52326 171
17.54338 188
17.56349 176
17.5836 168
17.60372 164
17.62383 180
17.64394 205
17.66406 190
17.68417 171
17.70428 183
17.7244 185
17.74451 182
17.76463 161
17.78474 171
17.80485 180
17.82497 183
17.84508 169
17.86519 166
17.88531 159
17.90542 177
17.92554 215
17.94565 143
17.96576 160
17.98588 166
18.00599 185
18.0261 166
18.04622 194
18.06633 194
18.08645 180
18.10656 152
18.12667 172
18.14679 151
18.1669 190
18.18701 191
18.20713 180
18.22724 188
18.24735 204
18.26747 172
18.28758 166
18.3077 202
18.32781 173
18.34792 168
18.36804 183
18.38815 154
18.40826 160
18.42838 194
18.44849 167
18.46861 186
18.48872 183
18.50883 168
18.52895 185
18.54906 176
18.56917 189
18.58929 189
18.6094 155
18.62951 187
18.64963 156
18.66974 180
18.68986 181
18.70997 160
18.73008 175
18.7502 174
18.77031 183
18.79042 203
18.81054 205
18.83065 183
18.85077 195
18.87088 160
18.89099 195
18.91111 171
18.93122 171
18.95133 178
18.97145 187
18.99156 194
19.01168 175
19.03179 169
19.0519 188
19.07202 181
19.09213 183
19.11224 185
19.13236 194
19.15247 157
19.17258 159
19.1927 183
19.21281 205
19.23293 204
19.25304 194
19.27315 182
19.29327 204
19.31338 179
19.33349 193
19.35361 189
19.37372 215
19.39384 216
19.41395 178
19.43406 168
19.45418 201
19.47429 174
19.4944 186
19.51452 187
19.53463 211
19.55475 218
19.57486 190
19.59497 208
19.61509 238
19.6352 234
19.65531 222
19.67543 245
19.69554 239
19.71565 246
19.73577 240
19.75588 276
19.776 277
19.79611 294
19.81622 291
19.83634 301
19.85645 330
19.87656 309
19.89668 305
19.91679 360
19.93691 363
19.95702 330
19.97713 314
19.99725 360
20.01736 293
20.03747 279
20.05759 285
20.0777 266
20.09782 322
20.11793 320
20.13804 319
20.15816 320
20.17827 295
20.19838 330
20.2185 347
20.23861 338
20.25872 329
20.27884 350
20.29895 326
20.31907 327
20.33918 378
20.35929 366
20.37941 388
20.39952 414
20.41963 382
20.43975 418
20.45986 420
20.47998 461
20.50009 419
20.5202 444
20.54032 500
20.56043 559
20.58054 573
20.60066 657
20.62077 760
20.64088 893
20.661 1108
20.68111 1462
20.70123 1780
20.72134 2391
20.74145 3215
20.76157 4089
20.78168 5279
20.80179 6169
20.82191 6994
20.84202 7205
20.86214 6846
20.88225 5565
20.90236 4203
20.92248 2915
20.94259 1867
20.9627 1233
20.98282 870
21.00293 695
21.02305 615
21.04316 566
21.06327 527
21.08339 442
21.1035 471
21.12361 404
21.14373 409
21.16384 360
21.18395 357
21.20407 352
21.22418 354
21.2443 340
21.26441 337
21.28452 319
21.30464 309
21.32475 308
21.34486 302
21.36498 333
21.38509 268
21.40521 297
21.42532 297
21.44543 291
21.46555 295
21.48566 328
21.50577 272
21.52589 257
21.546 278
21.56612 275
21.58623 303
21.60634 258
21.62646 261
21.64657 273
21.66668 273
21.6868 281
21.70691 278
21.72702 264
21.74714 286
21.76725 255
21.78737 312
21.80748 271
21.82759 301
21.84771 257
21.86782 280
21.88793 297
21.90805 288
21.92816 278
21.94828 290
21.96839 286
21.9885 332
22.00862 296
22.02873 313
22.04884 294
22.06896 244
22.08907 266
22.10919 294
22.1293 239
22.14941 227
22.16953 241
22.18964 263
22.20975 256
22.22987 265
22.24998 250
22.27009 264
22.29021 268
22.31032 238
22.33044 250
22.35055 264
22.37066 259
22.39078 257
22.41089 250
22.431 261
22.45112 234
22.47123 245
22.49135 252
22.51146 249
22.53157 215
22.55169 248
22.5718 248
22.59191 220
22.61203 261
22.63214 232
22.65225 222
22.67237 238
22.69248 225
22.7126 219
22.73271 237
22.75282 228
22.77294 243
22.79305 256
22.81316 220
22.83328 228
22.85339 252
22.87351 268
22.89362 228
22.91373 252
22.93385 244
22.95396 233
22.97407 227
22.99419 232
23.0143 263
23.03442 245
23.05453 250
23.07464 291
23.09476 247
23.11487 244
23.13498 243
23.1551 223
23.17521 284
23.19532 250
23.21544 246
23.23555 262
23.25567 239
23.27578 251
23.29589 237
23.31601 249
23.33612 222
23.35623 206
23.37635 227
23.39646 242
23.41658 236
23.43669 286
23.4568 265
23.47692 259
23.49703 247
23.51714 254
23.53726 262
23.55737 247
23.57749 252
23.5976 246
23.61771 233
23.63783 269
23.65794 275
23.67805 284
23.69817 268
23.71828 271
23.73839 257
23.75851 257
23.77862 255
23.79874 268
23.81885 242
23.83896 325
23.85908 279
23.87919 314
23.8993 287
23.91942 319
23.93953 313
23.95965 345
23.97976 350
23.99987 314
24.01999 296
24.0401 300
24.06021 282
24.08033 262
24.10044 244
24.12056 267
24.14067 273
24.16078 247
24.1809 272
24.20101 261
24.22112 253
24.24124 265
24.26135 250
24.28146 263
24.30158 296
24.32169 273
24.34181 289
24.36192 279
24.38203 269
24.40215 253
24.42226 240
24.44237 266
24.46249 277
24.4826 267
24.50272 258
24.52283 254
24.54294 246
24.56306 270
24.58317 284
24.60328 317
24.6234 278
24.64351 304
24.66362 289
24.68374 268
24.70385 285
24.72397 296
24.74408 309
24.76419 305
24.78431 290
24.80442 310
24.82453 317
24.84465 334
24.86476 324
24.88488 281
24.90499 285
24.9251 276
24.94522 285
24.96533 260
24.98544 292
25.00556 320
25.02567 294
25.04579 261
25.0659 278
25.08601 264
25.10613 270
25.12624 285
25.14635 279
25.16647 307
25.18658 230
25.20669 299
25.22681 285
25.24692 282
25.26704 303
25.28715 299
25.30726 309
25.32738 302
25.34749 270
25.3676 278
25.38772 285
25.40783 314
25.42795 278
25.44806 325
25.46817 311
25.48829 304
25.5084 344
25.52851 358
25.54863 342
25.56874 336
25.58886 379
25.60897 421
25.62908 381
25.6492 387
25.66931 410
25.68942 407
25.70954 428
25.72965 423
25.74976 408
25.76988 416
25.78999 410
25.81011 449
25.83022 438
25.85033 447
25.87045 449
25.89056 490
25.91067 449
25.93079 492
25.9509 499
25.97102 488
25.99113 469
26.01124 559
26.03136 524
26.05147 586
26.07158 599
26.0917 592
26.11181 661
26.13193 673
26.15204 736
26.17215 820
26.19227 784
26.21238 910
26.23249 953
26.25261 1056
26.27272 1185
26.29283 1331
26.31295 1503
26.33306 1766
26.35318 2000
26.37329 2492
26.3934 3010
26.41352 3910
26.43363 5127
26.45374 6930
26.47386 8560
26.49397 11683
26.51409 15059
26.5342 19109
26.55431 23894
26.57443 28232
26.59454 31326
26.61465 32009
26.63477 29967
26.65488 25476
26.67499 19569
26.69511 14653
26.71522 10149
26.73534 6423
26.75545 3812
26.77556 2394
26.79568 1728
26.81579 1555
26.8359 1391
26.85602 1190
26.87613 1117
26.89625 1066
26.91636 1025
26.93647 891
26.95659 801
26.9767 795
26.99681 770
27.01693 714
27.03704 692
27.05716 648
27.07727 622
27.09738 594
27.1175 508
27.13761 527
27.15772 444
27.17784 473
27.19795 503
27.21806 460
27.23818 465
27.25829 452
27.27841 464
27.29852 466
27.31863 517
27.33875 509
27.35886 515
27.37897 528
27.39909 611
27.4192 554
27.43932 554
27.45943 556
27.47954 548
27.49966 521
27.51977 456
27.53988 454
27.56 407
27.58011 367
27.60023 380
27.62034 387
27.64045 354
27.66057 385
27.68068 370
27.70079 360
27.72091 414
27.74102 418
27.76113 437
27.78125 395
27.80136 432
27.82148 389
27.84159 397
27.8617 390
27.88182 400
27.90193 364
27.92204 369
27.94216 392
27.96227 364
27.98239 356
28.0025 373
28.02261 317
28.04273 301
28.06284 302
28.08295 289
28.10307 271
28.12318 318
28.1433 271
28.16341 308
28.18352 285
28.20364 289
28.22375 291
28.24386 289
28.26398 286
28.28409 284
28.3042 256
28.32432 275
28.34443 281
28.36455 296
28.38466 250
28.40477 267
28.42489 262
28.445 248
28.46511 250
28.48523 260
28.50534 253
28.52546 265
28.54557 250
28.56568 258
28.5858 252
28.60591 213
28.62602 263
28.64614 239
28.66625 277
28.68636 253
28.70648 231
28.72659 241
28.74671 231
28.76682 240
28.78693 243
28.80705 252
28.82716 251
28.84727 250
28.86739 266
28.8875 217
28.90762 238
28.92773 219
28.94784 234
28.96796 232
28.98807 237
29.00818 226
29.0283 231
29.04841 234
29.06853 248
29.08864 232
29.10875 227
29.12887 204
29.14898 254
29.16909 232
29.18921 225
29.20932 257
29.22943 241
29.24955 223
29.26966 246
29.28978 215
29.30989 223
29.33 250
29.35012 237
29.37023 262
29.39034 280
29.41046 244
29.43057 256
29.45069 245
29.4708 244
29.49091 244
29.51103 239
29.53114 231
29.55125 248
29.57137 242
29.59148 236
29.6116 237
29.63171 256
29.65182 241
29.67194 246
29.69205 249
29.71216 261
29.73228 266
29.75239 252
29.7725 258
29.79262 259
29.81273 233
29.83285 217
29.85296 259
29.87307 213
29.89319 267
29.9133 237
29.93341 241
29.95353 205
29.97364 223
29.99376 222
30.01387 215
30.03398 239
30.0541 243
30.07421 230
30.09432 266
30.11444 249
30.13455 240
30.15467 241
30.17478 281
30.19489 252
30.21501 243
30.23512 220
30.25523 240
30.27535 269
30.29546 250
30.31557 214
30.33569 267
30.3558 265
30.37592 257
30.39603 232
30.41614 246
30.43626 271
30.45637 218
30.47648 222
30.4966 196
30.51671 232
30.53683 238
30.55694 241
30.57705 238
30.59717 209
30.61728 240
30.63739 210
30.65751 260
30.67762 254
30.69773 210
30.71785 245
30.73796 255
30.75808 267
30.77819 258
30.7983 282
30.81842 253
30.83853 236
30.85864 220
30.87876 237
30.89887 233
30.91899 213
30.9391 197
30.95921 204
30.97933 203
30.99944 194
31.01955 195
31.03967 211
31.05978 195
31.0799 193
31.10001 221
31.12012 184
31.14024 197
31.16035 176
31.18046 213
31.20058 232
31.22069 184
31.2408 196
31.26092 234
31.28103 206
31.30115 199
31.32126 177
31.34137 216
31.36149 203
31.3816 217
31.40171 204
31.42183 188
31.44194 206
31.46206 197
31.48217 195
31.50228 180
31.5224 209
31.54251 178
31.56262 197
31.58274 197
31.60285 186
31.62297 191
31.64308 158
31.66319 197
31.68331 177
31.70342 186
31.72353 178
31.74365 185
31.76376 165
31.78387 183
31.80399 206
31.8241 178
31.84422 198
31.86433 201
31.88444 176
31.90456 191
31.92467 195
31.94478 194
31.9649 196
31.98501 192
32.00513 177
32.02524 190
32.04535 185
32.06547 208
32.08558 203
32.10569 199
32.12581 193
32.14592 183
32.16604 192
32.18615 192
32.20626 181
32.22638 176
32.24649 196
32.2666 196
32.28672 195
32.30683 185
32.32694 215
32.34706 208
32.36717 176
32.38729 219
32.4074 192
32.42751 193
32.44763 188
32.46774 208
32.48785 173
32.50797 162
32.52808 194
32.5482 190
32.56831 182
32.58842 192
32.60854 173
32.62865 183
32.64876 166
32.66888 170
32.68899 179
32.7091 171
32.72922 168
32.74933 193
32.76945 186
32.78956 176
32.80967 184
32.82979 175
32.8499 168
32.87001 170
32.89013 177
32.91024 191
32.93036 198
32.95047 190
32.97058 191
32.9907 159
33.01081 170
33.03092 218
33.05104 193
33.07115 196
33.09127 220
33.11138 164
33.13149 199
33.15161 184
33.17172 191
33.19183 190
33.21195 157
33.23206 165
33.25217 167
33.27229 202
33.2924 160
33.31252 181
33.33263 192
33.35274 173
33.37286 175
33.39297 174
33.41308 179
33.4332 186
33.45331 181
33.47343 166
33.49354 183
33.51365 200
33.53377 161
33.55388 185
33.57399 177
33.59411 176
33.61422 158
33.63434 170
33.65445 158
33.67456 163
33.69468 168
33.71479 202
33.7349 187
33.75502 164
33.77513 161
33.79524 157
33.81536 167
33.83547 179
33.85559 206
33.8757 196
33.89581 173
33.91593 185
33.93604 209
33.95615 188
33.97627 182
33.99638 196
34.0165 175
34.03661 157
34.05672 179
34.07684 176
34.09695 178
34.11706 187
34.13718 187
34.15729 205
34.17741 216
34.19752 190
34.21763 200
34.23775 219
34.25786 216
34.27797 189
34.29809 194
34.3182 169
34.33831 186
34.35843 191
34.37854 207
34.39866 178
34.41877 205
34.43888 185
34.459 192
34.47911 206
34.49922 225
34.51934 197
34.53945 184
34.55957 202
34.57968 208
34.59979 199
34.61991 239
34.64002 205
34.66013 218
34.68025 218
34.70036 220
34.72047 216
34.74059 205
34.7607 204
34.78082 232
34.80093 218
34.82104 242
34.84116 235
34.86127 231
34.88138 241
34.9015 234
34.92161 214
34.94173 245
34.96184 242
34.98195 263
35.00207 247
35.02218 275
35.04229 239
35.06241 236
35.08252 251
35.10264 228
35.12275 220
35.14286 231
35.16298 261
35.18309 219
35.2032 222
35.22332 255
35.24343 255
35.26354 267
35.28366 244
35.30377 218
35.32389 235
35.344 232
35.36411 238
35.38423 237
35.40434 265
35.42445 247
35.44457 240
35.46468 262
35.4848 268
35.50491 281
35.52502 280
35.54514 249
35.56525 259
35.58536 250
35.60548 238
35.62559 274
35.64571 230
35.66582 236
35.68593 254
35.70605 239
35.72616 249
35.74627 256
35.76639 258
35.7865 251
35.80661 255
35.82673 239
35.84684 250
35.86696 226
35.88707 255
35.90718 228
35.9273 235
35.94741 233
35.96752 234
35.98764 230
36.00775 233
36.02787 229
36.04798 252
36.06809 239
36.08821 287
36.10832 267
36.12843 272
36.14855 249
36.16866 318
36.18878 336
36.20889 339
36.229 346
36.24912 359
36.26923 364
36.28934 442
36.30946 491
36.32957 589
36.34968 681
36.3698 871
36.38991 1009
36.41003 1289
36.43014 1476
36.45025 1863
36.47037 2055
36.49048 2223
36.51059 2258
36.53071 2178
36.55082 1896
36.57094 1575
36.59105 1305
36.61116 1124
36.63128 977
36.65139 681
36.6715 480
36.69162 388
36.71173 289
36.73184 259
36.75196 280
36.77207 285
36.79219 231
36.8123 270
36.83241 228
36.85253 251
36.87264 256
36.89275 236
36.91287 256
36.93298 256
36.9531 240
36.97321 229
36.99332 216
37.01344 224
37.03355 222
37.05366 242
37.07378 209
37.09389 223
37.11401 230
37.13412 231
37.15423 218
37.17435 220
37.19446 207
37.21457 212
37.23469 206
37.2548 197
37.27491 207
37.29503 202
37.31514 188
37.33526 196
37.35537 205
37.37548 202
37.3956 196
37.41571 189
37.43582 202
37.45594 182
37.47605 199
37.49617 185
37.51628 193
37.53639 214
37.55651 198
37.57662 195
37.59673 211
37.61685 196
37.63696 198
37.65708 197
37.67719 208
37.6973 183
37.71742 220
37.73753 207
37.75764 190
37.77776 196
37.79787 191
37.81798 194
37.8381 208
37.85821 216
37.87833 202
37.89844 192
37.91855 226
37.93867 197
37.95878 203
37.97889 175
37.99901 197
38.01912 205
38.03924 221
38.05935 192
38.07946 223
38.09958 206
38.11969 220
38.1398 215
38.15992 224
38.18003 230
38.20015 231
38.22026 231
38.24037 234
38.26049 212
38.2806 266
38.30071 225
38.32083 239
38.34094 238
38.36105 205
38.38117 251
38.40128 263
38.4214 248
38.44151 267
38.46162 248
38.48174 233
38.50185 292
38.52196 246
38.54208 250
38.56219 239
38.58231 220
38.60242 216
38.62253 213
38.64265 195
38.66276 230
38.68287 205
38.70299 210
38.7231 209
38.74321 211
38.76333 241
38.78344 197
38.80356 202
38.82367 208
38.84378 205
38.8639 219
38.88401 234
38.90412 206
38.92424 215
38.94435 225
38.96447 221
38.98458 231
39.00469 239
39.02481 237
39.04492 252
39.06503 245
39.08515 285
39.10526 300
39.12538 356
39.14549 335
39.1656 315
39.18572 390
39.20583 438
39.22594 494
39.24606 591
39.26617 695
39.28628 824
39.3064 997
39.32651 1156
39.34663 1398
39.36674 1541
39.38685 1855
39.40697 2087
39.42708 2127
39.44719 2060
39.46731 1722
39.48742 1542
39.50754 1264
39.52765 1045
39.54776 926
39.56788 770
39.58799 603
39.6081 451
39.62822 338
39.64833 297
39.66845 267
39.68856 254
39.70867 215
39.72879 230
39.7489 212
39.76901 250
39.78913 236
39.80924 238
39.82935 206
39.84947 228
39.86958 233
39.8897 241
39.90981 221
39.92992 245
39.95004 251
39.97015 230
39.99026 271
40.01038 264
40.03049 332
40.05061 355
40.07072 354
40.09083 443
40.11095 478
40.13106 580
40.15117 665
40.17129 801
40.1914 939
40.21152 1000
40.23163 1090
40.25174 1113
40.27186 1064
40.29197 960
40.31208 808
40.3322 707
40.35231 634
40.37242 595
40.39254 481
40.41265 389
40.43277 320
40.45288 271
40.47299 224
40.49311 219
40.51322 222
40.53333 221
40.55345 209
40.57356 203
40.59368 211
40.61379 185
40.6339 170
40.65402 187
40.67413 181
40.69424 193
40.71436 193
40.73447 178
40.75458 180
40.7747 172
40.79481 184
40.81493 157
40.83504 187
40.85515 193
40.87527 198
40.89538 196
40.91549 188
40.93561 187
40.95572 223
40.97584 190
40.99595 164
41.01606 198
41.03618 197
41.05629 176
41.0764 179
41.09652 177
41.11663 178
41.13675 204
41.15686 222
41.17697 203
41.19709 212
41.2172 197
41.23731 215
41.25743 187
41.27754 184
41.29765 177
41.31777 187
41.33788 187
41.358 176
41.37811 180
41.39822 182
41.41834 212
41.43845 193
41.45856 177
41.47868 209
41.49879 214
41.51891 189
41.53902 197
41.55913 178
41.57925 218
41.59936 209
41.61947 193
41.63959 213
41.6597 214
41.67982 247
41.69993 231
41.72004 231
41.74016 215
41.76027 233
41.78038 233
41.8005 260
41.82061 231
41.84072 214
41.86084 173
41.88095 210
41.90107 199
41.92118 201
41.94129 181
41.96141 186
41.98152 198
42.00163 209
42.02175 209
42.04186 220
42.06198 231
42.08209 253
42.1022 251
42.12232 243
42.14243 300
42.16254 326
42.18266 374
42.20277 370
42.22289 473
42.243 532
42.26311 576
42.28323 729
42.30334 864
42.32345 999
42.34357 1122
42.36368 1339
42.38379 1490
42.40391 1557
42.42402 1554
42.44414 1346
42.46425 1219
42.48436 957
42.50448 938
42.52459 785
42.5447 758
42.56482 569
42.58493 413
42.60505 300
42.62516 252
42.64527 260
42.66539 240
42.6855 218
42.70561 228
42.72573 202
42.74584 229
42.76595 207
42.78607 201
42.80618 192
42.8263 200
42.84641 204
42.86652 172
42.88664 195
42.90675 204
42.92686 173
42.94698 186
42.96709 166
42.98721 172
43.00732 209
43.02743 162
43.04755 180
43.06766 155
43.08777 163
43.10789 176
43.128 179
43.14812 195
43.16823 175
43.18834 191
43.20846 197
43.22857 178
43.24868 191
43.2688 157
43.28891 164
43.30902 169
43.32914 168
43.34925 173
43.36937 192
43.38948 154
43.40959 172
43.42971 168
43.44982 160
43.46993 178
43.49005 187
43.51016 170
43.53028 174
43.55039 150
43.5705 186
43.59062 176
43.61073 197
43.63084 157
43.65096 178
43.67107 207
43.69119 176
43.7113 148
43.73141 163
43.75153 177
43.77164 165
43.79175 146
43.81187 163
43.83198 162
43.85209 189
43.87221 175
43.89232 156
43.91244 160
43.93255 171
43.95266 192
43.97278 159
43.99289 155
44.013 151
44.03312 154
44.05323 173
44.07335 161
44.09346 157
44.11357 153
44.13369 180
44.1538 153
44.17391 178
44.19403 154
44.21414 160
44.23426 161
44.25437 188
44.27448 171
44.2946 160
44.31471 184
44.33482 161
44.35494 163
44.37505 150
44.39516 168
44.41528 154
44.43539 179
44.45551 159
44.47562 179
44.49573 159
44.51585 152
44.53596 162
44.55607 150
44.57619 173
44.5963 149
44.61642 165
44.63653 147
44.65664 176
44.67676 177
44.69687 155
44.71698 161
44.7371 158
44.75721 167
44.77732 162
44.79744 186
44.81755 172
44.83767 155
44.85778 183
44.87789 175
44.89801 188
44.91812 179
44.93823 200
44.95835 199
44.97846 185
44.99858 188
45.01869 168
45.0388 184
45.05892 184
45.07903 188
45.09914 186
45.11926 167
45.13937 163
45.15949 193
45.1796 199
45.19971 157
45.21983 181
45.23994 171
45.26005 173
45.28017 154
45.30028 177
45.32039 181
45.34051 200
45.36062 211
45.38074 233
45.40085 227
45.42096 233
45.44108 236
45.46119 268
45.4813 276
45.50142 269
45.52153 312
45.54165 322
45.56176 342
45.58187 441
45.60199 432
45.6221 547
45.64221 605
45.66233 739
45.68244 829
45.70256 944
45.72267 981
45.74278 1015
45.7629 1008
45.78301 984
45.80312 819
45.82324 674
45.84335 639
45.86346 617
45.88358 514
45.90369 495
45.92381 376
45.94392 302
45.96403 222
45.98415 240
46.00426 208
46.02437 180
46.04449 186
46.0646 183
46.08472 190
46.10483 199
46.12494 188
46.14506 194
46.16517 152
46.18528 201
46.2054 179
46.22551 157
46.24563 154
46.26574 147
46.28585 188
46.30597 161
46.32608 151
46.34619 172
46.36631 161
46.38642 151
46.40653 151
46.42665 164
46.44676 178
46.46688 161
46.48699 153
46.5071 171
46.52722 156
46.54733 168
46.56744 159
46.58756 154
46.60767 163
46.62779 154
46.6479 163
46.66801 160
46.68813 170
46.70824 167
46.72835 151
46.74847 171
46.76858 183
46.78869 139
46.80881 171
46.82892 165
46.84904 142
46.86915 153
46.88926 146
46.90938 173
46.92949 159
46.9496 176
46.96972 161
46.98983 160
47.00995 168
47.03006 133
47.05017 163
47.07029 163
47.0904 165
47.11051 177
47.13063 161
47.15074 157
47.17086 172
47.19097 140
47.21108 169
47.2312 188
47.25131 156
47.27142 146
47.29154 175
47.31165 175
47.33176 175
47.35188 162
47.37199 161
47.39211 142
47.41222 167
47.43233 160
47.45245 180
47.47256 169
47.49267 161
47.51279 189
47.5329 147
47.55302 154
47.57313 173
47.59324 178
47.61336 187
47.63347 160
47.65358 157
47.6737 135
47.69381 173
47.71393 170
47.73404 139
47.75415 150
47.77427 178
47.79438 165
47.81449 160
47.83461 158
47.85472 160
47.87483 164
47.89495 169
47.91506 157
47.93518 149
47.95529 169
47.9754 155
47.99552 163
48.01563 142
48.03574 156
48.05586 153
48.07597 181
48.09609 159
48.1162 145
48.13631 148
48.15643 158
48.17654 157
48.19665 139
48.21677 145
48.23688 167
48.257 154
48.27711 154
48.29722 177
48.31734 178
48.33745 161
48.35756 164
48.37768 151
48.39779 156
48.4179 149
48.43802 154
48.45813 168
48.47825 191
48.49836 189
48.51847 165
48.53859 179
48.5587 176
48.57881 170
48.59893 160
48.61904 174
48.63916 146
48.65927 172
48.67938 165
48.6995 195
48.71961 174
48.73972 165
48.75984 190
48.77995 154
48.80006 174
48.82018 176
48.84029 168
48.86041 135
48.88052 170
48.90063 183
48.92075 154
48.94086 176
48.96097 188
48.98109 175
49.0012 199
49.02132 189
49.04143 176
49.06154 188
49.08166 159
49.10177 182
49.12188 175
49.142 188
49.16211 179
49.18223 192
49.20234 184
49.22245 175
49.24257 172
49.26268 182
49.28279 200
49.30291 174
49.32302 214
49.34313 188
49.36325 170
49.38336 180
49.40348 172
49.42359 168
49.4437 172
49.46382 162
49.48393 177
49.50404 197
49.52416 224
49.54427 220
49.56439 221
49.5845 223
49.60461 243
49.62473 242
49.64484 245
49.66495 295
49.68507 266
49.70518 283
49.7253 328
49.74541 348
49.76552 380
49.78564 448
49.80575 427
49.82586 527
49.84598 581
49.86609 667
49.8862 707
49.90632 945
49.92643 1010
49.94655 1289
49.96666 1555
49.98677 1726
50.00689 2203
50.027 2682
50.04711 2900
50.06723 3184
50.08734 3328
50.10746 3226
50.12757 2806
50.14768 2481
50.1678 2053
50.18791 1843
50.20802 1719
50.22814 1675
50.24825 1451
50.26837 1229
50.28848 836
50.30859 610
50.32871 438
50.34882 332
50.36893 347
50.38905 298
50.40916 327
50.42927 304
50.44939 291
50.4695 306
50.48962 299
50.50973 297
50.52984 284
50.54996 310
50.57007 301
50.59018 287
50.6103 288
50.63041 316
50.65053 276
50.67064 223
50.69075 273
50.71087 228
50.73098 245
50.75109 245
50.77121 205
50.79132 223
50.81143 205
50.83155 197
50.85166 171
50.87178 174
50.89189 172
50.912 179
50.93212 184
50.95223 171
50.97234 175
50.99246 196
51.01257 164
51.03269 178
51.0528 157
51.07291 151
51.09303 160
51.11314 199
51.13325 140
51.15337 188
51.17348 158
51.1936 136
51.21371 175
51.23382 160
51.25394 170
51.27405 176
51.29416 149
51.31428 175
51.33439 121
51.3545 171
51.37462 149
51.39473 158
51.41485 153
51.43496 144
51.45507 174
51.47519 157
51.4953 131
51.51541 158
51.53553 157
51.55564 169
51.57576 143
51.59587 145
51.61598 139
51.6361 149
51.65621 153
51.67632 173
51.69644 133
51.71655 149
51.73667 171
51.75678 152
51.77689 144
51.79701 143
51.81712 150
51.83723 148
51.85735 139
51.87746 139
51.89757 163
51.91769 183
51.9378 148
51.95792 143
51.97803 142
51.99814 155
52.01826 169
52.03837 168
52.05848 161
52.0786 167
52.09871 136
52.11883 137
52.13894 155
52.15905 149
52.17917 149
52.19928 150
52.21939 148
52.23951 158
52.25962 152
52.27974 159
52.29985 171
52.31996 134
52.34008 139
52.36019 153
52.3803 146
52.40042 135
52.42053 168
52.44064 138
52.46076 173
52.48087 157
52.50099 148
52.5211 136
52.54121 135
52.56133 163
52.58144 169
52.60155 145
52.62167 144
52.64178 142
52.6619 140
52.68201 141
52.70212 146
52.72224 143
52.74235 165
52.76246 149
52.78258 152
52.80269 153
52.8228 167
52.84292 145
52.86303 137
52.88315 136
52.90326 156
52.92337 159
52.94349 147
52.9636 164
52.98371 126
53.00383 161
53.02394 141
53.04406 172
53.06417 164
53.08428 162
53.1044 174
53.12451 146
53.14462 162
53.16474 175
53.18485 183
53.20497 154
53.22508 189
53.24519 164
53.26531 170
53.28542 191
53.30553 163
53.32565 168
53.34576 174
53.36587 177
53.38599 159
53.4061 183
53.42622 171
53.44633 162
53.46644 166
53.48656 184
53.50667 165
53.52678 166
53.5469 151
53.56701 178
53.58713 161
53.60724 171
53.62735 147
53.64747 171
53.66758 165
53.68769 151
53.70781 184
53.72792 164
53.74804 173
53.76815 166
53.78826 168
53.80838 189
53.82849 160
53.8486 165
53.86872 158
53.88883 214
53.90894 173
53.92906 160
53.94917 176
53.96929 190
53.9894 166
54.00951 160
54.02963 177
54.04974 185
54.06985 161
54.08997 170
54.11008 209
54.1302 158
54.15031 192
54.17042 178
54.19054 190
54.21065 193
54.23076 186
54.25088 185
54.27099 189
54.29111 185
54.31122 185
54.33133 183
54.35145 214
54.37156 202
54.39167 217
54.41179 232
54.4319 208
54.45201 240
54.47213 222
54.49224 230
54.51236 243
54.53247 269
54.55258 299
54.5727 285
54.59281 299
54.61292 360
54.63304 401
54.65315 392
54.67327 474
54.69338 568
54.71349 633
54.73361 721
54.75372 824
54.77383 936
54.79395 1042
54.81406 1093
54.83417 1008
54.85429 978
54.8744 867
54.89452 718
54.91463 640
54.93474 659
54.95486 659
54.97497 601
54.99508 573
55.0152 457
55.03531 442
55.05543 346
55.07554 322
55.09565 330
55.11577 312
55.13588 349
55.15599 402
55.17611 440
55.19622 470
55.21634 533
55.23645 525
55.25656 547
55.27668 572
55.29679 540
55.3169 524
55.33702 426
55.35713 385
55.37724 368
55.39736 407
55.41747 370
55.43759 342
55.4577 325
55.47781 261
55.49793 255
55.51804 229
55.53815 203
55.55827 194
55.57838 181
55.5985 197
55.61861 210
55.63872 195
55.65884 173
55.67895 169
55.69906 171
55.71918 177
55.73929 177
55.75941 164
55.77952 189
55.79963 175
55.81975 170
55.83986 195
55.85997 147
55.88009 167
55.9002 146
55.92031 179
55.94043 162
55.96054 171
55.98066 151
56.00077 147
56.02088 161
56.041 159
56.06111 142
56.08122 171
56.10134 178
56.12145 157
56.14157 153
56.16168 159
56.18179 169
56.20191 180
56.22202 159
56.24213 155
56.26225 161
56.28236 152
56.30248 149
56.32259 158
56.3427 147
56.36282 142
56.38293 142
56.40304 143
56.42316 168
56.44327 163
56.46338 167
56.4835 143
56.50361 152
56.52373 159
56.54384 173
56.56395 169
56.58407 138
56.60418 137
56.62429 145
56.64441 160
56.66452 184
56.68464 143
56.70475 146
56.72486 121
56.74498 134
56.76509 171
56.7852 155
56.80532 123
56.82543 141
56.84554 142
56.86566 172
56.88577 155
56.90589 156
56.926 150
56.94611 161
56.96623 165
56.98634 151
57.00645 166
57.02657 179
57.04668 176
57.0668 170
57.08691 154
57.10702 213
57.12714 193
57.14725 218
57.16736 219
57.18748 196
57.20759 205
57.22771 208
57.24782 165
57.26793 189
57.28805 189
57.30816 187
57.32827 178
57.34839 196
57.3685 169
57.38861 152
57.40873 152
57.42884 159
57.44896 156
57.46907 145
57.48918 161
57.5093 168
57.52941 149
57.54952 144
57.56964 179
57.58975 169
57.60987 133
57.62998 143
57.65009 135
57.67021 146
57.69032 138
57.71043 148
57.73055 146
57.75066 135
57.77078 144
57.79089 157
57.811 165
57.83112 154
57.85123 164
57.87134 153
57.89146 144
57.91157 142
57.93168 151
57.9518 157
57.97191 154
57.99203 142
58.01214 136
58.03225 140
58.05237 143
58.07248 139
58.09259 165
58.11271 146
58.13282 177
58.15294 156
58.17305 143
58.19316 168
58.21328 139
58.23339 151
58.2535 152
58.27362 143
58.29373 167
58.31385 160
58.33396 152
58.35407 160
58.37419 178
58.3943 148
58.41441 157
58.43453 140
58.45464 167
58.47475 162
58.49487 150
58.51498 170
58.5351 144
58.55521 152
58.57532 143
58.59544 163
58.61555 164
58.63566 189
58.65578 155
58.67589 167
58.69601 163
58.71612 141
58.73623 143
58.75635 159
58.77646 165
58.79657 150
58.81669 164
58.8368 157
58.85691 171
58.87703 156
58.89714 163
58.91726 163
58.93737 154
58.95748 165
58.9776 130
58.99771 137
59.01782 164
59.03794 166
59.05805 179
59.07817 173
59.09828 171
59.11839 167
59.13851 167
59.15862 159
59.17873 173
59.19885 176
59.21896 180
59.23908 163
59.25919 186
59.2793 164
59.29942 185
59.31953 173
59.33964 169
59.35976 177
59.37987 174
59.39998 187
59.4201 220
59.44021 192
59.46033 221
59.48044 243
59.50055 250
59.52067 279
59.54078 259
59.56089 291
59.58101 344
59.60112 341
59.62124 353
59.64135 457
59.66146 469
59.68158 556
59.70169 644
59.7218 675
59.74192 886
59.76203 943
59.78215 1182
59.80226 1338
59.82237 1590
59.84249 1739
59.8626 1950
59.88271 2067
59.90283 2107
59.92294 2024
59.94305 1731
59.96317 1553
59.98328 1283
60.0034 1207
60.02351 1213
60.04362 1090
60.06374 1103
60.08385 979
60.10396 861
60.12408 665
60.14419 538
60.16431 396
60.18442 318
60.20453 259
60.22465 255
60.24476 256
60.26487 212
60.28499 210
60.3051 222
60.32522 186
60.34533 177
60.36544 205
60.38556 193
60.40567 211
60.42578 176
60.4459 189
60.46601 180
60.48612 182
60.50624 174
60.52635 174
60.54647 172
60.56658 172
60.58669 154
60.60681 162
60.62692 155
60.64703 152
60.66715 165
60.68726 146
60.70738 178
60.72749 137
60.7476 139
60.76772 177
60.78783 159
60.80794 162
60.82806 152
60.84817 148
60.86828 138
60.8884 160
60.90851 175
60.92863 151
60.94874 148
60.96885 145
60.98897 167
61.00908 161
61.02919 160
61.04931 173
61.06942 156
61.08954 165
61.10965 154
61.12976 169
61.14988 167
61.16999 155
61.1901 147
61.21022 164
61.23033 154
61.25045 140
61.27056 186
61.29067 168
61.31079 170
61.3309 170
61.35101 156
61.37113 122
61.39124 143
61.41135 144
61.43147 156
61.45158 150
61.4717 148
61.49181 149
61.51192 145
61.53204 142
61.55215 163
61.57226 150
61.59238 141
61.61249 146
61.63261 157
61.65272 146
61.67283 174
61.69295 150
61.71306 166
61.73317 177
61.75329 159
61.7734 166
61.79352 151
61.81363 172
61.83374 155
61.85386 171
61.87397 184
61.89408 171
61.9142 177
61.93431 189
61.95442 175
61.97454 182
61.99465 169
62.01477 213
62.03488 185
62.05499 185
62.07511 191
62.09522 193
62.11533 186
62.13545 187
62.15556 206
62.17568 182
62.19579 181
62.2159 206
62.23602 186
62.25613 176
62.27624 183
62.29636 180
62.31647 173
62.33659 191
62.3567 174
62.37681 187
62.39693 182
62.41704 167
62.43715 167
62.45727 154
62.47738 181
62.49749 171
62.51761 160
62.53772 160
62.55784 179
62.57795 143
62.59806 136
62.61818 163
62.63829 178
62.6584 154
62.67852 170
62.69863 150
62.71875 189
62.73886 159
62.75897 153
62.77909 153
62.7992 149
62.81931 180
62.83943 170
62.85954 179
62.87965 141
62.89977 139
62.91988 137
62.94 154
62.96011 175
62.98022 146
63.00034 154
63.02045 160
63.04056 153
63.06068 158
63.08079 154
63.10091 163
63.12102 121
63.14113 150
63.16125 149
63.18136 147
63.20147 153
63.22159 134
63.2417 156
63.26182 151
63.28193 139
63.30204 154
63.32216 170
63.34227 133
63.36238 169
63.3825 125
63.40261 139
63.42272 155
63.44284 163
63.46295 155
63.48307 180
63.50318 171
63.52329 179
63.54341 168
63.56352 150
63.58363 194
63.60375 191
63.62386 195
63.64398 186
63.66409 179
63.6842 169
63.70432 209
63.72443 202
63.74454 193
63.76466 236
63.78477 259
63.80489 268
63.825 294
63.84511 335
63.86523 312
63.88534 364
63.90545 396
63.92557 443
63.94568 477
63.96579 481
63.98591 449
64.00602 463
64.02614 468
64.04625 396
64.06636 323
64.08648 324
64.10659 321
64.1267 317
64.14682 309
64.16693 290
64.18705 246
64.20716 220
64.22727 226
64.24739 197
64.2675 180
64.28761 188
64.30773 148
64.32784 158
64.34796 163
64.36807 156
64.38818 152
64.4083 169
64.42841 118
64.44852 146
64.46864 137
64.48875 158
64.50886 167
64.52898 161
64.54909 119
64.56921 156
64.58932 155
64.60943 127
64.62955 154
64.64966 138
64.66977 148
64.68989 120
64.71 142
64.73012 154
64.75023 145
64.77034 141
64.79046 121
64.81057 150
64.83068 147
64.8508 155
64.87091 154
64.89102 137
64.91114 150
64.93125 141
64.95137 137
64.97148 137
64.99159 142
65.01171 150
65.03182 142
65.05193 153
65.07205 136
65.09216 139
65.11228 154
65.13239 144
65.1525 162
65.17262 165
65.19273 148
65.21284 143
65.23296 136
65.25307 137
65.27319 153
65.2933 168
65.31341 132
65.33353 135
65.35364 183
65.37375 160
65.39387 147
65.41398 152
65.43409 163
65.45421 170
65.47432 161
65.49444 174
65.51455 161
65.53466 187
65.55478 180
65.57489 154
65.595 198
65.61512 192
65.63523 210
65.65535 224
65.67546 218
65.69557 228
65.71569 240
65.7358 226
65.75591 231
65.77603 212
65.79614 217
65.81626 177
65.83637 185
65.85648 191
65.8766 193
65.89671 219
65.91682 199
65.93694 175
65.95705 162
65.97716 165
65.99728 159
66.01739 142
66.03751 143
66.05762 138
66.07773 155
66.09785 169
66.11796 180
66.13807 175
66.15819 144
66.1783 167
66.19842 147
66.21853 153
66.23864 169
66.25876 149
66.27887 140
66.29898 153
66.3191 162
66.33921 170
66.35933 155
66.37944 146
66.39955 170
66.41967 150
66.43978 180
66.45989 149
66.48001 158
66.50012 166
66.52023 152
66.54035 162
66.56046 165
66.58058 151
66.60069 147
66.6208 134
66.64092 158
66.66103 153
66.68114 169
66.70126 160
66.72137 140
66.74149 140
66.7616 150
66.78171 153
66.80183 158
66.82194 163
66.84205 143
66.86217 166
66.88228 154
66.90239 174
66.92251 168
66.94262 133
66.96274 166
66.98285 165
67.00296 161
67.02308 172
67.04319 156
67.0633 170
67.08342 169
67.10353 176
67.12365 174
67.14376 178
67.16387 173
67.18399 173
67.2041 184
67.22421 204
67.24433 205
67.26444 218
67.28456 221
67.30467 221
67.32478 250
67.3449 275
67.36501 264
67.38512 302
67.40524 302
67.42535 342
67.44546 360
67.46558 389
67.48569 455
67.50581 479
67.52592 577
67.54603 686
67.56615 801
67.58626 863
67.60637 1031
67.62649 1119
67.6466 1240
67.66672 1234
67.68683 1375
67.70694 1250
67.72706 1143
67.74717 1067
67.76728 936
67.7874 869
67.80751 874
67.82763 922
67.84774 917
67.86785 996
67.88797 1048
67.90808 1015
67.92819 1038
67.94831 1072
67.96842 1063
67.98853 1186
68.00865 1282
68.02876 1502
68.04888 1571
68.06899 1727
68.0891 1760
68.10922 1712
68.12933 1559
68.14944 1548
68.16956 1492
68.18967 1426
68.20979 1522
68.2299 1575
68.25001 1547
68.27013 1458
68.29024 1401
68.31035 1256
68.33047 1012
68.35058 872
68.3707 701
68.39081 680
68.41092 614
68.43104 613
68.45115 537
68.47126 515
68.49138 457
68.51149 388
68.5316 325
68.55172 284
68.57183 249
68.59195 250
68.61206 201
68.63217 205
68.65229 218
68.6724 191
68.69251 206
68.71263 188
68.73274 165
68.75286 180
68.77297 205
68.79308 174
68.8132 167
68.83331 139
68.85342 182
68.87354 167
68.89365 203
68.91376 176
68.93388 179
68.95399 158
68.97411 182
68.99422 169
69.01433 138
69.03445 154
69.05456 146
69.07467 146
69.09479 142
69.1149 156
69.13502 169
69.15513 171
69.17524 145
69.19536 160
69.21547 140
69.23558 157
69.2557 162
69.27581 147
69.29593 140
69.31604 150
69.33615 124
69.35627 141
69.37638 142
69.39649 150
69.41661 168
69.43672 137
69.45683 147
69.47695 153
69.49706 142
69.51718 155
69.53729 154
69.5574 155
69.57752 132
69.59763 146
69.61774 164
69.63786 147
69.65797 143
69.67809 130
69.6982 135
69.71831 150
69.73843 148
69.75854 124
69.77865 137
69.79877 117
69.81888 148
69.839 127
69.85911 145
69.87922 137
69.89934 131
69.91945 150
69.93956 126
69.95968 140
69.97979 152
69.9999 150
70.02002 138
70.04013 146
70.06025 143
70.08036 151
70.10047 124
70.12059 154
70.1407 150
70.16081 123
70.18093 151
70.20104 142
70.22116 142
70.24127 133
70.26138 147
70.2815 137
70.30161 147
70.32172 144
70.34184 128
70.36195 126
70.38207 131
70.40218 141
70.42229 154
70.44241 122
70.46252 139
70.48263 130
70.50275 149
70.52286 128
70.54297 144
70.56309 130
70.5832 144
70.60332 160
70.62343 136
70.64354 135
70.66366 140
70.68377 145
70.70388 108
70.724 131
70.74411 141
70.76423 144
70.78434 142
70.80445 142
70.82457 149
70.84468 149
70.86479 142
70.88491 144
70.90502 110
70.92513 143
70.94525 130
70.96536 140
70.98548 130
71.00559 123
71.0257 149
71.04582 144
71.06593 140
71.08604 138
71.10616 149
71.12627 135
71.14639 124
71.1665 122
71.18661 132
71.20673 123
71.22684 135
71.24695 143
71.26707 143
71.28718 136
71.3073 131
71.32741 112
71.34752 140
71.36764 135
71.38775 137
71.40786 150
71.42798 155
71.44809 135
71.4682 124
71.48832 121
71.50843 154
71.52855 141
71.54866 128
71.56877 133
71.58889 148
71.609 147
71.62911 145
71.64923 144
71.66934 122
71.68946 131
71.70957 139
71.72968 128
71.7498 141
71.76991 137
71.79002 138
71.81014 140
71.83025 126
71.85037 149
71.87048 129
71.89059 131
71.91071 137
71.93082 142
71.95093 142
71.97105 149
71.99116 152
72.01127 133
72.03139 128
72.0515 123
72.07162 146
72.09173 143
72.11184 127
72.13196 150
72.15207 144
72.17218 131
72.1923 136
72.21241 137
72.23253 161
72.25264 141
72.27275 138
72.29287 149
72.31298 151
72.33309 144
72.35321 135
72.37332 131
72.39344 128
72.41355 132
72.43366 141
72.45378 135
72.47389 143
72.494 149
72.51412 141
72.53423 133
72.55434 135
72.57446 118
72.59457 140
72.61469 141
72.6348 132
72.65491 142
72.67503 163
72.69514 129
72.71525 124
72.73537 152
72.75548 151
72.7756 119
72.79571 141
72.81582 136
72.83594 148
72.85605 139
72.87616 141
72.89628 146
72.91639 152
72.9365 144
72.95662 154
72.97673 147
72.99685 151
73.01696 180
73.03707 173
73.05719 159
73.0773 182
73.09741 192
73.11753 168
73.13764 217
73.15776 184
73.17787 220
73.19798 217
73.2181 272
73.23821 295
73.25832 290
73.27844 307
73.29855 394
73.31867 396
73.33878 447
73.35889 475
73.37901 499
73.39912 515
73.41923 521
73.43935 449
73.45946 421
73.47957 375
73.49969 340
73.5198 293
73.53992 326
73.56003 306
73.58014 347
73.60026 325
73.62037 336
73.64048 302
73.6606 281
73.68071 257
73.70083 221
73.72094 196
73.74105 156
73.76117 157
73.78128 153
73.80139 162
73.82151 144
73.84162 165
73.86174 147
73.88185 157
73.90196 139
73.92208 138
73.94219 121
73.9623 141
73.98242 127
74.00253 153
74.02264 145
74.04276 147
74.06287 132
74.08299 139
74.1031 135
74.12321 134
74.14333 134
74.16344 128
74.18355 128
74.20367 136
74.22378 160
74.2439 137
74.26401 126
74.28412 128
74.30424 162
74.32435 140
74.34446 137
74.36458 141
74.38469 134
74.40481 137
74.42492 154
74.44503 136
74.46515 143
74.48526 134
74.50537 127
74.52549 134
74.5456 140
74.56571 139
74.58583 127
74.60594 143
74.62606 150
74.64617 139
74.66628 130
74.6864 138
74.70651 140
74.72662 157
74.74674 123
74.76685 149
74.78697 167
74.80708 134
74.82719 130
74.84731 138
74.86742 129
74.88753 141
74.90765 141
74.92776 144
74.94787 167
74.96799 144
74.9881 142
75.00822 146
