3.00117 20485
3.02128 20021
3.0414 19452
3.06151 18774
3.08162 18451
3.10174 17809
3.12185 17170
3.14197 17199
3.16208 16160
3.18219 15955
3.20231 15279
3.22242 15138
3.24253 14548
3.26265 13933
3.28276 13702
3.30288 13116
3.32299 12810
3.3431 12675
3.36322 11989
3.38333 11545
3.40344 11217
3.42356 10914
3.44367 10443
3.46379 10062
3.4839 10061
3.50401 9336
3.52413 9074
3.54424 9012
3.56435 8535
3.58447 8240
3.60458 7976
3.62469 7503
3.64481 7275
3.66492 7053
3.68504 6938
3.70515 6438
3.72526 6203
3.74538 5966
3.76549 5679
3.7856 5721
3.80572 5157
3.82583 5026
3.84595 4913
3.86606 4699
3.88617 4534
3.90629 4273
3.9264 4165
3.94651 3957
3.96663 3653
3.98674 3703
4.00686 3242
4.02697 3351
4.04708 3123
4.0672 2948
4.08731 2978
4.10742 2618
4.12754 2521
4.14765 2499
4.16776 2414
4.18788 2312
4.20799 1948
4.22811 2093
4.24822 2215
4.26833 2003
4.28845 2025
4.30856 1743
4.32867 1751
4.34879 1765
4.3689 1635
4.38902 1646
4.40913 1498
4.42924 1578
4.44936 1590
4.46947 1459
4.48958 1495
4.5097 1375
4.52981 1311
4.54992 1356
4.57004 1358
4.59015 1331
4.61027 1216
4.63038 1183
4.65049 1215
4.67061 1159
4.69072 1161
4.71083 1130
4.73095 1090
4.75106 982
4.77118 1067
4.79129 951
4.8114 1050
4.83152 890
4.85163 968
4.87174 955
4.89186 897
4.91197 909
4.93209 773
4.9522 847
4.97231 883
4.99243 784
5.01254 792
5.03265 715
5.05277 827
5.07288 736
5.09299 707
5.11311 693
5.13322 724
5.15334 658
5.17345 684
5.19356 643
5.21368 636
5.23379 658
5.2539 597
5.27402 617
5.29413 549
5.31425 552
5.33436 528
5.35447 488
5.37459 512
5.3947 511
5.41481 478
5.43493 500
5.45504 508
5.47516 532
5.49527 458
5.51538 457
5.5355 461
5.55561 437
5.57572 459
5.59584 410
5.61595 415
5.63606 414
5.65618 408
5.67629 429
5.69641 419
5.71652 358
5.73663 406
5.75675 390
5.77686 365
5.79697 364
5.81709 326
5.8372 385
5.85732 334
5.87743 361
5.89754 332
5.91766 329
5.93777 362
5.95788 346
5.978 338
5.99811 350
6.01823 338
6.03834 344
6.05845 315
6.07857 335
6.09868 327
6.11879 269
6.13891 324
6.15902 361
6.17913 296
6.19925 350
6.21936 302
6.23948 324
6.25959 293
6.2797 331
6.29982 322
6.31993 329
6.34004 317
6.36016 306
6.38027 305
6.40039 303
6.4205 313
6.44061 313
6.46073 291
6.48084 277
6.50095 314
6.52107 324
6.54118 306
6.56129 300
6.58141 262
6.60152 295
6.62164 304
6.64175 277
6.66186 306
6.68198 278
6.70209 272
6.7222 288
6.74232 277
6.76243 270
6.78255 268
6.80266 315
6.82277 305
6.84289 274
6.863 248
6.88311 270
6.90323 290
6.92334 280
6.94346 235
6.96357 296
6.98368 288
7.0038 283
7.02391 265
7.04402 297
7.06414 260
7.08425 288
7.10436 271
7.12448 276
7.14459 292
7.16471 268
7.18482 294
7.20493 268
7.22505 292
7.24516 297
7.26527 263
7.28539 265
7.3055 271
7.32562 275
7.34573 282
7.36584 290
7.38596 254
7.40607 303
7.42618 304
7.4463 283
7.46641 294
7.48653 279
7.50664 274
7.52675 266
7.54687 279
7.56698 271
7.58709 282
7.60721 278
7.62732 286
7.64743 250
7.66755 285
7.68766 293
7.70778 254
7.72789 262
7.748 300
7.76812 270
7.78823 290
7.80834 259
7.82846 240
7.84857 300
7.86869 241
7.8888 285
7.90891 274
7.92903 289
7.94914 295
7.96925 282
7.98937 283
8.00948 269
8.0296 292
8.04971 304
8.06982 250
8.08994 279
8.11005 313
8.13016 325
8.15028 297
8.17039 297
8.1905 306
8.21062 314
8.23073 267
8.25085 268
8.27096 281
8.29107 281
8.31119 306
8.3313 264
8.35141 288
8.37153 294
8.39164 270
8.41176 278
8.43187 279
8.45198 283
8.4721 278
8.49221 309
8.51232 308
8.53244 294
8.55255 322
8.57266 307
8.59278 287
8.61289 316
8.63301 327
8.65312 295
8.67323 303
8.69335 293
8.71346 286
8.73357 297
8.75369 286
8.7738 314
8.79392 289
8.81403 262
8.83414 290
8.85426 319
8.87437 281
8.89448 287
8.9146 291
8.93471 318
8.95483 320
8.97494 295
8.99505 291
9.01517 280
9.03528 252
9.05539 344
9.07551 305
9.09562 299
9.11573 274
9.13585 289
9.15596 278
9.17608 303
9.19619 286
9.2163 291
9.23642 337
9.25653 310
9.27664 274
9.29676 261
9.31687 290
9.33699 316
9.3571 308
9.37721 304
9.39733 318
9.41744 272
9.43755 305
9.45767 268
9.47778 314
9.4979 300
9.51801 274
9.53812 279
9.55824 231
9.57835 301
9.59846 296
9.61858 295
9.63869 291
9.6588 317
9.67892 314
9.69903 309
9.71915 263
9.73926 279
9.75937 290
9.77949 319
9.7996 301
9.81971 311
9.83983 300
9.85994 275
9.88006 282
9.90017 284
9.92028 319
9.9404 296
9.96051 299
9.98062 276
10.00074 277
10.02085 282
10.04097 285
10.06108 279
10.08119 265
10.10131 288
10.12142 273
10.14153 267
10.16165 272
10.18176 301
10.20187 284
10.22199 275
10.2421 281
10.26222 294
10.28233 277
10.30244 255
10.32256 308
10.34267 270
10.36278 297
10.3829 267
10.40301 261
10.42313 308
10.44324 279
10.46335 303
10.48347 259
10.50358 249
10.52369 292
10.54381 314
10.56392 300
10.58403 253
10.60415 288
10.62426 285
10.64438 266
10.66449 286
10.6846 283
10.70472 306
10.72483 291
10.74494 277
10.76506 251
10.78517 278
10.80529 332
10.8254 261
10.84551 281
10.86563 298
10.88574 309
10.90585 298
10.92597 268
10.94608 256
10.9662 303
10.98631 332
11.00642 280
11.02654 288
11.04665 280
11.06676 253
11.08688 286
11.10699 285
11.1271 300
11.14722 280
11.16733 321
11.18745 308
11.20756 374
11.22767 301
11.24779 306
11.2679 288
11.28801 250
11.30813 297
11.32824 256
11.34836 259
11.36847 272
11.38858 270
11.4087 286
11.42881 293
11.44892 313
11.46904 298
11.48915 297
11.50927 301
11.52938 278
11.54949 267
11.56961 237
11.58972 260
11.60983 248
11.62995 271
11.65006 314
11.67017 306
11.69029 318
11.7104 295
11.73052 300
11.75063 301
11.77074 275
11.79086 280
11.81097 272
11.83108 315
11.8512 310
11.87131 289
11.89143 298
11.91154 295
11.93165 303
11.95177 338
11.97188 305
11.99199 331
12.01211 316
12.03222 307
12.05234 331
12.07245 294
12.09256 317
12.11268 334
12.13279 345
12.1529 319
12.17302 341
12.19313 309
12.21324 325
12.23336 370
12.25347 337
12.27359 369
12.2937 341
12.31381 343
12.33393 334
12.35404 323
12.37415 319
12.39427 340
12.41438 362
12.4345 327
12.45461 328
12.47472 353
12.49484 331
12.51495 272
12.53506 291
12.55518 296
12.57529 338
12.5954 271
12.61552 297
12.63563 298
12.65575 291
12.67586 278
12.69597 294
12.71609 308
12.7362 283
12.75631 238
12.77643 260
12.79654 318
12.81666 257
12.83677 252
12.85688 255
12.877 250
12.89711 284
12.91722 249
12.93734 253
12.95745 257
12.97757 277
12.99768 255
13.01779 256
13.03791 263
13.05802 257
13.07813 277
13.09825 245
13.11836 243
13.13847 232
13.15859 262
13.1787 284
13.19882 264
13.21893 272
13.23904 222
13.25916 272
13.27927 254
13.29938 260
13.3195 257
13.33961 263
13.35973 276
13.37984 280
13.39995 278
13.42007 248
13.44018 275
13.46029 277
13.48041 209
13.50052 250
13.52064 267
13.54075 268
13.56086 244
13.58098 259
13.60109 250
13.6212 226
13.64132 225
13.66143 227
13.68154 247
13.70166 269
13.72177 275
13.74189 236
13.762 216
13.78211 208
13.80223 223
13.82234 264
13.84245 229
13.86257 253
13.88268 233
13.9028 230
13.92291 266
13.94302 257
13.96314 233
13.98325 256
14.00336 237
14.02348 241
14.04359 220
14.06371 213
14.08382 225
14.10393 236
14.12405 225
14.14416 249
14.16427 232
14.18439 218
14.2045 256
14.22461 262
14.24473 233
14.26484 247
14.28496 249
14.30507 223
14.32518 242
14.3453 244
14.36541 243
14.38552 238
14.40564 260
14.42575 217
14.44587 274
14.46598 236
14.48609 241
14.50621 228
14.52632 234
14.54643 243
14.56655 214
14.58666 223
14.60677 230
14.62689 230
14.647 238
14.66712 223
14.68723 236
14.70734 231
14.72746 230
14.74757 220
14.76768 229
14.7878 223
14.80791 235
14.82803 228
14.84814 235
14.86825 232
14.88837 247
14.90848 210
14.92859 272
14.94871 214
14.96882 209
14.98894 231
15.00905 232
15.02916 238
15.04928 221
15.06939 241
15.0895 243
15.10962 238
15.12973 247
15.14984 244
15.16996 236
15.19007 220
15.21019 239
15.2303 220
15.25041 222
15.27053 206
15.29064 228
15.31075 238
15.33087 248
15.35098 260
15.3711 209
15.39121 245
15.41132 235
15.43144 224
15.45155 232
15.47166 223
15.49178 210
15.51189 200
15.53201 222
15.55212 241
15.57223 244
15.59235 225
15.61246 254
15.63257 223
15.65269 245
15.6728 209
15.69291 237
15.71303 214
15.73314 209
15.75326 236
15.77337 231
15.79348 231
15.8136 224
15.83371 245
15.85382 204
15.87394 227
15.89405 246
15.91417 240
15.93428 258
15.95439 225
15.97451 253
15.99462 254
16.01473 205
16.03485 225
16.05496 234
16.07508 236
16.09519 212
16.1153 219
16.13542 206
16.15553 242
16.17564 229
16.19576 234
16.21587 212
16.23598 196
16.2561 233
16.27621 205
16.29633 220
16.31644 231
16.33655 234
16.35667 208
16.37678 219
16.39689 209
16.41701 213
16.43712 249
16.45724 221
16.47735 240
16.49746 196
16.51758 189
16.53769 218
16.5578 202
16.57792 197
16.59803 220
16.61814 196
16.63826 223
16.65837 203
16.67849 223
16.6986 203
16.71871 190
16.73883 234
16.75894 206
16.77905 230
16.79917 229
16.81928 208
16.8394 171
16.85951 267
16.87962 234
16.89974 240
16.91985 230
16.93996 226
16.96008 216
16.98019 212
17.00031 220
17.02042 207
17.04053 215
17.06065 201
17.08076 234
17.10087 205
17.12099 223
17.1411 222
17.16121 210
17.18133 253
17.20144 213
17.22156 214
17.24167 223
17.26178 232
17.2819 233
17.30201 228
17.32212 224
17.34224 235
17.36235 216
17.38247 231
17.40258 224
17.42269 241
17.44281 211
17.46292 253
17.48303 230
17.50315 228
17.52326 217
17.54338 218
17.56349 215
17.5836 214
17.60372 204
17.62383 238
17.64394 225
17.66406 246
17.68417 242
17.70428 231
17.7244 224
17.74451 234
17.76463 217
17.78474 202
17.80485 244
17.82497 262
17.84508 261
17.86519 251
17.88531 237
17.90542 257
17.92554 220
17.94565 222
17.96576 233
17.98588 226
18.00599 213
18.0261 217
18.04622 241
18.06633 232
18.08645 252
18.10656 219
18.12667 237
18.14679 214
18.1669 251
18.18701 230
18.20713 245
18.22724 257
18.24735 248
18.26747 228
18.28758 246
18.3077 255
18.32781 265
18.34792 251
18.36804 250
18.38815 225
18.40826 268
18.42838 235
18.44849 244
18.46861 228
18.48872 270
18.50883 246
18.52895 249
18.54906 210
18.56917 238
18.58929 234
18.6094 223
18.62951 271
18.64963 217
18.66974 262
18.68986 233
18.70997 221
18.73008 228
18.7502 228
18.77031 219
18.79042 243
18.81054 225
18.83065 230
18.85077 201
18.87088 283
18.89099 209
18.91111 231
18.93122 226
18.95133 245
18.97145 235
18.99156 225
19.01168 236
19.03179 217
19.0519 225
19.07202 221
19.09213 254
19.11224 214
19.13236 255
19.15247 216
19.17258 240
19.1927 243
19.21281 248
19.23293 234
19.25304 241
19.27315 253
19.29327 230
19.31338 267
19.33349 244
19.35361 232
19.37372 207
19.39384 237
19.41395 239
19.43406 251
19.45418 254
19.47429 234
19.4944 277
19.51452 252
19.53463 276
19.55475 255
19.57486 271
19.59497 274
19.61509 267
19.6352 294
19.65531 313
19.67543 292
19.69554 289
19.71565 332
19.73577 303
19.75588 352
19.776 353
19.79611 369
19.81622 401
19.83634 414
19.85645 399
19.87656 416
19.89668 394
19.91679 419
19.93691 425
19.95702 393
19.97713 416
19.99725 388
20.01736 354
20.03747 418
20.05759 431
20.0777 387
20.09782 426
20.11793 408
20.13804 387
20.15816 417
20.17827 451
20.19838 436
20.2185 440
20.23861 407
20.25872 420
20.27884 435
20.29895 421
20.31907 398
20.33918 453
20.35929 415
20.37941 416
20.39952 390
20.41963 377
20.43975 471
20.45986 454
20.47998 496
20.50009 470
20.5202 520
20.54032 508
20.56043 531
20.58054 570
20.60066 527
20.62077 649
20.64088 655
20.661 752
20.68111 924
20.70123 1129
20.72134 1390
20.74145 1966
20.76157 2782
20.78168 3832
20.80179 5140
20.82191 6950
20.84202 8512
20.86214 9023
20.88225 7990
20.90236 6078
20.92248 4403
20.94259 2839
20.9627 1678
20.98282 1010
21.00293 786
21.02305 659
21.04316 602
21.06327 580
21.08339 533
21.1035 533
21.12361 492
21.14373 462
21.16384 452
21.18395 401
21.20407 407
21.22418 418
21.2443 352
21.26441 369
21.28452 377
21.30464 332
21.32475 366
21.34486 376
21.36498 355
21.38509 354
21.40521 324
21.42532 338
21.44543 357
21.46555 339
21.48566 354
21.50577 313
21.52589 324
21.546 342
21.56612 319
21.58623 363
21.60634 341
21.62646 322
21.64657 328
21.66668 299
21.6868 343
21.70691 337
21.72702 312
21.74714 342
21.76725 358
21.78737 327
21.80748 312
21.82759 308
21.84771 353
21.86782 306
21.88793 359
21.90805 287
21.92816 317
21.94828 323
21.96839 329
21.9885 306
22.00862 325
22.02873 277
22.04884 305
22.06896 311
22.08907 300
22.10919 310
22.1293 322
22.14941 292
22.16953 323
22.18964 314
22.20975 329
22.22987 284
22.24998 308
22.27009 333
22.29021 287
22.31032 314
22.33044 291
22.35055 317
22.37066 322
22.39078 292
22.41089 275
22.431 294
22.45112 295
22.47123 274
22.49135 288
22.51146 317
22.53157 306
22.55169 287
22.5718 246
22.59191 287
22.61203 317
22.63214 290
22.65225 280
22.67237 282
22.69248 296
22.7126 281
22.73271 299
22.75282 293
22.77294 265
22.79305 304
22.81316 319
22.83328 299
22.85339 308
22.87351 323
22.89362 298
22.91373 286
22.93385 290
22.95396 296
22.97407 307
22.99419 277
23.0143 285
23.03442 301
23.05453 299
23.07464 285
23.09476 292
23.11487 307
23.13498 302
23.1551 321
23.17521 278
23.19532 280
23.21544 311
23.23555 279
23.25567 288
23.27578 289
23.29589 279
23.31601 272
23.33612 273
23.35623 279
23.37635 300
23.39646 273
23.41658 278
23.43669 296
23.4568 264
23.47692 287
23.49703 273
23.51714 283
23.53726 279
23.55737 300
23.57749 284
23.5976 267
23.61771 296
23.63783 273
23.65794 287
23.67805 272
23.69817 290
23.71828 285
23.73839 302
23.75851 297
23.77862 235
23.79874 280
23.81885 314
23.83896 315
23.85908 276
23.87919 320
23.8993 292
23.91942 316
23.93953 322
23.95965 332
23.97976 339
23.99987 364
24.01999 401
24.0401 391
24.06021 344
24.08033 329
24.10044 276
24.12056 313
24.14067 328
24.16078 298
24.1809 338
24.20101 284
24.22112 289
24.24124 302
24.26135 279
24.28146 291
24.30158 304
24.32169 281
24.34181 271
24.36192 303
24.38203 319
24.40215 296
24.42226 279
24.44237 348
24.46249 289
24.4826 289
24.50272 322
24.52283 275
24.54294 297
24.56306 290
24.58317 288
24.60328 298
24.6234 338
24.64351 306
24.66362 314
24.68374 311
24.70385 310
24.72397 325
24.74408 330
24.76419 329
24.78431 342
24.80442 347
24.82453 327
24.84465 330
24.86476 345
24.88488 342
24.90499 308
24.9251 339
24.94522 332
24.96533 326
24.98544 321
25.00556 304
25.02567 327
25.04579 319
25.0659 333
25.08601 322
25.10613 331
25.12624 321
25.14635 332
25.16647 334
25.18658 326
25.20669 346
25.22681 331
25.24692 350
25.26704 318
25.28715 330
25.30726 346
25.32738 316
25.34749 325
25.3676 355
25.38772 331
25.40783 328
25.42795 294
25.44806 318
25.46817 335
25.48829 312
25.5084 311
25.52851 319
25.54863 298
25.56874 327
25.58886 320
25.60897 361
25.62908 313
25.6492 380
25.66931 426
25.68942 435
25.70954 453
25.72965 470
25.74976 448
25.76988 485
25.78999 514
25.81011 485
25.83022 483
25.85033 482
25.87045 506
25.89056 526
25.91067 521
25.93079 473
25.9509 501
25.97102 550
25.99113 501
26.01124 536
26.03136 553
26.05147 602
26.07158 582
26.0917 614
26.11181 587
26.13193 673
26.15204 660
26.17215 703
26.19227 727
26.21238 888
26.23249 868
26.25261 924
26.27272 965
26.29283 1101
26.31295 1165
26.33306 1273
26.35318 1403
26.37329 1467
26.3934 1835
26.41352 2123
26.43363 2675
26.45374 3533
26.47386 4572
26.49397 6144
26.51409 8585
26.5342 12109
26.55431 16832
26.57443 23223
26.59454 30411
26.61465 36517
26.63477 39857
26.65488 36368
26.67499 29008
26.69511 22189
26.71522 16912
26.73534 11315
26.75545 5981
26.77556 3193
26.79568 2325
26.81579 1769
26.8359 1562
26.85602 1431
26.87613 1234
26.89625 1165
26.91636 1144
26.93647 1025
26.95659 876
26.9767 780
26.99681 761
27.01693 711
27.03704 619
27.05716 568
27.07727 576
27.09738 573
27.1175 514
27.13761 510
27.15772 485
27.17784 492
27.19795 478
27.21806 480
27.23818 467
27.25829 443
27.27841 458
27.29852 438
27.31863 438
27.33875 427
27.35886 416
27.37897 451
27.39909 421
27.4192 445
27.43932 411
27.45943 402
27.47954 422
27.49966 429
27.51977 395
27.53988 404
27.56 400
27.58011 376
27.60023 388
27.62034 336
27.64045 378
27.66057 412
27.68068 355
27.70079 343
27.72091 349
27.74102 340
27.76113 331
27.78125 374
27.80136 327
27.82148 370
27.84159 356
27.8617 348
27.88182 342
27.90193 347
27.92204 318
27.94216 327
27.96227 334
27.98239 372
28.0025 319
28.02261 312
28.04273 332
28.06284 293
28.08295 312
28.10307 311
28.12318 316
28.1433 317
28.16341 341
28.18352 298
28.20364 320
28.22375 326
28.24386 292
28.26398 301
28.28409 337
28.3042 266
28.32432 302
28.34443 306
28.36455 316
28.38466 333
28.40477 292
28.42489 294
28.445 327
28.46511 303
28.48523 286
28.50534 296
28.52546 287
28.54557 282
28.56568 318
28.5858 273
28.60591 305
28.62602 280
28.64614 300
28.66625 274
28.68636 284
28.70648 284
28.72659 254
28.74671 304
28.76682 269
28.78693 279
28.80705 291
28.82716 275
28.84727 250
28.86739 266
28.8875 254
28.90762 266
28.92773 297
28.94784 304
28.96796 265
28.98807 269
29.00818 282
29.0283 268
29.04841 300
29.06853 316
29.08864 279
29.10875 279
29.12887 293
29.14898 282
29.16909 276
29.18921 288
29.20932 295
29.22943 260
29.24955 268
29.26966 279
29.28978 262
29.30989 254
29.33 253
29.35012 268
29.37023 276
29.39034 261
29.41046 259
29.43057 289
29.45069 267
29.4708 275
29.49091 256
29.51103 300
29.53114 278
29.55125 289
29.57137 272
29.59148 255
29.6116 276
29.63171 265
29.65182 270
29.67194 255
29.69205 261
29.71216 241
29.73228 268
29.75239 287
29.7725 261
29.79262 275
29.81273 242
29.83285 281
29.85296 265
29.87307 262
29.89319 280
29.9133 240
29.93341 284
29.95353 279
29.97364 276
29.99376 274
30.01387 268
30.03398 242
30.0541 260
30.07421 246
30.09432 266
30.11444 247
30.13455 237
30.15467 247
30.17478 253
30.19489 285
30.21501 253
30.23512 275
30.25523 264
30.27535 262
30.29546 263
30.31557 252
30.33569 257
30.3558 252
30.37592 267
30.39603 262
30.41614 234
30.43626 259
30.45637 239
30.47648 293
30.4966 250
30.51671 268
30.53683 241
30.55694 250
30.57705 287
30.59717 283
30.61728 243
30.63739 249
30.65751 222
30.67762 246
30.69773 250
30.71785 243
30.73796 239
30.75808 239
30.77819 243
30.7983 238
30.81842 234
30.83853 253
30.85864 278
30.87876 255
30.89887 241
30.91899 249
30.9391 237
30.95921 220
30.97933 245
30.99944 243
31.01955 245
31.03967 253
31.05978 241
31.0799 264
31.10001 253
31.12012 217
31.14024 221
31.16035 227
31.18046 236
31.20058 252
31.22069 235
31.2408 241
31.26092 245
31.28103 232
31.30115 238
31.32126 234
31.34137 249
31.36149 208
31.3816 218
31.40171 231
31.42183 226
31.44194 229
31.46206 214
31.48217 212
31.50228 203
31.5224 227
31.54251 249
31.56262 212
31.58274 222
31.60285 216
31.62297 245
31.64308 224
31.66319 232
31.68331 226
31.70342 219
31.72353 231
31.74365 250
31.76376 203
31.78387 220
31.80399 221
31.8241 228
31.84422 206
31.86433 236
31.88444 202
31.90456 249
31.92467 216
31.94478 219
31.9649 204
31.98501 217
32.00513 217
32.02524 239
32.04535 196
32.06547 233
32.08558 203
32.10569 238
32.12581 218
32.14592 235
32.16604 230
32.18615 205
32.20626 211
32.22638 232
32.24649 196
32.2666 248
32.28672 218
32.30683 218
32.32694 207
32.34706 236
32.36717 194
32.38729 212
32.4074 213
32.42751 205
32.44763 238
32.46774 215
32.48785 193
32.50797 210
32.52808 207
32.5482 220
32.56831 224
32.58842 219
32.60854 227
32.62865 237
32.64876 198
32.66888 197
32.68899 201
32.7091 232
32.72922 188
32.74933 187
32.76945 219
32.78956 234
32.80967 226
32.82979 229
32.8499 218
32.87001 202
32.89013 242
32.91024 218
32.93036 238
32.95047 248
32.97058 199
32.9907 205
33.01081 202
33.03092 210
33.05104 208
33.07115 238
33.09127 242
33.11138 239
33.13149 235
33.15161 223
33.17172 218
33.19183 242
33.21195 203
33.23206 228
33.25217 183
33.27229 212
33.2924 239
33.31252 210
33.33263 227
33.35274 224
33.37286 217
33.39297 214
33.41308 226
33.4332 184
33.45331 203
33.47343 218
33.49354 191
33.51365 216
33.53377 208
33.55388 164
33.57399 189
33.59411 205
33.61422 235
33.63434 221
33.65445 212
33.67456 190
33.69468 203
33.71479 200
33.7349 194
33.75502 208
33.77513 202
33.79524 204
33.81536 204
33.83547 223
33.85559 210
33.8757 203
33.89581 196
33.91593 209
33.93604 228
33.95615 210
33.97627 205
33.99638 191
34.0165 205
34.03661 211
34.05672 206
34.07684 238
34.09695 195
34.11706 241
34.13718 199
34.15729 206
34.17741 219
34.19752 225
34.21763 184
34.23775 171
34.25786 201
34.27797 193
34.29809 211
34.3182 216
34.33831 211
34.35843 211
34.37854 224
34.39866 221
34.41877 213
34.43888 205
34.459 261
34.47911 207
34.49922 244
34.51934 227
34.53945 234
34.55957 237
34.57968 226
34.59979 247
34.61991 238
34.64002 238
34.66013 217
34.68025 234
34.70036 276
34.72047 273
34.74059 282
34.7607 272
34.78082 270
34.80093 275
34.82104 242
34.84116 293
34.86127 249
34.88138 316
34.9015 280
34.92161 276
34.94173 267
34.96184 266
34.98195 261
35.00207 273
35.02218 238
35.04229 262
35.06241 289
35.08252 267
35.10264 260
35.12275 279
35.14286 279
35.16298 261
35.18309 269
35.2032 262
35.22332 261
35.24343 256
35.26354 283
35.28366 255
35.30377 282
35.32389 242
35.344 263
35.36411 255
35.38423 258
35.40434 296
35.42445 263
35.44457 281
35.46468 281
35.4848 292
35.50491 274
35.52502 294
35.54514 283
35.56525 319
35.58536 317
35.60548 341
35.62559 342
35.64571 305
35.66582 296
35.68593 322
35.70605 319
35.72616 298
35.74627 298
35.76639 271
35.7865 322
35.80661 299
35.82673 325
35.84684 286
35.86696 293
35.88707 291
35.90718 280
35.9273 295
35.94741 308
35.96752 281
35.98764 303
36.00775 275
36.02787 321
36.04798 284
36.06809 266
36.08821 311
36.10832 281
36.12843 295
36.14855 304
36.16866 284
36.18878 322
36.20889 292
36.229 304
36.24912 348
36.26923 342
36.28934 404
36.30946 431
36.32957 492
36.34968 566
36.3698 687
36.38991 730
36.41003 939
36.43014 1103
36.45025 1427
36.47037 1838
36.49048 2072
36.51059 2571
36.53071 2703
36.55082 2520
36.57094 2035
36.59105 1606
36.61116 1433
36.63128 1390
36.65139 1060
36.6715 770
36.69162 520
36.71173 414
36.73184 347
36.75196 316
36.77207 301
36.79219 259
36.8123 251
36.83241 281
36.85253 266
36.87264 269
36.89275 251
36.91287 283
36.93298 249
36.9531 259
36.97321 254
36.99332 242
37.01344 250
37.03355 237
37.05366 240
37.07378 208
37.09389 232
37.11401 248
37.13412 248
37.15423 228
37.17435 246
37.19446 248
37.21457 265
37.23469 218
37.2548 238
37.27491 242
37.29503 258
37.31514 259
37.33526 200
37.35537 250
37.37548 256
37.3956 249
37.41571 244
37.43582 235
37.45594 266
37.47605 240
37.49617 248
37.51628 226
37.53639 253
37.55651 225
37.57662 255
37.59673 233
37.61685 256
37.63696 179
37.65708 224
37.67719 223
37.6973 231
37.71742 263
37.73753 244
37.75764 263
37.77776 254
37.79787 259
37.81798 225
37.8381 228
37.85821 231
37.87833 220
37.89844 274
37.91855 234
37.93867 244
37.95878 231
37.97889 228
37.99901 240
38.01912 215
38.03924 236
38.05935 228
38.07946 217
38.09958 248
38.11969 257
38.1398 277
38.15992 275
38.18003 248
38.20015 278
38.22026 252
38.24037 247
38.26049 228
38.2806 256
38.30071 255
38.32083 277
38.34094 263
38.36105 254
38.38117 277
38.40128 244
38.4214 272
38.44151 269
38.46162 274
38.48174 284
38.50185 260
38.52196 233
38.54208 221
38.56219 265
38.58231 202
38.60242 264
38.62253 259
38.64265 255
38.66276 228
38.68287 242
38.70299 262
38.7231 273
38.74321 250
38.76333 232
38.78344 234
38.80356 237
38.82367 250
38.84378 263
38.8639 228
38.88401 259
38.90412 269
38.92424 231
38.94435 245
38.96447 234
38.98458 245
39.00469 242
39.02481 285
39.04492 261
39.06503 279
39.08515 276
39.10526 291
39.12538 292
39.14549 274
39.1656 295
39.18572 322
39.20583 374
39.22594 418
39.24606 479
39.26617 513
39.28628 614
39.3064 725
39.32651 856
39.34663 1091
39.36674 1323
39.38685 1586
39.40697 1901
39.42708 2272
39.44719 2465
39.46731 2383
39.48742 2010
39.50754 1585
39.52765 1360
39.54776 1262
39.56788 1170
39.58799 907
39.6081 640
39.62822 432
39.64833 345
39.66845 332
39.68856 304
39.70867 285
39.72879 285
39.7489 261
39.76901 239
39.78913 262
39.80924 260
39.82935 281
39.84947 265
39.86958 249
39.8897 241
39.90981 283
39.92992 275
39.95004 252
39.97015 265
39.99026 261
40.01038 294
40.03049 305
40.05061 335
40.07072 333
40.09083 379
40.11095 444
40.13106 474
40.15117 536
40.17129 659
40.1914 780
40.21152 889
40.23163 1085
40.25174 1196
40.27186 1256
40.29197 1257
40.31208 1041
40.3322 896
40.35231 764
40.37242 744
40.39254 700
40.41265 577
40.43277 391
40.45288 309
40.47299 265
40.49311 269
40.51322 263
40.53333 260
40.55345 252
40.57356 253
40.59368 251
40.61379 256
40.6339 230
40.65402 232
40.67413 221
40.69424 220
40.71436 221
40.73447 255
40.75458 220
40.7747 224
40.79481 218
40.81493 228
40.83504 226
40.85515 220
40.87527 238
40.89538 232
40.91549 209
40.93561 203
40.95572 192
40.97584 227
40.99595 225
41.01606 224
41.03618 221
41.05629 233
41.0764 199
41.09652 211
41.11663 210
41.13675 232
41.15686 267
41.17697 219
41.19709 178
41.2172 211
41.23731 203
41.25743 230
41.27754 227
41.29765 239
41.31777 227
41.33788 222
41.358 208
41.37811 219
41.39822 217
41.41834 216
41.43845 227
41.45856 247
41.47868 212
41.49879 219
41.51891 199
41.53902 207
41.55913 223
41.57925 228
41.59936 213
41.61947 220
41.63959 236
41.6597 203
41.67982 208
41.69993 201
41.72004 212
41.74016 215
41.76027 220
41.78038 215
41.8005 246
41.82061 218
41.84072 208
41.86084 208
41.88095 248
41.90107 214
41.92118 219
41.94129 218
41.96141 238
41.98152 261
42.00163 211
42.02175 254
42.04186 239
42.06198 249
42.08209 230
42.1022 260
42.12232 290
42.14243 274
42.16254 305
42.18266 317
42.20277 343
42.22289 359
42.243 428
42.26311 515
42.28323 550
42.30334 632
42.32345 801
42.34357 992
42.36368 1218
42.38379 1418
42.40391 1607
42.42402 1811
42.44414 1797
42.46425 1547
42.48436 1186
42.50448 1009
42.52459 954
42.5447 975
42.56482 838
42.58493 627
42.60505 431
42.62516 339
42.64527 296
42.66539 288
42.6855 230
42.70561 233
42.72573 224
42.74584 229
42.76595 241
42.78607 219
42.80618 225
42.8263 205
42.84641 213
42.86652 206
42.88664 224
42.90675 245
42.92686 211
42.94698 208
42.96709 207
42.98721 200
43.00732 212
43.02743 212
43.04755 223
43.06766 212
43.08777 197
43.10789 202
43.128 209
43.14812 189
43.16823 209
43.18834 208
43.20846 177
43.22857 218
43.24868 211
43.2688 182
43.28891 193
43.30902 182
43.32914 206
43.34925 185
43.36937 172
43.38948 171
43.40959 182
43.42971 186
43.44982 189
43.46993 184
43.49005 198
43.51016 188
43.53028 171
43.55039 205
43.5705 212
43.59062 186
43.61073 204
43.63084 208
43.65096 201
43.67107 199
43.69119 198
43.7113 197
43.73141 198
43.75153 174
43.77164 205
43.79175 169
43.81187 188
43.83198 186
43.85209 184
43.87221 182
43.89232 182
43.91244 190
43.93255 175
43.95266 183
43.97278 178
43.99289 237
44.013 189
44.03312 177
44.05323 192
44.07335 191
44.09346 189
44.11357 202
44.13369 176
44.1538 193
44.17391 219
44.19403 180
44.21414 173
44.23426 197
44.25437 195
44.27448 201
44.2946 189
44.31471 204
44.33482 192
44.35494 169
44.37505 193
44.39516 193
44.41528 184
44.43539 197
44.45551 209
44.47562 192
44.49573 200
44.51585 184
44.53596 212
44.55607 185
44.57619 197
44.5963 191
44.61642 187
44.63653 175
44.65664 178
44.67676 193
44.69687 204
44.71698 226
44.7371 201
44.75721 215
44.77732 220
44.79744 200
44.81755 182
44.83767 171
44.85778 225
44.87789 202
44.89801 195
44.91812 206
44.93823 198
44.95835 191
44.97846 218
44.99858 197
45.01869 207
45.0388 208
45.05892 200
45.07903 210
45.09914 189
45.11926 213
45.13937 182
45.15949 187
45.1796 208
45.19971 185
45.21983 213
45.23994 204
45.26005 192
45.28017 203
45.30028 211
45.32039 217
45.34051 222
45.36062 215
45.38074 208
45.40085 215
45.42096 232
45.44108 250
45.46119 249
45.4813 269
45.50142 248
45.52153 290
45.54165 298
45.56176 316
45.58187 384
45.60199 361
45.6221 424
45.64221 468
45.66233 586
45.68244 660
45.70256 773
45.72267 899
45.74278 1118
45.7629 1192
45.78301 1176
45.80312 1109
45.82324 874
45.84335 720
45.86346 703
45.88358 693
45.90369 667
45.92381 573
45.94392 420
45.96403 322
45.98415 257
46.00426 225
46.02437 235
46.04449 236
46.0646 220
46.08472 219
46.10483 213
46.12494 232
46.14506 217
46.16517 215
46.18528 210
46.2054 201
46.22551 183
46.24563 213
46.26574 177
46.28585 173
46.30597 199
46.32608 194
46.34619 209
46.36631 208
46.38642 179
46.40653 199
46.42665 179
46.44676 197
46.46688 172
46.48699 180
46.5071 212
46.52722 203
46.54733 177
46.56744 166
46.58756 209
46.60767 205
46.62779 209
46.6479 183
46.66801 197
46.68813 167
46.70824 186
46.72835 186
46.74847 208
46.76858 196
46.78869 183
46.80881 170
46.82892 178
46.84904 171
46.86915 183
46.88926 202
46.90938 179
46.92949 152
46.9496 196
46.96972 189
46.98983 179
47.00995 188
47.03006 188
47.05017 197
47.07029 200
47.0904 179
47.11051 196
47.13063 174
47.15074 177
47.17086 171
47.19097 191
47.21108 174
47.2312 185
47.25131 181
47.27142 178
47.29154 195
47.31165 175
47.33176 200
47.35188 193
47.37199 175
47.39211 188
47.41222 168
47.43233 208
47.45245 175
47.47256 187
47.49267 174
47.51279 179
47.5329 178
47.55302 190
47.57313 190
47.59324 179
47.61336 187
47.63347 176
47.65358 159
47.6737 183
47.69381 160
47.71393 178
47.73404 178
47.75415 166
47.77427 171
47.79438 152
47.81449 190
47.83461 192
47.85472 190
47.87483 188
47.89495 169
47.91506 171
47.93518 164
47.95529 172
47.9754 198
47.99552 189
48.01563 175
48.03574 188
48.05586 196
48.07597 193
48.09609 171
48.1162 186
48.13631 175
48.15643 187
48.17654 181
48.19665 168
48.21677 167
48.23688 208
48.257 190
48.27711 191
48.29722 179
48.31734 186
48.33745 187
48.35756 188
48.37768 187
48.39779 192
48.4179 188
48.43802 184
48.45813 194
48.47825 182
48.49836 180
48.51847 189
48.53859 183
48.5587 166
48.57881 187
48.59893 198
48.61904 185
48.63916 173
48.65927 192
48.67938 196
48.6995 159
48.71961 179
48.73972 184
48.75984 200
48.77995 183
48.80006 191
48.82018 179
48.84029 173
48.86041 186
48.88052 179
48.90063 210
48.92075 190
48.94086 170
48.96097 175
48.98109 206
49.0012 196
49.02132 181
49.04143 183
49.06154 180
49.08166 168
49.10177 183
49.12188 202
49.142 204
49.16211 202
49.18223 198
49.20234 188
49.22245 178
49.24257 220
49.26268 175
49.28279 229
49.30291 204
49.32302 211
49.34313 212
49.36325 184
49.38336 212
49.40348 202
49.42359 221
49.4437 200
49.46382 211
49.48393 215
49.50404 198
49.52416 232
49.54427 213
49.56439 218
49.5845 233
49.60461 219
49.62473 235
49.64484 233
49.66495 262
49.68507 261
49.70518 275
49.7253 281
49.74541 308
49.76552 334
49.78564 370
49.80575 365
49.82586 393
49.84598 489
49.86609 517
49.8862 597
49.90632 716
49.92643 798
49.94655 910
49.96666 1082
49.98677 1376
50.00689 1557
50.027 1941
50.04711 2489
50.06723 2934
50.08734 3424
50.10746 3677
50.12757 3703
50.14768 3444
50.1678 2603
50.18791 2082
50.20802 1923
50.22814 1902
50.24825 1979
50.26837 1826
50.28848 1384
50.30859 905
50.32871 589
50.34882 436
50.36893 361
50.38905 350
50.40916 334
50.42927 287
50.44939 298
50.4695 271
50.48962 288
50.50973 316
50.52984 286
50.54996 282
50.57007 294
50.59018 305
50.6103 290
50.63041 298
50.65053 295
50.67064 239
50.69075 233
50.71087 253
50.73098 229
50.75109 230
50.77121 194
50.79132 210
50.81143 202
50.83155 193
50.85166 207
50.87178 199
50.89189 206
50.912 186
50.93212 188
50.95223 176
50.97234 189
50.99246 206
51.01257 152
51.03269 178
51.0528 191
51.07291 196
51.09303 158
51.11314 185
51.13325 188
51.15337 188
51.17348 185
51.1936 171
51.21371 177
51.23382 183
51.25394 194
51.27405 172
51.29416 179
51.31428 193
51.33439 195
51.3545 156
51.37462 163
51.39473 180
51.41485 179
51.43496 157
51.45507 167
51.47519 160
51.4953 171
51.51541 176
51.53553 162
51.55564 170
51.57576 174
51.59587 166
51.61598 189
51.6361 176
51.65621 170
51.67632 179
51.69644 198
51.71655 164
51.73667 145
51.75678 165
51.77689 151
51.79701 173
51.81712 159
51.83723 162
51.85735 187
51.87746 181
51.89757 195
51.91769 181
51.9378 182
51.95792 186
51.97803 175
51.99814 173
52.01826 173
52.03837 162
52.05848 197
52.0786 148
52.09871 160
52.11883 159
52.13894 160
52.15905 177
52.17917 162
52.19928 175
52.21939 167
52.23951 194
52.25962 206
52.27974 172
52.29985 170
52.31996 201
52.34008 143
52.36019 187
52.3803 200
52.40042 149
52.42053 174
52.44064 173
52.46076 173
52.48087 171
52.50099 179
52.5211 171
52.54121 164
52.56133 168
52.58144 165
52.60155 167
52.62167 169
52.64178 152
52.6619 159
52.68201 151
52.70212 182
52.72224 162
52.74235 152
52.76246 160
52.78258 140
52.80269 150
52.8228 139
52.84292 166
52.86303 164
52.88315 164
52.90326 157
52.92337 166
52.94349 170
52.9636 152
52.98371 157
53.00383 153
53.02394 176
53.04406 186
53.06417 166
53.08428 170
53.1044 210
53.12451 183
53.14462 192
53.16474 150
53.18485 196
53.20497 198
53.22508 200
53.24519 185
53.26531 167
53.28542 179
53.30553 183
53.32565 190
53.34576 206
53.36587 195
53.38599 200
53.4061 167
53.42622 193
53.44633 179
53.46644 177
53.48656 199
53.50667 196
53.52678 185
53.5469 187
53.56701 194
53.58713 194
53.60724 196
53.62735 180
53.64747 191
53.66758 191
53.68769 188
53.70781 173
53.72792 227
53.74804 176
53.76815 194
53.78826 185
53.80838 214
53.82849 202
53.8486 209
53.86872 202
53.88883 201
53.90894 176
53.92906 184
53.94917 188
53.96929 201
53.9894 196
54.00951 187
54.02963 185
54.04974 192
54.06985 200
54.08997 190
54.11008 197
54.1302 210
54.15031 188
54.17042 222
54.19054 209
54.21065 184
54.23076 194
54.25088 211
54.27099 215
54.29111 215
54.31122 208
54.33133 221
54.35145 209
54.37156 200
54.39167 227
54.41179 217
54.4319 204
54.45201 258
54.47213 251
54.49224 242
54.51236 243
54.53247 241
54.55258 265
54.5727 279
54.59281 304
54.61292 313
54.63304 362
54.65315 375
54.67327 431
54.69338 437
54.71349 528
54.73361 622
54.75372 670
54.77383 845
54.79395 925
54.81406 1094
54.83417 1184
54.85429 1236
54.8744 1166
54.89452 932
54.91463 758
54.93474 707
54.95486 693
54.97497 727
54.99508 726
55.0152 715
55.03531 578
55.05543 497
55.07554 399
55.09565 351
55.11577 343
55.13588 366
55.15599 401
55.17611 391
55.19622 411
55.21634 450
55.23645 509
55.25656 576
55.27668 600
55.29679 617
55.3169 669
55.33702 574
55.35713 496
55.37724 411
55.39736 404
55.41747 381
55.43759 420
55.4577 389
55.47781 393
55.49793 313
55.51804 297
55.53815 243
55.55827 248
55.57838 225
55.5985 224
55.61861 191
55.63872 195
55.65884 193
55.67895 192
55.69906 210
55.71918 186
55.73929 156
55.75941 200
55.77952 215
55.79963 190
55.81975 178
55.83986 201
55.85997 195
55.88009 200
55.9002 208
55.92031 185
55.94043 197
55.96054 198
55.98066 200
56.00077 192
56.02088 162
56.041 205
56.06111 176
56.08122 198
56.10134 202
56.12145 203
56.14157 183
56.16168 189
56.18179 195
56.20191 187
56.22202 195
56.24213 198
56.26225 169
56.28236 183
56.30248 212
56.32259 186
56.3427 181
56.36282 162
56.38293 184
56.40304 172
56.42316 178
56.44327 191
56.46338 186
56.4835 199
56.50361 213
56.52373 183
56.54384 178
56.56395 174
56.58407 177
56.60418 197
56.62429 186
56.64441 197
56.66452 179
56.68464 175
56.70475 187
56.72486 180
56.74498 183
56.76509 186
56.7852 161
56.80532 190
56.82543 174
56.84554 167
56.86566 182
56.88577 212
56.90589 165
56.926 179
56.94611 187
56.96623 191
56.98634 186
57.00645 207
57.02657 186
57.04668 206
57.0668 188
57.08691 198
57.10702 203
57.12714 204
57.14725 224
57.16736 228
57.18748 231
57.20759 251
57.22771 249
57.24782 230
57.26793 215
57.28805 204
57.30816 218
57.32827 187
57.34839 204
57.3685 196
57.38861 227
57.40873 210
57.42884 198
57.44896 182
57.46907 182
57.48918 173
57.5093 176
57.52941 163
57.54952 177
57.56964 164
57.58975 178
57.60987 151
57.62998 156
57.65009 180
57.67021 191
57.69032 179
57.71043 170
57.73055 176
57.75066 172
57.77078 159
57.79089 182
57.811 181
57.83112 181
57.85123 200
57.87134 157
57.89146 200
57.91157 190
57.93168 172
57.9518 169
57.97191 167
57.99203 169
58.01214 188
58.03225 174
58.05237 154
58.07248 175
58.09259 186
58.11271 182
58.13282 203
58.15294 184
58.17305 184
58.19316 170
58.21328 170
58.23339 185
58.2535 186
58.27362 203
58.29373 200
58.31385 164
58.33396 171
58.35407 175
58.37419 188
58.3943 159
58.41441 171
58.43453 143
58.45464 167
58.47475 162
58.49487 182
58.51498 172
58.5351 198
58.55521 209
58.57532 205
58.59544 152
58.61555 208
58.63566 176
58.65578 172
58.67589 184
58.69601 168
58.71612 166
58.73623 176
58.75635 160
58.77646 176
58.79657 180
58.81669 183
58.8368 166
58.85691 182
58.87703 170
58.89714 192
58.91726 190
58.93737 181
58.95748 197
58.9776 172
58.99771 194
59.01782 173
59.03794 155
59.05805 204
59.07817 193
59.09828 188
59.11839 181
59.13851 196
59.15862 182
59.17873 189
59.19885 186
59.21896 205
59.23908 173
59.25919 188
59.2793 178
59.29942 205
59.31953 216
59.33964 217
59.35976 197
59.37987 200
59.39998 206
59.4201 173
59.44021 241
59.46033 220
59.48044 233
59.50055 238
59.52067 272
59.54078 269
59.56089 263
59.58101 281
59.60112 319
59.62124 360
59.64135 393
59.66146 411
59.68158 457
59.70169 506
59.7218 605
59.74192 648
59.76203 752
59.78215 896
59.80226 1012
59.82237 1235
59.84249 1456
59.8626 1712
59.88271 1923
59.90283 2312
59.92294 2391
59.94305 2297
59.96317 2065
59.98328 1607
60.0034 1265
60.02351 1113
60.04362 1188
60.06374 1268
60.08385 1274
60.10396 1191
60.12408 1118
60.14419 804
60.16431 604
60.18442 421
60.20453 332
60.22465 299
60.24476 272
60.26487 266
60.28499 236
60.3051 246
60.32522 245
60.34533 216
60.36544 198
60.38556 231
60.40567 184
60.42578 221
60.4459 190
60.46601 207
60.48612 202
60.50624 188
60.52635 176
60.54647 185
60.56658 184
60.58669 172
60.60681 189
60.62692 167
60.64703 171
60.66715 173
60.68726 176
60.70738 175
60.72749 206
60.7476 183
60.76772 191
60.78783 175
60.80794 175
60.82806 182
60.84817 184
60.86828 208
60.8884 178
60.90851 178
60.92863 160
60.94874 177
60.96885 198
60.98897 179
61.00908 173
61.02919 170
61.04931 161
61.06942 170
61.08954 175
61.10965 163
61.12976 175
61.14988 179
61.16999 184
61.1901 177
61.21022 196
61.23033 191
61.25045 182
61.27056 168
61.29067 184
61.31079 202
61.3309 188
61.35101 171
61.37113 192
61.39124 173
61.41135 164
61.43147 159
61.45158 181
61.4717 174
61.49181 160
61.51192 163
61.53204 192
61.55215 175
61.57226 186
61.59238 187
61.61249 182
61.63261 160
61.65272 201
61.67283 205
61.69295 201
61.71306 181
61.73317 179
61.75329 203
61.7734 195
61.79352 196
61.81363 210
61.83374 183
61.85386 221
61.87397 180
61.89408 206
61.9142 209
61.93431 170
61.95442 196
61.97454 214
61.99465 181
62.01477 195
62.03488 228
62.05499 205
62.07511 190
62.09522 211
62.11533 199
62.13545 199
62.15556 216
62.17568 226
62.19579 211
62.2159 234
62.23602 218
62.25613 206
62.27624 247
62.29636 186
62.31647 203
62.33659 199
62.3567 196
62.37681 219
62.39693 208
62.41704 229
62.43715 221
62.45727 205
62.47738 178
62.49749 220
62.51761 217
62.53772 191
62.55784 198
62.57795 210
62.59806 185
62.61818 191
62.63829 206
62.6584 185
62.67852 213
62.69863 169
62.71875 193
62.73886 164
62.75897 188
62.77909 178
62.7992 170
62.81931 150
62.83943 186
62.85954 191
62.87965 175
62.89977 193
62.91988 156
62.94 172
62.96011 197
62.98022 190
63.00034 174
63.02045 169
63.04056 192
63.06068 158
63.08079 206
63.10091 171
63.12102 151
63.14113 176
63.16125 193
63.18136 169
63.20147 178
63.22159 174
63.2417 165
63.26182 194
63.28193 164
63.30204 167
63.32216 180
63.34227 179
63.36238 168
63.3825 187
63.40261 179
63.42272 159
63.44284 181
63.46295 174
63.48307 168
63.50318 194
63.52329 183
63.54341 173
63.56352 187
63.58363 214
63.60375 184
63.62386 185
63.64398 199
63.66409 168
63.6842 191
63.70432 177
63.72443 192
63.74454 206
63.76466 223
63.78477 221
63.80489 293
63.825 251
63.84511 299
63.86523 299
63.88534 310
63.90545 351
63.92557 444
63.94568 487
63.96579 492
63.98591 531
64.00602 523
64.02614 530
64.04625 447
64.06636 410
64.08648 351
64.10659 315
64.1267 319
64.14682 361
64.16693 371
64.18705 351
64.20716 291
64.22727 280
64.24739 255
64.2675 227
64.28761 202
64.30773 174
64.32784 181
64.34796 171
64.36807 181
64.38818 160
64.4083 182
64.42841 172
64.44852 159
64.46864 179
64.48875 176
64.50886 172
64.52898 195
64.54909 165
64.56921 161
64.58932 163
64.60943 158
64.62955 175
64.64966 151
64.66977 173
64.68989 169
64.71 173
64.73012 158
64.75023 158
64.77034 180
64.79046 148
64.81057 169
64.83068 146
64.8508 153
64.87091 165
64.89102 160
64.91114 150
64.93125 167
64.95137 166
64.97148 148
64.99159 173
65.01171 150
65.03182 162
65.05193 164
65.07205 175
65.09216 149
65.11228 161
65.13239 159
65.1525 180
65.17262 165
65.19273 172
65.21284 153
65.23296 154
65.25307 183
65.27319 153
65.2933 172
65.31341 157
65.33353 165
65.35364 179
65.37375 158
65.39387 170
65.41398 188
65.43409 184
65.45421 185
65.47432 186
65.49444 212
65.51455 177
65.53466 168
65.55478 191
65.57489 180
65.595 183
65.61512 191
65.63523 221
65.65535 214
65.67546 234
65.69557 222
65.71569 267
65.7358 280
65.75591 276
65.77603 241
65.79614 262
65.81626 245
65.83637 231
65.85648 221
65.8766 196
65.89671 208
65.91682 207
65.93694 211
65.95705 194
65.97716 219
65.99728 209
66.01739 163
66.03751 174
66.05762 168
66.07773 159
66.09785 159
66.11796 171
66.13807 174
66.15819 148
66.1783 168
66.19842 168
66.21853 196
66.23864 177
66.25876 175
66.27887 167
66.29898 176
66.3191 175
66.33921 171
66.35933 138
66.37944 165
66.39955 179
66.41967 181
66.43978 157
66.45989 159
66.48001 174
66.50012 184
66.52023 165
66.54035 190
66.56046 166
66.58058 175
66.60069 185
66.6208 182
66.64092 179
66.66103 184
66.68114 211
66.70126 180
66.72137 185
66.74149 187
66.7616 171
66.78171 172
66.80183 143
66.82194 187
66.84205 173
66.86217 181
66.88228 186
66.90239 180
66.92251 198
66.94262 160
66.96274 161
66.98285 184
67.00296 177
67.02308 157
67.04319 184
67.0633 183
67.08342 186
67.10353 201
67.12365 181
67.14376 196
67.16387 201
67.18399 178
67.2041 201
67.22421 202
67.24433 210
67.26444 209
67.28456 246
67.30467 246
67.32478 256
67.3449 250
67.36501 276
67.38512 284
67.40524 317
67.42535 342
67.44546 343
67.46558 346
67.48569 362
67.50581 446
67.52592 500
67.54603 587
67.56615 668
67.58626 740
67.60637 886
67.62649 991
67.6466 1154
67.66672 1338
67.68683 1448
67.70694 1510
67.72706 1512
67.74717 1265
67.76728 1142
67.7874 943
67.80751 817
67.82763 917
67.84774 933
67.86785 1011
67.88797 1004
67.90808 1095
67.92819 1049
67.94831 1108
67.96842 997
67.98853 1064
68.00865 1145
68.02876 1283
68.04888 1538
68.06899 1655
68.0891 1812
68.10922 1989
68.12933 2022
68.14944 1839
68.16956 1660
68.18967 1446
68.20979 1398
68.2299 1500
68.25001 1724
68.27013 1807
68.29024 1838
68.31035 1707
68.33047 1460
68.35058 1188
68.3707 999
68.39081 754
68.41092 738
68.43104 698
68.45115 685
68.47126 644
68.49138 662
68.51149 570
68.5316 474
68.55172 383
68.57183 320
68.59195 278
68.61206 264
68.63217 262
68.65229 222
68.6724 207
68.69251 226
68.71263 212
68.73274 210
68.75286 202
68.77297 199
68.79308 197
68.8132 210
68.83331 205
68.85342 179
68.87354 193
68.89365 148
68.91376 182
68.93388 188
68.95399 203
68.97411 207
68.99422 170
69.01433 180
69.03445 193
69.05456 185
69.07467 189
69.09479 198
69.1149 180
69.13502 178
69.15513 164
69.17524 176
69.19536 163
69.21547 171
69.23558 191
69.2557 169
69.27581 178
69.29593 176
69.31604 158
69.33615 175
69.35627 170
69.37638 177
69.39649 167
69.41661 173
69.43672 184
69.45683 164
69.47695 155
69.49706 161
69.51718 159
69.53729 169
69.5574 164
69.57752 168
69.59763 165
69.61774 167
69.63786 174
69.65797 170
69.67809 174
69.6982 154
69.71831 149
69.73843 141
69.75854 153
69.77865 181
69.79877 142
69.81888 160
69.839 182
69.85911 169
69.87922 184
69.89934 158
69.91945 149
69.93956 161
69.95968 178
69.97979 164
69.9999 154
70.02002 158
70.04013 146
70.06025 166
70.08036 162
70.10047 154
70.12059 175
70.1407 118
70.16081 151
70.18093 159
70.20104 168
70.22116 158
70.24127 179
70.26138 151
70.2815 154
70.30161 180
70.32172 155
70.34184 150
70.36195 170
70.38207 163
70.40218 171
70.42229 143
70.44241 151
70.46252 163
70.48263 157
70.50275 170
70.52286 137
70.54297 174
70.56309 169
70.5832 187
70.60332 167
70.62343 136
70.64354 175
70.66366 165
70.68377 167
70.70388 176
70.724 167
70.74411 150
70.76423 167
70.78434 156
70.80445 152
70.82457 141
70.84468 169
70.86479 162
70.88491 166
70.90502 147
70.92513 153
70.94525 143
70.96536 161
70.98548 149
71.00559 144
71.0257 144
71.04582 146
71.06593 154
71.08604 143
71.10616 149
71.12627 154
71.14639 182
71.1665 163
71.18661 166
71.20673 160
71.22684 163
71.24695 183
71.26707 171
71.28718 140
71.3073 167
71.32741 146
71.34752 150
71.36764 163
71.38775 158
71.40786 156
71.42798 155
71.44809 162
71.4682 161
71.48832 171
71.50843 143
71.52855 132
71.54866 142
71.56877 140
71.58889 139
71.609 155
71.62911 150
71.64923 144
71.66934 151
71.68946 143
71.70957 153
71.72968 172
71.7498 156
71.76991 152
71.79002 161
71.81014 164
71.83025 162
71.85037 148
71.87048 158
71.89059 169
71.91071 150
71.93082 153
71.95093 169
71.97105 150
71.99116 148
72.01127 153
72.03139 170
72.0515 142
72.07162 175
72.09173 157
72.11184 164
72.13196 171
72.15207 147
72.17218 122
72.1923 158
72.21241 129
72.23253 151
72.25264 165
72.27275 147
72.29287 146
72.31298 167
72.33309 177
72.35321 163
72.37332 147
72.39344 164
72.41355 157
72.43366 141
72.45378 149
72.47389 156
72.494 166
72.51412 169
72.53423 156
72.55434 157
72.57446 172
72.59457 167
72.61469 131
72.6348 159
72.65491 163
72.67503 161
72.69514 161
72.71525 186
72.73537 156
72.75548 171
72.7756 170
72.79571 182
72.81582 149
72.83594 152
72.85605 175
72.87616 177
72.89628 165
72.91639 177
72.9365 149
72.95662 183
72.97673 186
72.99685 164
73.01696 173
73.03707 180
73.05719 169
73.0773 178
73.09741 192
73.11753 209
73.13764 188
73.15776 211
73.17787 253
73.19798 240
73.2181 234
73.23821 254
73.25832 304
73.27844 308
73.29855 328
73.31867 375
73.33878 412
73.35889 444
73.37901 540
73.39912 555
73.41923 584
73.43935 576
73.45946 602
73.47957 485
73.49969 434
73.5198 374
73.53992 315
73.56003 315
73.58014 348
73.60026 366
73.62037 369
73.64048 379
73.6606 367
73.68071 341
73.70083 289
73.72094 262
73.74105 209
73.76117 213
73.78128 175
73.80139 177
73.82151 184
73.84162 189
73.86174 172
73.88185 170
73.90196 181
73.92208 179
73.94219 150
73.9623 159
73.98242 141
74.00253 176
74.02264 165
74.04276 159
74.06287 156
74.08299 152
74.1031 165
74.12321 159
74.14333 164
74.16344 167
74.18355 157
74.20367 160
74.22378 168
74.2439 143
74.26401 156
74.28412 147
74.30424 172
74.32435 155
74.34446 163
74.36458 147
74.38469 153
74.40481 152
74.42492 147
74.44503 154
74.46515 167
74.48526 163
74.50537 166
74.52549 146
74.5456 166
74.56571 159
74.58583 139
74.60594 161
74.62606 174
74.64617 155
74.66628 170
74.6864 160
74.70651 153
74.72662 181
74.74674 154
74.76685 166
74.78697 177
74.80708 161
74.82719 167
74.84731 155
74.86742 147
74.88753 153
74.90765 146
74.92776 185
74.94787 159
74.96799 171
74.9881 167
75.00822 156
