3.00117 20367.16483909
3.02128 19604.7215628383
3.0414 19110
3.06151 19092.7711551752
3.08162 18202.2086795539
3.10174 17797.5182955644
3.12185 17360.8916238304
3.14197 16685.0721132282
3.16208 16836.6163296327
3.18219 15573.4008089679
3.20231 15570.020992203
3.22242 15040.0431524683
3.24253 14211.5974332058
3.26265 14247.1653921491
3.28276 13403.6129755591
3.30288 13074.9337694198
3.32299 13067.2301795556
3.3431 12342
3.36322 12209.547658955
3.38333 11501.5670346763
3.40344 11623.7227036433
3.42356 10939.6636596494
3.44367 10387.3293086732
3.46379 10243.1835455651
3.4839 9705
3.50401 9506.77988093662
3.52413 8866.40996988253
3.54424 8859.16533560931
3.56435 8668.32519513135
3.58447 8084.40849491436
3.60458 8029.28736504126
3.62469 7440.24955465986
3.64481 7228.94772171492
3.66492 7024.67800085305
3.68504 6675.48323316565
3.70515 6553.87762971154
3.72526 6405.70305147549
3.74538 5973.27651938617
3.76549 5831.12828242376
3.7856 5452
3.80572 5350.83202846418
3.82583 5044.56224708091
3.84595 4880.83291256808
3.86606 4792.38760145532
3.88617 4549.22098314065
3.90629 4429.15066771419
3.9264 3985
3.94651 3934.07297249798
3.96663 4008.72688410569
3.98674 3656.50734233504
4.00686 3566.30526345222
4.02697 3294.33616949986
4.04708 3214.0023721374
4.0672 3156
4.08731 2915.91384223923
4.10742 2850.95783055215
4.12754 2727.55883283304
4.14765 2528.09466383794
4.16776 2614.92714808653
4.18788 2508.1665151281
4.20799 2339.09693163974
4.22811 2162.95613594651
4.24822 2166.02865351615
4.26833 2155.92812573403
4.28845 2058.60792316549
4.30856 1901.16863226971
4.32867 1898.97258878835
4.34879 1892.00784398427
4.3689 1889
4.38902 1874.90611310374
4.40913 1721.79296181519
4.42924 1669.06323019731
4.44936 1704.08399395324
4.46947 1623.99721299945
4.48958 1701.97211790506
4.5097 1620
4.52981 1512.95391719177
4.54992 1445.97426469256
4.57004 1474.15802797193
4.59015 1527.12169088355
4.61027 1394.18462093603
4.63038 1329.05018817667
4.65049 1276.01423320957
4.67061 1307.04917363779
4.69072 1367.90956653086
4.71083 1173.79852951486
4.73095 1177.14630288802
4.75106 1220.91988413832
4.77118 1247.01047893229
4.79129 1184.05417656485
4.8114 1086
4.83152 1089.97395262113
4.85163 1048.04073273443
4.87174 1132.0866853525
4.89186 1088.16135321666
4.91197 1022.07302321896
4.93209 993.004163396521
4.9522 983
4.97231 959.022442118754
4.99243 1020.95251718655
5.01254 897.797527063943
5.03265 886.907889048446
5.05277 893.09076837521
5.07288 819.99436473209
5.09299 891.982731566842
5.11311 839.958020270705
5.13322 795.011935399341
5.15334 815.929281811556
5.17345 743.941756763148
5.19356 770.01699715508
5.21368 706.055916304309
5.23379 717.961568925376
5.2539 792
5.27402 727.93305820119
5.29413 695.964643287467
5.31425 683.067550622251
5.33436 714.061342805317
5.35447 642.040242258538
5.37459 670.995427620553
5.3947 644
5.41481 656.982100676671
5.43493 592.992096137473
5.45504 654.097090916833
5.47516 652.025748240124
5.49527 623.134495387132
5.51538 525.007189205701
5.5355 587
5.55561 531.993255247122
5.57572 585.037820773134
5.59584 568.944812301096
5.61595 546.108534722533
5.63606 497.02639813757
5.65618 529.952030285978
5.67629 545.017726349658
5.69641 489.98731363144
5.71652 494.987814347495
5.73663 466.003559815321
5.75675 513.141925794626
5.77686 537.035546420381
5.79697 491.077459473987
5.81709 456.008732685428
5.8372 446
5.85732 455.066111474587
5.87743 536.025882257499
5.89754 474.847832160373
5.91766 451.92704802226
5.93777 498.001155832261
5.95788 445.053856276875
5.978 421
5.99811 421.018496808971
6.01823 475.040401560826
6.03834 462.960599712349
6.05845 447.078568756092
6.07857 416.987337686292
6.09868 447.999631810213
6.11879 425.991439402955
6.13891 482.016240361449
6.15902 459.954236180699
6.17913 433.006532314296
6.19925 442.944225238837
6.21936 403.009063601617
6.23948 436.977255935538
6.25959 430.002898401814
6.2797 437
6.29982 418.971183242847
6.31993 392.975240859899
6.34004 390.016765378425
6.36016 404.962753542932
6.38027 414.017091054296
6.40039 394.002858823305
6.4205 406
6.44061 410.006021612516
6.46073 432.028655525562
6.48084 434.972106248611
6.50095 411.064345616125
6.52107 397.989945689327
6.54118 404.022086797165
6.56129 364.009848037082
6.58141 377.010102506615
6.60152 389.013449375571
6.62164 399.989260714111
6.64175 381.967403788308
6.66186 391.933003869278
6.68198 414.025513140186
6.70209 372.993969379791
6.7222 423
6.74232 384.004939988864
6.76243 436.023114113905
6.78255 393.907139628049
6.80266 380.067028692083
6.82277 342.970977910565
6.84289 397.995325183436
6.863 355
6.88311 379.008679256719
6.90323 364.971772323672
6.92334 363.020537432659
6.94346 372.996872977508
6.96357 374.971254958404
6.98368 393.018614318471
7.0038 353
7.02391 387.02066535581
7.04402 398.982045262848
7.06414 366.941378649894
7.08425 355.982537471006
7.10436 370.973106629235
7.12448 378.992076830207
7.14459 373.019571463904
7.16471 333.005742737847
7.18482 387.035144418711
7.20493 377.973059813253
7.22505 378.024779155341
7.24516 378.043145644016
7.26527 351.006284494567
7.28539 371.989901206435
7.3055 366
7.32562 335.999800327099
7.34573 361.026835474374
7.36584 357.988328936362
7.38596 353.036626172385
7.40607 344.939491215238
7.42618 406.982201903141
7.4463 369
7.46641 362.003158080735
7.48653 366.008039896828
7.50664 376.028139330909
7.52675 382.034673888527
7.54687 370.960323926464
7.56698 401.03543478092
7.58709 320.01829522171
7.60721 356.023656063136
7.62732 372.002405810268
7.64743 365.959286632998
7.66755 343.048995143858
7.68766 391.947734791029
7.70778 373.034894087592
7.72789 352.002935973964
7.748 359
7.76812 368.990393976867
7.78823 352.001376164822
7.80834 364.988242074888
7.82846 350.960823799606
7.84857 386.014618096261
7.86869 333.016951611955
7.8888 342
7.90891 337.996375884777
7.92903 338.004594646671
7.94914 337.989962021598
7.96925 333.987332208649
7.98937 360.920017751178
8.00948 402.015497148388
8.0296 355
8.04971 386.001676873321
8.06982 351.986409954767
8.08994 366.988827260797
8.11005 334.962157291879
8.13016 346.987022760732
8.15028 342.986898044316
8.17039 363.005601590403
8.1905 338
8.21062 382.000327656912
8.23073 346.008124604363
8.25085 400.080260997557
8.27096 376.088467712356
8.29107 346.024448390883
8.31119 344.991612086677
8.3313 366
8.35141 355.990349628681
8.37153 350.030995485844
8.39164 383.034790425613
8.41176 362.108251107585
8.43187 322.969761885496
8.45198 377.979203556103
8.4721 348
8.49221 348.001798279298
8.51232 346.008090382445
8.53244 361.005756568904
8.55255 354.982006572866
8.57266 372.991834902689
8.59278 371.972624581491
8.61289 411.000138259279
8.63301 373.989926141433
8.65312 384.00040487397
8.67323 351.929046887
8.69335 335.106784620708
8.71346 392.008567164701
8.73357 335.038954616152
8.75369 370.977456776532
8.7738 379
8.79392 344.969808674844
8.81403 336.023455545133
8.83414 359.019101970829
8.85426 361.952854827605
8.87437 390.017150997998
8.89448 352.007373860985
8.9146 381
8.93471 370.00284290082
8.95483 387.976463756581
8.97494 334.904499120794
8.99505 325.945706879184
9.01517 345.013609883219
9.03528 321.000149467323
9.05539 342.998219138667
9.07551 326.00045531019
9.09562 340.98689676791
9.11573 312.01439815084
9.13585 358.064368939793
9.15596 346.022471993567
9.17608 352.995832790039
9.19619 334.020613035923
9.2163 307
9.23642 352.000898816749
9.25653 317.003744905665
9.27664 362.038658929343
9.29676 330.081427841266
9.31687 322.959130714197
9.33699 357.992469525528
9.3571 347
9.37721 332.986774094928
9.39733 318.052687143203
9.41744 375.023235238103
9.43755 332.098797864616
9.45767 327.99055490784
9.47778 328.994698424937
9.4979 343
9.51801 350.995692428305
9.53812 332.987342171187
9.55824 328.987229791527
9.57835 324.02830631544
9.59846 348.958804555406
9.61858 355.001403441364
9.63869 352.002991276888
9.6588 347
9.67892 359.021039836668
9.69903 360.934138137463
9.71915 295.915780169657
9.73926 319.887592299861
9.75937 355.022593702445
9.77949 310.012692061229
9.7996 328
9.81971 350.000403449654
9.83983 329.950041997992
9.85994 306.002202794484
9.88006 327.954493901814
9.90017 338.990697801268
9.92028 336.023622608236
9.9404 319
9.96051 375.012590392916
9.98062 343.945024415975
10.00074 317.04342238064
10.02085 355.990492828541
10.04097 318.051030942937
10.06108 307.01403756658
10.08119 296.986253917092
10.10131 358.028087432004
10.12142 377.989455851653
10.14153 344.920575798516
10.16165 314.07854916561
10.18176 367.014166526318
10.20187 307.036418449631
10.22199 336.992884346546
10.2421 319
10.26222 344.996971620196
10.28233 311.981766466171
10.30244 340.074052937721
10.32256 350.045098106716
10.34267 316.027919322287
10.36278 326.971835206827
10.3829 346
10.40301 321.98760898641
10.42313 322.048233886117
10.44324 347.947640174191
10.46335 295.019422803881
10.48347 350.900566347475
10.50358 375.018575319321
10.52369 341.010812842318
10.54381 335.994304522375
10.56392 319.001481610223
10.58403 346.05318460426
10.60415 354.909978955275
10.62426 304.033062439845
10.64438 329.972104014428
10.66449 335.999773783748
10.6846 347
10.70472 358.983924397486
10.72483 336.015498538199
10.74494 368.003679000214
10.76506 336.034947449373
10.78517 342.014023512941
10.80529 312.008297955323
10.8254 330
10.84551 362.003104422521
10.86563 358.028267317476
10.88574 386.986375773969
10.90585 338.127061711066
10.92597 328.944081235639
10.94608 370.003074676181
10.9662 328
10.98631 333.001705943745
11.00642 330.019981407423
11.02654 357.982637911091
11.04665 321.029891536426
11.06676 337.012067863392
11.08688 309.996445709281
11.10699 346.989241413076
11.1271 340
11.14722 355.002455510283
11.16733 339.985128057033
11.18745 337.96625959676
11.20756 325.955915806608
11.22767 359.017898240541
11.24779 326.985465536833
11.2679 388
11.28801 307.992936856487
11.30813 370.031246140175
11.32824 322.949915832739
11.34836 349.961070651328
11.36847 336.021061823631
11.38858 346.972329052439
11.4087 361
11.42881 321.993061552663
11.44892 336.003062895574
11.46904 319.991149253517
11.48915 331.000700704826
11.50927 319.991616517459
11.52938 347.971475957871
11.54949 352.012064534976
11.56961 320.993750358143
11.58972 335.023474663531
11.60983 353.021168480466
11.62995 360.994081902706
11.65006 353.009247829889
11.67017 357.982079018523
11.69029 366.002199726692
11.7104 351
11.73052 350.01751239003
11.75063 363.975960080373
11.77074 326.955447582808
11.79086 340.927369849757
11.81097 368.996521807509
11.83108 353.009562417284
11.8512 355
11.87131 344.003181868539
11.89143 370.037933037548
11.91154 373.963770124336
11.93165 354.993825647656
11.95177 376.974118103753
11.97188 376.008740895056
11.99199 364.010528775358
12.01211 353.012185844873
12.03222 394.013179624411
12.05234 370.952911173022
12.07245 373.046336955902
12.09256 402.910892638764
12.11268 433.018044182722
12.13279 397.993535941404
12.1529 453
12.17302 429.979028530509
12.19313 432.997680292874
12.21324 414.964540072666
12.23336 426.891460225896
12.25347 482.994771703044
12.27359 453.993574485042
12.2937 512
12.31381 498.997513717168
12.33393 538.099048814082
12.35404 570.911241510189
12.37415 482.137454674932
12.39427 480.010070375388
12.41438 454.001715069996
12.4345 472
12.45461 417.968062980588
12.47472 377.985453353338
12.49484 384.041404053867
12.51495 389.0882156608
12.53506 336.045459268421
12.55518 355.972731196016
12.57529 353.017812816144
12.5954 310
12.61552 322.031039038818
12.63563 341.989954319375
12.65575 319.974070260403
12.67586 334.945609117662
12.69597 344.040220416594
12.71609 311.994161655647
12.7362 354
12.75631 327.99833109117
12.77643 364.050164512927
12.79654 349.869814598861
12.81666 278.058264867644
12.83677 296.963767134984
12.85688 292.025641894846
12.877 277
12.89711 311.003537053493
12.91722 289.991610372192
12.93734 314.07119683684
12.95745 328.051586670479
12.97757 291.032662992239
12.99768 296.984950473815
13.01779 311.987888325842
13.03791 323.984294667926
13.05802 280.005850562048
13.07813 330.039284527688
13.09825 307.931584093611
13.11836 297.029943231975
13.13847 280.989628649278
13.15859 310.985555748513
13.1787 326
13.19882 324.965501874969
13.21893 276.969656020472
13.23904 284.992526053849
13.25916 265.001016592077
13.27927 288.973306794238
13.29938 286.007888611468
13.3195 293
13.33961 324.00922727318
13.35973 309.926653843569
13.37984 271.037793946463
13.39995 326.940666207266
13.42007 295.063544046685
13.44018 281.988586447927
13.46029 293.004684983994
13.48041 274.001136087212
13.50052 301.024255332617
13.52064 311.022188882378
13.54075 320.977699588049
13.56086 308.962962086562
13.58098 341.005469683053
13.60109 299.013150613984
13.6212 313
13.64132 313.962809288329
13.66143 271.998886813266
13.68154 298.991341183098
13.70166 265.005306240113
13.72177 299.972872767662
13.74189 295.988472547013
13.762 334
13.78211 282.986788080899
13.80223 302.028715428142
13.82234 297.988886193601
13.84245 304.970163281947
13.86257 307.022995926506
13.88268 283.016153661498
13.9028 279
13.92291 277.006507454646
13.94302 291.99044746708
13.96314 269.002497559887
13.98325 292.981356955456
14.00336 280.990640447078
14.02348 312.96673255077
14.04359 308.02856399122
14.06371 244.996236352667
14.08382 287.024730873623
14.10393 274.996949344543
14.12405 299.048480394358
14.14416 293.043582255019
14.16427 272.019239617732
14.18439 272.993344360552
14.2045 283
14.22461 265.998157281285
14.24473 279.015701491329
14.26484 273.971156138432
14.28496 269.95940828744
14.30507 303.965825455565
14.32518 297.030676201942
14.3453 267
14.36541 279.009283194219
14.38552 284.989830278752
14.40564 269.990427561783
14.42575 271.030889481099
14.44587 251.003561758814
14.46598 272.972337025543
14.48609 281.009360787027
14.50621 243.980371196126
14.52632 238.047509904427
14.54643 293.997882701899
14.56655 257.036346881846
14.58666 312.006033346621
14.60677 244.062193508152
14.62689 270.976948649721
14.647 289
14.66712 278.009793263798
14.68723 290.963385465076
14.70734 255.038018109774
14.72746 312.972636490768
14.74757 267.057402677175
14.76768 269.98913418766
14.7878 270
14.80791 279.000506177797
14.82803 275.010685882382
14.84814 294.030764044721
14.86825 288.0742699033
14.88837 262.983509100613
14.90848 292.999599895174
14.92859 263.006208606197
14.94871 284.011167914585
14.96882 287.997613554812
14.98894 290.010262804803
15.00905 284.932103811502
15.02916 263.948273765938
15.04928 306.013514634217
15.06939 243.017106550732
15.0895 268
15.10962 275.985255179169
15.12973 263.010794738926
15.14984 284.019962740615
15.16996 277.010631823828
15.19007 282.987579847251
15.21019 287.997485440591
15.2303 293
15.25041 279.982622445057
15.27053 243.98697802798
15.29064 260.020042757119
15.31075 257.974250879671
15.33087 277.996469352759
15.35098 267.989740562232
15.3711 303
15.39121 291.968465104877
15.41132 227.997304452236
15.43144 286.112543607624
15.45155 293.071196664516
15.47166 263.022426775785
15.49178 272.98661004909
15.51189 277.998796181465
15.53201 266.979526764419
15.55212 232.024081374198
15.57223 298.056148907589
15.59235 283.952603550433
15.61246 281.024346293568
15.63257 255.028062809718
15.65269 251.001318837998
15.6728 251
15.69291 284.015969167955
15.71303 291.965865335648
15.73314 260.980598566319
15.75326 262.055556695127
15.77337 224.97978625922
15.79348 275.984745608274
15.8136 239
15.83371 246.012520397613
15.85382 258.991937528873
15.87394 251.04426646055
15.89405 290.963059339069
15.91417 264.063878833939
15.93428 244.981689583263
15.95439 283.985575780556
15.97451 286.995850177633
15.99462 276.983469795492
16.01473 261.999686409218
16.03485 272.006333206032
16.05496 256.055340110882
16.07508 239.987230729135
16.09519 278.977457543261
16.1153 288
16.13542 226.999203832371
16.15553 278.035308385107
16.17564 253.973746006973
16.19576 274.960355898793
16.21587 265.050049694042
16.23598 239.990719339087
16.2561 266
16.27621 242.000300426341
16.29633 264.993435838762
16.31644 229.961567494092
16.33655 244.946402292046
16.35667 253.992351155617
16.37678 264.982118596909
16.39689 275.006978749454
16.41701 253.001113502591
16.43712 272.999152018333
16.45724 245.960283390312
16.47735 253.052101732756
16.49746 270.97807762567
16.51758 277.990300045609
16.53769 280.011445385846
16.5578 261
16.57792 315.002500504621
16.59803 261.942130060099
16.61814 268.023658459805
16.63826 266.987648165024
16.65837 287.965420883017
16.67849 293.01037524411
16.6986 259
16.71871 254.005248900837
16.73883 267.012640479951
16.75894 270.007009607418
16.77905 272.018762117601
16.79917 258.013889803583
16.81928 262.982383060819
16.8394 273
16.85951 240.991360123424
16.87962 251.020028158551
16.89974 276.083391160324
16.91985 298.116173456883
16.93996 219.051860341901
16.96008 261.958008166627
16.98019 267.997889719794
17.00031 273.988461117432
17.02042 234.989519852698
17.04053 260.035112016519
17.06065 260.985815825163
17.08076 267.953973525613
17.10087 283.031128107936
17.12099 247.999704565773
17.1411 276
17.16121 237.989938088363
17.18133 251.012791523945
17.20144 244.00756553012
17.22156 266.952312588049
17.24167 267.045991608168
17.26178 230.011445688303
17.2819 249
17.30201 250.991949785691
17.32212 238.009033243723
17.34224 265.043714783478
17.36235 270.002671919206
17.38247 273.986316786272
17.40258 275.02050328591
17.42269 246.005291151743
17.44281 264.014969941433
17.46292 279.992251130625
17.48303 261.992506843236
17.50315 272.009911275195
17.52326 259.039423586254
17.54338 252.981752379246
17.56349 274.004308295761
17.5836 244
17.60372 269.035943739011
17.62383 289.001540635464
17.64394 286.021227664882
17.66406 302.009520632382
17.68417 274.04119812004
17.70428 269.980972883379
17.7244 282
17.74451 242.99997544204
17.76463 280.028783174634
17.78474 280.067058036315
17.80485 338.944168346967
17.82497 304.077207857453
17.84508 280.989517070307
17.86519 304.993822078836
17.88531 294.990961090498
17.90542 283.997308288999
17.92554 286.004019976586
17.94565 286.001505640834
17.96576 274.079938786601
17.98588 239.977828240993
18.00599 296.990170859894
18.0261 273
18.04622 298.995023459109
18.06633 254.952147515894
18.08645 261.048516191384
18.10656 264.037621846996
18.12667 244.987993460301
18.14679 273.99180072425
18.1669 266
18.18701 266.001673940666
18.20713 264.991764609982
18.22724 264.02531700439
18.24735 280.001136101988
18.26747 259.038693150551
18.28758 247.991883492353
18.3077 260
18.32781 244.999050056761
18.34792 270.041324390292
18.36804 297.98949891031
18.38815 270.050381108481
18.40826 268.00705471426
18.42838 256.007471389509
18.44849 257.998230740987
18.46861 255.996655393944
18.48872 259.026235422355
18.50883 294.022880364081
18.52895 283.967944380563
18.54906 271.064653484991
18.56917 236.001355117956
18.58929 274.9762257287
18.6094 291
18.62951 254.996743155801
18.64963 281.032179548511
18.66974 270.936455326304
18.68986 254.943957988601
18.70997 294.017234861217
18.73008 247.005536258579
18.7502 285
18.77031 257.004727834283
18.79042 303.009550142884
18.81054 266.96395444634
18.83065 290.933530250704
18.85077 290.02950774284
18.87088 271.007474912652
18.89099 276.994652872907
18.91111 281.998757525225
18.93122 276.999240072925
18.95133 278.994882103841
18.97145 275.021076249438
18.99156 290.989128513937
19.01168 284.003416755142
19.03179 286.00335203208
19.0519 274
19.07202 274.972188824052
19.09213 241.018366058097
19.11224 285.018023391758
19.13236 247.060191472635
19.15247 254.966983371422
19.17258 268.992336682791
19.1927 277
19.21281 286.996949479556
19.23293 270.990158089137
19.25304 274.99326119442
19.27315 269.95754421114
19.29327 304.962729750408
19.31338 293.047566110809
19.33349 254.991845553236
19.35361 308.013450625613
19.37372 286.97141670111
19.39384 288.055726794182
19.41395 322.054389869048
19.43406 322.026971547608
19.45418 311.997743548401
19.47429 323.994818218158
19.4944 325
19.51452 316.988343064441
19.53463 323.0684482718
19.55475 378.028357753059
19.57486 346.044759608547
19.59497 362.949808392219
19.61509 391.987118420966
19.6352 418
19.65531 444.009372425727
19.67543 457.020620851026
19.69554 484.09151221171
19.71565 527.963149270146
19.73577 529.951758392173
19.75588 585.970473248668
19.776 582
19.79611 623.030201283326
19.81622 660.988994273801
19.83634 621.960941402332
19.85645 643.904511338904
19.87656 671.968245671511
19.89668 667.032882155393
19.91679 633.000316591344
19.93691 636.97285164738
19.95702 556.990845103884
19.97713 620.060895633763
19.99725 589.861993009763
20.01736 565.961614666288
20.03747 590.031776413973
20.05759 530.020748473362
20.0777 547
20.09782 592.994203566247
20.11793 542.928228455793
20.13804 533.0366295922
20.15816 556.967615970046
20.17827 560.004117499126
20.19838 554.014123402008
20.2185 533
20.23861 537.02432860821
20.25872 590.999829512703
20.27884 539.921418732797
20.29895 561.823856592055
20.31907 612.041657903979
20.33918 542.018501140506
20.35929 581.994045999809
20.37941 553.001920559367
20.39952 607.047560147815
20.41963 597.909976433407
20.43975 528.89873775126
20.45986 539.902113212529
20.47998 595.955315106568
20.50009 616.000371562159
20.5202 610
20.54032 609.982244687145
20.56043 588.007733374656
20.58054 620.054447742504
20.60066 632.959983741333
20.62077 672.924098315934
20.64088 723.950835745721
20.661 775
20.68111 868.075905892128
20.70123 1047.22124815385
20.72134 1249.791386732
20.74145 1808.64902823
20.76157 2296.15383785786
20.78168 3051.09029789407
20.80179 4003.55407996419
20.82191 4758.30778846103
20.84202 5204.22750252178
20.86214 5135.20188833593
20.88225 4459.87603385765
20.90236 3526.99746309238
20.92248 2537.88810474982
20.94259 1792.31129836211
20.9627 1285
20.98282 1038.81149324794
21.00293 862.780339747864
21.02305 760.861986044006
21.04316 753.915610761652
21.06327 785.062488191117
21.08339 687.037454775195
21.1035 660
21.12361 604.978730085224
21.14373 596.016584600192
21.16384 614.050514057337
21.18395 630.026718416959
21.20407 598.045463507524
21.22418 602.948766379348
21.2443 662
21.26441 619.967420744235
21.28452 576.990814591414
21.30464 602.096755723237
21.32475 640.984097481463
21.34486 619.046809142464
21.36498 609.008318988366
21.38509 592.011961702763
21.40521 566.989332190955
21.42532 543.965980412298
21.44543 526.05262198887
21.46555 570.936082913806
21.48566 491.073986822245
21.50577 515.985154262489
21.52589 482.014607258399
21.546 491
21.56612 508.980261881153
21.58623 473.993568430159
21.60634 497.002643118486
21.62646 465.055137742154
21.64657 460.997420020127
21.66668 451.021101271811
21.6868 432
21.70691 436.997296089688
21.72702 417.983621418911
21.74714 415.010631826501
21.76725 435.878837588862
21.78737 473.039557911257
21.80748 408.026087336398
21.82759 432.994465360114
21.84771 409.993924613486
21.86782 417.992856867128
21.88793 397.002749657639
21.90805 414.977462157704
21.92816 383.014979030716
21.94828 413.963896121375
21.96839 426.004295266446
21.9885 409
22.00862 402.00339151927
22.02873 416.035990253772
22.04884 444.052121355589
22.06896 451.047572412029
22.08907 424.981612588873
22.10919 458.002344021762
22.1293 411
22.14941 410.001167174841
22.16953 390.949176117664
22.18964 369.021697166282
22.20975 408.890437712345
22.22987 422.042369529591
22.24998 385.002199664747
22.27009 418.986059540313
22.29021 417.99460294065
22.31032 410.991450220769
22.33044 398.976522277386
22.35055 388.974628327712
22.37066 381.002609359318
22.39078 390.978594049739
22.41089 410.997410710816
22.431 391
22.45112 349.981093127168
22.47123 368.07388130664
22.49135 405.972592453475
22.51146 369.00488814687
22.53157 405.968651357523
22.55169 392.006138793105
22.5718 406
22.59191 407.973506021943
22.61203 341.989037411232
22.63214 382.010213636059
22.65225 346.002683402746
22.67237 399.920863931031
22.69248 405.033742861261
22.7126 377
22.73271 405.990830783378
22.75282 343.960956312884
22.77294 352.027091698792
22.79305 358.926533758707
22.81316 396.994076663044
22.83328 364.025862720699
22.85339 364.997532840069
22.87351 366.006048429996
22.89362 371.967564963725
22.91373 331.019606154609
22.93385 382.025825032728
22.95396 348.007523557819
22.97407 388.961563700842
22.99419 373.01194037707
23.0143 376
23.03442 412.015626267062
23.05453 402.980174880137
23.07464 396.984990411992
23.09476 391.979177201379
23.11487 403.024268367595
23.13498 370.011155650487
23.1551 388
23.17521 393.008147884055
23.19532 419.011514476873
23.21544 405.9526457365
23.23555 398.941355760984
23.25567 424.024609124822
23.27578 369.047046533698
23.29589 357.996255527017
23.31601 369.008520042269
23.33612 372.969087480758
23.35623 338.021004421066
23.37635 378.98264163006
23.39646 334.990505254386
23.41658 389.979142504859
23.43669 354.015645347929
23.4568 372
23.47692 405.984158719959
23.49703 365.992057168542
23.51714 394.003004751413
23.53726 365.007095149735
23.55737 395.971854237844
23.57749 387.002832081314
23.5976 404
23.61771 407.978564290867
23.63783 351.982721335006
23.65794 377.999571280946
23.67805 343.035685867072
23.69817 371.940900134864
23.71828 375.047794522256
23.73839 321.000112157826
23.75851 380.031716375787
23.77862 406.000056255059
23.79874 384.902236068195
23.81885 349.06325386748
23.83896 404.985457687723
23.85908 367.997971648148
23.87919 417.988380554577
23.8993 396
23.91942 416.016092609923
23.93953 412.996361407584
23.95965 432.103780644267
23.97976 467.005328603996
23.99987 435.033342817772
24.01999 447.982648038221
24.0401 466
24.06021 410.975710388649
24.08033 383.960601491249
24.10044 355.978867555201
24.12056 366.964571437863
24.14067 385.956252658224
24.16078 412.99711489776
24.1809 390
24.20101 369.991624472747
24.22112 355.994132098752
24.24124 365.050769209128
24.26135 391.971153388159
24.28146 389.994328159463
24.30158 404.984171565963
24.32169 404.012174513792
24.34181 372.993067562734
24.36192 382.014219934437
24.38203 385.993629627799
24.40215 376.969472020979
24.42226 367.007031515786
24.44237 372.978347552445
24.46249 393.986847379411
24.4826 408
24.50272 375.980795655626
24.52283 388.048742869779
24.54294 402.939553684761
24.56306 355.019571959105
24.58317 402.895485441447
24.60328 440.015220970369
24.6234 403
24.64351 426.003711599998
24.66362 407.993645186334
24.68374 435.090058462709
24.70385 458.061528029405
24.72397 409.036418714761
24.74408 434.947188758029
24.76419 478.989058875268
24.78431 490.011961283967
24.80442 511.980946262626
24.82453 475.011063238445
24.84465 532.124121067706
24.86476 543.006647799552
24.88488 544.000874718085
24.90499 539.002554074019
24.9251 524
24.94522 472.961703472816
24.96533 461.005512968774
24.98544 461.981580165778
25.00556 452.981400651229
25.02567 468.015007612038
25.04579 450.987517443449
25.0659 495
25.08601 427.971897737533
25.10613 430.060490547565
25.12624 462.998809658391
25.14635 439.027489709403
25.16647 452.977863535008
25.18658 452.009210804446
25.20669 447.996405419395
25.22681 472.020065076356
25.24692 498.984480950839
25.26704 447.90020299792
25.28715 431.031033998054
25.30726 465.892745820224
25.32738 510.988558967265
25.34749 473.039140318875
25.3676 415
25.38772 481.041137509055
25.40783 461.940217989373
25.42795 437.974904346358
25.44806 446.929765359898
25.46817 480.007727056417
25.48829 454.995150657456
25.5084 489
25.52851 446.99690327939
25.54863 491.056560093878
25.56874 490.972827440256
25.58886 485.002495484231
25.60897 498.936250599726
25.62908 556.954041362484
25.6492 562
25.66931 523.002682148342
25.68942 555.998897688565
25.70954 517.967888210781
25.72965 535.985883125653
25.74976 517.018840706975
25.76988 527.992021000353
25.78999 518.009746036558
25.81011 511.009645680132
25.83022 540.008027476204
25.85033 530.007805182356
25.87045 544.96538561027
25.89056 515.983240635069
25.91067 555.98007124743
25.93079 537.997781073474
25.9509 564
25.97102 521.976559999166
25.99113 529.999490929716
26.01124 519.031508251857
26.03136 558.952942404478
26.05147 550.026477820484
26.07158 569.920145622713
26.0917 659
26.11181 629.001607685387
26.13193 682.048963084093
26.15204 678.024294125274
26.17215 716.942784517516
26.19227 728.927594644456
26.21238 813.92671155037
26.23249 841.003487874245
26.25261 850.031111630383
26.27272 949.080589812605
26.29283 994.067621529934
26.31295 1063.19881361145
26.33306 1144.82724125152
26.35318 1241.8919698355
26.37329 1369.92347149978
26.3934 1540
26.41352 1752.3105124664
26.43363 2175.72735961205
26.45374 2744.41748329806
26.47386 3642.88955890759
26.49397 4889.79267183179
26.51409 6735.8568883764
26.5342 9505
26.55431 13033.9479378708
26.57443 17101.8863403422
26.59454 20571.7867752759
26.61465 22726.779916111
26.63477 22828.9834546992
26.65488 20189.5800020054
26.67499 16263.9749767159
26.69511 12459.1601343356
26.71522 8924.77671607057
26.73534 6013.69000070282
26.75545 3695.60193129932
26.77556 2455.85527826763
26.79568 1721.41809295573
26.81579 1543.06059459573
26.8359 1355
26.85602 1227.94044195975
26.87613 1167.80492034132
26.89625 1003.7769882759
26.91636 990.086622531244
26.93647 896.088591647206
26.95659 894.003710807509
26.9767 839
26.99681 769.981554818266
27.01693 748.940556028438
27.03704 705.002543455194
27.05716 723.085722991573
27.07727 627.093761003378
27.09738 631.979149619548
27.1175 636
27.13761 636.985169197717
27.15772 578.942477372535
27.17784 539.94056751573
27.19795 515.035751766364
27.21806 519.945089279023
27.23818 563.949494427185
27.25829 582.022198679045
27.27841 503.974103808318
27.29852 506.024907695411
27.31863 538.080579024674
27.33875 599.094769541642
27.35886 606.999466379653
27.37897 612.00065701836
27.39909 624.9723777388
27.4192 702
27.43932 697.970639755707
27.45943 673.978829945921
27.47954 653.908930170909
27.49966 601.042252995252
27.51977 599.050294406046
27.53988 533.047455802784
27.56 537
27.58011 547.969796845437
27.60023 450.920100220079
27.62034 457.004741861596
27.64045 432.031766784659
27.66057 440.003369072551
27.68068 421.01105962247
27.70079 437.97978128215
27.72091 460.984298710829
27.74102 404.986583184915
27.76113 446.060899665318
27.78125 453.992740544805
27.80136 455.998352435962
27.82148 453.003360386766
27.84159 447.007119380622
27.8617 426
27.88182 411.990798732276
27.90193 417.045394282418
27.92204 452.015311093945
27.94216 425.07350984821
27.96227 406.992148756107
27.98239 424.992183147088
28.0025 425
28.02261 395.976988064843
28.04273 359.00177843174
28.06284 385.017432299675
28.08295 370.007963247941
28.10307 383.003007285112
28.12318 371.982732450439
28.1433 406
28.16341 372.990041687393
28.18352 376.991771024277
28.20364 354.998098372408
28.22375 375.015838586452
28.24386 360.018870094361
28.26398 359.016310204791
28.28409 333.002927071415
28.3042 361
28.32432 391.999352611199
28.34443 366.962059597645
28.36455 349.941217391432
28.38466 341.910823658973
28.40477 394.035193341391
28.42489 308.025766281385
28.445 321
28.46511 319.018857616762
28.48523 377.006962875327
28.50534 335.987974513616
28.52546 367.021018353851
28.54557 310.044381701126
28.56568 335.964004589785
28.5858 344
28.60591 325.992920569634
28.62602 326.015857908921
28.64614 339.985026214855
28.66625 318.024163900848
28.68636 325.99108064687
28.70648 319.005103276519
28.72659 325.992030371744
28.74671 337.999012019418
28.76682 318.971015582045
28.78693 304.024703491921
28.80705 338.04999988536
28.82716 329.043730956306
28.84727 319.979458127251
28.86739 340.998635163925
28.8875 327
28.90762 332.988084814816
28.92773 313.014202460762
28.94784 344.014186313263
28.96796 321.027641536558
28.98807 323.02154476223
29.00818 303.979361484263
29.0283 349
29.04841 314.987751515781
29.06853 322.012465298767
29.08864 329.066024937723
29.10875 366.023027697094
29.12887 314.061510613114
29.14898 311.988087873587
29.16909 324.986934664912
29.18921 346.993985887034
29.20932 318.001023755027
29.22943 342.994216687321
29.24955 314.00566514627
29.26966 343.010279696453
29.28978 305.008595128062
29.30989 337.987775520302
29.33 333
29.35012 348.027809854752
29.37023 360.966812238875
29.39034 335.043515490409
29.41046 380.016774326568
29.43057 331.996188565847
29.45069 380.999650389021
29.4708 325
29.49091 344.998249986425
29.51103 309.993002629892
29.53114 345.045063404747
29.55125 331.0566736397
29.57137 320.009735415357
29.59148 320.981278400654
29.6116 341
29.63171 327.011234402613
29.65182 377.023485916027
29.67194 357.951823085438
29.69205 341.921169579061
29.71216 316.944255833623
29.73228 364.01416561236
29.75239 305.003369951914
29.7725 360
29.79262 331.971199276546
29.81273 340.04003674167
29.83285 348.931763450054
29.85296 314.984168370246
29.87307 358.961464810127
29.89319 346.008950714004
29.9133 340
29.93341 318.99014875776
29.95353 322.053876911469
29.97364 357.985080345835
29.99376 323.005897537369
30.01387 356.975320961946
30.03398 340.011912267486
30.0541 340
30.07421 311.001900709925
30.09432 350.034365232851
30.11444 350.955956601309
30.13455 332.992332520183
30.15467 345.012044195437
30.17478 325.991711577952
30.19489 361.987270464801
30.21501 363.000182789145
30.23512 373.005967056105
30.25523 357.941112023532
30.27535 330.056872530124
30.29546 370.031703150705
30.31557 308.037770465759
30.33569 331.998634978092
30.3558 300
30.37592 323.008854614246
30.39603 302.974445943848
30.41614 309.03528892574
30.43626 323.982013967196
30.45637 323.018002985466
30.47648 315.984814924931
30.4966 343
30.51671 325.98566480252
30.53683 303.98119759958
30.55694 302.014514222949
30.57705 305.03360170791
30.59717 286.997334333232
30.61728 312.969962493625
30.63739 327.999767578625
30.65751 319.994521510217
30.67762 324.031474231947
30.69773 361.011269696606
30.71785 340.97247671544
30.73796 355.956938615085
30.75808 361.015460061374
30.77819 341.002181091231
30.7983 349
30.81842 331.989339215301
30.83853 344.046205747029
30.85864 371.007792289769
30.87876 354.032863023399
30.89887 339.050296116482
30.91899 299.006732706132
30.9391 314
30.95921 305.991754481419
30.97933 302.026234297368
30.99944 321.988741622467
31.01955 295.039225485513
31.03967 312.937627024399
31.05978 331.04326724301
31.0799 269
31.10001 324.010171929429
31.12012 290.983621035092
31.14024 320.066882056207
31.16035 323.054703178767
31.18046 303.98758372041
31.20058 317.021116464252
31.22069 276.002582972479
31.2408 315
31.26092 310.966765188999
31.28103 287.020514986093
31.30115 322.028922508002
31.32126 306.006681728626
31.34137 321.001803640059
31.36149 288.022693381207
31.3816 261
31.40171 286.012286179995
31.42183 291.985717989155
31.44194 286.026997566052
31.46206 312.964076867165
31.48217 319.976199131026
31.50228 336.012827205773
31.5224 296
31.54251 285.002352346076
31.56262 285.987333402256
31.58274 267.990374232521
31.60285 285.920726444049
31.62297 312.981833070773
31.64308 307.017328491771
31.66319 293.999734707594
31.68331 299.997128039703
31.70342 290.010480974318
31.72353 315.013036744188
31.74365 300.968548196806
31.76376 298.017942948456
31.78387 283.007697078337
31.80399 292.99276744037
31.8241 300
31.84422 287.978639631765
31.86433 275.019278625762
31.88444 291.963984615835
31.90456 254.006554522493
31.92467 288.966388658065
31.94478 292.96980583923
31.9649 337
31.98501 284.973116797525
32.00513 276.049827343236
32.02524 317.033126645391
32.04535 298.084103065924
32.06547 278.99300788196
32.08558 295.991154706122
32.10569 295.994623476749
32.12581 314.00091109044
32.14592 292.97292005461
32.16604 276.992193996929
32.18615 288.069815113109
32.20626 316.977273236802
32.22638 312.99905347528
32.24649 317.007579239479
32.2666 288
32.28672 307.04487542109
32.30683 336.972400113489
32.32694 289.955329079432
32.34706 303.981547739371
32.36717 289.026251087904
32.38729 295.981571967117
32.4074 337
32.42751 331.007294199764
32.44763 361.000053008307
32.46774 325.940035366336
32.48785 320.998448611982
32.50797 310.030029684068
32.52808 294.001089577164
32.5482 306
32.56831 312.00270733367
32.58842 320.007794126249
32.60854 322.992437109467
32.62865 317.003976520906
32.64876 314.033305224494
32.66888 296.991371664016
32.68899 317.004511936106
32.7091 287
32.72922 311.000263616175
32.74933 290.015045054534
32.76945 328.026450285905
32.78956 302.033075072767
32.80967 309.001604797697
32.82979 291.005953082266
32.8499 295
32.87001 307.016024936514
32.89013 328.949461445538
32.91024 271.995842113961
32.93036 324.940547637587
32.95047 309.010044904718
32.97058 326.000080387336
32.9907 303
33.01081 309.99769537318
33.03092 300.020224405334
33.05104 327.954937454561
33.07115 275.0112806407
33.09127 328.934562014874
33.11138 327.014631130748
33.13149 329.991042749576
33.15161 337.987868662951
33.17172 306.007465582222
33.19183 340.000821045588
33.21195 300.93779624687
33.23206 321.909748389201
33.25217 349.018600766713
33.27229 318.003570908026
33.2924 337
33.31252 320.995683843541
33.33263 344.049829846019
33.35274 363.999492034046
33.37286 341.081764208426
33.39297 310.991284284034
33.41308 334.003519275416
33.4332 308
33.45331 344.017711736407
33.47343 344.953705758895
33.49354 309.972870003168
33.51365 321.958939794616
33.53377 327.002080395688
33.55388 324.004855351152
33.57399 322.995564666371
33.59411 330.995110784058
33.61422 318.015300286694
33.63434 336.932985109984
33.65445 280.012148067238
33.67456 337.966054332729
33.69468 291.040088493908
33.71479 291.996978659092
33.7349 284
33.75502 291.010954647823
33.77513 293.986477880389
33.79524 279.984406664498
33.81536 279.009010431102
33.83547 272.992534271782
33.85559 290.989845266121
33.8757 298
33.89581 289.010089887417
33.91593 318.990343907275
33.93604 279.956749753265
33.95615 296.932161036411
33.97627 299.045258228294
33.99638 271.980882772984
34.0165 312
34.03661 269.001521607123
34.05672 312.998719265371
34.07684 263.97386631852
34.09695 308.896686761678
34.11706 313.012220929474
34.13718 313.004903170619
34.15729 299.008020425225
34.17741 303.019623605554
34.19752 348.00533485514
34.21763 310.944569372843
34.23775 307.050740645637
34.25786 325.004983166344
34.27797 304.029146529229
34.29809 304.989773156096
34.3182 335
34.33831 355.004222437238
34.35843 347.962327874728
34.37854 330.034764719112
34.39866 356.041121760395
34.41877 301.032720061234
34.43888 334.955234895972
34.459 352
34.47911 335.989173681053
34.49922 331.028997299211
34.51934 379.068267274159
34.53945 384.018733555716
34.55957 381.993104157413
34.57968 391.987072306348
34.59979 400.001291293751
34.61991 393.000214370365
34.64002 407.021811491295
34.66013 424.007278684821
34.68025 424.023679162144
34.70036 435.019783108525
34.72047 417.981833225385
34.74059 452.992547052126
34.7607 442
34.78082 463.015207099646
34.80093 466.016188366513
34.82104 478.978842522526
34.84116 452.020144304965
34.86127 471.954789832277
34.88138 503.955330615632
34.9015 544
34.92161 512.979037261339
34.94173 498.036702580092
34.96184 528.983922976908
34.98195 482.099209284662
35.00207 484.946503576312
35.02218 510.019580216399
35.04229 457.020338437799
35.06241 464.022476149906
35.08252 496.980206091647
35.10264 455.014479604785
35.12275 493.955951971651
35.14286 423.063939332799
35.16298 446.994402418517
35.18309 412.011589193666
35.2032 425
35.22332 428.988241275884
35.24343 411.980173641832
35.26354 416.051873454624
35.28366 435.043816244088
35.30377 395.001709615008
35.32389 437.982484605397
35.344 438
35.36411 434.999319314798
35.38423 433.001756488467
35.40434 433.987405882703
35.42445 429.962499088211
35.44457 450.009007027865
35.46468 416.03255255585
35.4848 398
35.50491 405.037961057915
35.52502 489.990009428115
35.54514 418.005064996103
35.56525 494.963587645548
35.58536 416.133474598158
35.60548 420.968930477833
35.62559 435.998994950268
35.64571 426.989416181788
35.66582 400.97817361749
35.68593 391.001604573421
35.70605 396.006685394292
35.72616 394.999700181715
35.74627 404.964687233095
35.76639 431.991986529051
35.7865 423
35.80661 395.004574882021
35.82673 434.045295037685
35.84684 436.990429176312
35.86696 437.998304798574
35.88707 438.988940747315
35.90718 445.009477346111
35.9273 429
35.94741 443.000189393285
35.96752 430.000645668041
35.98764 432.934364240186
36.00775 393.941903320483
36.02787 462.955919607496
36.04798 419.065770895379
36.06809 381.005511404212
36.08821 387.007129794615
36.10832 405.025624353961
36.12843 423.990508305004
36.14855 398.954014922912
36.16866 411.912157962619
36.18878 443.026052118456
36.20889 389.004044162823
36.229 438
36.24912 432.965988166026
36.26923 421.063069750527
36.28934 487.05464435041
36.30946 477.962808902491
36.32957 534.937983462603
36.34968 565.921163162132
36.3698 689
36.38991 765.052187566631
36.41003 917.240800982192
36.43014 1068.31578177903
36.45025 1264.39079467899
36.47037 1528.63934618469
36.49048 1709.87678436712
36.51059 1786.98141240906
36.53071 1739.90883032754
36.55082 1506.85622937505
36.57094 1459.84417622376
36.59105 1277.42703647414
36.61116 1096.17952966138
36.63128 1035.13463702431
36.65139 810.112509686538
36.6715 664
36.69162 599.888987241315
36.71173 471.915227660059
36.73184 491.02472234496
36.75196 455.0864751284
36.77207 438.991599920399
36.79219 459.982202169728
36.8123 492
36.83241 466.972291016068
36.85253 425.017376207819
36.87264 465.006904227549
36.89275 436.973965467042
36.91287 493.938117858476
36.93298 487.025996182413
36.9531 460
36.97321 425.999338138335
36.99332 453.02317102002
37.01344 449.960309973684
37.03355 420.104692203826
37.05366 385.012553589415
37.07378 406.972169146936
37.09389 422.995823768476
37.11401 421.991773637605
37.13412 397.9828109905
37.15423 397.015996597134
37.17435 394.913774111663
37.19446 351.019532633627
37.21457 376.96971970956
37.23469 366.013038864188
37.2548 345
37.27491 344.002863341497
37.29503 347.996051227557
37.31514 352.057404248798
37.33526 385.003921031207
37.35537 351.036159723159
37.37548 345.02112877886
37.3956 319
37.41571 368.018471159979
37.43582 363.973221369621
37.45594 342.991102009321
37.47605 349.000396239209
37.49617 337.019148213954
37.51628 337.981640352604
37.53639 358.997541518522
37.55651 344.99146099463
37.57662 350.036612385984
37.59673 383.980621861608
37.61685 347.014697662235
37.63696 387.997265775015
37.65708 346.014428255877
37.67719 377.986820174387
37.6973 380
37.71742 406.015219860147
37.73753 397.973319391851
37.75764 382.974518888544
37.77776 361.082608290501
37.79787 335.943130823449
37.81798 407.970524214125
37.8381 367
37.85821 340.009786282102
37.87833 375.012861487958
37.89844 359.00518724619
37.91855 376.039837022
37.93867 332.028948374419
37.95878 352.97575284349
37.97889 357.001523764388
37.99901 350.990991620467
38.01912 339.021398239735
38.03924 378.026229129561
38.05935 359.971133488575
38.07946 366.999447545878
38.09958 352.01335734904
38.11969 359.983882712978
38.1398 395
38.15992 386.997561219403
38.18003 397.004661308833
38.20015 383.952347650021
38.22026 371.008650127133
38.24037 376.976568033266
38.26049 391.997769631936
38.2806 388
38.30071 395.003453735863
38.32083 400.013187462526
38.34094 407.99348439327
38.36105 399.989410214874
38.38117 412.998171581166
38.40128 400.009013851784
38.4214 400
38.44151 408.024471725386
38.46162 467.008264457588
38.48174 414.877140601496
38.50185 389.980217172102
38.52196 406.98747035071
38.54208 398.008936766271
38.56219 397.000182702706
38.58231 391.996242921631
38.60242 380.98265393166
38.62253 375.039290250515
38.64265 409.998118411144
38.66276 372.063976390693
38.68287 361.025938458325
38.70299 340.995652189713
38.7231 363
38.74321 325.996447728687
38.76333 360.046726520686
38.78344 369.021352057134
38.80356 384.998773311138
38.82367 364.042216969113
38.84378 341.019350450629
38.8639 331
38.88401 356.018020770665
38.90412 372.974128554584
38.92424 334.003394358957
38.94435 369.974949606212
38.96447 343.022387907377
38.98458 350.01011495965
39.00469 323.002107386302
39.02481 363.032858103324
39.04492 410.000964026638
39.06503 373.944545494202
39.08515 358.987007150408
39.10526 360.962183468778
39.12538 393.966062140173
39.14549 412.99971578187
39.1656 408
39.18572 415.98581453715
39.20583 389.995916384277
39.22594 427.116432385208
39.24606 485.888680023783
39.26617 537.925541504849
39.28628 583.961654562697
39.3064 639
39.32651 785.083800169821
39.34663 945.216719992801
39.36674 1098.37762305065
39.38685 1331.36948141282
39.40697 1551.7683901066
39.42708 1641.94388100733
39.44719 1662.02516027332
39.46731 1528.90402050298
39.48742 1315.7853129193
39.50754 1118.65383956145
39.52765 980.768426476191
39.54776 925.068740232855
39.56788 866.112146132128
39.58799 705.086726549099
39.6081 552
39.62822 444.92261757722
39.64833 390.940580759406
39.66845 367.007882237726
39.68856 381.005546013221
39.70867 365.992656697564
39.72879 380.009988904879
39.7489 336
39.76901 348.992640764451
39.78913 306.980092695636
39.80924 336.058752951605
39.82935 341.999680029098
39.84947 343.013785293784
39.86958 329.002104013296
39.8897 339
39.90981 338.003306857944
39.92992 355.015752463736
39.95004 353.956097015616
39.97015 339.931966735704
39.99026 381.012601428802
40.01038 339.00443035392
40.03049 391.97167060484
40.05061 405.988884431901
40.07072 389.023350842702
40.09083 446.072660545373
40.11095 467.038856659189
40.13106 496.917647232398
40.15117 556.868113779457
40.17129 659.953267041493
40.1914 724
40.21152 791.150821573576
40.23163 956.079081478859
40.25174 917.027068715039
40.27186 1000.94635534844
40.29197 919.1728355822
40.31208 824.094146678024
40.3322 729
40.35231 676.978349505802
40.37242 630.955994713298
40.39254 583.883380804181
40.41265 511.199844012436
40.43277 427.134308715298
40.45288 361.009701956598
40.47299 385.997171730842
40.49311 350.97864739303
40.51322 339.024993963734
40.53333 377.030680769836
40.55345 359.888983967464
40.57356 317.043068802964
40.59368 327.96452270557
40.61379 352.008004868891
40.6339 310
40.65402 315.005769878061
40.67413 310.002841901093
40.69424 325.033201492101
40.71436 320.076551994262
40.73447 279.996646292527
40.75458 310.000851465155
40.7747 285
40.79481 348.024524557695
40.81493 346.958608051864
40.83504 320.961399855412
40.85515 313.984037919762
40.87527 324.991332199941
40.89538 325.993640033117
40.91549 335.999205995636
40.93561 327.996644559334
40.95572 326.998417024613
40.97584 317.966308027507
40.99595 306.015712688774
41.01606 320.998696235649
41.03618 309.997025099384
41.05629 323.003320116458
41.0764 304
41.09652 335.0195017672
41.11663 328.986086071884
41.13675 331.014293151031
41.15686 331.015190137405
41.17697 331.95859994504
41.19709 348.026122441997
41.2172 269
41.23731 333.016730566404
41.25743 312.00134788103
41.27754 348.01611838716
41.29765 314.06730779607
41.31777 322.962409427204
41.33788 334.013698356169
41.358 307
41.37811 315.014277637082
41.39822 334.987217863793
41.41834 310.015165850082
41.43845 335.043735446513
41.45856 301.923026909586
41.47868 387.979073945424
41.49879 325.026599065728
41.51891 328.0063576387
41.53902 322.996263034515
41.55913 323.985473077633
41.57925 315.046485292747
41.59936 350.968567881939
41.61947 337.024078814611
41.63959 334.001142150548
41.6597 332
41.67982 354.020979284939
41.69993 352.952611899069
41.72004 323.025541397742
41.74016 364.967884526233
41.76027 346.012967635281
41.78038 358.999513591697
41.8005 340
41.82061 346.002589925562
41.84072 338.98736806645
41.86084 327.983234791287
41.88095 335.907509640187
41.90107 370.021612905741
41.92118 313.047624828477
41.94129 308.988643782697
41.96141 322.993261654416
41.98152 297.998319535727
42.00163 326.043981092056
42.02175 325.91947903056
42.04186 289.021425176718
42.06198 319.942570796367
42.08209 352.015526677682
42.1022 296
42.12232 346.031782044136
42.14243 342.021907213996
42.16254 369.963150488941
42.18266 314.048128432818
42.20277 353.899118723454
42.22289 400.992687801924
42.243 411
42.26311 482.02458151185
42.28323 508.072549913428
42.30334 597.201991488774
42.32345 710.620430167626
42.34357 871.833942101993
42.36368 951.874890342187
42.38379 1125.9266052962
42.40391 1206.02301022123
42.42402 1230.9825485985
42.44414 1151.72445152036
42.46425 986.599399693665
42.48436 864.158369128926
42.50448 813.040652737025
42.52459 761.032859519135
42.5447 690
42.56482 614.884210036282
42.58493 474.827179183487
42.60505 413.942633011295
42.62516 378.163304486626
42.64527 285.052331605874
42.66539 308.992662501752
42.6855 293
42.70561 312.998569287388
42.72573 281.967774413616
42.74584 282.998877627503
42.76595 276.97800356823
42.78607 301.967029128505
42.80618 303.019046342811
42.8263 285
42.84641 305.005374420228
42.86652 294.983226178884
42.88664 283.98735502231
42.90675 283.976962312312
42.92686 290.025226141851
42.94698 270.997377335295
42.96709 298.985564577116
42.98721 304.991686215268
43.00732 285.998838159784
43.02743 301.014149789953
43.04755 289.938069250565
43.06766 267.023225919634
43.08777 275.955504966446
43.10789 297.008809862317
43.128 263
43.14812 295.003140308754
43.16823 264.98659032085
43.18834 290.035915780288
43.20846 286.00046961919
43.22857 286.043492292514
43.24868 246.002983220697
43.2688 275
43.28891 252.996226432181
43.30902 268.001517482043
43.32914 262.056653676497
43.34925 306.004007816066
43.36937 257.055380395661
43.38948 262.979220313734
43.40959 267.008194456968
43.42971 249.00153366424
43.44982 269.010151981809
43.46993 261.992559185643
43.49005 267.009448360805
43.51016 275.937214513524
43.53028 310.001202020631
43.55039 277.011707587292
43.5705 279
43.59062 262.972405102746
43.61073 240.992004983078
43.63084 255.050397611342
43.65096 277.970559663601
43.67107 286.983297444575
43.69119 302.992331852045
43.7113 295
43.73141 238.994040270469
43.75153 276.059532859776
43.77164 286.992477089072
43.79175 277.053833098414
43.81187 264.963459728628
43.83198 303.995561916135
43.85209 262.025422366426
43.87221 243.00844899154
43.89232 270.007149257775
43.91244 259.004355172312
43.93255 277.013091557647
43.95266 266.004495711621
43.97278 275.999238630232
43.99289 279.979493391959
44.013 319
44.03312 230.959092768877
44.05323 273.095094229543
44.07335 298.975328207169
44.09346 276.029818860373
44.11357 282.967144028122
44.13369 297.005052647431
44.1538 272
44.17391 268.991763819446
44.19403 248.012774886275
44.21414 281.036957878507
44.23426 274.009678723879
44.25437 277.016646896364
44.27448 250.022279466082
44.2946 246
44.31471 256.004815714817
44.33482 251.971711064495
44.35494 226.027969579109
44.37505 268.942938769508
44.39516 256.031867105323
44.41528 255.000933167956
44.43539 252.994651181563
44.45551 272.004418448748
44.47562 267.998679445648
44.49573 277.017131033153
44.51585 277.963558675323
44.53596 264.977890161199
44.55607 287.004026490502
44.57619 257.011975495241
44.5963 251
44.61642 253.047920519207
44.63653 310.994763609792
44.65664 256.955001331012
44.67676 282.980361235672
44.69687 254.038583841129
44.71698 254.990609787449
44.7371 264
44.75721 281.999629534025
44.77732 255.961023328693
44.79744 233.020912954185
44.81755 265.93313096279
44.83767 277.975059196523
44.85778 290.021611761352
44.87789 253.002316985254
44.89801 280.005084253751
44.91812 263.996678215648
44.93823 284.022772723469
44.95835 290.05038955085
44.97846 311.030474163329
44.99858 262.042835551326
45.01869 259.982855470428
45.0388 298
45.05892 282.982239193403
45.07903 277.997581260343
45.09914 280.030574155846
45.11926 299.988073287182
45.13937 287.027616409925
45.15949 278.997498472309
45.1796 292
45.19971 293.993314909167
45.21983 286.03349836119
45.23994 325.033553940997
45.26005 306.073976745594
45.28017 309.914810856226
45.30028 365.021777190308
45.32039 293.010006534948
45.34051 340.013497747403
45.36062 309.962531401197
45.38074 311.072977338155
45.40085 343.982793305288
45.42096 304.059354591619
45.44108 306.984601258461
45.46119 321.989133657177
45.4813 345
45.50142 334.97272078609
45.52153 327.066563126818
45.54165 394.065338192042
45.56176 381.970252194651
45.58187 434.945233582275
45.60199 440.99229279228
45.6221 483
45.64221 525.027417708223
45.66233 584.055526244202
45.68244 628.209036549929
45.70256 774.773268144616
45.72267 831.92608025801
45.74278 898.940343550486
45.7629 905
45.78301 811.98023336131
45.80312 792.893798932558
45.82324 628.835583070554
45.84335 652.95619793995
45.86346 606.111909036594
45.88358 569.04448340507
45.90369 521.009913271824
45.92381 505.967797408675
45.94392 400.919089143188
45.96403 371.982475539208
45.98415 352.960934954963
46.00426 327.11920258793
46.02437 263.021284656053
46.04449 300.980863856031
46.0646 302
46.08472 278.986236188904
46.10483 287.049393435757
46.12494 313.97312791671
46.14506 278.011720359194
46.16517 305.980153530978
46.18528 288.017032603567
46.2054 284
46.22551 261.991316938062
46.24563 272.066832220023
46.26574 308.958985016568
46.28585 256.025120386372
46.30597 288.998277785608
46.32608 248.018168520328
46.34619 280.976266139942
46.36631 297.988741872816
46.38642 260.98286383577
46.40653 277.042827707247
46.42665 291.988525006497
46.44676 273.044008252643
46.46688 258.00869680901
46.48699 256.995506558831
46.5071 272
46.52722 283.010579704763
46.54733 280.954974373004
46.56744 248.009821040326
46.58756 289.926240933647
46.60767 296.014209751725
46.62779 287.003925308231
46.6479 275
46.66801 257.002787796227
46.68813 285.044129358062
46.70824 287.938217707562
46.72835 253.00296684752
46.74847 274.008933326216
46.76858 239.016570651634
46.78869 260.983353540295
46.80881 273.993913876928
46.82892 253.994485187172
46.84904 263.00293483831
46.86915 250.976345556097
46.88926 254.975068743241
46.90938 264.99861930564
46.92949 266.99106590282
46.9496 290
46.96972 265.97224512849
46.98983 257.016332038996
47.00995 274.020417352831
47.03006 268.021451523886
47.05017 262.997142283058
47.07029 273.989523473588
47.0904 289
47.11051 264.992374708622
47.13063 264.996303144263
47.15074 264.044217552904
47.17086 298.969580633989
47.19097 284.035310902957
47.21108 270.007591687878
47.2312 263
47.25131 257.002016886724
47.27142 266.001645498694
47.29154 261.002586831512
47.31165 268.002155612462
47.33176 259.007622383513
47.35188 268.981005732185
47.37199 279.006250260719
47.39211 255.996144566643
47.41222 273.02552495685
47.43233 300.055459657369
47.45245 319.916913285016
47.47256 252.093749475224
47.49267 259.936745796328
47.51279 300.987875217605
47.5329 302
47.55302 270.941183729166
47.57313 230.051200597627
47.59324 302.03053280378
47.61336 253.052567824778
47.63347 271.999185405104
47.65358 243.005541512413
47.6737 267
47.69381 254.006133663842
47.71393 284.997238079171
47.73404 247.953692356377
47.75415 256.972820347659
47.77427 257.985589197807
47.79438 270.010539180786
47.81449 259.980690229212
47.83461 322.005539025808
47.85472 274.961623498944
47.87483 273.998986635946
47.89495 264.020527567523
47.91506 287.980947959316
47.93518 267.037467764104
47.95529 244.99397016591
47.9754 283
47.99552 297.998556960081
48.01563 290.989092602241
48.03574 284.983460692328
48.05586 278.990858587814
48.07597 286.010442356107
48.09609 270.001731666911
48.1162 279
48.13631 265.995964285739
48.15643 267.999363040565
48.17654 257.971628196385
48.19665 249.991262327135
48.21677 259.990648144359
48.23688 260.995567935627
48.257 264
48.27711 250.005472896013
48.29722 275.001144325694
48.31734 248.962711858837
48.33745 261.079830024588
48.35756 285.003525494158
48.37768 265.013176144156
48.39779 263.005614933988
48.4179 248
48.43802 278.026483828059
48.45813 276.959654138104
48.47825 248.986193632964
48.49836 262.985512316392
48.51847 261.977056890407
48.53859 278.011894188724
48.5587 232
48.57881 273.023633717636
48.59893 295.012763923374
48.61904 297.986535905595
48.63916 278.064105036407
48.65927 253.994254717927
48.67938 282.968583056806
48.6995 296
48.71961 281.991042281038
48.73972 263.980255872018
48.75984 255.032720387912
48.77995 284.958103405319
48.80006 273.059637181486
48.82018 255.983949296088
48.84029 289.991904286832
48.86041 280.996939237064
48.88052 294.020318277576
48.90063 302.985720260969
48.92075 276.917157398979
48.94086 259.972313988265
48.96097 295.948040744257
48.98109 301.014968709368
49.0012 268
49.02132 299.017353910371
49.04143 288.987172454316
49.06154 296.015988988954
49.08166 289.046565752521
49.10177 274.966272322066
49.12188 324.959493792242
49.142 324
49.16211 281.99191267331
49.18223 287.993152423992
49.20234 269.996951045603
49.22245 286.981022627393
49.24257 280.994045171208
49.26268 305.966857573264
49.28279 323.005589621177
49.30291 292.986432219424
49.32302 278.988437559641
49.34313 271.011600008106
49.36325 295.071325314704
49.38336 312.993406312849
49.40348 302.02104448712
49.42359 286.998342809212
49.4437 304
49.46382 304.995593199293
49.48393 298.983491126892
49.50404 280.953464970528
49.52416 277.917450648479
49.54427 324.020183054389
49.56439 267.009873960605
49.5845 304
49.60461 301.996697452515
49.62473 310.017511787948
49.64484 311.979396650483
49.66495 293.052496143451
49.68507 294.934465685854
49.70518 348.986876648596
49.7253 325
49.74541 355.015145672524
49.76552 358.986606326367
49.78564 351.022715848669
49.80575 392.166949380562
49.82586 447.978840413314
49.84598 426.008204574499
49.86609 447.988914418207
49.8862 480
49.90632 592.084758103429
49.92643 647.117815501216
49.94655 775.369235980001
49.96666 899.831521575544
49.98677 1019.63300057131
50.00689 1375.82156787401
50.027 1654
50.04711 1880.13325412235
50.06723 2189.46618227796
50.08734 2437.30522748555
50.10746 2464.20182085737
50.12757 2279.33133161561
50.14768 2043.27199331816
50.1678 1713
50.18791 1412.95674184951
50.20802 1461.97768006385
50.22814 1334.8850147697
50.24825 1357.151048711
50.26837 1145.4000292236
50.28848 901.233647383124
50.30859 670.108340590852
50.32871 498.950189867158
50.34882 445.946634393262
50.36893 385.963609789588
50.38905 392.981149371113
50.40916 361.040020817604
50.42927 366.984732586837
50.44939 368.998408747947
50.4695 378
50.48962 384.001853603125
50.50973 389.023247719013
50.52984 402.98578197357
50.54996 386.985995503709
50.57007 409.004348630289
50.59018 375.030986372992
50.6103 373
50.63041 386.994709360865
50.65053 360.980719561911
50.67064 365.998952405141
50.69075 344.088703665972
50.71087 313.023249887848
50.73098 312.995190989781
50.75109 318.992924466502
50.77121 331.997630868206
50.79132 307.971901423403
50.81143 289.987698194908
50.83155 293.040576394047
50.85166 307.012036626768
50.87178 287.010158727727
50.89189 296.991626315467
50.912 302
50.93212 285.998752574444
50.95223 300.016793202559
50.97234 298.990381083206
50.99246 297.995869321445
51.01257 300.000663909773
51.03269 295.004612032411
51.0528 285
51.07291 285.00453467364
51.09303 300.023904724718
51.11314 304.97363688685
51.13325 282.041841182036
51.15337 281.982535642652
51.17348 289.009005962232
51.1936 270
51.21371 279.012276295527
51.23382 296.993708048184
51.25394 274.977173914515
51.27405 274.041319058348
51.29416 250.987905676049
51.31428 282.981152532625
51.33439 263.022766004299
51.3545 232
51.37462 268.015926567222
51.39473 251.977005197928
51.41485 258.039175462057
51.43496 269.987485048595
51.45507 262.04331760791
51.47519 233.000519530948
51.4953 256
51.51541 249.995773042945
51.53553 253.014761254147
51.55564 267.039747425049
51.57576 282.005806497302
51.59587 263.030504104772
51.61598 250.011288395708
51.6361 242
51.65621 244.99257501142
51.67632 228.014802814602
51.69644 257.989034297706
51.71655 228.97474442746
51.73667 270.994302661743
51.75678 229.024982180274
51.77689 255.974399211175
51.79701 278.984658917792
51.81712 231.999838687403
51.83723 270.007052293492
51.85735 234.975048882174
51.87746 259.989135566548
51.89757 235.017644012209
51.91769 247.997187024659
51.9378 242
51.95792 269.016450072637
51.97803 258.961963272409
51.99814 239.996813214958
52.01826 254.960679656345
52.03837 262.017227384598
52.05848 245.003444836285
52.0786 257
52.09871 255.997632637277
52.11883 252.995134698116
52.13894 256.035486757154
52.15905 273.020231230828
52.17917 244.031815117576
52.19928 250.97284428126
52.21939 273.000464094223
52.23951 245.980850666709
52.25962 229.022863473136
52.27974 262.995316773501
52.29985 224.935268034668
52.31996 236.943475052403
52.34008 249.015492104783
52.36019 229.993529546156
52.3803 267
52.40042 253.989243179694
52.42053 260.007314729911
52.44064 249.958437553965
52.46076 234.992534212619
52.48087 247.999929584581
52.50099 244.986976754348
52.5211 280
52.54121 239.997083188765
52.56133 268.999003689257
52.58144 238.004405445848
52.60155 280.93159649018
52.62167 273.010976882346
52.64178 276.013014575387
52.6619 244
52.68201 241.008447451444
52.70212 256.998300502187
52.72224 252.04545374511
52.74235 286.999579743687
52.76246 251.052984147633
52.78258 255.986955140604
52.80269 259.999435678766
52.8228 261
52.84292 267.030307241574
52.86303 298.992314310988
52.88315 253.877626015239
52.90326 239.950062931672
52.92337 277.968582812767
52.94349 273.005027196814
52.9636 268
52.98371 259.005216350996
53.00383 273.980053930217
53.02394 250.031450349918
53.04406 298.950729062356
53.06417 284.019717578607
53.08428 289.998988691453
53.1044 283
53.12451 294.99462684562
53.14462 276.015899314235
53.16474 315.013924621329
53.18485 280.078974368306
53.20497 281.968513943198
53.22508 297.001745855574
53.24519 290.993530322912
53.26531 320.009285268227
53.28542 308.966400788759
53.30553 277.985647548382
53.32565 299.105682702402
53.34576 330.009044156251
53.36587 299.036743547573
53.38599 300.992089314833
53.4061 313
53.42622 313.00825573292
53.44633 321.986386967581
53.46644 304.00214684182
53.48656 328.949127021843
53.50667 334.020179093521
53.52678 314.016272418084
53.5469 300
53.56701 282.006342214885
53.58713 312.012126675069
53.60724 291.969137056248
53.62735 298.963079309371
53.64747 308.989336351331
53.66758 313.998401927261
53.68769 314.997787453473
53.70781 322.002284131078
53.72792 321.998180020452
53.74804 318.987491738143
53.76815 317.02981950265
53.78826 325.046885286297
53.80838 294.983812059468
53.82849 347.986442045212
53.8486 326
53.86872 308.984648605358
53.88883 299.019287663969
53.90894 317.981775084524
53.92906 289.012168278254
53.94917 317.94960107473
53.96929 327.007423177859
53.9894 313
54.00951 338.001944085325
54.02963 318.987050061873
54.04974 328.00191559227
54.06985 324.94353777243
54.08997 355.016295329715
54.11008 315.008679179901
54.1302 347
54.15031 338.997185051078
54.17042 350.010055056156
54.19054 343.960512561689
54.21065 329.976818427276
54.23076 351.986793342678
54.25088 335.020533163689
54.27099 326.001031126375
54.29111 336.015881194689
54.31122 368.000385004794
54.33133 339.967696521065
54.35145 330.938455672043
54.37156 300.992533889282
54.39167 334.96725959885
54.41179 324.011104748904
54.4319 320
54.45201 351.006799229656
54.47213 341.983386188798
54.49224 348.043733316716
54.51236 368.99193754618
54.53247 350.048300666644
54.55258 327.997568857726
54.5727 361
54.59281 399.995879733341
54.61292 370.004598697604
54.63304 411.045719044341
54.65315 401.008971942023
54.67327 436.896729777563
54.69338 509.946656439276
54.71349 545.978367677895
54.73361 614.042013754236
54.75372 710.110195762418
54.77383 825.157621525281
54.79395 898.076067273596
54.81406 912.929452886928
54.83417 950.024979835368
54.85429 882.030347040707
54.8744 839
54.89452 736.915411437082
54.91463 683.921631191193
54.93474 629.948323344046
54.95486 639.951507215364
54.97497 654.994769939548
54.99508 640.038070015879
55.0152 583
55.03531 526.982400776868
55.05543 496.925106996905
55.07554 441.962155680941
55.09565 443.088007574223
55.11577 385.014993826246
55.13588 426.972968402073
55.15599 416.002735139996
55.17611 444.022790204812
55.19622 482.020116076988
55.21634 499.076232357353
55.23645 560.151330259271
55.25656 595.982381606607
55.27668 584.024625736644
55.29679 566.998406902359
55.3169 562
55.33702 487.976498747017
55.35713 513.002884854191
55.37724 460.869644539416
55.39736 424.01292116916
55.41747 437.965691259655
55.43759 455.994775311171
55.4577 452
55.47781 414.979295912701
55.49793 387.996255602839
55.51804 393.977655154327
55.53815 357.112257624052
55.55827 317.057966572856
55.57838 291.994601660849
55.5985 324
55.61861 339.993381840855
55.63872 313.985292558373
55.65884 316.001012063497
55.67895 306.027733033984
55.69906 299.013606036531
55.71918 300.976643724195
55.73929 332.992618031922
55.75941 316.982698435974
55.77952 288.992346624555
55.79963 306.048781524957
55.81975 332.014794877877
55.83986 324.005093248887
55.85997 321.042793266529
55.88009 276.013197066026
55.9002 283
55.92031 300.007719347834
55.94043 311.001745406372
55.96054 298.953628060746
55.98066 287.954147573231
56.00077 318.017533008351
56.02088 274.017618662575
56.041 293
56.06111 272.992614068036
56.08122 282.018987473142
56.10134 294.002970259408
56.12145 298.935985775525
56.14157 320.039676151184
56.16168 262.02989305756
56.18179 280.985296217566
56.20191 285.991932229662
56.22202 277.023229474782
56.24213 310.996910151774
56.26225 269.909499560608
56.28236 259.016093665088
56.30248 249.991010754316
56.32259 271.994597051342
56.3427 275
56.36282 311.015787738241
56.38293 290.94292510962
56.40304 267.010198290917
56.42316 289.970949245195
56.44327 285.014453793717
56.46338 285.987926149789
56.4835 293
56.50361 272.002756568526
56.52373 294.998165695259
56.54384 274.010259434966
56.56395 299.018502873137
56.58407 258.034798291875
56.60418 274.971628371438
56.62429 287.001873604855
56.64441 290.015732551033
56.66452 326.99731328163
56.68464 281.910348965353
56.70475 272.045279179411
56.72486 290.007467584797
56.74498 266.021198498035
56.76509 263.994551798289
56.7852 278
56.80532 286.001182616993
56.82543 281.990674951569
56.84554 273.97569247294
56.86566 268.967975674683
56.88577 290.006141492183
56.90589 265.00567004535
56.926 279
56.94611 282.999312894399
56.96623 283.00125352882
56.98634 281.990074030655
57.00645 277.989762960438
57.02657 285.003684968452
57.04668 276.997188105105
57.0668 287
57.08691 270.995424040595
57.10702 277.009698142288
57.12714 288.042252305549
57.14725 303.041556798351
57.16736 281.945297799114
57.18748 334.000778047093
57.20759 281.013480615186
57.22771 302.006495939089
57.24782 281.977829065443
57.26793 275.997223692939
57.28805 271.999319858645
57.30816 273.011930981635
57.32827 258.026412492957
57.34839 256.985687360482
57.3685 292
57.38861 274.002047350946
57.40873 294.982114469875
57.42884 254.973172274459
57.44896 276.976500935728
57.46907 261.023574366732
57.48918 264.984765527331
57.5093 272
57.52941 254.000852626832
57.54952 267.993714302141
57.56964 250.022899425916
57.58975 284.972381458724
57.60987 268.003033190597
57.62998 285.003069454792
57.65009 262.001745657415
57.67021 280.001012478156
57.69032 264.001278848596
57.71043 286.016332178596
57.73055 263.88733371667
57.75066 232.977282346966
57.77078 270.979195936433
57.79089 262.003960949388
57.811 268
57.83112 267.01516577507
57.85123 289.000245279674
57.87134 267.973949133923
57.89146 271.997575476572
57.91157 257.036860658113
57.93168 243.98647639362
57.9518 275
57.97191 274.991381786569
57.99203 254.977787526703
58.01214 257.045718062025
58.03225 284.968273848793
58.05237 274.034596712376
58.07248 264.980086418438
58.09259 294.997023716577
58.11271 280.00057500299
58.13282 288.971589084535
58.15294 247.027864129673
58.17305 293.970358658244
58.19316 220.093464353273
58.21328 237.967962060205
58.23339 251.992995124629
58.2535 269
58.27362 259.992036763783
58.29373 266.027773028715
58.31385 278.976507680648
58.33396 255.027308141841
58.35407 263.970908172025
58.37419 279.99467637631
58.3943 276
58.41441 250.002209187957
58.43453 278.021731892383
58.45464 273.01220091763
58.47475 290.007862961177
58.49487 264.030528859698
58.51498 264.990142900178
58.5351 270
58.55521 264.997477063081
58.57532 266.009462698326
58.59544 280.02399946067
58.61555 286.987239931395
58.63566 286.029180589873
58.65578 277.973505669889
58.67589 316.000997767569
58.69601 267.975889131995
58.71612 249.998003325026
58.73623 246.990311827053
58.75635 249.062262979933
58.77646 276.013363766552
58.79657 245.015476235385
58.81669 271.982115823082
58.8368 286
58.85691 265.994025336994
58.87703 276.042669303246
58.89714 292.95747065225
58.91726 258.98796685388
58.93737 302.959116529115
58.95748 285.037193675111
58.9776 263
58.99771 281.008227057562
59.01782 281.988657911941
59.03794 276.028023113217
59.05805 293.029691171818
59.07817 249.070535963375
59.09828 242.949354583634
59.11839 311.983889238071
59.13851 292.984922641522
59.15862 286.010899858544
59.17873 293.984330824955
59.19885 271.972466826273
59.21896 284.944910638825
59.23908 301.012678932661
59.25919 277.998791907623
59.2793 300
59.29942 277.997800251695
59.31953 303.026974345421
59.33964 292.949713760639
59.35976 275.995765622588
59.37987 295.961304669754
59.39998 318.976973072969
59.4201 336
59.44021 320.98848096804
59.46033 306.001712389053
59.48044 326.067113830041
59.50055 350.010512876875
59.52067 331.998517072066
59.54078 357.976032945805
59.56089 361.005124888822
59.58101 366.020490179638
59.60112 413.00157233293
59.62124 376.970741199991
59.64135 402.061367330112
59.66146 405.994255921774
59.68158 433.940764062467
59.70169 496.984164426184
59.7218 502
59.74192 568.111716176177
59.76203 692.154856872162
59.78215 771.202774532389
59.80226 881.724274683735
59.82237 1046.7155463396
59.84249 1223.93783341142
59.8626 1340
59.88271 1553.05324067553
59.90283 1563.07761935646
59.92294 1670.07271121481
59.94305 1553.56359073668
59.96317 1316.2847077483
59.98328 1169.16198299349
60.0034 996
60.02351 963.008252727625
60.04362 989.030452177603
60.06374 1002.96199446087
60.08385 952.160729231869
60.10396 879.186555006381
60.12408 749.168273621729
60.14419 580.062987351311
60.16431 498.96288077991
60.18442 417.939285420338
60.20453 380.947492097163
60.22465 342.9421489667
60.24476 336.012997379756
60.26487 325.006590444832
60.28499 327.999937541652
60.3051 324
60.32522 319.97232395449
60.34533 290.012376229374
60.36544 316.97188509804
60.38556 273.005040821186
60.40567 323.932126177371
60.42578 310.067819168228
60.4459 247
60.46601 295.018594483511
60.48612 296.000937988423
60.50624 305.983825911605
60.52635 287.981131539714
60.54647 308.024195075454
60.56658 265.011419132422
60.58669 293.990092590622
60.60681 281.991471945318
60.62692 280.006692571441
60.64703 281.985416611149
60.66715 270.005781710257
60.68726 284.981248342571
60.70738 280.010045059709
60.72749 267.011444127029
60.7476 253
60.76772 290.007356104913
60.78783 267.991173309995
60.80794 293.05073689038
60.82806 293.041854610447
60.84817 266.033433325075
60.86828 263.976572194029
60.8884 284
60.90851 245.997096796569
60.92863 273.012432312832
60.94874 250.974603045188
60.96885 265.946338151363
60.98897 273.011281765305
61.00908 263.000234397914
61.02919 277.988341003648
61.04931 293.999731005751
61.06942 282.99372741066
61.08954 283.991616831325
61.10965 271.975280701687
61.12976 273.97227508777
61.14988 282.015705610939
61.16999 257.000836232755
61.1901 277
61.21022 271.013885463681
61.23033 301.013235292367
61.25045 283.973572255405
61.27056 292.980825442443
61.29067 286.032657984985
61.31079 272.991056248128
61.3309 301
61.35101 269.996758862354
61.37113 300.042180403456
61.39124 306.002578772605
61.41135 309.016066890807
61.43147 293.021486618537
61.45158 292.984078901415
61.4717 311
61.49181 311.010342638459
61.51192 336.990603850215
61.53204 304.997754189785
61.55215 331.010045935091
61.57226 291.049030797813
61.59238 296.999683881368
61.61249 286.994340789998
61.63261 320.011491439164
61.65272 333.034007161545
61.67283 371.994398042211
61.69295 319.854322867308
61.71306 300.949794804324
61.73317 345.946371424112
61.75329 349.012344103451
61.7734 328
61.79352 344.975187061589
61.81363 306.0360845022
61.83374 382.079062009157
61.85386 355.071537131336
61.87397 347.001356091468
61.89408 348.978576284993
61.9142 371
61.93431 330.988963978103
61.95442 339.006127526002
61.97454 330.995016995159
61.99465 349.908999767709
62.01477 381.98666238244
62.03488 362.035930088565
62.05499 341.992263251161
62.07511 373.003367344389
62.09522 346.972388478147
62.11533 343.021393632431
62.13545 359.016092365916
62.15556 365.943247726534
62.17568 397.006712095002
62.19579 362.006639427598
62.2159 381
62.23602 360.962246981087
62.25613 331.98916634925
62.27624 340.008222881786
62.29636 331.024211122916
62.31647 331.969310958851
62.33659 359.991658920366
62.3567 353
62.37681 329.99585889182
62.39693 330.987928460129
62.41704 308.955326176053
62.43715 307.928357080695
62.45727 339.004175517792
62.47738 306.02322090781
62.49749 311.992508199969
62.51761 319.001032360458
62.53772 327.021556737998
62.55784 337.936721456064
62.57795 287.970615230401
62.59806 313.985809116003
62.61818 283.031517954029
62.63829 279.991259318371
62.6584 298
62.67852 282.966221181141
62.69863 256.005173703737
62.71875 275.99811750881
62.73886 256.994995123581
62.75897 297.915426421213
62.77909 331.003593692683
62.7992 299
62.81931 290.992948678282
62.83943 279.03190814644
62.85954 321.03760494522
62.87965 297.106277085335
62.89977 263.032578896921
62.91988 260.978208469672
62.94 294
62.96011 295.987409663937
62.98022 271.005110729333
63.00034 293.997718923544
63.02045 263.060532558895
63.04056 263.982846862653
63.06068 273.977308136209
63.08079 295.003428109652
63.10091 262.985998157753
63.12102 259.011506752547
63.14113 279.044697815938
63.16125 298.971616322656
63.18136 269.028266746656
63.20147 278.987412260941
63.22159 276.997750697602
63.2417 288
63.26182 281.005568315109
63.28193 293.992843557662
63.30204 266.943079363646
63.32216 254.995318335788
63.34227 264.980038376701
63.36238 278.983951981445
63.3825 292
63.40261 285.996255268365
63.42272 285.005997626617
63.44284 287.978908319569
63.46295 265.058169460429
63.48307 258.974136127462
63.50318 284.986171027351
63.52329 279.00638673949
63.54341 264.988787941287
63.56352 254.027874234749
63.58363 295.000893007898
63.60375 260.975888076854
63.62386 287.965858421088
63.64398 277.010933010397
63.66409 282.994130887595
63.6842 302
63.70432 331.980083847434
63.72443 277.953786803939
63.74454 291.042186031159
63.76466 298.981977154985
63.78477 314.978550412911
63.80489 312.013679365762
63.825 289
63.84511 347.030715712523
63.86523 375.9943919386
63.88534 360.990333370981
63.90545 396.787184111925
63.92557 490.922352850001
63.94568 498.987356692724
63.96579 535.984033385076
63.98591 534.983542870641
64.00602 503.001236353669
64.02614 521.978506658835
64.04625 467.841967204844
64.06636 430.021111327771
64.08648 426.019363742342
64.10659 397.005213951089
64.1267 411
64.14682 402.963305656546
64.16693 370.01219390802
64.18705 399.98857334951
64.20716 362.027316615767
64.22727 379.004920931815
64.24739 335.026782141219
64.2675 290
64.28761 250.99755731712
64.30773 279.052295410826
64.32784 292.981341594108
64.34796 263.089896945397
64.36807 233.980013442956
64.38818 273.975844141064
64.4083 266
64.42841 269.009086812243
64.44852 290.013253150243
64.46864 282.940981198622
64.48875 253.01358144291
64.50886 267.986622226639
64.52898 260.000285530728
64.54909 274.992345044744
64.56921 278.997879321593
64.58932 271.992699326771
64.60943 262.978512432662
64.62955 246.974887699218
64.64966 251.95677734357
64.66977 272.998238864275
64.68989 252.013059148406
64.71 241
64.73012 260.01873552559
64.75023 260.965285565184
64.77034 244.052080315422
64.79046 284.025054169979
64.81057 227.040373206666
64.83068 247.987594471072
64.8508 237
64.87091 264.003201406134
64.89102 251.008875192786
64.91114 284.035822394833
64.93125 274.029680569916
64.95137 281.96473044317
64.97148 287.043423355928
64.99159 226.008370591411
65.01171 259.013321949627
65.03182 249.981648713056
65.05193 245.007524185063
65.07205 260.070586748497
65.09216 281.021201311879
65.11228 253.006890831467
65.13239 270.99589513852
65.1525 260
65.17262 268.002928196334
65.19273 257.980889964661
65.21284 259.042479854592
65.23296 288.959960400202
65.25307 282.049398754497
65.27319 251.999281026777
65.2933 276
65.31341 261.995821532054
65.33353 268.000582054171
65.35364 257.9895380811
65.37375 259.015680627619
65.39387 245.01257966401
65.41398 258.960271398454
65.43409 294.002183778068
65.45421 255.98446338454
65.47432 249.997428764199
65.49444 241.999116374011
65.51455 260.085922216882
65.53466 281.041353136188
65.55478 243.00256410327
65.57489 273.995067956894
65.595 253
65.61512 280.035983352192
65.63523 297.995915839108
65.65535 283.966814428804
65.67546 285.960088171093
65.69557 306.001313733689
65.71569 295.993211405881
65.7358 326
65.75591 312.004656758742
65.77603 334.975081126125
65.79614 274.892561543957
65.81626 270.91909464372
65.83637 311.996214895796
65.85648 278.029313735706
65.8766 281
65.89671 299.001713981007
65.91682 282.970071793751
65.93694 261.00577527451
65.95705 281.961827868714
65.97716 279.020645820256
65.99728 268.015715149467
66.01739 253.002204974616
66.03751 252.994266917587
66.05762 241.014442169068
66.07773 266.993368780802
66.09785 237.985210667112
66.11796 267.938135459031
66.13807 272.024705273309
66.15819 253.004843965105
66.1783 257
66.19842 265.003791582249
66.21853 257.966009242297
66.23864 236.000482037736
66.25876 255.968830309737
66.27887 256.004528642443
66.29898 266.970696324749
66.3191 290
66.33921 254.993058294839
66.35933 277.044448708388
66.37944 286.981499431488
66.39955 273.011270852434
66.41967 279.990308873001
66.43978 271.027267370913
66.45989 252.988960110486
66.48001 286.993268589985
66.50012 235.980878645391
66.52023 266.041292450703
66.54035 256.928671668311
66.56046 243.958155890463
66.58058 275.001320424661
66.60069 248.001771788278
66.6208 271
66.64092 242.974679614417
66.66103 249.048452340393
66.68114 281.019245583587
66.70126 263.057690814005
66.72137 241.020244220049
66.74149 237.995936244496
66.7616 247
66.78171 250.016140396415
66.80183 292.009503025067
66.82194 260.949717407838
66.84205 270.921497887335
66.86217 293.007446479967
66.88228 266.026247163396
66.90239 258.995785565796
66.92251 271.003702431039
66.94262 269.994756684019
66.96274 276.057108734684
66.98285 300.959091961936
67.00296 253.062993774249
67.02308 260.976717538905
67.04319 277.993548297459
67.0633 283
67.08342 259.970215907991
67.10353 250.044895090709
67.12365 299.066705146473
67.14376 288.046621842194
67.16387 276.003208328266
67.18399 277.000520381666
67.2041 270
67.22421 267.00881800236
67.24433 284.978711410236
67.26444 257.018178227533
67.28456 297.967281900109
67.30467 284.986868805667
67.32478 315.000821904716
67.3449 295
67.36501 352.006438210375
67.38512 297.932646660725
67.40524 283.101640617464
67.42535 351.938050563527
67.44546 324.055997955714
67.46558 337.954751112331
67.48569 390.976586952817
67.50581 425.013582852438
67.52592 458.044537610717
67.54603 512.081666021738
67.56615 567.157678403598
67.58626 634.880922560645
67.60637 699.857798410501
67.62649 822.938912556248
67.6466 916
67.66672 985.116513770813
67.68683 1101.0375270478
67.70694 1034.86371240932
67.72706 993.148081715102
67.74717 891.09694693083
67.76728 853.08564475408
67.7874 719
67.80751 703.030790857574
67.82763 771.022118745634
67.84774 748.026696567188
67.86785 811.865907962967
67.88797 828.979796484653
67.90808 847.002993482731
67.92819 818.017099292102
67.94831 803.004237068047
67.96842 814.991349698434
67.98853 811.074996706037
68.00865 920.306468428448
68.02876 1049.6579745436
68.04888 1229.88336241775
68.06899 1289.96040961373
68.0891 1401
68.10922 1393.92304853673
68.12933 1290.85337314371
68.14944 1219.89745899398
68.16956 1179.06164039381
68.18967 1149.0551466583
68.20979 1117.00357398384
68.2299 1173
68.25001 1315.02517563318
68.27013 1271.93542996085
68.29024 1279.02952634022
68.31035 1240.27672921308
68.33047 1071.28792162967
68.35058 888.172105708065
68.3707 733
68.39081 641.976174292704
68.41092 630.011889025456
68.43104 642.000238777654
68.45115 628.961230073367
68.47126 612.054714176725
68.49138 561.077688712403
68.51149 485.020432561892
68.5316 461
68.55172 376.948381184865
68.57183 367.979909228792
68.59195 343.009133875659
68.61206 355.079441097591
68.63217 282.040084705538
68.65229 311.99111416007
68.6724 297
68.69251 320.00228644691
68.71263 289.940496136217
68.73274 270.009936987707
68.75286 287.972576203455
68.77297 288.009345733905
68.79308 287.988771343712
68.8132 292
68.83331 253.997270785225
68.85342 276.000964606115
68.87354 256.014965623304
68.89365 295.928736386431
68.91376 287.058264933198
68.93388 264.007362970331
68.95399 267.999108481726
68.97411 267.004602068468
68.99422 284.009192476996
69.01433 277.980173478951
69.03445 266.982316585542
69.05456 264.000420568929
69.07467 264.997004779908
69.09479 268.996430674281
69.1149 272
69.13502 255.99273953831
69.15513 256.990987894609
69.17524 252.038675314461
69.19536 282.987920308517
69.21547 254.056603306855
69.23558 233.004348667573
69.2557 235
69.27581 237.011498987028
69.29593 268.012283866845
69.31604 248.959634946178
69.33615 251.938302157529
69.35627 280.974598924
69.37638 281.005736525926
69.39649 274.007427979501
69.41661 250.987817110116
69.43672 233.992945586641
69.45683 240.029730988719
69.47695 261.021009269519
69.49706 262.96995967766
69.51718 276.023827908072
69.53729 238.99559117191
69.5574 283
69.57752 243.96885299578
69.59763 245.003068755728
69.61774 231.9741128829
69.63786 237.942617418346
69.65797 272.969279490873
69.67809 264.016418179639
69.6982 240
69.71831 275.007933164918
69.73843 262.989020623497
69.75854 269.997231422389
69.77865 253.042045636472
69.79877 246.999832899802
69.81888 250.98965303079
69.839 264
69.85911 267.000283833393
69.87922 268.000461297711
69.89934 258.947302174283
69.91945 235.01592058642
69.93956 263.968588880619
69.95968 253.015617192164
69.97979 253.991533705058
69.9999 268
70.02002 244.985765187597
70.04013 250.016066854939
70.06025 264.070387398721
70.08036 283.049673686729
70.10047 234.027708514971
70.12059 254.992589911197
70.1407 242
70.16081 243.008598974552
70.18093 255.984876156746
70.20104 236.004204458237
70.22116 258.979046716483
70.24127 248.012489084208
70.26138 255.986191939027
70.2815 267
70.30161 264.986944780531
70.32172 231.990155403389
70.34184 250.041721014144
70.36195 249.05698791289
70.38207 224.010902147426
70.40218 236.984107969128
70.42229 244.996807419444
70.44241 244.991219164897
70.46252 225.004150621241
70.48263 243.997114258708
70.50275 222.993566395668
70.52286 249.940068431672
70.54297 259.014992240602
70.56309 243.00537154357
70.5832 246
70.60332 250.977954311706
70.62343 226.021404520708
70.64354 261.996096858359
70.66366 227.006636466141
70.68377 268.945633161183
70.70388 266.025091807562
70.724 247
70.74411 252.9960266081
70.76423 239.014039426372
70.78434 268.030975797796
70.80445 258.036365887738
70.82457 249.021029127047
70.84468 234.000992762244
70.86479 241.002982223976
70.88491 227.002007727371
70.90502 248.010865426525
70.92513 249.027202837129
70.94525 274.993139874917
70.96536 241.061730785428
70.98548 238.981037297003
71.00559 253.00463450049
71.0257 229
71.04582 248.041050446387
71.06593 278.995032095704
71.08604 246.93787975915
71.10616 236.001281361555
71.12627 238.985077707638
71.14639 247.003182621739
71.1665 235
71.18661 252.0034233586
71.20673 246.00272184484
71.22684 252.977901493593
71.24695 228.027902776697
71.26707 239.974512467967
71.28718 244.009056080367
71.3073 237
71.32741 261.009203933091
71.34752 255.972666300867
71.36764 229.996772091165
71.38775 248.967969164759
71.40786 247.991955770149
71.42798 258.002114091773
71.44809 244.003723081098
71.4682 241
71.48832 220.011325696809
71.50843 256.027774195723
71.52855 241.950115304406
71.54866 240.966960780267
71.56877 257.001920294578
71.58889 242.004128456811
71.609 249
71.62911 259.008650371933
71.64923 276.00142972047
71.66934 263.987359698481
71.68946 269.987248318393
71.70957 262.037695370851
71.72968 236.007242634975
71.7498 252
71.76991 260.992650490648
71.79002 236.989863835425
71.81014 256.080951637671
71.83025 287.999471693877
71.85037 264.026506518859
71.87048 257.022106719544
71.89059 229.997659824981
71.91071 263.010587974319
71.93082 258.997074089419
71.95093 256.958934603475
71.97105 211.929951809228
71.99116 228.888538365094
72.01127 280.983561362311
72.03139 258.006314248617
72.0515 262
72.07162 232.00368303657
72.09173 264.012895676816
72.11184 239.971091409221
72.13196 252.967450995103
72.15207 260.982016034616
72.17218 274.998590021947
72.1923 264
72.21241 252.983644333285
72.23253 219.007715592223
72.25264 265.096673411627
72.27275 280.041345508024
72.29287 250.040702101715
72.31298 235.00928927344
72.33309 230.996228868095
72.35321 253.016410436166
72.37332 270.980523925634
72.39344 235.988497833823
72.41355 265.062470170468
72.43366 259.051008149537
72.45378 241.991662362574
72.47389 261.001000585441
72.494 238
72.51412 245.003082419351
72.53423 234.986261066988
72.55434 243.055378380974
72.57446 276.953172464122
72.59457 277.030308458055
72.61469 260.995110536343
72.6348 280
72.65491 251.000238882693
72.67503 271.976369098084
72.69514 219.939275724077
72.71525 240.888851785377
72.73537 271.988505611422
72.75548 261.015213661023
72.7756 249
72.79571 240.00718030314
72.81582 270.020746316946
72.83594 269.984204531585
72.85605 259.054501547561
72.87616 238.994515391529
72.89628 256.995396431691
72.91639 249.994132726586
72.9365 274
72.95662 259.01859276884
72.97673 302.015377237687
72.99685 262.879916744553
73.01696 247.958294258789
73.03707 283.958690823491
73.05719 283.013204812956
73.0773 267
73.09741 318.010539992744
73.11753 288.930648706025
73.13764 274.06537925693
73.15776 315.014202153074
73.17787 275.002452368219
73.19798 320.968818330323
73.2181 315
73.23821 331.006460293309
73.25832 323.97867097364
73.27844 327.121175115408
73.29855 416.860604389537
73.31867 413.041399000897
73.33878 415.948248904108
73.35889 497.962968328241
73.37901 538.008095352717
73.39912 545.001467104247
73.41923 543.993748131785
73.43935 535.970762216346
73.45946 514.076514930809
73.47957 471.043453323182
73.49969 445.025978203857
73.5198 381
73.53992 388.009001284731
73.56003 378.984565082614
73.58014 392.088466862924
73.60026 427.047052248927
73.62037 367.037552188076
73.64048 390.984150462687
73.6606 379
73.68071 381.983538799132
73.70083 319.936939434205
73.72094 311.984858603314
73.74105 293.020180451674
73.76117 294.020643394072
73.78128 267.014379681862
73.80139 272.995745963271
73.82151 268.993153269908
73.84162 249.977601079394
73.86174 238.021621505539
73.88185 258.008017718691
73.90196 248.981813141189
73.92208 265.018725013591
73.94219 230.99388540977
73.9623 275
73.98242 225.974801166
74.00253 255.062864182264
74.02264 264.947654057709
74.04276 233.999477904991
74.06287 260.979826662916
74.08299 253.997095601589
74.1031 266
74.12321 227.000350258654
74.14333 271.050986942078
74.16344 262.940939004231
74.18355 242.005731889166
74.20367 254.977492174522
74.22378 251.030832201646
74.2439 228
74.26401 276.998445359014
74.28412 227.984419164924
74.30424 261.035798279565
74.32435 240.050263925987
74.34446 234.036083477333
74.36458 218.970294907509
74.38469 267.999747754079
74.40481 228.999164135474
74.42492 264.997396772887
74.44503 221.986427484104
74.46515 266.105425321656
74.48526 269.038968927813
74.50537 243.049565323889
74.52549 218.998778925833
74.5456 247
74.56571 264.997136141461
74.58583 247.986102540107
74.60594 249.996233026702
74.62606 246.972454973241
74.64617 272.976895234201
74.66628 259.039414251233
74.6864 229
74.70651 269.0125361832
74.72662 253.963171617514
74.74674 226.993797063257
74.76685 240.974028567452
74.78697 239.999522094202
74.80708 246.993768374918
74.82719 245.005152076146
74.84731 240.00706530945
74.86742 257.99260317479
74.88753 230.982698998565
74.90765 254.104613659099
74.92776 277.03731302759
74.94787 242.00495039092
74.96799 268.996167709031
74.9881 245
75.00822 255.024117790768
