3.00117 20295
3.02128 19609
3.0414 19012
3.06151 19021
3.08162 17745
3.10174 17793
3.12185 17085
3.14197 16634
3.16208 16369
3.18219 15526
3.20231 15350
3.22242 14535
3.24253 14332
3.26265 14009
3.28276 13289
3.30288 13133
3.32299 12741
3.3431 12427
3.36322 11978
3.38333 11272
3.40344 11162
3.42356 10593
3.44367 10240
3.46379 9987
3.4839 9398
3.50401 9554
3.52413 8967
3.54424 8668
3.56435 8400
3.58447 7880
3.60458 7750
3.62469 7435
3.64481 7155
3.66492 7145
3.68504 6546
3.70515 6419
3.72526 6276
3.74538 5951
3.76549 5916
3.7856 5259
3.80572 5297
3.82583 5104
3.84595 4859
3.86606 4749
3.88617 4346
3.90629 4248
3.9264 4025
3.94651 3967
3.96663 3858
3.98674 3469
4.00686 3511
4.02697 3296
4.04708 3080
4.0672 3147
4.08731 2839
4.10742 2775
4.12754 2630
4.14765 2594
4.16776 2629
4.18788 2328
4.20799 2396
4.22811 2197
4.24822 2218
4.26833 2192
4.28845 1968
4.30856 2016
4.32867 1910
4.34879 1826
4.3689 1893
4.38902 1703
4.40913 1790
4.42924 1742
4.44936 1627
4.46947 1616
4.48958 1569
4.5097 1537
4.52981 1461
4.54992 1409
4.57004 1505
4.59015 1349
4.61027 1335
4.63038 1331
4.65049 1321
4.67061 1354
4.69072 1162
4.71083 1273
4.73095 1221
4.75106 1255
4.77118 1184
4.79129 1133
4.8114 1104
4.83152 1113
4.85163 1065
4.87174 1083
4.89186 1034
4.91197 1024
4.93209 1057
4.9522 964
4.97231 993
4.99243 966
5.01254 930
5.03265 939
5.05277 896
5.07288 883
5.09299 832
5.11311 835
5.13322 833
5.15334 833
5.17345 718
5.19356 741
5.21368 722
5.23379 711
5.2539 756
5.27402 760
5.29413 682
5.31425 687
5.33436 693
5.35447 684
5.37459 606
5.3947 654
5.41481 621
5.43493 640
5.45504 613
5.47516 538
5.49527 622
5.51538 583
5.5355 576
5.55561 594
5.57572 559
5.59584 551
5.61595 553
5.63606 558
5.65618 551
5.67629 501
5.69641 517
5.71652 537
5.73663 489
5.75675 557
5.77686 498
5.79697 465
5.81709 456
5.8372 469
5.85732 510
5.87743 497
5.89754 416
5.91766 454
5.93777 451
5.95788 463
5.978 448
5.99811 419
6.01823 435
6.03834 422
6.05845 435
6.07857 342
6.09868 415
6.11879 431
6.13891 392
6.15902 432
6.17913 428
6.19925 425
6.21936 415
6.23948 455
6.25959 452
6.2797 397
6.29982 399
6.31993 397
6.34004 402
6.36016 406
6.38027 398
6.40039 391
6.4205 368
6.44061 361
6.46073 388
6.48084 349
6.50095 361
6.52107 379
6.54118 382
6.56129 365
6.58141 396
6.60152 370
6.62164 372
6.64175 334
6.66186 351
6.68198 370
6.70209 372
6.7222 366
6.74232 372
6.76243 376
6.78255 375
6.80266 403
6.82277 364
6.84289 384
6.863 340
6.88311 345
6.90323 365
6.92334 371
6.94346 355
6.96357 374
6.98368 359
7.0038 391
7.02391 352
7.04402 404
7.06414 367
7.08425 367
7.10436 344
7.12448 323
7.14459 339
7.16471 328
7.18482 350
7.20493 350
7.22505 391
7.24516 298
7.26527 342
7.28539 345
7.3055 351
7.32562 373
7.34573 344
7.36584 345
7.38596 353
7.40607 345
7.42618 405
7.4463 353
7.46641 365
7.48653 352
7.50664 371
7.52675 349
7.54687 365
7.56698 375
7.58709 331
7.60721 342
7.62732 331
7.64743 347
7.66755 341
7.68766 362
7.70778 365
7.72789 357
7.748 349
7.76812 393
7.78823 397
7.80834 320
7.82846 319
7.84857 331
7.86869 346
7.8888 339
7.90891 352
7.92903 314
7.94914 347
7.96925 364
7.98937 356
8.00948 303
8.0296 353
8.04971 350
8.06982 338
8.08994 329
8.11005 335
8.13016 331
8.15028 370
8.17039 343
8.1905 303
8.21062 347
8.23073 344
8.25085 342
8.27096 357
8.29107 333
8.31119 339
8.3313 316
8.35141 371
8.37153 309
8.39164 361
8.41176 371
8.43187 360
8.45198 425
8.4721 345
8.49221 367
8.51232 345
8.53244 329
8.55255 334
8.57266 359
8.59278 371
8.61289 320
8.63301 381
8.65312 366
8.67323 349
8.69335 384
8.71346 325
8.73357 339
8.75369 371
8.7738 374
8.79392 344
8.81403 400
8.83414 385
8.85426 399
8.87437 347
8.89448 346
8.9146 345
8.93471 375
8.95483 347
8.97494 368
8.99505 357
9.01517 380
9.03528 353
9.05539 347
9.07551 334
9.09562 354
9.11573 342
9.13585 360
9.15596 311
9.17608 353
9.19619 329
9.2163 371
9.23642 295
9.25653 334
9.27664 350
9.29676 343
9.31687 314
9.33699 359
9.3571 329
9.37721 369
9.39733 314
9.41744 347
9.43755 364
9.45767 309
9.47778 386
9.4979 317
9.51801 297
9.53812 311
9.55824 318
9.57835 329
9.59846 322
9.61858 346
9.63869 344
9.6588 335
9.67892 369
9.69903 322
9.71915 343
9.73926 361
9.75937 333
9.77949 371
9.7996 340
9.81971 341
9.83983 327
9.85994 363
9.88006 312
9.90017 333
9.92028 331
9.9404 350
9.96051 320
9.98062 322
10.00074 342
10.02085 375
10.04097 338
10.06108 321
10.08119 373
10.10131 340
10.12142 362
10.14153 324
10.16165 330
10.18176 329
10.20187 323
10.22199 330
10.2421 328
10.26222 356
10.28233 318
10.30244 381
10.32256 363
10.34267 331
10.36278 317
10.3829 329
10.40301 367
10.42313 328
10.44324 349
10.46335 328
10.48347 340
10.50358 356
10.52369 358
10.54381 347
10.56392 362
10.58403 348
10.60415 362
10.62426 319
10.64438 334
10.66449 352
10.6846 352
10.70472 329
10.72483 347
10.74494 344
10.76506 374
10.78517 319
10.80529 357
10.8254 335
10.84551 357
10.86563 348
10.88574 342
10.90585 380
10.92597 359
10.94608 386
10.9662 351
10.98631 380
11.00642 367
11.02654 360
11.04665 372
11.06676 340
11.08688 372
11.10699 381
11.1271 359
11.14722 386
11.16733 360
11.18745 301
11.20756 392
11.22767 365
11.24779 343
11.2679 374
11.28801 382
11.30813 423
11.32824 380
11.34836 410
11.36847 422
11.38858 414
11.4087 418
11.42881 409
11.44892 461
11.46904 382
11.48915 400
11.50927 421
11.52938 431
11.54949 460
11.56961 402
11.58972 438
11.60983 411
11.62995 424
11.65006 434
11.67017 512
11.69029 482
11.7104 453
11.73052 502
11.75063 457
11.77074 501
11.79086 502
11.81097 536
11.83108 530
11.8512 549
11.87131 551
11.89143 503
11.91154 574
11.93165 597
11.95177 579
11.97188 547
11.99199 641
12.01211 591
12.03222 596
12.05234 653
12.07245 698
12.09256 671
12.11268 701
12.13279 651
12.1529 711
12.17302 755
12.19313 734
12.21324 685
12.23336 732
12.25347 744
12.27359 709
12.2937 647
12.31381 668
12.33393 649
12.35404 636
12.37415 630
12.39427 686
12.41438 636
12.4345 591
12.45461 543
12.47472 572
12.49484 552
12.51495 543
12.53506 547
12.55518 518
12.57529 490
12.5954 460
12.61552 465
12.63563 443
12.65575 441
12.67586 456
12.69597 405
12.71609 430
12.7362 400
12.75631 421
12.77643 442
12.79654 407
12.81666 323
12.83677 352
12.85688 347
12.877 374
12.89711 355
12.91722 339
12.93734 350
12.95745 351
12.97757 306
12.99768 317
13.01779 363
13.03791 326
13.05802 408
13.07813 370
13.09825 369
13.11836 384
13.13847 411
13.15859 333
13.1787 313
13.19882 348
13.21893 328
13.23904 300
13.25916 322
13.27927 309
13.29938 308
13.3195 317
13.33961 342
13.35973 296
13.37984 320
13.39995 301
13.42007 313
13.44018 305
13.46029 297
13.48041 339
13.50052 314
13.52064 296
13.54075 333
13.56086 338
13.58098 342
13.60109 346
13.6212 338
13.64132 344
13.66143 324
13.68154 318
13.70166 332
13.72177 314
13.74189 337
13.762 265
13.78211 285
13.80223 316
13.82234 312
13.84245 275
13.86257 288
13.88268 274
13.9028 259
13.92291 281
13.94302 264
13.96314 298
13.98325 310
14.00336 297
14.02348 265
14.04359 281
14.06371 274
14.08382 291
14.10393 279
14.12405 257
14.14416 292
14.16427 274
14.18439 255
14.2045 257
14.22461 304
14.24473 241
14.26484 248
14.28496 278
14.30507 256
14.32518 261
14.3453 300
14.36541 312
14.38552 288
14.40564 271
14.42575 257
14.44587 264
14.46598 272
14.48609 261
14.50621 278
14.52632 240
14.54643 243
14.56655 274
14.58666 261
14.60677 248
14.62689 276
14.647 270
14.66712 267
14.68723 215
14.70734 269
14.72746 267
14.74757 247
14.76768 269
14.7878 311
14.80791 241
14.82803 281
14.84814 291
14.86825 305
14.88837 278
14.90848 262
14.92859 286
14.94871 291
14.96882 264
14.98894 303
15.00905 283
15.02916 272
15.04928 240
15.06939 275
15.0895 245
15.10962 283
15.12973 270
15.14984 267
15.16996 271
15.19007 249
15.21019 270
15.2303 284
15.25041 276
15.27053 249
15.29064 245
15.31075 255
15.33087 283
15.35098 251
15.3711 274
15.39121 257
15.41132 268
15.43144 235
15.45155 254
15.47166 226
15.49178 259
15.51189 236
15.53201 205
15.55212 274
15.57223 232
15.59235 257
15.61246 209
15.63257 231
15.65269 225
15.6728 279
15.69291 218
15.71303 230
15.73314 243
15.75326 256
15.77337 228
15.79348 262
15.8136 243
15.83371 250
15.85382 266
15.87394 245
15.89405 244
15.91417 271
15.93428 246
15.95439 230
15.97451 238
15.99462 214
16.01473 246
16.03485 249
16.05496 234
16.07508 265
16.09519 229
16.1153 241
16.13542 263
16.15553 278
16.17564 260
16.19576 253
16.21587 288
16.23598 233
16.2561 235
16.27621 261
16.29633 241
16.31644 216
16.33655 245
16.35667 226
16.37678 275
16.39689 259
16.41701 248
16.43712 236
16.45724 218
16.47735 258
16.49746 237
16.51758 242
16.53769 231
16.5578 230
16.57792 257
16.59803 219
16.61814 248
16.63826 236
16.65837 253
16.67849 262
16.6986 266
16.71871 237
16.73883 255
16.75894 237
16.77905 245
16.79917 236
16.81928 228
16.8394 265
16.85951 271
16.87962 245
16.89974 230
16.91985 247
16.93996 258
16.96008 226
16.98019 268
17.00031 254
17.02042 275
17.04053 252
17.06065 269
17.08076 243
17.10087 257
17.12099 246
17.1411 276
17.16121 245
17.18133 244
17.20144 219
17.22156 259
17.24167 245
17.26178 238
17.2819 237
17.30201 263
17.32212 248
17.34224 218
17.36235 248
17.38247 239
17.40258 263
17.42269 246
17.44281 237
17.46292 246
17.48303 229
17.50315 258
17.52326 293
17.54338 270
17.56349 262
17.5836 269
17.60372 247
17.62383 269
17.64394 264
17.66406 261
17.68417 258
17.70428 277
17.7244 256
17.74451 262
17.76463 273
17.78474 246
17.80485 249
17.82497 256
17.84508 258
17.86519 270
17.88531 268
17.90542 243
17.92554 228
17.94565 282
17.96576 267
17.98588 263
18.00599 250
18.0261 262
18.04622 219
18.06633 248
18.08645 266
18.10656 277
18.12667 237
18.14679 253
18.1669 280
18.18701 254
18.20713 260
18.22724 255
18.24735 262
18.26747 266
18.28758 280
18.3077 263
18.32781 228
18.34792 240
18.36804 239
18.38815 259
18.40826 230
18.42838 233
18.44849 270
18.46861 252
18.48872 258
18.50883 253
18.52895 244
18.54906 274
18.56917 253
18.58929 254
18.6094 236
18.62951 246
18.64963 257
18.66974 294
18.68986 240
18.70997 251
18.73008 264
18.7502 247
18.77031 270
18.79042 302
18.81054 280
18.83065 303
18.85077 261
18.87088 266
18.89099 262
18.91111 292
18.93122 255
18.95133 255
18.97145 284
18.99156 257
19.01168 261
19.03179 272
19.0519 249
19.07202 249
19.09213 276
19.11224 284
19.13236 301
19.15247 316
19.17258 270
19.1927 290
19.21281 354
19.23293 296
19.25304 314
19.27315 333
19.29327 289
19.31338 317
19.33349 329
19.35361 313
19.37372 333
19.39384 344
19.41395 340
19.43406 315
19.45418 339
19.47429 375
19.4944 341
19.51452 447
19.53463 419
19.55475 412
19.57486 436
19.59497 425
19.61509 476
19.6352 517
19.65531 549
19.67543 623
19.69554 638
19.71565 665
19.73577 785
19.75588 801
19.776 798
19.79611 845
19.81622 894
19.83634 927
19.85645 914
19.87656 965
19.89668 939
19.91679 924
19.93691 915
19.95702 901
19.97713 845
19.99725 805
20.01736 807
20.03747 834
20.05759 771
20.0777 851
20.09782 841
20.11793 823
20.13804 743
20.15816 749
20.17827 852
20.19838 792
20.2185 796
20.23861 773
20.25872 732
20.27884 733
20.29895 761
20.31907 732
20.33918 826
20.35929 774
20.37941 739
20.39952 784
20.41963 673
20.43975 838
20.45986 824
20.47998 793
20.50009 777
20.5202 765
20.54032 851
20.56043 802
20.58054 872
20.60066 928
20.62077 1001
20.64088 1070
20.661 1100
20.68111 1359
20.70123 1506
20.72134 1820
20.74145 2263
20.76157 2666
20.78168 3162
20.80179 3476
20.82191 3605
20.84202 3251
20.86214 2934
20.88225 2467
20.90236 1986
20.92248 1661
20.94259 1518
20.9627 1316
20.98282 1144
21.00293 1142
21.02305 1005
21.04316 970
21.06327 914
21.08339 886
21.1035 765
21.12361 777
21.14373 719
21.16384 763
21.18395 706
21.20407 670
21.22418 663
21.2443 682
21.26441 682
21.28452 700
21.30464 637
21.32475 632
21.34486 639
21.36498 600
21.38509 606
21.40521 670
21.42532 583
21.44543 628
21.46555 555
21.48566 542
21.50577 596
21.52589 556
21.546 586
21.56612 592
21.58623 587
21.60634 606
21.62646 552
21.64657 531
21.66668 545
21.6868 546
21.70691 529
21.72702 491
21.74714 568
21.76725 556
21.78737 501
21.80748 502
21.82759 488
21.84771 520
21.86782 499
21.88793 561
21.90805 528
21.92816 564
21.94828 561
21.96839 565
21.9885 575
22.00862 514
22.02873 507
22.04884 556
22.06896 535
22.08907 538
22.10919 547
22.1293 535
22.14941 537
22.16953 511
22.18964 507
22.20975 578
22.22987 579
22.24998 538
22.27009 574
22.29021 545
22.31032 559
22.33044 534
22.35055 502
22.37066 522
22.39078 471
22.41089 451
22.431 508
22.45112 477
22.47123 479
22.49135 476
22.51146 490
22.53157 517
22.55169 470
22.5718 484
22.59191 526
22.61203 487
22.63214 469
22.65225 478
22.67237 414
22.69248 431
22.7126 468
22.73271 433
22.75282 456
22.77294 402
22.79305 488
22.81316 494
22.83328 417
22.85339 498
22.87351 457
22.89362 454
22.91373 479
22.93385 455
22.95396 493
22.97407 523
22.99419 479
23.0143 498
23.03442 569
23.05453 544
23.07464 595
23.09476 620
23.11487 552
23.13498 592
23.1551 609
23.17521 595
23.19532 562
23.21544 579
23.23555 525
23.25567 476
23.27578 522
23.29589 492
23.31601 473
23.33612 469
23.35623 482
23.37635 462
23.39646 506
23.41658 464
23.43669 475
23.4568 460
23.47692 482
23.49703 479
23.51714 485
23.53726 456
23.55737 501
23.57749 460
23.5976 488
23.61771 461
23.63783 444
23.65794 479
23.67805 457
23.69817 466
23.71828 474
23.73839 503
23.75851 494
23.77862 504
23.79874 519
23.81885 511
23.83896 589
23.85908 573
23.87919 590
23.8993 627
23.91942 620
23.93953 649
23.95965 638
23.97976 665
23.99987 644
24.01999 590
24.0401 532
24.06021 548
24.08033 504
24.10044 538
24.12056 507
24.14067 497
24.16078 528
24.1809 512
24.20101 582
24.22112 557
24.24124 615
24.26135 607
24.28146 637
24.30158 570
24.32169 641
24.34181 531
24.36192 563
24.38203 574
24.40215 556
24.42226 587
24.44237 546
24.46249 554
24.4826 625
24.50272 591
24.52283 589
24.54294 642
24.56306 579
24.58317 668
24.60328 645
24.6234 680
24.64351 727
24.66362 686
24.68374 710
24.70385 696
24.72397 716
24.74408 736
24.76419 726
24.78431 741
24.80442 769
24.82453 762
24.84465 810
24.86476 787
24.88488 766
24.90499 780
24.9251 698
24.94522 750
24.96533 712
24.98544 704
25.00556 670
25.02567 666
25.04579 626
25.0659 628
25.08601 642
25.10613 626
25.12624 667
25.14635 607
25.16647 659
25.18658 565
25.20669 613
25.22681 596
25.24692 618
25.26704 603
25.28715 628
25.30726 624
25.32738 592
25.34749 625
25.3676 609
25.38772 683
25.40783 682
25.42795 694
25.44806 705
25.46817 772
25.48829 727
25.5084 772
25.52851 793
25.54863 747
25.56874 757
25.58886 717
25.60897 713
25.62908 728
25.6492 660
25.66931 639
25.68942 586
25.70954 570
25.72965 558
25.74976 535
25.76988 589
25.78999 498
25.81011 574
25.83022 534
25.85033 528
25.87045 540
25.89056 499
25.91067 526
25.93079 523
25.9509 544
25.97102 571
25.99113 551
26.01124 560
26.03136 524
26.05147 628
26.07158 623
26.0917 600
26.11181 642
26.13193 658
26.15204 733
26.17215 739
26.19227 764
26.21238 839
26.23249 884
26.25261 992
26.27272 1104
26.29283 1244
26.31295 1316
26.33306 1453
26.35318 1686
26.37329 1865
26.3934 2208
26.41352 2645
26.43363 3263
26.45374 4100
26.47386 5156
26.49397 6465
26.51409 8229
26.5342 10238
26.55431 11929
26.57443 13277
26.59454 13416
26.61465 12476
26.63477 10690
26.65488 8809
26.67499 6508
26.69511 4741
26.71522 3275
26.73534 2266
26.75545 1685
26.77556 1312
26.79568 1097
26.81579 1057
26.8359 961
26.85602 980
26.87613 889
26.89625 900
26.91636 898
26.93647 928
26.95659 908
26.9767 937
26.99681 940
27.01693 943
27.03704 889
27.05716 882
27.07727 821
27.09738 780
27.1175 792
27.13761 707
27.15772 676
27.17784 662
27.19795 718
27.21806 717
27.23818 787
27.25829 857
27.27841 879
27.29852 998
27.31863 1050
27.33875 1147
27.35886 1225
27.37897 1262
27.39909 1330
27.4192 1198
27.43932 1149
27.45943 1019
27.47954 1022
27.49966 841
27.51977 735
27.53988 706
27.56 599
27.58011 577
27.60023 524
27.62034 487
27.64045 545
27.66057 487
27.68068 522
27.70079 461
27.72091 562
27.74102 503
27.76113 463
27.78125 467
27.80136 544
27.82148 478
27.84159 490
27.8617 515
27.88182 465
27.90193 534
27.92204 485
27.94216 464
27.96227 480
27.98239 407
28.0025 413
28.02261 430
28.04273 411
28.06284 403
28.08295 368
28.10307 383
28.12318 410
28.1433 384
28.16341 388
28.18352 367
28.20364 342
28.22375 438
28.24386 350
28.26398 387
28.28409 409
28.3042 329
28.32432 365
28.34443 360
28.36455 328
28.38466 355
28.40477 354
28.42489 361
28.445 354
28.46511 355
28.48523 296
28.50534 319
28.52546 297
28.54557 355
28.56568 341
28.5858 349
28.60591 313
28.62602 359
28.64614 328
28.66625 344
28.68636 318
28.70648 330
28.72659 358
28.74671 353
28.76682 316
28.78693 311
28.80705 338
28.82716 323
28.84727 344
28.86739 329
28.8875 305
28.90762 313
28.92773 339
28.94784 354
28.96796 338
28.98807 310
29.00818 340
29.0283 338
29.04841 336
29.06853 341
29.08864 356
29.10875 341
29.12887 361
29.14898 307
29.16909 341
29.18921 401
29.20932 320
29.22943 360
29.24955 351
29.26966 404
29.28978 408
29.30989 427
29.33 421
29.35012 404
29.37023 409
29.39034 470
29.41046 419
29.43057 447
29.45069 424
29.4708 402
29.49091 394
29.51103 382
29.53114 324
29.55125 355
29.57137 344
29.59148 372
29.6116 341
29.63171 363
29.65182 346
29.67194 342
29.69205 335
29.71216 354
29.73228 356
29.75239 378
29.7725 381
29.79262 338
29.81273 326
29.83285 342
29.85296 376
29.87307 345
29.89319 356
29.9133 363
29.93341 382
29.95353 399
29.97364 395
29.99376 418
30.01387 428
30.03398 434
30.0541 404
30.07421 433
30.09432 456
30.11444 467
30.13455 462
30.15467 479
30.17478 459
30.19489 453
30.21501 453
30.23512 464
30.25523 410
30.27535 381
30.29546 341
30.31557 398
30.33569 335
30.3558 349
30.37592 355
30.39603 309
30.41614 360
30.43626 328
30.45637 340
30.47648 332
30.4966 382
30.51671 334
30.53683 355
30.55694 384
30.57705 353
30.59717 408
30.61728 397
30.63739 419
30.65751 417
30.67762 466
30.69773 466
30.71785 464
30.73796 437
30.75808 412
30.77819 446
30.7983 437
30.81842 418
30.83853 391
30.85864 433
30.87876 416
30.89887 371
30.91899 359
30.9391 328
30.95921 331
30.97933 325
30.99944 318
31.01955 328
31.03967 309
31.05978 277
31.0799 299
31.10001 291
31.12012 248
31.14024 309
31.16035 299
31.18046 317
31.20058 285
31.22069 286
31.2408 299
31.26092 322
31.28103 294
31.30115 270
31.32126 306
31.34137 281
31.36149 268
31.3816 298
31.40171 291
31.42183 274
31.44194 286
31.46206 308
31.48217 287
31.50228 328
31.5224 292
31.54251 270
31.56262 286
31.58274 278
31.60285 277
31.62297 238
31.64308 304
31.66319 280
31.68331 291
31.70342 294
31.72353 266
31.74365 283
31.76376 307
31.78387 297
31.80399 300
31.8241 263
31.84422 303
31.86433 273
31.88444 326
31.90456 291
31.92467 328
31.94478 293
31.9649 307
31.98501 312
32.00513 319
32.02524 315
32.04535 310
32.06547 342
32.08558 309
32.10569 323
32.12581 303
32.14592 310
32.16604 290
32.18615 321
32.20626 302
32.22638 281
32.24649 312
32.2666 330
32.28672 323
32.30683 285
32.32694 318
32.34706 331
32.36717 350
32.38729 333
32.4074 365
32.42751 327
32.44763 318
32.46774 324
32.48785 311
32.50797 295
32.52808 290
32.5482 291
32.56831 287
32.58842 273
32.60854 268
32.62865 292
32.64876 263
32.66888 300
32.68899 253
32.7091 294
32.72922 279
32.74933 277
32.76945 250
32.78956 285
32.80967 269
32.82979 257
32.8499 248
32.87001 258
32.89013 258
32.91024 269
32.93036 266
32.95047 244
32.97058 287
32.9907 235
33.01081 291
33.03092 246
33.05104 285
33.07115 274
33.09127 297
33.11138 326
33.13149 282
33.15161 263
33.17172 262
33.19183 274
33.21195 293
33.23206 266
33.25217 282
33.27229 297
33.2924 311
33.31252 276
33.33263 330
33.35274 294
33.37286 286
33.39297 286
33.41308 277
33.4332 289
33.45331 237
33.47343 285
33.49354 255
33.51365 269
33.53377 285
33.55388 245
33.57399 320
33.59411 259
33.61422 271
33.63434 258
33.65445 274
33.67456 267
33.69468 312
33.71479 282
33.7349 252
33.75502 293
33.77513 258
33.79524 291
33.81536 283
33.83547 299
33.85559 307
33.8757 282
33.89581 322
33.91593 284
33.93604 280
33.95615 298
33.97627 275
33.99638 314
34.0165 299
34.03661 360
34.05672 366
34.07684 341
34.09695 402
34.11706 400
34.13718 420
34.15729 402
34.17741 379
34.19752 357
34.21763 374
34.23775 339
34.25786 349
34.27797 344
34.29809 381
34.3182 358
34.33831 344
34.35843 365
34.37854 353
34.39866 401
34.41877 359
34.43888 388
34.459 400
34.47911 387
34.49922 383
34.51934 416
34.53945 446
34.55957 467
34.57968 470
34.59979 486
34.61991 439
34.64002 467
34.66013 503
34.68025 488
34.70036 506
34.72047 569
34.74059 578
34.7607 598
34.78082 571
34.80093 573
34.82104 599
34.84116 594
34.86127 650
34.88138 595
34.9015 599
34.92161 595
34.94173 635
34.96184 573
34.98195 584
35.00207 564
35.02218 595
35.04229 577
35.06241 530
35.08252 520
35.10264 514
35.12275 542
35.14286 501
35.16298 510
35.18309 505
35.2032 522
35.22332 483
35.24343 497
35.26354 460
35.28366 486
35.30377 496
35.32389 504
35.344 527
35.36411 516
35.38423 499
35.40434 500
35.42445 529
35.44457 542
35.46468 573
35.4848 546
35.50491 584
35.52502 532
35.54514 548
35.56525 538
35.58536 536
35.60548 510
35.62559 524
35.64571 531
35.66582 501
35.68593 506
35.70605 514
35.72616 544
35.74627 504
35.76639 469
35.7865 512
35.80661 477
35.82673 520
35.84684 492
35.86696 504
35.88707 461
35.90718 522
35.9273 484
35.94741 436
35.96752 453
35.98764 470
36.00775 482
36.02787 469
36.04798 414
36.06809 455
36.08821 404
36.10832 421
36.12843 424
36.14855 485
36.16866 495
36.18878 442
36.20889 456
36.229 465
36.24912 454
36.26923 514
36.28934 584
36.30946 528
36.32957 620
36.34968 699
36.3698 762
36.38991 848
36.41003 928
36.43014 1052
36.45025 1184
36.47037 1194
36.49048 1170
36.51059 1165
36.53071 1022
36.55082 1004
36.57094 875
36.59105 783
36.61116 691
36.63128 626
36.65139 562
36.6715 481
36.69162 513
36.71173 480
36.73184 459
36.75196 502
36.77207 490
36.79219 500
36.8123 463
36.83241 497
36.85253 485
36.87264 505
36.89275 510
36.91287 480
36.93298 429
36.9531 495
36.97321 470
36.99332 465
37.01344 431
37.03355 398
37.05366 420
37.07378 429
37.09389 420
37.11401 432
37.13412 408
37.15423 434
37.17435 428
37.19446 402
37.21457 419
37.23469 424
37.2548 442
37.27491 409
37.29503 398
37.31514 414
37.33526 450
37.35537 473
37.37548 409
37.3956 442
37.41571 451
37.43582 423
37.45594 457
37.47605 434
37.49617 441
37.51628 482
37.53639 401
37.55651 429
37.57662 400
37.59673 469
37.61685 447
37.63696 433
37.65708 442
37.67719 473
37.6973 453
37.71742 427
37.73753 452
37.75764 441
37.77776 457
37.79787 445
37.81798 450
37.8381 397
37.85821 416
37.87833 443
37.89844 432
37.91855 454
37.93867 410
37.95878 434
37.97889 456
37.99901 416
38.01912 476
38.03924 463
38.05935 485
38.07946 469
38.09958 462
38.11969 469
38.1398 497
38.15992 509
38.18003 505
38.20015 504
38.22026 509
38.24037 483
38.26049 577
38.2806 467
38.30071 519
38.32083 505
38.34094 489
38.36105 512
38.38117 501
38.40128 500
38.4214 534
38.44151 497
38.46162 534
38.48174 479
38.50185 535
38.52196 550
38.54208 511
38.56219 518
38.58231 461
38.60242 467
38.62253 457
38.64265 490
38.66276 495
38.68287 444
38.70299 444
38.7231 432
38.74321 397
38.76333 414
38.78344 424
38.80356 426
38.82367 455
38.84378 459
38.8639 405
38.88401 439
38.90412 418
38.92424 437
38.94435 430
38.96447 447
38.98458 401
39.00469 449
39.02481 439
39.04492 448
39.06503 418
39.08515 452
39.10526 455
39.12538 462
39.14549 470
39.1656 467
39.18572 442
39.20583 500
39.22594 527
39.24606 537
39.26617 612
39.28628 717
39.3064 731
39.32651 813
39.34663 968
39.36674 994
39.38685 1129
39.40697 1102
39.42708 1088
39.44719 985
39.46731 826
39.48742 827
39.50754 669
39.52765 676
39.54776 589
39.56788 499
39.58799 471
39.6081 400
39.62822 356
39.64833 368
39.66845 347
39.68856 345
39.70867 320
39.72879 334
39.7489 334
39.76901 348
39.78913 326
39.80924 343
39.82935 346
39.84947 333
39.86958 280
39.8897 348
39.90981 346
39.92992 377
39.95004 398
39.97015 346
39.99026 332
40.01038 377
40.03049 347
40.05061 427
40.07072 428
40.09083 449
40.11095 499
40.13106 527
40.15117 578
40.17129 625
40.1914 658
40.21152 673
40.23163 668
40.25174 692
40.27186 645
40.29197 550
40.31208 554
40.3322 538
40.35231 519
40.37242 443
40.39254 426
40.41265 380
40.43277 356
40.45288 362
40.47299 336
40.49311 323
40.51322 326
40.53333 293
40.55345 329
40.57356 350
40.59368 305
40.61379 330
40.6339 314
40.65402 281
40.67413 328
40.69424 319
40.71436 312
40.73447 320
40.75458 321
40.7747 280
40.79481 288
40.81493 288
40.83504 261
40.85515 306
40.87527 324
40.89538 306
40.91549 315
40.93561 313
40.95572 300
40.97584 306
40.99595 315
41.01606 295
41.03618 301
41.05629 296
41.0764 307
41.09652 331
41.11663 309
41.13675 295
41.15686 315
41.17697 294
41.19709 328
41.2172 329
41.23731 294
41.25743 292
41.27754 293
41.29765 299
41.31777 282
41.33788 315
41.358 310
41.37811 334
41.39822 337
41.41834 303
41.43845 329
41.45856 325
41.47868 318
41.49879 349
41.51891 335
41.53902 315
41.55913 363
41.57925 352
41.59936 380
41.61947 394
41.63959 384
41.6597 416
41.67982 406
41.69993 438
41.72004 407
41.74016 472
41.76027 455
41.78038 452
41.8005 451
41.82061 408
41.84072 414
41.86084 391
41.88095 349
41.90107 369
41.92118 312
41.94129 321
41.96141 308
41.98152 302
42.00163 327
42.02175 319
42.04186 317
42.06198 324
42.08209 312
42.1022 342
42.12232 332
42.14243 333
42.16254 339
42.18266 375
42.20277 418
42.22289 428
42.243 473
42.26311 498
42.28323 587
42.30334 628
42.32345 682
42.34357 717
42.36368 811
42.38379 860
42.40391 840
42.42402 724
42.44414 729
42.46425 626
42.48436 577
42.50448 562
42.52459 508
42.5447 482
42.56482 408
42.58493 345
42.60505 349
42.62516 323
42.64527 344
42.66539 325
42.6855 297
42.70561 297
42.72573 315
42.74584 337
42.76595 292
42.78607 285
42.80618 299
42.8263 278
42.84641 276
42.86652 311
42.88664 251
42.90675 285
42.92686 281
42.94698 316
42.96709 290
42.98721 287
43.00732 271
43.02743 251
43.04755 278
43.06766 266
43.08777 276
43.10789 317
43.128 252
43.14812 274
43.16823 279
43.18834 239
43.20846 281
43.22857 278
43.24868 299
43.2688 242
43.28891 268
43.30902 251
43.32914 280
43.34925 266
43.36937 259
43.38948 258
43.40959 282
43.42971 265
43.44982 277
43.46993 273
43.49005 260
43.51016 305
43.53028 312
43.55039 255
43.5705 260
43.59062 290
43.61073 268
43.63084 267
43.65096 238
43.67107 279
43.69119 248
43.7113 298
43.73141 244
43.75153 264
43.77164 286
43.79175 274
43.81187 242
43.83198 277
43.85209 245
43.87221 281
43.89232 270
43.91244 295
43.93255 257
43.95266 279
43.97278 272
43.99289 268
44.013 285
44.03312 272
44.05323 290
44.07335 294
44.09346 280
44.11357 283
44.13369 273
44.1538 293
44.17391 263
44.19403 288
44.21414 277
44.23426 255
44.25437 274
44.27448 236
44.2946 275
44.31471 286
44.33482 289
44.35494 313
44.37505 299
44.39516 274
44.41528 275
44.43539 287
44.45551 259
44.47562 273
44.49573 286
44.51585 289
44.53596 294
44.55607 248
44.57619 277
44.5963 270
44.61642 295
44.63653 272
44.65664 309
44.67676 264
44.69687 275
44.71698 276
44.7371 285
44.75721 292
44.77732 268
44.79744 295
44.81755 284
44.83767 276
44.85778 264
44.87789 275
44.89801 273
44.91812 291
44.93823 285
44.95835 316
44.97846 273
44.99858 268
45.01869 310
45.0388 271
45.05892 299
45.07903 299
45.09914 259
45.11926 296
45.13937 301
45.15949 302
45.1796 332
45.19971 345
45.21983 327
45.23994 318
45.26005 314
45.28017 340
45.30028 317
45.32039 331
45.34051 308
45.36062 339
45.38074 347
45.40085 390
45.42096 351
45.44108 403
45.46119 396
45.4813 377
45.50142 407
45.52153 405
45.54165 476
45.56176 433
45.58187 474
45.60199 456
45.6221 539
45.64221 582
45.66233 602
45.68244 621
45.70256 643
45.72267 684
45.74278 619
45.7629 596
45.78301 570
45.80312 528
45.82324 530
45.84335 463
45.86346 486
45.88358 434
45.90369 359
45.92381 394
45.94392 362
45.96403 339
45.98415 333
46.00426 344
46.02437 281
46.04449 323
46.0646 350
46.08472 319
46.10483 338
46.12494 317
46.14506 301
46.16517 308
46.18528 333
46.2054 325
46.22551 290
46.24563 303
46.26574 316
46.28585 301
46.30597 279
46.32608 320
46.34619 331
46.36631 272
46.38642 307
46.40653 290
46.42665 304
46.44676 291
46.46688 280
46.48699 282
46.5071 283
46.52722 304
46.54733 307
46.56744 297
46.58756 268
46.60767 289
46.62779 273
46.6479 291
46.66801 254
46.68813 247
46.70824 263
46.72835 328
46.74847 294
46.76858 258
46.78869 302
46.80881 309
46.82892 307
46.84904 277
46.86915 331
46.88926 319
46.90938 297
46.92949 337
46.9496 317
46.96972 350
46.98983 310
47.00995 321
47.03006 355
47.05017 354
47.07029 319
47.0904 337
47.11051 292
47.13063 322
47.15074 279
47.17086 280
47.19097 319
47.21108 292
47.2312 302
47.25131 275
47.27142 294
47.29154 305
47.31165 301
47.33176 301
47.35188 304
47.37199 367
47.39211 320
47.41222 291
47.43233 282
47.45245 294
47.47256 272
47.49267 265
47.51279 293
47.5329 268
47.55302 252
47.57313 287
47.59324 284
47.61336 286
47.63347 304
47.65358 282
47.6737 286
47.69381 285
47.71393 291
47.73404 306
47.75415 294
47.77427 274
47.79438 296
47.81449 283
47.83461 290
47.85472 266
47.87483 276
47.89495 296
47.91506 280
47.93518 244
47.95529 293
47.9754 277
47.99552 273
48.01563 298
48.03574 306
48.05586 278
48.07597 284
48.09609 269
48.1162 276
48.13631 284
48.15643 289
48.17654 290
48.19665 268
48.21677 276
48.23688 277
48.257 267
48.27711 269
48.29722 302
48.31734 271
48.33745 270
48.35756 245
48.37768 274
48.39779 244
48.4179 269
48.43802 288
48.45813 293
48.47825 266
48.49836 232
48.51847 294
48.53859 260
48.5587 264
48.57881 260
48.59893 285
48.61904 312
48.63916 279
48.65927 291
48.67938 309
48.6995 317
48.71961 291
48.73972 319
48.75984 308
48.77995 262
48.80006 288
48.82018 315
48.84029 318
48.86041 314
48.88052 304
48.90063 312
48.92075 349
48.94086 320
48.96097 298
48.98109 294
49.0012 289
49.02132 301
49.04143 273
49.06154 300
49.08166 287
49.10177 298
49.12188 258
49.142 264
49.16211 261
49.18223 276
49.20234 286
49.22245 291
49.24257 245
49.26268 288
49.28279 260
49.30291 265
49.32302 264
49.34313 259
49.36325 252
49.38336 263
49.40348 275
49.42359 282
49.4437 274
49.46382 289
49.48393 284
49.50404 270
49.52416 297
49.54427 299
49.56439 278
49.5845 309
49.60461 309
49.62473 314
49.64484 313
49.66495 291
49.68507 341
49.70518 345
49.7253 337
49.74541 408
49.76552 364
49.78564 452
49.80575 414
49.82586 426
49.84598 439
49.86609 520
49.8862 618
49.90632 661
49.92643 706
49.94655 840
49.96666 961
49.98677 1163
50.00689 1161
50.027 1392
50.04711 1515
50.06723 1510
50.08734 1413
50.10746 1302
50.12757 1235
50.14768 1134
50.1678 1041
50.18791 928
50.20802 875
50.22814 847
50.24825 683
50.26837 578
50.28848 506
50.30859 488
50.32871 424
50.34882 432
50.36893 435
50.38905 446
50.40916 432
50.42927 467
50.44939 468
50.4695 465
50.48962 426
50.50973 456
50.52984 441
50.54996 414
50.57007 429
50.59018 439
50.6103 395
50.63041 410
50.65053 367
50.67064 364
50.69075 343
50.71087 354
50.73098 357
50.75109 332
50.77121 345
50.79132 317
50.81143 333
50.83155 332
50.85166 314
50.87178 303
50.89189 329
50.912 304
50.93212 297
50.95223 346
50.97234 271
50.99246 274
51.01257 275
51.03269 281
51.0528 293
51.07291 279
51.09303 270
51.11314 251
51.13325 228
51.15337 280
51.17348 268
51.1936 268
51.21371 263
51.23382 261
51.25394 233
51.27405 249
51.29416 253
51.31428 241
51.33439 268
51.3545 231
51.37462 248
51.39473 255
51.41485 253
51.43496 247
51.45507 232
51.47519 261
51.4953 265
51.51541 231
51.53553 261
51.55564 271
51.57576 254
51.59587 257
51.61598 261
51.6361 263
51.65621 237
51.67632 261
51.69644 245
51.71655 236
51.73667 235
51.75678 252
51.77689 241
51.79701 207
51.81712 244
51.83723 222
51.85735 244
51.87746 215
51.89757 243
51.91769 247
51.9378 225
51.95792 237
51.97803 228
51.99814 228
52.01826 232
52.03837 239
52.05848 267
52.0786 229
52.09871 233
52.11883 274
52.13894 244
52.15905 225
52.17917 224
52.19928 241
52.21939 245
52.23951 227
52.25962 229
52.27974 250
52.29985 268
52.31996 259
52.34008 249
52.36019 241
52.3803 257
52.40042 252
52.42053 271
52.44064 246
52.46076 264
52.48087 273
52.50099 278
52.5211 267
52.54121 256
52.56133 263
52.58144 237
52.60155 265
52.62167 297
52.64178 257
52.6619 251
52.68201 249
52.70212 264
52.72224 257
52.74235 239
52.76246 252
52.78258 241
52.80269 270
52.8228 251
52.84292 231
52.86303 244
52.88315 239
52.90326 238
52.92337 267
52.94349 295
52.9636 250
52.98371 257
53.00383 256
53.02394 240
53.04406 265
53.06417 273
53.08428 272
53.1044 264
53.12451 252
53.14462 267
53.16474 278
53.18485 255
53.20497 239
53.22508 269
53.24519 258
53.26531 258
53.28542 245
53.30553 247
53.32565 312
53.34576 265
53.36587 270
53.38599 279
53.4061 283
53.42622 281
53.44633 248
53.46644 297
53.48656 306
53.50667 298
53.52678 288
53.5469 303
53.56701 299
53.58713 275
53.60724 316
53.62735 248
53.64747 289
53.66758 274
53.68769 271
53.70781 291
53.72792 257
53.74804 306
53.76815 288
53.78826 289
53.80838 270
53.82849 300
53.8486 300
53.86872 269
53.88883 278
53.90894 307
53.92906 284
53.94917 301
53.96929 328
53.9894 297
54.00951 335
54.02963 332
54.04974 339
54.06985 302
54.08997 327
54.11008 326
54.1302 333
54.15031 364
54.17042 345
54.19054 311
54.21065 320
54.23076 336
54.25088 337
54.27099 317
54.29111 353
54.31122 380
54.33133 374
54.35145 363
54.37156 355
54.39167 374
54.41179 380
54.4319 357
54.45201 351
54.47213 371
54.49224 398
54.51236 357
54.53247 366
54.55258 394
54.5727 394
54.59281 464
54.61292 417
54.63304 452
54.65315 465
54.67327 519
54.69338 562
54.71349 571
54.73361 600
54.75372 701
54.77383 703
54.79395 723
54.81406 687
54.83417 686
54.85429 590
54.8744 590
54.89452 592
54.91463 540
54.93474 501
54.95486 522
54.97497 486
54.99508 462
55.0152 446
55.03531 441
55.05543 397
55.07554 434
55.09565 423
55.11577 421
55.13588 424
55.15599 457
55.17611 421
55.19622 470
55.21634 478
55.23645 473
55.25656 548
55.27668 451
55.29679 504
55.3169 467
55.33702 463
55.35713 425
55.37724 432
55.39736 417
55.41747 441
55.43759 381
55.4577 408
55.47781 372
55.49793 362
55.51804 372
55.53815 361
55.55827 338
55.57838 332
55.5985 360
55.61861 375
55.63872 316
55.65884 346
55.67895 314
55.69906 348
55.71918 343
55.73929 321
55.75941 313
55.77952 313
55.79963 328
55.81975 293
55.83986 284
55.85997 297
55.88009 317
55.9002 299
55.92031 315
55.94043 312
55.96054 283
55.98066 268
56.00077 298
56.02088 308
56.041 308
56.06111 282
56.08122 309
56.10134 290
56.12145 296
56.14157 313
56.16168 315
56.18179 313
56.20191 285
56.22202 313
56.24213 283
56.26225 283
56.28236 321
56.30248 306
56.32259 307
56.3427 309
56.36282 311
56.38293 292
56.40304 309
56.42316 283
56.44327 275
56.46338 312
56.4835 303
56.50361 297
56.52373 291
56.54384 289
56.56395 329
56.58407 264
56.60418 298
56.62429 298
56.64441 297
56.66452 290
56.68464 296
56.70475 294
56.72486 303
56.74498 299
56.76509 309
56.7852 284
56.80532 277
56.82543 286
56.84554 281
56.86566 279
56.88577 291
56.90589 285
56.926 304
56.94611 293
56.96623 286
56.98634 281
57.00645 257
57.02657 277
57.04668 313
57.0668 245
57.08691 265
57.10702 282
57.12714 279
57.14725 300
57.16736 282
57.18748 287
57.20759 295
57.22771 283
57.24782 277
57.26793 264
57.28805 294
57.30816 305
57.32827 281
57.34839 294
57.3685 270
57.38861 265
57.40873 291
57.42884 273
57.44896 293
57.46907 258
57.48918 261
57.5093 248
57.52941 271
57.54952 258
57.56964 265
57.58975 265
57.60987 275
57.62998 272
57.65009 251
57.67021 267
57.69032 247
57.71043 255
57.73055 279
57.75066 269
57.77078 258
57.79089 284
57.811 265
57.83112 226
57.85123 236
57.87134 250
57.89146 292
57.91157 251
57.93168 271
57.9518 309
57.97191 237
57.99203 255
58.01214 265
58.03225 270
58.05237 247
58.07248 265
58.09259 273
58.11271 272
58.13282 265
58.15294 266
58.17305 265
58.19316 258
58.21328 269
58.23339 270
58.2535 261
58.27362 287
58.29373 279
58.31385 260
58.33396 283
58.35407 276
58.37419 256
58.3943 294
58.41441 260
58.43453 272
58.45464 292
58.47475 295
58.49487 252
58.51498 275
58.5351 240
58.55521 270
58.57532 296
58.59544 280
58.61555 261
58.63566 268
58.65578 274
58.67589 290
58.69601 260
58.71612 273
58.73623 256
58.75635 248
58.77646 244
58.79657 269
58.81669 242
58.8368 250
58.85691 257
58.87703 270
58.89714 263
58.91726 275
58.93737 287
58.95748 287
58.9776 259
58.99771 256
59.01782 274
59.03794 264
59.05805 239
59.07817 246
59.09828 245
59.11839 250
59.13851 267
59.15862 303
59.17873 268
59.19885 271
59.21896 252
59.23908 295
59.25919 284
59.2793 300
59.29942 299
59.31953 316
59.33964 307
59.35976 295
59.37987 290
59.39998 310
59.4201 318
59.44021 304
59.46033 303
59.48044 345
59.50055 303
59.52067 328
59.54078 351
59.56089 346
59.58101 373
59.60112 360
59.62124 389
59.64135 396
59.66146 433
59.68158 475
59.70169 512
59.7218 575
59.74192 655
59.76203 679
59.78215 758
59.80226 872
59.82237 890
59.84249 1011
59.8626 1015
59.88271 1057
59.90283 1047
59.92294 980
59.94305 839
59.96317 778
59.98328 715
60.0034 714
60.02351 677
60.04362 592
60.06374 599
60.08385 576
60.10396 503
60.12408 458
60.14419 387
60.16431 354
60.18442 339
60.20453 304
60.22465 304
60.24476 275
60.26487 282
60.28499 312
60.3051 277
60.32522 268
60.34533 265
60.36544 284
60.38556 277
60.40567 294
60.42578 269
60.4459 271
60.46601 261
60.48612 292
60.50624 267
60.52635 244
60.54647 281
60.56658 243
60.58669 287
60.60681 307
60.62692 269
60.64703 282
60.66715 239
60.68726 275
60.70738 297
60.72749 297
60.7476 280
60.76772 273
60.78783 281
60.80794 273
60.82806 256
60.84817 275
60.86828 278
60.8884 274
60.90851 284
60.92863 269
60.94874 301
60.96885 324
60.98897 303
61.00908 306
61.02919 297
61.04931 278
61.06942 301
61.08954 350
61.10965 320
61.12976 297
61.14988 311
61.16999 298
61.1901 292
61.21022 308
61.23033 281
61.25045 297
61.27056 298
61.29067 295
61.31079 293
61.3309 297
61.35101 281
61.37113 295
61.39124 337
61.41135 320
61.43147 273
61.45158 279
61.4717 299
61.49181 333
61.51192 276
61.53204 315
61.55215 314
61.57226 311
61.59238 321
61.61249 317
61.63261 322
61.65272 338
61.67283 324
61.69295 319
61.71306 349
61.73317 381
61.75329 352
61.7734 395
61.79352 334
61.81363 366
61.83374 338
61.85386 412
61.87397 385
61.89408 418
61.9142 381
61.93431 435
61.95442 398
61.97454 403
61.99465 453
62.01477 445
62.03488 424
62.05499 505
62.07511 434
62.09522 483
62.11533 491
62.13545 467
62.15556 457
62.17568 469
62.19579 507
62.2159 460
62.23602 493
62.25613 473
62.27624 453
62.29636 455
62.31647 394
62.33659 424
62.3567 413
62.37681 427
62.39693 375
62.41704 353
62.43715 381
62.45727 364
62.47738 355
62.49749 304
62.51761 320
62.53772 334
62.55784 307
62.57795 320
62.59806 350
62.61818 324
62.63829 303
62.6584 318
62.67852 286
62.69863 292
62.71875 291
62.73886 298
62.75897 304
62.77909 269
62.7992 300
62.81931 329
62.83943 284
62.85954 333
62.87965 314
62.89977 319
62.91988 325
62.94 323
62.96011 339
62.98022 348
63.00034 308
63.02045 301
63.04056 295
63.06068 339
63.08079 305
63.10091 328
63.12102 326
63.14113 280
63.16125 293
63.18136 277
63.20147 312
63.22159 296
63.2417 293
63.26182 311
63.28193 294
63.30204 304
63.32216 290
63.34227 288
63.36238 293
63.3825 305
63.40261 296
63.42272 294
63.44284 310
63.46295 338
63.48307 336
63.50318 255
63.52329 304
63.54341 302
63.56352 307
63.58363 311
63.60375 323
63.62386 289
63.64398 302
63.66409 321
63.6842 333
63.70432 351
63.72443 339
63.74454 324
63.76466 337
63.78477 342
63.80489 379
63.825 394
63.84511 413
63.86523 414
63.88534 443
63.90545 412
63.92557 408
63.94568 432
63.96579 450
63.98591 435
64.00602 447
64.02614 367
64.04625 377
64.06636 355
64.08648 355
64.10659 344
64.1267 359
64.14682 349
64.16693 317
64.18705 325
64.20716 313
64.22727 303
64.24739 269
64.2675 256
64.28761 262
64.30773 280
64.32784 263
64.34796 233
64.36807 245
64.38818 275
64.4083 259
64.42841 257
64.44852 260
64.46864 266
64.48875 245
64.50886 268
64.52898 253
64.54909 226
64.56921 255
64.58932 242
64.60943 256
64.62955 249
64.64966 247
64.66977 229
64.68989 247
64.71 255
64.73012 282
64.75023 267
64.77034 241
64.79046 259
64.81057 270
64.83068 258
64.8508 279
64.87091 226
64.89102 258
64.91114 234
64.93125 260
64.95137 281
64.97148 272
64.99159 262
65.01171 261
65.03182 289
65.05193 254
65.07205 276
65.09216 281
65.11228 288
65.13239 271
65.1525 282
65.17262 279
65.19273 259
65.21284 292
65.23296 280
65.25307 276
65.27319 269
65.2933 271
65.31341 262
65.33353 261
65.35364 271
65.37375 250
65.39387 283
65.41398 265
65.43409 282
65.45421 249
65.47432 254
65.49444 269
65.51455 263
65.53466 272
65.55478 241
65.57489 257
65.595 255
65.61512 269
65.63523 268
65.65535 272
65.67546 288
65.69557 294
65.71569 266
65.7358 278
65.75591 293
65.77603 283
65.79614 259
65.81626 275
65.83637 260
65.85648 230
65.8766 245
65.89671 263
65.91682 287
65.93694 272
65.95705 268
65.97716 234
65.99728 235
66.01739 272
66.03751 273
66.05762 278
66.07773 283
66.09785 279
66.11796 262
66.13807 271
66.15819 269
66.1783 255
66.19842 273
66.21853 275
66.23864 280
66.25876 261
66.27887 268
66.29898 251
66.3191 279
66.33921 282
66.35933 274
66.37944 251
66.39955 267
66.41967 260
66.43978 262
66.45989 290
66.48001 267
66.50012 235
66.52023 231
66.54035 261
66.56046 246
66.58058 280
66.60069 247
66.6208 251
66.64092 231
66.66103 282
66.68114 245
66.70126 245
66.72137 235
66.74149 250
66.7616 259
66.78171 251
66.80183 280
66.82194 271
66.84205 253
66.86217 277
66.88228 262
66.90239 271
66.92251 249
66.94262 285
66.96274 284
66.98285 280
67.00296 229
67.02308 264
67.04319 279
67.0633 247
67.08342 284
67.10353 278
67.12365 276
67.14376 293
67.16387 247
67.18399 280
67.2041 248
67.22421 282
67.24433 282
67.26444 290
67.28456 311
67.30467 286
67.32478 300
67.3449 328
67.36501 331
67.38512 338
67.40524 339
67.42535 344
67.44546 371
67.46558 377
67.48569 395
67.50581 457
67.52592 473
67.54603 543
67.56615 582
67.58626 612
67.60637 645
67.62649 713
67.6466 749
67.66672 706
67.68683 751
67.70694 749
67.72706 694
67.74717 590
67.76728 575
67.7874 593
67.80751 613
67.82763 607
67.84774 624
67.86785 636
67.88797 647
67.90808 642
67.92819 669
67.94831 698
67.96842 690
67.98853 746
68.00865 774
68.02876 897
68.04888 938
68.06899 990
68.0891 975
68.10922 841
68.12933 838
68.14944 821
68.16956 832
68.18967 848
68.20979 865
68.2299 902
68.25001 861
68.27013 859
68.29024 790
68.31035 664
68.33047 546
68.35058 499
68.3707 508
68.39081 483
68.41092 490
68.43104 445
68.45115 439
68.47126 373
68.49138 393
68.51149 355
68.5316 314
68.55172 330
68.57183 312
68.59195 277
68.61206 295
68.63217 284
68.65229 277
68.6724 244
68.69251 263
68.71263 247
68.73274 272
68.75286 249
68.77297 269
68.79308 251
68.8132 258
68.83331 268
68.85342 281
68.87354 268
68.89365 280
68.91376 251
68.93388 260
68.95399 233
68.97411 271
68.99422 262
69.01433 257
69.03445 272
69.05456 263
69.07467 267
69.09479 255
69.1149 250
69.13502 240
69.15513 252
69.17524 233
69.19536 250
69.21547 270
69.23558 250
69.2557 245
69.27581 263
69.29593 221
69.31604 221
69.33615 227
69.35627 273
69.37638 239
69.39649 259
69.41661 223
69.43672 248
69.45683 280
69.47695 246
69.49706 253
69.51718 238
69.53729 285
69.5574 238
69.57752 272
69.59763 249
69.61774 244
69.63786 217
69.65797 263
69.67809 259
69.6982 250
69.71831 210
69.73843 251
69.75854 244
69.77865 242
69.79877 251
69.81888 246
69.839 241
69.85911 267
69.87922 241
69.89934 253
69.91945 242
69.93956 245
69.95968 234
69.97979 244
69.9999 254
70.02002 238
70.04013 254
70.06025 277
70.08036 253
70.10047 251
70.12059 259
70.1407 230
70.16081 253
70.18093 268
70.20104 252
70.22116 257
70.24127 253
70.26138 222
70.2815 246
70.30161 229
70.32172 233
70.34184 250
70.36195 207
70.38207 233
70.40218 256
70.42229 262
70.44241 255
70.46252 247
70.48263 272
70.50275 239
70.52286 234
70.54297 228
70.56309 256
70.5832 232
70.60332 235
70.62343 252
70.64354 254
70.66366 218
70.68377 228
70.70388 256
70.724 238
70.74411 261
70.76423 253
70.78434 237
70.80445 245
70.82457 250
70.84468 236
70.86479 257
70.88491 222
70.90502 244
70.92513 258
70.94525 262
70.96536 252
70.98548 238
71.00559 232
71.0257 247
71.04582 257
71.06593 243
71.08604 214
71.10616 247
71.12627 216
71.14639 215
71.1665 230
71.18661 244
71.20673 266
71.22684 240
71.24695 226
71.26707 227
71.28718 245
71.3073 225
71.32741 259
71.34752 274
71.36764 250
71.38775 230
71.40786 260
71.42798 227
71.44809 264
71.4682 290
71.48832 255
71.50843 255
71.52855 253
71.54866 265
71.56877 228
71.58889 289
71.609 230
71.62911 233
71.64923 254
71.66934 244
71.68946 251
71.70957 248
71.72968 271
71.7498 233
71.76991 277
71.79002 234
71.81014 263
71.83025 269
71.85037 254
71.87048 258
71.89059 281
71.91071 251
71.93082 248
71.95093 240
71.97105 262
71.99116 275
72.01127 285
72.03139 266
72.0515 268
72.07162 255
72.09173 246
72.11184 263
72.13196 268
72.15207 281
72.17218 269
72.1923 280
72.21241 268
72.23253 253
72.25264 273
72.27275 270
72.29287 271
72.31298 257
72.33309 253
72.35321 251
72.37332 256
72.39344 240
72.41355 249
72.43366 245
72.45378 248
72.47389 254
72.494 229
72.51412 221
72.53423 242
72.55434 265
72.57446 259
72.59457 271
72.61469 248
72.6348 269
72.65491 263
72.67503 254
72.69514 293
72.71525 281
72.73537 276
72.75548 270
72.7756 269
72.79571 260
72.81582 267
72.83594 266
72.85605 294
72.87616 296
72.89628 264
72.91639 258
72.9365 280
72.95662 276
72.97673 309
72.99685 278
73.01696 291
73.03707 304
73.05719 299
73.0773 313
73.09741 289
73.11753 331
73.13764 375
73.15776 314
73.17787 320
73.19798 335
73.2181 340
73.23821 390
73.25832 389
73.27844 366
73.29855 397
73.31867 400
73.33878 440
73.35889 426
73.37901 462
73.39912 462
73.41923 437
73.43935 419
73.45946 426
73.47957 408
73.49969 364
73.5198 354
73.53992 385
73.56003 378
73.58014 358
73.60026 371
73.62037 391
73.64048 352
73.6606 346
73.68071 333
73.70083 298
73.72094 279
73.74105 273
73.76117 312
73.78128 255
73.80139 277
73.82151 274
73.84162 274
73.86174 267
73.88185 275
73.90196 264
73.92208 291
73.94219 264
73.9623 273
73.98242 279
74.00253 251
74.02264 253
74.04276 261
74.06287 263
74.08299 249
74.1031 258
74.12321 269
74.14333 272
74.16344 242
74.18355 247
74.20367 249
74.22378 272
74.2439 264
74.26401 258
74.28412 261
74.30424 260
74.32435 264
74.34446 270
74.36458 275
74.38469 235
74.40481 258
74.42492 249
74.44503 270
74.46515 274
74.48526 265
74.50537 279
74.52549 275
74.5456 272
74.56571 278
74.58583 270
74.60594 268
74.62606 230
74.64617 284
74.66628 248
74.6864 262
74.70651 267
74.72662 249
74.74674 247
74.76685 286
74.78697 280
74.80708 272
74.82719 270
74.84731 250
74.86742 292
74.88753 298
74.90765 263
74.92776 284
74.94787 258
74.96799 277
74.9881 271
75.00822 296
