3.00117 20671
3.02128 20611
3.0414 19781
3.06151 19123
3.08162 18826
3.10174 18202
3.12185 18019
3.14197 17063
3.16208 16528
3.18219 16318
3.20231 15741
3.22242 15725
3.24253 14810
3.26265 14210
3.28276 13863
3.30288 13596
3.32299 13167
3.3431 12388
3.36322 12268
3.38333 12012
3.40344 11359
3.42356 11180
3.44367 10910
3.46379 10446
3.4839 10071
3.50401 9657
3.52413 9701
3.54424 8922
3.56435 8763
3.58447 8625
3.60458 7992
3.62469 8095
3.64481 7460
3.66492 7200
3.68504 6977
3.70515 6689
3.72526 6569
3.74538 5985
3.76549 5750
3.7856 5742
3.80572 5353
3.82583 5375
3.84595 4880
3.86606 4703
3.88617 4616
3.90629 4349
3.9264 4234
3.94651 3843
3.96663 3693
3.98674 3709
4.00686 3615
4.02697 3548
4.04708 3187
4.0672 3029
4.08731 2994
4.10742 2737
4.12754 2690
4.14765 2381
4.16776 2412
4.18788 2339
4.20799 2125
4.22811 2217
4.24822 2010
4.26833 2009
4.28845 1963
4.30856 1904
4.32867 1835
4.34879 1653
4.3689 1682
4.38902 1628
4.40913 1592
4.42924 1625
4.44936 1526
4.46947 1379
4.48958 1434
4.5097 1324
4.52981 1401
4.54992 1263
4.57004 1246
4.59015 1244
4.61027 1152
4.63038 1163
4.65049 1167
4.67061 1202
4.69072 1130
4.71083 1089
4.73095 1085
4.75106 981
4.77118 968
4.79129 977
4.8114 968
4.83152 877
4.85163 924
4.87174 915
4.89186 917
4.91197 941
4.93209 858
4.9522 818
4.97231 819
4.99243 772
5.01254 796
5.03265 728
5.05277 717
5.07288 726
5.09299 684
5.11311 710
5.13322 678
5.15334 644
5.17345 639
5.19356 621
5.21368 662
5.23379 582
5.2539 584
5.27402 647
5.29413 590
5.31425 544
5.33436 518
5.35447 548
5.37459 553
5.3947 498
5.41481 494
5.43493 467
5.45504 510
5.47516 481
5.49527 475
5.51538 481
5.5355 501
5.55561 456
5.57572 453
5.59584 421
5.61595 387
5.63606 424
5.65618 364
5.67629 371
5.69641 335
5.71652 455
5.73663 387
5.75675 344
5.77686 369
5.79697 411
5.81709 394
5.8372 376
5.85732 383
5.87743 390
5.89754 357
5.91766 341
5.93777 311
5.95788 337
5.978 301
5.99811 347
6.01823 304
6.03834 305
6.05845 324
6.07857 335
6.09868 306
6.11879 302
6.13891 316
6.15902 319
6.17913 302
6.19925 302
6.21936 329
6.23948 343
6.25959 276
6.2797 282
6.29982 286
6.31993 270
6.34004 310
6.36016 277
6.38027 251
6.40039 297
6.4205 267
6.44061 264
6.46073 297
6.48084 290
6.50095 274
6.52107 270
6.54118 313
6.56129 256
6.58141 262
6.60152 291
6.62164 284
6.64175 267
6.66186 257
6.68198 240
6.70209 281
6.7222 293
6.74232 256
6.76243 262
6.78255 257
6.80266 286
6.82277 255
6.84289 291
6.863 264
6.88311 273
6.90323 246
6.92334 256
6.94346 251
6.96357 238
6.98368 264
7.0038 254
7.02391 257
7.04402 294
7.06414 240
7.08425 260
7.10436 268
7.12448 244
7.14459 273
7.16471 253
7.18482 265
7.20493 248
7.22505 285
7.24516 218
7.26527 258
7.28539 264
7.3055 216
7.32562 248
7.34573 229
7.36584 220
7.38596 251
7.40607 247
7.42618 268
7.4463 264
7.46641 264
7.48653 261
7.50664 270
7.52675 242
7.54687 239
7.56698 250
7.58709 262
7.60721 267
7.62732 264
7.64743 242
7.66755 252
7.68766 269
7.70778 258
7.72789 269
7.748 276
7.76812 248
7.78823 244
7.80834 245
7.82846 262
7.84857 256
7.86869 249
7.8888 250
7.90891 251
7.92903 250
7.94914 245
7.96925 237
7.98937 266
8.00948 253
8.0296 231
8.04971 246
8.06982 256
8.08994 286
8.11005 271
8.13016 253
8.15028 231
8.17039 240
8.1905 271
8.21062 266
8.23073 238
8.25085 270
8.27096 268
8.29107 253
8.31119 257
8.3313 265
8.35141 234
8.37153 236
8.39164 248
8.41176 264
8.43187 241
8.45198 279
8.4721 276
8.49221 240
8.51232 285
8.53244 232
8.55255 257
8.57266 290
8.59278 257
8.61289 245
8.63301 257
8.65312 270
8.67323 271
8.69335 275
8.71346 259
8.73357 270
8.75369 253
8.7738 248
8.79392 284
8.81403 254
8.83414 273
8.85426 238
8.87437 254
8.89448 268
8.9146 245
8.93471 244
8.95483 254
8.97494 233
8.99505 263
9.01517 277
9.03528 273
9.05539 290
9.07551 260
9.09562 269
9.11573 264
9.13585 261
9.15596 264
9.17608 231
9.19619 253
9.2163 247
9.23642 282
9.25653 226
9.27664 284
9.29676 248
9.31687 261
9.33699 244
9.3571 243
9.37721 252
9.39733 271
9.41744 268
9.43755 237
9.45767 257
9.47778 245
9.4979 233
9.51801 266
9.53812 248
9.55824 273
9.57835 273
9.59846 248
9.61858 235
9.63869 238
9.6588 256
9.67892 241
9.69903 232
9.71915 244
9.73926 272
9.75937 270
9.77949 273
9.7996 263
9.81971 284
9.83983 267
9.85994 266
9.88006 237
9.90017 296
9.92028 252
9.9404 254
9.96051 276
9.98062 274
10.00074 266
10.02085 272
10.04097 280
10.06108 242
10.08119 257
10.10131 232
10.12142 242
10.14153 259
10.16165 250
10.18176 253
10.20187 236
10.22199 245
10.2421 261
10.26222 260
10.28233 278
10.30244 269
10.32256 250
10.34267 262
10.36278 258
10.3829 263
10.40301 269
10.42313 260
10.44324 285
10.46335 252
10.48347 222
10.50358 248
10.52369 239
10.54381 281
10.56392 254
10.58403 247
10.60415 244
10.62426 250
10.64438 260
10.66449 236
10.6846 266
10.70472 280
10.72483 244
10.74494 264
10.76506 253
10.78517 241
10.80529 242
10.8254 238
10.84551 228
10.86563 222
10.88574 258
10.90585 233
10.92597 249
10.94608 270
10.9662 255
10.98631 241
11.00642 250
11.02654 287
11.04665 261
11.06676 262
11.08688 269
11.10699 264
11.1271 253
11.14722 247
11.16733 268
11.18745 268
11.20756 257
11.22767 262
11.24779 231
11.2679 232
11.28801 241
11.30813 234
11.32824 244
11.34836 231
11.36847 255
11.38858 243
11.4087 268
11.42881 282
11.44892 258
11.46904 267
11.48915 275
11.50927 259
11.52938 279
11.54949 277
11.56961 289
11.58972 291
11.60983 258
11.62995 283
11.65006 250
11.67017 252
11.69029 287
11.7104 258
11.73052 279
11.75063 253
11.77074 251
11.79086 279
11.81097 242
11.83108 272
11.8512 253
11.87131 271
11.89143 280
11.91154 245
11.93165 259
11.95177 273
11.97188 288
11.99199 291
12.01211 277
12.03222 306
12.05234 281
12.07245 249
12.09256 293
12.11268 289
12.13279 302
12.1529 264
12.17302 253
12.19313 290
12.21324 294
12.23336 287
12.25347 296
12.27359 269
12.2937 286
12.31381 277
12.33393 275
12.35404 258
12.37415 299
12.39427 291
12.41438 284
12.4345 250
12.45461 280
12.47472 268
12.49484 257
12.51495 298
12.53506 244
12.55518 250
12.57529 227
12.5954 259
12.61552 265
12.63563 277
12.65575 246
12.67586 251
12.69597 236
12.71609 221
12.7362 251
12.75631 223
12.77643 219
12.79654 244
12.81666 258
12.83677 253
12.85688 215
12.877 212
12.89711 250
12.91722 219
12.93734 211
12.95745 255
12.97757 225
12.99768 225
13.01779 219
13.03791 232
13.05802 239
13.07813 249
13.09825 219
13.11836 210
13.13847 219
13.15859 261
13.1787 244
13.19882 228
13.21893 182
13.23904 221
13.25916 220
13.27927 208
13.29938 207
13.3195 221
13.33961 217
13.35973 203
13.37984 210
13.39995 215
13.42007 221
13.44018 240
13.46029 208
13.48041 222
13.50052 233
13.52064 235
13.54075 198
13.56086 228
13.58098 200
13.60109 228
13.6212 205
13.64132 230
13.66143 228
13.68154 243
13.70166 250
13.72177 201
13.74189 225
13.762 217
13.78211 205
13.80223 219
13.82234 212
13.84245 248
13.86257 221
13.88268 261
13.9028 244
13.92291 257
13.94302 235
13.96314 254
13.98325 214
14.00336 227
14.02348 226
14.04359 216
14.06371 204
14.08382 212
14.10393 239
14.12405 224
14.14416 224
14.16427 232
14.18439 233
14.2045 190
14.22461 210
14.24473 195
14.26484 215
14.28496 220
14.30507 192
14.32518 202
14.3453 240
14.36541 208
14.38552 215
14.40564 188
14.42575 254
14.44587 211
14.46598 225
14.48609 206
14.50621 201
14.52632 187
14.54643 180
14.56655 198
14.58666 218
14.60677 213
14.62689 174
14.647 201
14.66712 223
14.68723 212
14.70734 196
14.72746 202
14.74757 201
14.76768 204
14.7878 188
14.80791 188
14.82803 212
14.84814 214
14.86825 232
14.88837 197
14.90848 210
14.92859 197
14.94871 190
14.96882 221
14.98894 211
15.00905 207
15.02916 186
15.04928 229
15.06939 184
15.0895 226
15.10962 229
15.12973 197
15.14984 199
15.16996 208
15.19007 184
15.21019 215
15.2303 186
15.25041 205
15.27053 186
15.29064 176
15.31075 204
15.33087 215
15.35098 211
15.3711 213
15.39121 194
15.41132 196
15.43144 184
15.45155 193
15.47166 199
15.49178 182
15.51189 210
15.53201 221
15.55212 215
15.57223 234
15.59235 223
15.61246 181
15.63257 164
15.65269 201
15.6728 190
15.69291 205
15.71303 230
15.73314 211
15.75326 171
15.77337 197
15.79348 212
15.8136 215
15.83371 222
15.85382 189
15.87394 186
15.89405 199
15.91417 220
15.93428 187
15.95439 230
15.97451 206
15.99462 179
16.01473 195
16.03485 183
16.05496 197
16.07508 187
16.09519 201
16.1153 164
16.13542 162
16.15553 199
16.17564 175
16.19576 206
16.21587 194
16.23598 182
16.2561 175
16.27621 195
16.29633 186
16.31644 200
16.33655 191
16.35667 175
16.37678 195
16.39689 185
16.41701 189
16.43712 188
16.45724 188
16.47735 195
16.49746 183
16.51758 221
16.53769 213
16.5578 207
16.57792 206
16.59803 192
16.61814 211
16.63826 198
16.65837 184
16.67849 176
16.6986 164
16.71871 204
16.73883 194
16.75894 207
16.77905 170
16.79917 171
16.81928 192
16.8394 181
16.85951 192
16.87962 188
16.89974 197
16.91985 193
16.93996 216
16.96008 192
16.98019 205
17.00031 179
17.02042 207
17.04053 187
17.06065 206
17.08076 180
17.10087 187
17.12099 178
17.1411 205
17.16121 188
17.18133 192
17.20144 195
17.22156 193
17.24167 202
17.26178 185
17.2819 209
17.30201 186
17.32212 181
17.34224 180
17.36235 185
17.38247 185
17.40258 211
17.42269 179
17.44281 171
17.46292 150
17.48303 199
17.50315 178
17.52326 178
17.54338 191
17.56349 199
17.5836 194
17.60372 179
17.62383 206
17.64394 191
17.66406 193
17.68417 200
17.70428 210
17.7244 202
17.74451 199
17.76463 175
17.78474 215
17.80485 215
17.82497 192
17.84508 215
17.86519 183
17.88531 205
17.90542 195
17.92554 210
17.94565 173
17.96576 195
17.98588 169
18.00599 197
18.0261 186
18.04622 199
18.06633 201
18.08645 200
18.10656 208
18.12667 204
18.14679 208
18.1669 181
18.18701 198
18.20713 205
18.22724 207
18.24735 204
18.26747 172
18.28758 178
18.3077 174
18.32781 170
18.34792 194
18.36804 217
18.38815 175
18.40826 207
18.42838 185
18.44849 176
18.46861 179
18.48872 189
18.50883 197
18.52895 182
18.54906 159
18.56917 212
18.58929 215
18.6094 203
18.62951 188
18.64963 198
18.66974 186
18.68986 193
18.70997 183
18.73008 208
18.7502 194
18.77031 201
18.79042 234
18.81054 228
18.83065 200
18.85077 216
18.87088 207
18.89099 185
18.91111 209
18.93122 203
18.95133 203
18.97145 212
18.99156 214
19.01168 203
19.03179 193
19.0519 176
19.07202 181
19.09213 190
19.11224 200
19.13236 207
19.15247 188
19.17258 204
19.1927 223
19.21281 191
19.23293 230
19.25304 228
19.27315 197
19.29327 191
19.31338 213
19.33349 210
19.35361 200
19.37372 214
19.39384 223
19.41395 260
19.43406 233
19.45418 238
19.47429 213
19.4944 205
19.51452 213
19.53463 238
19.55475 215
19.57486 265
19.59497 258
19.61509 266
19.6352 284
19.65531 257
19.67543 295
19.69554 272
19.71565 313
19.73577 311
19.75588 332
19.776 328
19.79611 347
19.81622 358
19.83634 350
19.85645 365
19.87656 348
19.89668 342
19.91679 354
19.93691 362
19.95702 339
19.97713 348
19.99725 334
20.01736 312
20.03747 355
20.05759 337
20.0777 339
20.09782 372
20.11793 297
20.13804 335
20.15816 379
20.17827 360
20.19838 364
20.2185 334
20.23861 347
20.25872 371
20.27884 342
20.29895 348
20.31907 322
20.33918 351
20.35929 381
20.37941 377
20.39952 364
20.41963 383
20.43975 382
20.45986 393
20.47998 429
20.50009 411
20.5202 438
20.54032 468
20.56043 434
20.58054 470
20.60066 476
20.62077 504
20.64088 503
20.661 565
20.68111 729
20.70123 832
20.72134 1116
20.74145 1529
20.76157 2178
20.78168 3180
20.80179 4605
20.82191 6365
20.84202 7838
20.86214 8827
20.88225 8360
20.90236 7002
20.92248 5208
20.94259 3401
20.9627 2012
20.98282 1166
21.00293 759
21.02305 662
21.04316 571
21.06327 564
21.08339 515
21.1035 474
21.12361 445
21.14373 468
21.16384 417
21.18395 365
21.20407 390
21.22418 377
21.2443 366
21.26441 369
21.28452 359
21.30464 374
21.32475 362
21.34486 317
21.36498 314
21.38509 319
21.40521 339
21.42532 300
21.44543 297
21.46555 297
21.48566 293
21.50577 311
21.52589 269
21.546 314
21.56612 296
21.58623 323
21.60634 295
21.62646 299
21.64657 325
21.66668 328
21.6868 281
21.70691 288
21.72702 285
21.74714 312
21.76725 287
21.78737 301
21.80748 285
21.82759 325
21.84771 308
21.86782 282
21.88793 261
21.90805 281
21.92816 325
21.94828 356
21.96839 357
21.9885 419
22.00862 424
22.02873 430
22.04884 393
22.06896 376
22.08907 334
22.10919 328
22.1293 327
22.14941 310
22.16953 303
22.18964 250
22.20975 260
22.22987 280
22.24998 275
22.27009 277
22.29021 273
22.31032 255
22.33044 268
22.35055 279
22.37066 270
22.39078 272
22.41089 263
22.431 264
22.45112 270
22.47123 257
22.49135 265
22.51146 253
22.53157 262
22.55169 243
22.5718 264
22.59191 236
22.61203 267
22.63214 279
22.65225 244
22.67237 264
22.69248 242
22.7126 268
22.73271 254
22.75282 271
22.77294 247
22.79305 260
22.81316 255
22.83328 239
22.85339 262
22.87351 249
22.89362 255
22.91373 295
22.93385 251
22.95396 279
22.97407 240
22.99419 293
23.0143 270
23.03442 269
23.05453 270
23.07464 239
23.09476 265
23.11487 263
23.13498 242
23.1551 230
23.17521 258
23.19532 250
23.21544 256
23.23555 235
23.25567 257
23.27578 230
23.29589 234
23.31601 261
23.33612 230
23.35623 246
23.37635 242
23.39646 237
23.41658 270
23.43669 268
23.4568 234
23.47692 234
23.49703 309
23.51714 250
23.53726 267
23.55737 277
23.57749 303
23.5976 307
23.61771 303
23.63783 293
23.65794 282
23.67805 269
23.69817 250
23.71828 289
23.73839 268
23.75851 266
23.77862 267
23.79874 269
23.81885 278
23.83896 279
23.85908 247
23.87919 288
23.8993 245
23.91942 297
23.93953 276
23.95965 340
23.97976 350
23.99987 339
24.01999 368
24.0401 370
24.06021 308
24.08033 294
24.10044 283
24.12056 294
24.14067 243
24.16078 296
24.1809 298
24.20101 264
24.22112 302
24.24124 300
24.26135 313
24.28146 301
24.30158 288
24.32169 309
24.34181 280
24.36192 284
24.38203 263
24.40215 260
24.42226 278
24.44237 252
24.46249 257
24.4826 245
24.50272 255
24.52283 264
24.54294 293
24.56306 238
24.58317 277
24.60328 233
24.6234 276
24.64351 262
24.66362 262
24.68374 276
24.70385 287
24.72397 261
24.74408 253
24.76419 252
24.78431 268
24.80442 265
24.82453 312
24.84465 259
24.86476 258
24.88488 258
24.90499 281
24.9251 270
24.94522 275
24.96533 247
24.98544 268
25.00556 271
25.02567 294
25.04579 291
25.0659 287
25.08601 280
25.10613 296
25.12624 308
25.14635 298
25.16647 294
25.18658 272
25.20669 283
25.22681 277
25.24692 290
25.26704 323
25.28715 307
25.30726 330
25.32738 291
25.34749 270
25.3676 298
25.38772 314
25.40783 309
25.42795 282
25.44806 319
25.46817 320
25.48829 328
25.5084 321
25.52851 318
25.54863 276
25.56874 308
25.58886 307
25.60897 289
25.62908 289
25.6492 355
25.66931 353
25.68942 354
25.70954 422
25.72965 427
25.74976 446
25.76988 460
25.78999 450
25.81011 423
25.83022 459
25.85033 451
25.87045 478
25.89056 449
25.91067 472
25.93079 494
25.9509 414
25.97102 486
25.99113 447
26.01124 452
26.03136 505
26.05147 504
26.07158 555
26.0917 547
26.11181 554
26.13193 604
26.15204 599
26.17215 626
26.19227 657
26.21238 708
26.23249 778
26.25261 868
26.27272 888
26.29283 963
26.31295 979
26.33306 1047
26.35318 1210
26.37329 1384
26.3934 1492
26.41352 1842
26.43363 2302
26.45374 2738
26.47386 3633
26.49397 4954
26.51409 7243
26.5342 10111
26.55431 14649
26.57443 20997
26.59454 28752
26.61465 35811
26.63477 40297
26.65488 38462
26.67499 32421
26.69511 25132
26.71522 18868
26.73534 12958
26.75545 7434
26.77556 3923
26.79568 2388
26.81579 1911
26.8359 1650
26.85602 1398
26.87613 1284
26.89625 1194
26.91636 1036
26.93647 1034
26.95659 874
26.9767 820
26.99681 686
27.01693 680
27.03704 613
27.05716 529
27.07727 557
27.09738 482
27.1175 499
27.13761 456
27.15772 459
27.17784 458
27.19795 466
27.21806 433
27.23818 387
27.25829 392
27.27841 414
27.29852 400
27.31863 422
27.33875 393
27.35886 363
27.37897 391
27.39909 387
27.4192 418
27.43932 413
27.45943 380
27.47954 429
27.49966 368
27.51977 365
27.53988 387
27.56 378
27.58011 376
27.60023 384
27.62034 367
27.64045 351
27.66057 405
27.68068 395
27.70079 460
27.72091 427
27.74102 466
27.76113 459
27.78125 465
27.80136 488
27.82148 474
27.84159 487
27.8617 496
27.88182 549
27.90193 537
27.92204 570
27.94216 567
27.96227 546
27.98239 501
28.0025 485
28.02261 483
28.04273 439
28.06284 392
28.08295 366
28.10307 365
28.12318 299
28.1433 370
28.16341 344
28.18352 347
28.20364 337
28.22375 374
28.24386 340
28.26398 313
28.28409 350
28.3042 325
28.32432 318
28.34443 338
28.36455 291
28.38466 280
28.40477 294
28.42489 266
28.445 278
28.46511 270
28.48523 262
28.50534 268
28.52546 279
28.54557 308
28.56568 268
28.5858 259
28.60591 268
28.62602 272
28.64614 272
28.66625 247
28.68636 279
28.70648 254
28.72659 277
28.74671 297
28.76682 254
28.78693 254
28.80705 262
28.82716 247
28.84727 261
28.86739 274
28.8875 246
28.90762 259
28.92773 246
28.94784 263
28.96796 270
28.98807 244
29.00818 280
29.0283 250
29.04841 253
29.06853 289
29.08864 262
29.10875 260
29.12887 230
29.14898 242
29.16909 260
29.18921 258
29.20932 245
29.22943 258
29.24955 254
29.26966 266
29.28978 253
29.30989 232
29.33 250
29.35012 262
29.37023 254
29.39034 257
29.41046 263
29.43057 274
29.45069 242
29.4708 244
29.49091 234
29.51103 252
29.53114 268
29.55125 257
29.57137 253
29.59148 245
29.6116 254
29.63171 223
29.65182 248
29.67194 240
29.69205 240
29.71216 246
29.73228 271
29.75239 226
29.7725 240
29.79262 257
29.81273 227
29.83285 253
29.85296 247
29.87307 270
29.89319 253
29.9133 258
29.93341 256
29.95353 260
29.97364 236
29.99376 269
30.01387 243
30.03398 246
30.0541 215
30.07421 267
30.09432 239
30.11444 260
30.13455 200
30.15467 236
30.17478 237
30.19489 242
30.21501 260
30.23512 234
30.25523 248
30.27535 259
30.29546 251
30.31557 244
30.33569 256
30.3558 260
30.37592 293
30.39603 275
30.41614 308
30.43626 259
30.45637 287
30.47648 254
30.4966 269
30.51671 249
30.53683 249
30.55694 253
30.57705 277
30.59717 236
30.61728 259
30.63739 221
30.65751 234
30.67762 209
30.69773 214
30.71785 223
30.73796 232
30.75808 251
30.77819 243
30.7983 228
30.81842 220
30.83853 208
30.85864 247
30.87876 202
30.89887 227
30.91899 231
30.9391 228
30.95921 222
30.97933 225
30.99944 226
31.01955 212
31.03967 195
31.05978 209
31.0799 204
31.10001 227
31.12012 195
31.14024 194
31.16035 233
31.18046 198
31.20058 221
31.22069 209
31.2408 223
31.26092 202
31.28103 230
31.30115 232
31.32126 225
31.34137 218
31.36149 226
31.3816 222
31.40171 234
31.42183 232
31.44194 208
31.46206 214
31.48217 210
31.50228 218
31.5224 220
31.54251 217
31.56262 232
31.58274 209
31.60285 229
31.62297 213
31.64308 194
31.66319 185
31.68331 213
31.70342 198
31.72353 191
31.74365 218
31.76376 208
31.78387 218
31.80399 218
31.8241 196
31.84422 225
31.86433 211
31.88444 207
31.90456 198
31.92467 204
31.94478 225
31.9649 186
31.98501 180
32.00513 249
32.02524 200
32.04535 182
32.06547 195
32.08558 182
32.10569 184
32.12581 189
32.14592 185
32.16604 193
32.18615 210
32.20626 220
32.22638 185
32.24649 231
32.2666 207
32.28672 195
32.30683 223
32.32694 187
32.34706 211
32.36717 201
32.38729 205
32.4074 247
32.42751 213
32.44763 213
32.46774 214
32.48785 199
32.50797 198
32.52808 266
32.5482 205
32.56831 276
32.58842 240
32.60854 243
32.62865 216
32.64876 193
32.66888 222
32.68899 208
32.7091 207
32.72922 212
32.74933 229
32.76945 208
32.78956 189
32.80967 205
32.82979 170
32.8499 195
32.87001 198
32.89013 206
32.91024 179
32.93036 223
32.95047 222
32.97058 155
32.9907 218
33.01081 202
33.03092 172
33.05104 164
33.07115 210
33.09127 200
33.11138 201
33.13149 180
33.15161 190
33.17172 242
33.19183 189
33.21195 184
33.23206 189
33.25217 226
33.27229 211
33.2924 210
33.31252 222
33.33263 192
33.35274 208
33.37286 208
33.39297 204
33.41308 215
33.4332 208
33.45331 162
33.47343 198
33.49354 202
33.51365 173
33.53377 166
33.55388 218
33.57399 196
33.59411 195
33.61422 197
33.63434 194
33.65445 189
33.67456 183
33.69468 210
33.71479 171
33.7349 187
33.75502 195
33.77513 191
33.79524 194
33.81536 186
33.83547 187
33.85559 187
33.8757 206
33.89581 214
33.91593 167
33.93604 198
33.95615 201
33.97627 216
33.99638 181
34.0165 222
34.03661 197
34.05672 208
34.07684 178
34.09695 195
34.11706 178
34.13718 181
34.15729 187
34.17741 200
34.19752 171
34.21763 201
34.23775 184
34.25786 198
34.27797 200
34.29809 179
34.3182 194
34.33831 192
34.35843 175
34.37854 175
34.39866 182
34.41877 195
34.43888 175
34.459 219
34.47911 199
34.49922 233
34.51934 216
34.53945 202
34.55957 200
34.57968 226
34.59979 218
34.61991 237
34.64002 195
34.66013 223
34.68025 230
34.70036 222
34.72047 265
34.74059 267
34.7607 231
34.78082 237
34.80093 269
34.82104 245
34.84116 242
34.86127 243
34.88138 232
34.9015 250
34.92161 238
34.94173 221
34.96184 250
34.98195 272
35.00207 223
35.02218 245
35.04229 215
35.06241 260
35.08252 244
35.10264 257
35.12275 266
35.14286 267
35.16298 254
35.18309 270
35.2032 265
35.22332 282
35.24343 281
35.26354 243
35.28366 249
35.30377 242
35.32389 265
35.344 238
35.36411 246
35.38423 248
35.40434 229
35.42445 240
35.44457 216
35.46468 231
35.4848 266
35.50491 261
35.52502 225
35.54514 237
35.56525 254
35.58536 241
35.60548 251
35.62559 253
35.64571 232
35.66582 277
35.68593 259
35.70605 235
35.72616 267
35.74627 243
35.76639 270
35.7865 244
35.80661 241
35.82673 229
35.84684 250
35.86696 251
35.88707 254
35.90718 226
35.9273 287
35.94741 221
35.96752 229
35.98764 254
36.00775 242
36.02787 253
36.04798 282
36.06809 256
36.08821 238
36.10832 266
36.12843 244
36.14855 291
36.16866 269
36.18878 279
36.20889 277
36.229 340
36.24912 315
36.26923 307
36.28934 360
36.30946 400
36.32957 424
36.34968 456
36.3698 549
36.38991 641
36.41003 819
36.43014 957
36.45025 1331
36.47037 1675
36.49048 2175
36.51059 2585
36.53071 2693
36.55082 2682
36.57094 2312
36.59105 1758
36.61116 1651
36.63128 1462
36.65139 1153
36.6715 870
36.69162 556
36.71173 430
36.73184 344
36.75196 320
36.77207 302
36.79219 298
36.8123 311
36.83241 337
36.85253 280
36.87264 277
36.89275 227
36.91287 255
36.93298 257
36.9531 245
36.97321 252
36.99332 257
37.01344 225
37.03355 253
37.05366 238
37.07378 219
37.09389 237
37.11401 241
37.13412 259
37.15423 227
37.17435 235
37.19446 222
37.21457 208
37.23469 206
37.2548 205
37.27491 230
37.29503 197
37.31514 197
37.33526 202
37.35537 217
37.37548 212
37.3956 202
37.41571 227
37.43582 220
37.45594 192
37.47605 241
37.49617 231
37.51628 189
37.53639 218
37.55651 236
37.57662 205
37.59673 237
37.61685 232
37.63696 245
37.65708 225
37.67719 213
37.6973 226
37.71742 212
37.73753 219
37.75764 192
37.77776 208
37.79787 211
37.81798 220
37.8381 234
37.85821 226
37.87833 215
37.89844 198
37.91855 198
37.93867 221
37.95878 217
37.97889 203
37.99901 188
38.01912 222
38.03924 212
38.05935 245
38.07946 215
38.09958 220
38.11969 226
38.1398 239
38.15992 230
38.18003 250
38.20015 244
38.22026 224
38.24037 232
38.26049 249
38.2806 217
38.30071 218
38.32083 230
38.34094 223
38.36105 231
38.38117 254
38.40128 216
38.4214 228
38.44151 233
38.46162 223
38.48174 226
38.50185 247
38.52196 232
38.54208 222
38.56219 236
38.58231 202
38.60242 217
38.62253 232
38.64265 230
38.66276 235
38.68287 235
38.70299 228
38.7231 220
38.74321 217
38.76333 239
38.78344 254
38.80356 225
38.82367 216
38.84378 237
38.8639 226
38.88401 228
38.90412 223
38.92424 214
38.94435 221
38.96447 210
38.98458 224
39.00469 248
39.02481 240
39.04492 229
39.06503 233
39.08515 265
39.10526 283
39.12538 310
39.14549 297
39.1656 279
39.18572 342
39.20583 329
39.22594 361
39.24606 413
39.26617 473
39.28628 498
39.3064 657
39.32651 743
39.34663 921
39.36674 1145
39.38685 1499
39.40697 1845
39.42708 2186
39.44719 2494
39.46731 2444
39.48742 2168
39.50754 1686
39.52765 1437
39.54776 1400
39.56788 1238
39.58799 996
39.6081 661
39.62822 472
39.64833 400
39.66845 300
39.68856 300
39.70867 269
39.72879 267
39.7489 269
39.76901 283
39.78913 239
39.80924 224
39.82935 247
39.84947 219
39.86958 274
39.8897 236
39.90981 237
39.92992 248
39.95004 227
39.97015 264
39.99026 260
40.01038 268
40.03049 286
40.05061 282
40.07072 283
40.09083 327
40.11095 358
40.13106 432
40.15117 505
40.17129 538
40.1914 708
40.21152 882
40.23163 1100
40.25174 1242
40.27186 1273
40.29197 1280
40.31208 1141
40.3322 865
40.35231 748
40.37242 790
40.39254 714
40.41265 571
40.43277 406
40.45288 349
40.47299 275
40.49311 247
40.51322 246
40.53333 232
40.55345 214
40.57356 209
40.59368 214
40.61379 204
40.6339 222
40.65402 203
40.67413 210
40.69424 186
40.71436 198
40.73447 209
40.75458 197
40.7747 215
40.79481 210
40.81493 209
40.83504 196
40.85515 206
40.87527 213
40.89538 205
40.91549 201
40.93561 201
40.95572 188
40.97584 193
40.99595 189
41.01606 199
41.03618 191
41.05629 191
41.0764 211
41.09652 186
41.11663 213
41.13675 218
41.15686 233
41.17697 212
41.19709 225
41.2172 201
41.23731 216
41.25743 225
41.27754 218
41.29765 212
41.31777 209
41.33788 205
41.358 231
41.37811 174
41.39822 192
41.41834 205
41.43845 205
41.45856 208
41.47868 178
41.49879 194
41.51891 216
41.53902 195
41.55913 212
41.57925 200
41.59936 204
41.61947 196
41.63959 221
41.6597 225
41.67982 203
41.69993 182
41.72004 220
41.74016 205
41.76027 188
41.78038 215
41.8005 211
41.82061 194
41.84072 217
41.86084 220
41.88095 209
41.90107 223
41.92118 184
41.94129 183
41.96141 187
41.98152 202
42.00163 233
42.02175 214
42.04186 184
42.06198 233
42.08209 240
42.1022 235
42.12232 230
42.14243 248
42.16254 265
42.18266 271
42.20277 334
42.22289 299
42.243 369
42.26311 412
42.28323 472
42.30334 605
42.32345 703
42.34357 832
42.36368 1025
42.38379 1351
42.40391 1680
42.42402 1838
42.44414 1816
42.46425 1559
42.48436 1296
42.50448 1118
42.52459 1007
42.5447 979
42.56482 925
42.58493 720
42.60505 476
42.62516 357
42.64527 319
42.66539 283
42.6855 241
42.70561 229
42.72573 237
42.74584 231
42.76595 220
42.78607 214
42.80618 237
42.8263 215
42.84641 200
42.86652 194
42.88664 222
42.90675 221
42.92686 225
42.94698 211
42.96709 209
42.98721 209
43.00732 207
43.02743 190
43.04755 181
43.06766 197
43.08777 185
43.10789 193
43.128 195
43.14812 175
43.16823 177
43.18834 191
43.20846 192
43.22857 187
43.24868 186
43.2688 173
43.28891 183
43.30902 169
43.32914 176
43.34925 211
43.36937 183
43.38948 183
43.40959 193
43.42971 174
43.44982 202
43.46993 194
43.49005 201
43.51016 206
43.53028 176
43.55039 194
43.5705 174
43.59062 179
43.61073 165
43.63084 162
43.65096 181
43.67107 186
43.69119 151
43.7113 177
43.73141 186
43.75153 189
43.77164 190
43.79175 182
43.81187 191
43.83198 177
43.85209 158
43.87221 165
43.89232 171
43.91244 185
43.93255 172
43.95266 206
43.97278 143
43.99289 180
44.013 166
44.03312 199
44.05323 167
44.07335 157
44.09346 168
44.11357 192
44.13369 170
44.1538 175
44.17391 156
44.19403 179
44.21414 185
44.23426 205
44.25437 164
44.27448 173
44.2946 180
44.31471 169
44.33482 177
44.35494 185
44.37505 188
44.39516 173
44.41528 196
44.43539 176
44.45551 159
44.47562 169
44.49573 157
44.51585 174
44.53596 165
44.55607 191
44.57619 176
44.5963 165
44.61642 176
44.63653 168
44.65664 184
44.67676 166
44.69687 192
44.71698 164
44.7371 180
44.75721 165
44.77732 174
44.79744 156
44.81755 174
44.83767 193
44.85778 198
44.87789 187
44.89801 186
44.91812 208
44.93823 186
44.95835 187
44.97846 201
44.99858 182
45.01869 157
45.0388 197
45.05892 169
45.07903 183
45.09914 215
45.11926 169
45.13937 173
45.15949 205
45.1796 185
45.19971 173
45.21983 189
45.23994 187
45.26005 192
45.28017 195
45.30028 204
45.32039 200
45.34051 172
45.36062 219
45.38074 208
45.40085 207
45.42096 207
45.44108 219
45.46119 221
45.4813 220
45.50142 219
45.52153 218
45.54165 279
45.56176 293
45.58187 288
45.60199 327
45.6221 402
45.64221 447
45.66233 521
45.68244 587
45.70256 778
45.72267 880
45.74278 1058
45.7629 1180
45.78301 1246
45.80312 1123
45.82324 929
45.84335 724
45.86346 718
45.88358 685
45.90369 667
45.92381 585
45.94392 451
45.96403 309
45.98415 279
46.00426 226
46.02437 222
46.04449 192
46.0646 174
46.08472 197
46.10483 187
46.12494 199
46.14506 177
46.16517 174
46.18528 175
46.2054 186
46.22551 196
46.24563 193
46.26574 172
46.28585 179
46.30597 179
46.32608 169
46.34619 179
46.36631 174
46.38642 159
46.40653 176
46.42665 162
46.44676 198
46.46688 166
46.48699 176
46.5071 181
46.52722 188
46.54733 169
46.56744 156
46.58756 182
46.60767 196
46.62779 172
46.6479 181
46.66801 161
46.68813 173
46.70824 170
46.72835 189
46.74847 178
46.76858 187
46.78869 175
46.80881 184
46.82892 188
46.84904 163
46.86915 170
46.88926 183
46.90938 181
46.92949 165
46.9496 173
46.96972 177
46.98983 162
47.00995 167
47.03006 169
47.05017 176
47.07029 173
47.0904 155
47.11051 164
47.13063 180
47.15074 160
47.17086 173
47.19097 167
47.21108 157
47.2312 176
47.25131 188
47.27142 173
47.29154 154
47.31165 168
47.33176 165
47.35188 151
47.37199 169
47.39211 162
47.41222 175
47.43233 148
47.45245 154
47.47256 180
47.49267 163
47.51279 173
47.5329 196
47.55302 163
47.57313 153
47.59324 161
47.61336 154
47.63347 157
47.65358 156
47.6737 173
47.69381 178
47.71393 155
47.73404 174
47.75415 146
47.77427 175
47.79438 199
47.81449 162
47.83461 182
47.85472 189
47.87483 155
47.89495 160
47.91506 166
47.93518 178
47.95529 192
47.9754 186
47.99552 159
48.01563 166
48.03574 150
48.05586 164
48.07597 156
48.09609 162
48.1162 167
48.13631 160
48.15643 184
48.17654 199
48.19665 169
48.21677 156
48.23688 188
48.257 186
48.27711 190
48.29722 186
48.31734 187
48.33745 187
48.35756 161
48.37768 199
48.39779 191
48.4179 193
48.43802 181
48.45813 191
48.47825 181
48.49836 179
48.51847 177
48.53859 202
48.5587 173
48.57881 184
48.59893 209
48.61904 172
48.63916 190
48.65927 185
48.67938 167
48.6995 175
48.71961 179
48.73972 163
48.75984 170
48.77995 188
48.80006 190
48.82018 203
48.84029 194
48.86041 193
48.88052 198
48.90063 197
48.92075 183
48.94086 166
48.96097 185
48.98109 167
49.0012 168
49.02132 163
49.04143 189
49.06154 193
49.08166 184
49.10177 155
49.12188 191
49.142 170
49.16211 196
49.18223 177
49.20234 203
49.22245 188
49.24257 205
49.26268 207
49.28279 190
49.30291 193
49.32302 185
49.34313 181
49.36325 196
49.38336 203
49.40348 221
49.42359 206
49.4437 175
49.46382 196
49.48393 189
49.50404 196
49.52416 215
49.54427 191
49.56439 217
49.5845 214
49.60461 220
49.62473 209
49.64484 214
49.66495 235
49.68507 246
49.70518 275
49.7253 262
49.74541 287
49.76552 305
49.78564 310
49.80575 371
49.82586 391
49.84598 441
49.86609 496
49.8862 519
49.90632 633
49.92643 653
49.94655 788
49.96666 994
49.98677 1158
50.00689 1514
50.027 1819
50.04711 2315
50.06723 2858
50.08734 3480
50.10746 3755
50.12757 3877
50.14768 3395
50.1678 2673
50.18791 2099
50.20802 1965
50.22814 2013
50.24825 2033
50.26837 1888
50.28848 1416
50.30859 928
50.32871 626
50.34882 465
50.36893 376
50.38905 367
50.40916 313
50.42927 275
50.44939 269
50.4695 278
50.48962 282
50.50973 286
50.52984 287
50.54996 273
50.57007 264
50.59018 258
50.6103 305
50.63041 286
50.65053 278
50.67064 219
50.69075 235
50.71087 254
50.73098 231
50.75109 217
50.77121 223
50.79132 179
50.81143 166
50.83155 179
50.85166 189
50.87178 197
50.89189 156
50.912 164
50.93212 174
50.95223 169
50.97234 159
50.99246 166
51.01257 173
51.03269 180
51.0528 184
51.07291 163
51.09303 177
51.11314 176
51.13325 180
51.15337 187
51.17348 160
51.1936 192
51.21371 180
51.23382 184
51.25394 185
51.27405 175
51.29416 193
51.31428 176
51.33439 186
51.3545 203
51.37462 174
51.39473 174
51.41485 158
51.43496 190
51.45507 187
51.47519 189
51.4953 172
51.51541 187
51.53553 168
51.55564 157
51.57576 154
51.59587 171
51.61598 154
51.6361 172
51.65621 161
51.67632 152
51.69644 166
51.71655 171
51.73667 177
51.75678 155
51.77689 151
51.79701 152
51.81712 158
51.83723 163
51.85735 160
51.87746 160
51.89757 186
51.91769 168
51.9378 163
51.95792 132
51.97803 165
51.99814 155
52.01826 168
52.03837 178
52.05848 151
52.0786 157
52.09871 165
52.11883 162
52.13894 166
52.15905 153
52.17917 180
52.19928 159
52.21939 149
52.23951 164
52.25962 165
52.27974 159
52.29985 160
52.31996 145
52.34008 155
52.36019 166
52.3803 158
52.40042 157
52.42053 160
52.44064 180
52.46076 164
52.48087 144
52.50099 153
52.5211 158
52.54121 170
52.56133 155
52.58144 168
52.60155 142
52.62167 166
52.64178 152
52.6619 168
52.68201 140
52.70212 201
52.72224 152
52.74235 168
52.76246 155
52.78258 173
52.80269 165
52.8228 171
52.84292 163
52.86303 192
52.88315 187
52.90326 203
52.92337 184
52.94349 209
52.9636 200
52.98371 196
53.00383 186
53.02394 168
53.04406 196
53.06417 205
53.08428 183
53.1044 208
53.12451 183
53.14462 180
53.16474 202
53.18485 182
53.20497 171
53.22508 169
53.24519 185
53.26531 176
53.28542 186
53.30553 199
53.32565 166
53.34576 170
53.36587 157
53.38599 165
53.4061 165
53.42622 197
53.44633 164
53.46644 185
53.48656 204
53.50667 163
53.52678 161
53.5469 155
53.56701 202
53.58713 171
53.60724 190
53.62735 184
53.64747 164
53.66758 187
53.68769 174
53.70781 218
53.72792 178
53.74804 194
53.76815 190
53.78826 166
53.80838 178
53.82849 175
53.8486 157
53.86872 186
53.88883 195
53.90894 181
53.92906 141
53.94917 178
53.96929 167
53.9894 208
54.00951 182
54.02963 165
54.04974 206
54.06985 188
54.08997 164
54.11008 167
54.1302 184
54.15031 228
54.17042 176
54.19054 195
54.21065 217
54.23076 177
54.25088 192
54.27099 228
54.29111 205
54.31122 183
54.33133 209
54.35145 213
54.37156 189
54.39167 197
54.41179 210
54.4319 220
54.45201 202
54.47213 229
54.49224 221
54.51236 246
54.53247 249
54.55258 241
54.5727 258
54.59281 268
54.61292 267
54.63304 337
54.65315 343
54.67327 355
54.69338 394
54.71349 493
54.73361 549
54.75372 671
54.77383 774
54.79395 899
54.81406 1051
54.83417 1206
54.85429 1193
54.8744 1159
54.89452 927
54.91463 761
54.93474 702
54.95486 654
54.97497 682
54.99508 706
55.0152 655
55.03531 583
55.05543 448
55.07554 348
55.09565 340
55.11577 328
55.13588 312
55.15599 328
55.17611 334
55.19622 366
55.21634 439
55.23645 480
55.25656 556
55.27668 555
55.29679 632
55.3169 605
55.33702 569
55.35713 474
55.37724 421
55.39736 404
55.41747 398
55.43759 377
55.4577 389
55.47781 369
55.49793 337
55.51804 263
55.53815 256
55.55827 182
55.57838 185
55.5985 191
55.61861 200
55.63872 179
55.65884 205
55.67895 171
55.69906 198
55.71918 189
55.73929 176
55.75941 190
55.77952 203
55.79963 189
55.81975 212
55.83986 163
55.85997 199
55.88009 151
55.9002 183
55.92031 199
55.94043 181
55.96054 164
55.98066 202
56.00077 172
56.02088 165
56.041 179
56.06111 157
56.08122 161
56.10134 172
56.12145 177
56.14157 158
56.16168 164
56.18179 182
56.20191 176
56.22202 169
56.24213 174
56.26225 162
56.28236 161
56.30248 157
56.32259 171
56.3427 175
56.36282 182
56.38293 170
56.40304 171
56.42316 168
56.44327 171
56.46338 182
56.4835 148
56.50361 154
56.52373 159
56.54384 167
56.56395 180
56.58407 158
56.60418 138
56.62429 171
56.64441 144
56.66452 146
56.68464 170
56.70475 158
56.72486 158
56.74498 191
56.76509 166
56.7852 166
56.80532 175
56.82543 161
56.84554 147
56.86566 168
56.88577 192
56.90589 151
56.926 137
56.94611 173
56.96623 166
56.98634 179
57.00645 178
57.02657 172
57.04668 184
57.0668 187
57.08691 165
57.10702 192
57.12714 191
57.14725 190
57.16736 206
57.18748 233
57.20759 187
57.22771 209
57.24782 204
57.26793 201
57.28805 195
57.30816 190
57.32827 166
57.34839 192
57.3685 198
57.38861 172
57.40873 179
57.42884 184
57.44896 155
57.46907 154
57.48918 167
57.5093 155
57.52941 162
57.54952 194
57.56964 151
57.58975 172
57.60987 167
57.62998 173
57.65009 162
57.67021 155
57.69032 171
57.71043 149
57.73055 156
57.75066 161
57.77078 156
57.79089 149
57.811 159
57.83112 161
57.85123 162
57.87134 167
57.89146 153
57.91157 162
57.93168 152
57.9518 151
57.97191 141
57.99203 160
58.01214 162
58.03225 141
58.05237 178
58.07248 176
58.09259 163
58.11271 178
58.13282 170
58.15294 158
58.17305 170
58.19316 151
58.21328 161
58.23339 178
58.2535 148
58.27362 160
58.29373 138
58.31385 153
58.33396 159
58.35407 173
58.37419 175
58.3943 178
58.41441 144
58.43453 140
58.45464 160
58.47475 173
58.49487 167
58.51498 168
58.5351 147
58.55521 163
58.57532 163
58.59544 176
58.61555 170
58.63566 152
58.65578 167
58.67589 167
58.69601 156
58.71612 172
58.73623 166
58.75635 140
58.77646 149
58.79657 162
58.81669 134
58.8368 181
58.85691 160
58.87703 156
58.89714 173
58.91726 172
58.93737 187
58.95748 177
58.9776 191
58.99771 170
59.01782 151
59.03794 185
59.05805 187
59.07817 155
59.09828 190
59.11839 167
59.13851 157
59.15862 164
59.17873 176
59.19885 170
59.21896 185
59.23908 183
59.25919 167
59.2793 174
59.29942 170
59.31953 168
59.33964 179
59.35976 173
59.37987 183
59.39998 186
59.4201 193
59.44021 210
59.46033 216
59.48044 214
59.50055 196
59.52067 220
59.54078 230
59.56089 268
59.58101 281
59.60112 314
59.62124 272
59.64135 332
59.66146 369
59.68158 369
59.70169 413
59.7218 481
59.74192 548
59.76203 661
59.78215 781
59.80226 955
59.82237 1103
59.84249 1358
59.8626 1673
59.88271 1920
59.90283 2192
59.92294 2419
59.94305 2361
59.96317 2112
59.98328 1663
60.0034 1270
60.02351 1188
60.04362 1151
60.06374 1188
60.08385 1253
60.10396 1264
60.12408 1061
60.14419 809
60.16431 584
60.18442 459
60.20453 332
60.22465 286
60.24476 249
60.26487 265
60.28499 245
60.3051 187
60.32522 197
60.34533 236
60.36544 194
60.38556 187
60.40567 206
60.42578 202
60.4459 198
60.46601 175
60.48612 169
60.50624 189
60.52635 198
60.54647 153
60.56658 178
60.58669 179
60.60681 177
60.62692 169
60.64703 182
60.66715 177
60.68726 163
60.70738 163
60.72749 168
60.7476 199
60.76772 185
60.78783 188
60.80794 193
60.82806 189
60.84817 175
60.86828 173
60.8884 162
60.90851 178
60.92863 166
60.94874 175
60.96885 147
60.98897 163
61.00908 162
61.02919 160
61.04931 175
61.06942 148
61.08954 176
61.10965 170
61.12976 173
61.14988 166
61.16999 173
61.1901 158
61.21022 166
61.23033 178
61.25045 158
61.27056 164
61.29067 167
61.31079 186
61.3309 161
61.35101 186
61.37113 168
61.39124 173
61.41135 189
61.43147 192
61.45158 184
61.4717 174
61.49181 158
61.51192 183
61.53204 174
61.55215 179
61.57226 167
61.59238 184
61.61249 186
61.63261 174
61.65272 198
61.67283 195
61.69295 197
61.71306 203
61.73317 171
61.75329 185
61.7734 201
61.79352 183
61.81363 200
61.83374 194
61.85386 187
61.87397 181
61.89408 183
61.9142 195
61.93431 209
61.95442 180
61.97454 198
61.99465 191
62.01477 180
62.03488 199
62.05499 203
62.07511 183
62.09522 186
62.11533 163
62.13545 197
62.15556 173
62.17568 195
62.19579 193
62.2159 189
62.23602 188
62.25613 180
62.27624 186
62.29636 180
62.31647 189
62.33659 178
62.3567 182
62.37681 169
62.39693 151
62.41704 173
62.43715 170
62.45727 184
62.47738 166
62.49749 179
62.51761 164
62.53772 165
62.55784 160
62.57795 179
62.59806 172
62.61818 171
62.63829 151
62.6584 166
62.67852 169
62.69863 159
62.71875 163
62.73886 170
62.75897 164
62.77909 157
62.7992 165
62.81931 184
62.83943 168
62.85954 177
62.87965 150
62.89977 157
62.91988 162
62.94 147
62.96011 164
62.98022 158
63.00034 178
63.02045 134
63.04056 151
63.06068 167
63.08079 167
63.10091 136
63.12102 154
63.14113 152
63.16125 152
63.18136 185
63.20147 164
63.22159 158
63.2417 161
63.26182 168
63.28193 170
63.30204 161
63.32216 149
63.34227 166
63.36238 166
63.3825 191
63.40261 169
63.42272 168
63.44284 158
63.46295 157
63.48307 162
63.50318 150
63.52329 154
63.54341 175
63.56352 170
63.58363 194
63.60375 172
63.62386 179
63.64398 150
63.66409 186
63.6842 165
63.70432 169
63.72443 206
63.74454 195
63.76466 194
63.78477 202
63.80489 226
63.825 246
63.84511 251
63.86523 274
63.88534 300
63.90545 370
63.92557 380
63.94568 420
63.96579 481
63.98591 561
64.00602 496
64.02614 514
64.04625 458
64.06636 401
64.08648 367
64.10659 309
64.1267 353
64.14682 304
64.16693 323
64.18705 364
64.20716 293
64.22727 271
64.24739 226
64.2675 196
64.28761 203
64.30773 153
64.32784 157
64.34796 169
64.36807 140
64.38818 167
64.4083 163
64.42841 152
64.44852 137
64.46864 147
64.48875 158
64.50886 150
64.52898 162
64.54909 142
64.56921 135
64.58932 153
64.60943 141
64.62955 163
64.64966 146
64.66977 153
64.68989 147
64.71 143
64.73012 154
64.75023 163
64.77034 155
64.79046 158
64.81057 140
64.83068 139
64.8508 150
64.87091 143
64.89102 158
64.91114 146
64.93125 155
64.95137 156
64.97148 140
64.99159 162
65.01171 134
65.03182 159
65.05193 182
65.07205 150
65.09216 152
65.11228 168
65.13239 150
65.1525 147
65.17262 153
65.19273 160
65.21284 169
65.23296 133
65.25307 133
65.27319 193
65.2933 156
65.31341 169
65.33353 161
65.35364 157
65.37375 158
65.39387 163
65.41398 160
65.43409 161
65.45421 151
65.47432 140
65.49444 176
65.51455 166
65.53466 188
65.55478 165
65.57489 186
65.595 169
65.61512 181
65.63523 181
65.65535 194
65.67546 198
65.69557 231
65.71569 277
65.7358 259
65.75591 228
65.77603 269
65.79614 231
65.81626 222
65.83637 205
65.85648 200
65.8766 194
65.89671 185
65.91682 206
65.93694 210
65.95705 215
65.97716 163
65.99728 195
66.01739 157
66.03751 193
66.05762 175
66.07773 183
66.09785 155
66.11796 149
66.13807 156
66.15819 174
66.1783 151
66.19842 150
66.21853 173
66.23864 170
66.25876 178
66.27887 149
66.29898 156
66.3191 165
66.33921 162
66.35933 188
66.37944 139
66.39955 160
66.41967 136
66.43978 152
66.45989 156
66.48001 158
66.50012 172
66.52023 160
66.54035 140
66.56046 163
66.58058 161
66.60069 153
66.6208 155
66.64092 164
66.66103 173
66.68114 159
66.70126 148
66.72137 149
66.74149 146
66.7616 153
66.78171 162
66.80183 162
66.82194 151
66.84205 152
66.86217 164
66.88228 166
66.90239 190
66.92251 174
66.94262 183
66.96274 203
66.98285 162
67.00296 156
67.02308 172
67.04319 195
67.0633 173
67.08342 165
67.10353 206
67.12365 174
67.14376 189
67.16387 185
67.18399 196
67.2041 200
67.22421 199
67.24433 177
67.26444 187
67.28456 199
67.30467 211
67.32478 237
67.3449 238
67.36501 266
67.38512 255
67.40524 245
67.42535 271
67.44546 306
67.46558 321
67.48569 357
67.50581 373
67.52592 424
67.54603 478
67.56615 557
67.58626 649
67.60637 757
67.62649 877
67.6466 1018
67.66672 1216
67.68683 1305
67.70694 1397
67.72706 1428
67.74717 1299
67.76728 1063
67.7874 819
67.80751 790
67.82763 807
67.84774 826
67.86785 915
67.88797 1034
67.90808 1063
67.92819 1031
67.94831 1020
67.96842 947
67.98853 971
68.00865 1034
68.02876 1189
68.04888 1378
68.06899 1537
68.0891 1737
68.10922 1854
68.12933 1804
68.14944 1660
68.16956 1457
68.18967 1435
68.20979 1343
68.2299 1476
68.25001 1570
68.27013 1697
68.29024 1815
68.31035 1666
68.33047 1496
68.35058 1162
68.3707 914
68.39081 742
68.41092 695
68.43104 678
68.45115 668
68.47126 670
68.49138 622
68.51149 544
68.5316 476
68.55172 341
68.57183 310
68.59195 261
68.61206 233
68.63217 231
68.65229 251
68.6724 206
68.69251 208
68.71263 189
68.73274 182
68.75286 194
68.77297 180
68.79308 190
68.8132 178
68.83331 170
68.85342 196
68.87354 164
68.89365 171
68.91376 174
68.93388 171
68.95399 174
68.97411 170
68.99422 173
69.01433 154
69.03445 171
69.05456 159
69.07467 175
69.09479 164
69.1149 159
69.13502 146
69.15513 161
69.17524 154
69.19536 169
69.21547 164
69.23558 149
69.2557 146
69.27581 138
69.29593 151
69.31604 168
69.33615 181
69.35627 165
69.37638 147
69.39649 158
69.41661 164
69.43672 161
69.45683 144
69.47695 151
69.49706 144
69.51718 143
69.53729 149
69.5574 149
69.57752 155
69.59763 159
69.61774 152
69.63786 155
69.65797 153
69.67809 159
69.6982 149
69.71831 156
69.73843 157
69.75854 160
69.77865 163
69.79877 180
69.81888 178
69.839 163
69.85911 154
69.87922 138
69.89934 161
69.91945 166
69.93956 143
69.95968 160
69.97979 156
69.9999 143
70.02002 168
70.04013 157
70.06025 172
70.08036 140
70.10047 146
70.12059 135
70.1407 152
70.16081 164
70.18093 138
70.20104 151
70.22116 130
70.24127 138
70.26138 137
70.2815 145
70.30161 157
70.32172 154
70.34184 160
70.36195 150
70.38207 133
70.40218 144
70.42229 146
70.44241 148
70.46252 122
70.48263 136
70.50275 134
70.52286 125
70.54297 135
70.56309 160
70.5832 166
70.60332 140
70.62343 159
70.64354 153
70.66366 142
70.68377 143
70.70388 145
70.724 140
70.74411 141
70.76423 140
70.78434 152
70.80445 160
70.82457 142
70.84468 120
70.86479 159
70.88491 131
70.90502 114
70.92513 139
70.94525 138
70.96536 157
70.98548 149
71.00559 128
71.0257 138
71.04582 133
71.06593 148
71.08604 153
71.10616 147
71.12627 133
71.14639 138
71.1665 139
71.18661 127
71.20673 144
71.22684 139
71.24695 134
71.26707 148
71.28718 141
71.3073 146
71.32741 154
71.34752 134
71.36764 149
71.38775 137
71.40786 127
71.42798 148
71.44809 129
71.4682 146
71.48832 132
71.50843 141
71.52855 146
71.54866 144
71.56877 149
71.58889 140
71.609 135
71.62911 150
71.64923 158
71.66934 150
71.68946 159
71.70957 163
71.72968 131
71.7498 133
71.76991 135
71.79002 149
71.81014 150
71.83025 148
71.85037 136
71.87048 122
71.89059 152
71.91071 128
71.93082 154
71.95093 126
71.97105 125
71.99116 139
72.01127 154
72.03139 140
72.0515 143
72.07162 151
72.09173 144
72.11184 139
72.13196 136
72.15207 164
72.17218 136
72.1923 151
72.21241 166
72.23253 148
72.25264 148
72.27275 138
72.29287 143
72.31298 146
72.33309 125
72.35321 140
72.37332 134
72.39344 148
72.41355 141
72.43366 140
72.45378 151
72.47389 160
72.494 153
72.51412 129
72.53423 133
72.55434 142
72.57446 130
72.59457 131
72.61469 118
72.6348 146
72.65491 150
72.67503 130
72.69514 147
72.71525 164
72.73537 125
72.75548 120
72.7756 142
72.79571 126
72.81582 134
72.83594 127
72.85605 168
72.87616 140
72.89628 157
72.91639 131
72.9365 146
72.95662 145
72.97673 158
72.99685 153
73.01696 155
73.03707 150
73.05719 151
73.0773 180
73.09741 159
73.11753 174
73.13764 185
73.15776 185
73.17787 187
73.19798 203
73.2181 214
73.23821 239
73.25832 262
73.27844 258
73.29855 296
73.31867 348
73.33878 349
73.35889 396
73.37901 433
73.39912 483
73.41923 546
73.43935 579
73.45946 580
73.47957 478
73.49969 407
73.5198 308
73.53992 303
73.56003 281
73.58014 311
73.60026 341
73.62037 337
73.64048 339
73.6606 336
73.68071 352
73.70083 258
73.72094 216
73.74105 205
73.76117 182
73.78128 146
73.80139 186
73.82151 147
73.84162 156
73.86174 156
73.88185 155
73.90196 149
73.92208 151
73.94219 144
73.9623 161
73.98242 145
74.00253 155
74.02264 163
74.04276 176
74.06287 152
74.08299 182
74.1031 158
74.12321 132
74.14333 122
74.16344 151
74.18355 152
74.20367 146
74.22378 140
74.2439 125
74.26401 143
74.28412 134
74.30424 161
74.32435 136
74.34446 144
74.36458 142
74.38469 143
74.40481 131
74.42492 147
74.44503 150
74.46515 122
74.48526 144
74.50537 151
74.52549 143
74.5456 152
74.56571 155
74.58583 148
74.60594 155
74.62606 151
74.64617 144
74.66628 151
74.6864 159
74.70651 147
74.72662 163
74.74674 153
74.76685 127
74.78697 141
74.80708 147
74.82719 144
74.84731 140
74.86742 129
74.88753 132
74.90765 154
74.92776 140
74.94787 135
74.96799 149
74.9881 144
75.00822 139
