3.00117 20827
3.02128 20223
3.0414 19990
3.06151 19324
3.08162 18814
3.10174 18227
3.12185 17650
3.14197 17535
3.16208 16483
3.18219 16257
3.20231 15811
3.22242 15341
3.24253 14855
3.26265 14236
3.28276 13733
3.30288 13281
3.32299 12775
3.3431 12470
3.36322 12066
3.38333 11680
3.40344 11653
3.42356 10871
3.44367 10839
3.46379 10219
3.4839 10221
3.50401 9500
3.52413 9167
3.54424 9095
3.56435 8426
3.58447 8296
3.60458 7900
3.62469 7585
3.64481 7544
3.66492 7129
3.68504 6755
3.70515 6750
3.72526 6292
3.74538 6164
3.76549 5548
3.7856 5478
3.80572 5425
3.82583 5042
3.84595 4911
3.86606 4565
3.88617 4403
3.90629 4278
3.9264 4149
3.94651 3957
3.96663 3725
3.98674 3681
4.00686 3480
4.02697 3285
4.04708 3123
4.0672 2930
4.08731 2860
4.10742 2758
4.12754 2623
4.14765 2524
4.16776 2301
4.18788 2232
4.20799 2203
4.22811 2112
4.24822 1996
4.26833 1847
4.28845 1765
4.30856 1850
4.32867 1730
4.34879 1710
4.3689 1659
4.38902 1637
4.40913 1633
4.42924 1586
4.44936 1466
4.46947 1359
4.48958 1444
4.5097 1513
4.52981 1377
4.54992 1334
4.57004 1223
4.59015 1206
4.61027 1282
4.63038 1199
4.65049 1127
4.67061 1000
4.69072 1031
4.71083 1090
4.73095 1062
4.75106 1005
4.77118 947
4.79129 930
4.8114 924
4.83152 952
4.85163 927
4.87174 841
4.89186 798
4.91197 873
4.93209 855
4.9522 732
4.97231 747
4.99243 726
5.01254 763
5.03265 790
5.05277 693
5.07288 696
5.09299 648
5.11311 628
5.13322 655
5.15334 631
5.17345 597
5.19356 584
5.21368 633
5.23379 602
5.2539 541
5.27402 579
5.29413 526
5.31425 515
5.33436 558
5.35447 447
5.37459 505
5.3947 477
5.41481 479
5.43493 497
5.45504 437
5.47516 452
5.49527 466
5.51538 411
5.5355 457
5.55561 403
5.57572 385
5.59584 391
5.61595 380
5.63606 412
5.65618 402
5.67629 378
5.69641 400
5.71652 375
5.73663 405
5.75675 348
5.77686 318
5.79697 395
5.81709 319
5.8372 321
5.85732 346
5.87743 309
5.89754 318
5.91766 325
5.93777 332
5.95788 294
5.978 316
5.99811 283
6.01823 296
6.03834 339
6.05845 322
6.07857 292
6.09868 285
6.11879 280
6.13891 275
6.15902 293
6.17913 274
6.19925 268
6.21936 257
6.23948 290
6.25959 286
6.2797 287
6.29982 262
6.31993 238
6.34004 253
6.36016 284
6.38027 270
6.40039 315
6.4205 272
6.44061 240
6.46073 250
6.48084 263
6.50095 244
6.52107 239
6.54118 258
6.56129 264
6.58141 281
6.60152 258
6.62164 252
6.64175 256
6.66186 219
6.68198 243
6.70209 222
6.7222 279
6.74232 229
6.76243 221
6.78255 246
6.80266 228
6.82277 261
6.84289 255
6.863 207
6.88311 233
6.90323 239
6.92334 214
6.94346 243
6.96357 236
6.98368 263
7.0038 263
7.02391 238
7.04402 273
7.06414 276
7.08425 243
7.10436 250
7.12448 245
7.14459 218
7.16471 244
7.18482 228
7.20493 263
7.22505 242
7.24516 237
7.26527 259
7.28539 273
7.3055 278
7.32562 241
7.34573 263
7.36584 221
7.38596 220
7.40607 258
7.42618 254
7.4463 237
7.46641 271
7.48653 249
7.50664 227
7.52675 233
7.54687 226
7.56698 227
7.58709 218
7.60721 220
7.62732 251
7.64743 266
7.66755 203
7.68766 292
7.70778 224
7.72789 220
7.748 223
7.76812 248
7.78823 226
7.80834 218
7.82846 235
7.84857 238
7.86869 248
7.8888 246
7.90891 243
7.92903 228
7.94914 253
7.96925 250
7.98937 243
8.00948 250
8.0296 247
8.04971 227
8.06982 239
8.08994 218
8.11005 224
8.13016 265
8.15028 279
8.17039 251
8.1905 250
8.21062 251
8.23073 253
8.25085 263
8.27096 225
8.29107 253
8.31119 264
8.3313 245
8.35141 248
8.37153 245
8.39164 208
8.41176 212
8.43187 273
8.45198 252
8.4721 271
8.49221 228
8.51232 240
8.53244 232
8.55255 242
8.57266 284
8.59278 247
8.61289 299
8.63301 252
8.65312 254
8.67323 259
8.69335 253
8.71346 288
8.73357 289
8.75369 232
8.7738 256
8.79392 304
8.81403 263
8.83414 253
8.85426 240
8.87437 235
8.89448 236
8.9146 266
8.93471 225
8.95483 223
8.97494 268
8.99505 267
9.01517 231
9.03528 244
9.05539 222
9.07551 248
9.09562 273
9.11573 271
9.13585 249
9.15596 247
9.17608 280
9.19619 295
9.2163 263
9.23642 259
9.25653 242
9.27664 245
9.29676 223
9.31687 240
9.33699 256
9.3571 278
9.37721 261
9.39733 221
9.41744 237
9.43755 228
9.45767 270
9.47778 250
9.4979 275
9.51801 228
9.53812 270
9.55824 236
9.57835 244
9.59846 249
9.61858 280
9.63869 300
9.6588 254
9.67892 237
9.69903 285
9.71915 265
9.73926 233
9.75937 252
9.77949 233
9.7996 244
9.81971 282
9.83983 274
9.85994 249
9.88006 254
9.90017 305
9.92028 301
9.9404 213
9.96051 313
9.98062 279
10.00074 278
10.02085 270
10.04097 270
10.06108 264
10.08119 278
10.10131 244
10.12142 251
10.14153 213
10.16165 267
10.18176 234
10.20187 279
10.22199 258
10.2421 276
10.26222 306
10.28233 248
10.30244 262
10.32256 281
10.34267 253
10.36278 260
10.3829 262
10.40301 260
10.42313 259
10.44324 226
10.46335 283
10.48347 281
10.50358 290
10.52369 240
10.54381 252
10.56392 254
10.58403 253
10.60415 255
10.62426 262
10.64438 265
10.66449 239
10.6846 248
10.70472 230
10.72483 242
10.74494 254
10.76506 260
10.78517 238
10.80529 276
10.8254 276
10.84551 267
10.86563 281
10.88574 284
10.90585 270
10.92597 261
10.94608 263
10.9662 295
10.98631 274
11.00642 283
11.02654 277
11.04665 258
11.06676 287
11.08688 255
11.10699 292
11.1271 259
11.14722 290
11.16733 300
11.18745 270
11.20756 272
11.22767 256
11.24779 266
11.2679 329
11.28801 233
11.30813 276
11.32824 288
11.34836 276
11.36847 277
11.38858 285
11.4087 308
11.42881 288
11.44892 278
11.46904 261
11.48915 278
11.50927 264
11.52938 266
11.54949 286
11.56961 256
11.58972 321
11.60983 314
11.62995 297
11.65006 310
11.67017 321
11.69029 274
11.7104 286
11.73052 353
11.75063 312
11.77074 344
11.79086 294
11.81097 348
11.83108 340
11.8512 383
11.87131 342
11.89143 342
11.91154 338
11.93165 351
11.95177 387
11.97188 334
11.99199 384
12.01211 400
12.03222 388
12.05234 383
12.07245 397
12.09256 406
12.11268 412
12.13279 432
12.1529 447
12.17302 447
12.19313 459
12.21324 461
12.23336 449
12.25347 503
12.27359 449
12.2937 489
12.31381 482
12.33393 436
12.35404 455
12.37415 383
12.39427 398
12.41438 401
12.4345 398
12.45461 385
12.47472 400
12.49484 368
12.51495 350
12.53506 333
12.55518 348
12.57529 287
12.5954 291
12.61552 333
12.63563 335
12.65575 316
12.67586 319
12.69597 293
12.71609 304
12.7362 281
12.75631 277
12.77643 267
12.79654 280
12.81666 307
12.83677 259
12.85688 272
12.877 281
12.89711 311
12.91722 302
12.93734 282
12.95745 284
12.97757 275
12.99768 264
13.01779 267
13.03791 275
13.05802 255
13.07813 263
13.09825 249
13.11836 250
13.13847 245
13.15859 257
13.1787 249
13.19882 249
13.21893 249
13.23904 243
13.25916 250
13.27927 264
13.29938 239
13.3195 252
13.33961 246
13.35973 236
13.37984 256
13.39995 243
13.42007 217
13.44018 254
13.46029 258
13.48041 253
13.50052 235
13.52064 250
13.54075 238
13.56086 264
13.58098 265
13.60109 258
13.6212 277
13.64132 290
13.66143 254
13.68154 248
13.70166 285
13.72177 214
13.74189 209
13.762 247
13.78211 255
13.80223 225
13.82234 222
13.84245 232
13.86257 233
13.88268 215
13.9028 237
13.92291 219
13.94302 212
13.96314 250
13.98325 224
14.00336 220
14.02348 225
14.04359 251
14.06371 226
14.08382 215
14.10393 216
14.12405 212
14.14416 213
14.16427 223
14.18439 244
14.2045 205
14.22461 214
14.24473 245
14.26484 224
14.28496 214
14.30507 221
14.32518 215
14.3453 189
14.36541 234
14.38552 215
14.40564 213
14.42575 191
14.44587 197
14.46598 204
14.48609 178
14.50621 217
14.52632 218
14.54643 201
14.56655 209
14.58666 213
14.60677 214
14.62689 223
14.647 214
14.66712 219
14.68723 196
14.70734 223
14.72746 194
14.74757 205
14.76768 222
14.7878 221
14.80791 222
14.82803 213
14.84814 227
14.86825 228
14.88837 201
14.90848 185
14.92859 226
14.94871 230
14.96882 243
14.98894 223
15.00905 205
15.02916 258
15.04928 238
15.06939 254
15.0895 267
15.10962 222
15.12973 237
15.14984 197
15.16996 260
15.19007 213
15.21019 222
15.2303 242
15.25041 242
15.27053 241
15.29064 189
15.31075 194
15.33087 209
15.35098 212
15.3711 192
15.39121 198
15.41132 201
15.43144 187
15.45155 248
15.47166 232
15.49178 217
15.51189 235
15.53201 194
15.55212 201
15.57223 213
15.59235 185
15.61246 183
15.63257 199
15.65269 200
15.6728 227
15.69291 208
15.71303 190
15.73314 175
15.75326 185
15.77337 185
15.79348 199
15.8136 217
15.83371 213
15.85382 187
15.87394 206
15.89405 201
15.91417 193
15.93428 178
15.95439 196
15.97451 187
15.99462 204
16.01473 206
16.03485 204
16.05496 188
16.07508 205
16.09519 214
16.1153 175
16.13542 179
16.15553 189
16.17564 193
16.19576 208
16.21587 194
16.23598 188
16.2561 192
16.27621 182
16.29633 186
16.31644 200
16.33655 190
16.35667 189
16.37678 222
16.39689 220
16.41701 195
16.43712 220
16.45724 196
16.47735 184
16.49746 182
16.51758 182
16.53769 184
16.5578 190
16.57792 198
16.59803 195
16.61814 187
16.63826 188
16.65837 176
16.67849 198
16.6986 180
16.71871 185
16.73883 192
16.75894 197
16.77905 193
16.79917 195
16.81928 210
16.8394 221
16.85951 201
16.87962 179
16.89974 219
16.91985 191
16.93996 186
16.96008 204
16.98019 195
17.00031 194
17.02042 189
17.04053 186
17.06065 189
17.08076 197
17.10087 186
17.12099 171
17.1411 190
17.16121 197
17.18133 204
17.20144 178
17.22156 190
17.24167 196
17.26178 178
17.2819 170
17.30201 192
17.32212 214
17.34224 168
17.36235 185
17.38247 194
17.40258 212
17.42269 201
17.44281 195
17.46292 209
17.48303 173
17.50315 203
17.52326 184
17.54338 215
17.56349 210
17.5836 200
17.60372 198
17.62383 190
17.64394 221
17.66406 186
17.68417 197
17.70428 208
17.7244 245
17.74451 166
17.76463 209
17.78474 203
17.80485 205
17.82497 218
17.84508 195
17.86519 219
17.88531 191
17.90542 191
17.92554 176
17.94565 187
17.96576 182
17.98588 206
18.00599 225
18.0261 210
18.04622 209
18.06633 186
18.08645 191
18.10656 170
18.12667 194
18.14679 205
18.1669 217
18.18701 164
18.20713 205
18.22724 188
18.24735 193
18.26747 201
18.28758 195
18.3077 197
18.32781 167
18.34792 210
18.36804 219
18.38815 181
18.40826 189
18.42838 226
18.44849 188
18.46861 212
18.48872 182
18.50883 173
18.52895 200
18.54906 208
18.56917 183
18.58929 197
18.6094 197
18.62951 205
18.64963 204
18.66974 217
18.68986 205
18.70997 208
18.73008 214
18.7502 218
18.77031 235
18.79042 191
18.81054 210
18.83065 215
18.85077 234
18.87088 219
18.89099 224
18.91111 212
18.93122 207
18.95133 196
18.97145 199
18.99156 225
19.01168 186
19.03179 230
19.0519 183
19.07202 224
19.09213 199
19.11224 238
19.13236 220
19.15247 195
19.17258 188
19.1927 218
19.21281 228
19.23293 215
19.25304 219
19.27315 228
19.29327 214
19.31338 220
19.33349 233
19.35361 222
19.37372 226
19.39384 252
19.41395 217
19.43406 256
19.45418 220
19.47429 228
19.4944 247
19.51452 253
19.53463 295
19.55475 276
19.57486 259
19.59497 275
19.61509 271
19.6352 291
19.65531 331
19.67543 321
19.69554 345
19.71565 372
19.73577 414
19.75588 422
19.776 499
19.79611 437
19.81622 499
19.83634 530
19.85645 504
19.87656 493
19.89668 555
19.91679 559
19.93691 563
19.95702 537
19.97713 483
19.99725 507
20.01736 491
20.03747 503
20.05759 495
20.0777 489
20.09782 434
20.11793 489
20.13804 505
20.15816 531
20.17827 487
20.19838 485
20.2185 488
20.23861 454
20.25872 468
20.27884 450
20.29895 476
20.31907 485
20.33918 522
20.35929 533
20.37941 519
20.39952 496
20.41963 510
20.43975 509
20.45986 547
20.47998 515
20.50009 515
20.5202 554
20.54032 528
20.56043 596
20.58054 599
20.60066 637
20.62077 661
20.64088 750
20.661 787
20.68111 946
20.70123 1103
20.72134 1512
20.74145 2041
20.76157 2717
20.78168 3659
20.80179 4618
20.82191 5573
20.84202 6181
20.86214 6271
20.88225 5474
20.90236 4308
20.92248 3099
20.94259 2225
20.9627 1524
20.98282 1144
21.00293 939
21.02305 981
21.04316 883
21.06327 800
21.08339 749
21.1035 676
21.12361 587
21.14373 568
21.16384 543
21.18395 529
21.20407 451
21.22418 468
21.2443 476
21.26441 437
21.28452 451
21.30464 429
21.32475 451
21.34486 432
21.36498 435
21.38509 445
21.40521 408
21.42532 379
21.44543 371
21.46555 399
21.48566 411
21.50577 366
21.52589 391
21.546 389
21.56612 380
21.58623 364
21.60634 384
21.62646 373
21.64657 371
21.66668 326
21.6868 375
21.70691 352
21.72702 358
21.74714 338
21.76725 369
21.78737 364
21.80748 373
21.82759 391
21.84771 361
21.86782 364
21.88793 391
21.90805 377
21.92816 402
21.94828 383
21.96839 418
21.9885 398
22.00862 413
22.02873 408
22.04884 371
22.06896 387
22.08907 335
22.10919 361
22.1293 377
22.14941 366
22.16953 356
22.18964 330
22.20975 348
22.22987 358
22.24998 363
22.27009 348
22.29021 364
22.31032 321
22.33044 401
22.35055 342
22.37066 360
22.39078 412
22.41089 351
22.431 377
22.45112 343
22.47123 337
22.49135 364
22.51146 383
22.53157 385
22.55169 367
22.5718 330
22.59191 366
22.61203 324
22.63214 325
22.65225 370
22.67237 303
22.69248 314
22.7126 311
22.73271 313
22.75282 280
22.77294 326
22.79305 319
22.81316 321
22.83328 302
22.85339 304
22.87351 336
22.89362 338
22.91373 305
22.93385 310
22.95396 311
22.97407 298
22.99419 351
23.0143 341
23.03442 322
23.05453 328
23.07464 344
23.09476 371
23.11487 343
23.13498 350
23.1551 313
23.17521 354
23.19532 383
23.21544 344
23.23555 342
23.25567 355
23.27578 371
23.29589 359
23.31601 320
23.33612 336
23.35623 354
23.37635 349
23.39646 332
23.41658 382
23.43669 370
23.4568 406
23.47692 385
23.49703 401
23.51714 453
23.53726 418
23.55737 479
23.57749 453
23.5976 455
23.61771 458
23.63783 449
23.65794 441
23.67805 407
23.69817 367
23.71828 399
23.73839 417
23.75851 359
23.77862 345
23.79874 354
23.81885 359
23.83896 400
23.85908 384
23.87919 404
23.8993 399
23.91942 383
23.93953 436
23.95965 357
23.97976 410
23.99987 426
24.01999 419
24.0401 422
24.06021 355
24.08033 350
24.10044 310
24.12056 313
24.14067 346
24.16078 340
24.1809 300
24.20101 320
24.22112 360
24.24124 349
24.26135 396
24.28146 389
24.30158 342
24.32169 361
24.34181 369
24.36192 351
24.38203 364
24.40215 376
24.42226 382
24.44237 368
24.46249 375
24.4826 356
24.50272 371
24.52283 380
24.54294 394
24.56306 410
24.58317 476
24.60328 419
24.6234 435
24.64351 414
24.66362 442
24.68374 432
24.70385 392
24.72397 443
24.74408 479
24.76419 462
24.78431 470
24.80442 454
24.82453 448
24.84465 427
24.86476 465
24.88488 459
24.90499 457
24.9251 478
24.94522 456
24.96533 447
24.98544 451
25.00556 434
25.02567 475
25.04579 420
25.0659 438
25.08601 446
25.10613 415
25.12624 431
25.14635 466
25.16647 463
25.18658 420
25.20669 467
25.22681 394
25.24692 433
25.26704 418
25.28715 423
25.30726 417
25.32738 399
25.34749 397
25.3676 440
25.38772 407
25.40783 418
25.42795 415
25.44806 432
25.46817 406
25.48829 492
25.5084 541
25.52851 511
25.54863 579
25.56874 525
25.58886 549
25.60897 613
25.62908 588
25.6492 535
25.66931 563
25.68942 514
25.70954 523
25.72965 489
25.74976 535
25.76988 488
25.78999 420
25.81011 465
25.83022 434
25.85033 481
25.87045 449
25.89056 513
25.91067 479
25.93079 483
25.9509 459
25.97102 440
25.99113 473
26.01124 532
26.03136 532
26.05147 524
26.07158 539
26.0917 540
26.11181 563
26.13193 562
26.15204 658
26.17215 631
26.19227 707
26.21238 800
26.23249 792
26.25261 889
26.27272 898
26.29283 1048
26.31295 1079
26.33306 1136
26.35318 1304
26.37329 1570
26.3934 1933
26.41352 2190
26.43363 2771
26.45374 3554
26.47386 4831
26.49397 6183
26.51409 8815
26.5342 12089
26.55431 15879
26.57443 20118
26.59454 23834
26.61465 26424
26.63477 26747
26.65488 24603
26.67499 19540
26.69511 14459
26.71522 10786
26.73534 7177
26.75545 4417
26.77556 2574
26.79568 1932
26.81579 1604
26.8359 1380
26.85602 1284
26.87613 1193
26.89625 1214
26.91636 1111
26.93647 1051
26.95659 1071
26.9767 1018
26.99681 1013
27.01693 892
27.03704 1028
27.05716 938
27.07727 893
27.09738 835
27.1175 789
27.13761 766
27.15772 676
27.17784 564
27.19795 561
27.21806 536
27.23818 537
27.25829 515
27.27841 567
27.29852 585
27.31863 629
27.33875 588
27.35886 692
27.37897 733
27.39909 774
27.4192 926
27.43932 905
27.45943 993
27.47954 933
27.49966 955
27.51977 815
27.53988 705
27.56 643
27.58011 596
27.60023 499
27.62034 476
27.64045 426
27.66057 410
27.68068 435
27.70079 421
27.72091 478
27.74102 447
27.76113 500
27.78125 506
27.80136 429
27.82148 402
27.84159 428
27.8617 425
27.88182 432
27.90193 407
27.92204 394
27.94216 387
27.96227 422
27.98239 426
28.0025 426
28.02261 354
28.04273 400
28.06284 356
28.08295 324
28.10307 333
28.12318 315
28.1433 283
28.16341 271
28.18352 274
28.20364 295
28.22375 291
28.24386 301
28.26398 323
28.28409 324
28.3042 318
28.32432 277
28.34443 295
28.36455 291
28.38466 279
28.40477 330
28.42489 280
28.445 282
28.46511 318
28.48523 276
28.50534 272
28.52546 290
28.54557 295
28.56568 307
28.5858 266
28.60591 257
28.62602 253
28.64614 256
28.66625 269
28.68636 231
28.70648 260
28.72659 264
28.74671 264
28.76682 275
28.78693 277
28.80705 237
28.82716 272
28.84727 239
28.86739 293
28.8875 266
28.90762 266
28.92773 288
28.94784 268
28.96796 266
28.98807 280
29.00818 263
29.0283 253
29.04841 253
29.06853 245
29.08864 257
29.10875 242
29.12887 310
29.14898 268
29.16909 245
29.18921 252
29.20932 267
29.22943 240
29.24955 280
29.26966 271
29.28978 272
29.30989 285
29.33 296
29.35012 264
29.37023 291
29.39034 261
29.41046 349
29.43057 306
29.45069 283
29.4708 288
29.49091 283
29.51103 277
29.53114 287
29.55125 265
29.57137 280
29.59148 292
29.6116 300
29.63171 306
29.65182 280
29.67194 352
29.69205 337
29.71216 329
29.73228 309
29.75239 355
29.7725 343
29.79262 313
29.81273 329
29.83285 335
29.85296 318
29.87307 341
29.89319 321
29.9133 337
29.93341 297
29.95353 314
29.97364 310
29.99376 290
30.01387 298
30.03398 300
30.0541 273
30.07421 329
30.09432 292
30.11444 289
30.13455 310
30.15467 311
30.17478 300
30.19489 308
30.21501 283
30.23512 306
30.25523 328
30.27535 323
30.29546 276
30.31557 290
30.33569 267
30.3558 266
30.37592 284
30.39603 264
30.41614 277
30.43626 302
30.45637 284
30.47648 291
30.4966 253
30.51671 260
30.53683 243
30.55694 273
30.57705 284
30.59717 239
30.61728 252
30.63739 291
30.65751 297
30.67762 320
30.69773 326
30.71785 350
30.73796 355
30.75808 343
30.77819 370
30.7983 371
30.81842 358
30.83853 341
30.85864 333
30.87876 319
30.89887 276
30.91899 284
30.9391 264
30.95921 236
30.97933 257
30.99944 220
31.01955 254
31.03967 222
31.05978 250
31.0799 203
31.10001 215
31.12012 222
31.14024 228
31.16035 218
31.18046 216
31.20058 210
31.22069 214
31.2408 213
31.26092 216
31.28103 233
31.30115 215
31.32126 245
31.34137 210
31.36149 240
31.3816 195
31.40171 217
31.42183 217
31.44194 209
31.46206 214
31.48217 217
31.50228 229
31.5224 200
31.54251 167
31.56262 229
31.58274 225
31.60285 218
31.62297 200
31.64308 199
31.66319 220
31.68331 235
31.70342 221
31.72353 201
31.74365 187
31.76376 229
31.78387 234
31.80399 220
31.8241 203
31.84422 222
31.86433 205
31.88444 196
31.90456 209
31.92467 183
31.94478 193
31.9649 213
31.98501 220
32.00513 207
32.02524 216
32.04535 223
32.06547 205
32.08558 216
32.10569 261
32.12581 220
32.14592 232
32.16604 205
32.18615 272
32.20626 246
32.22638 250
32.24649 264
32.2666 269
32.28672 259
32.30683 264
32.32694 250
32.34706 274
32.36717 266
32.38729 264
32.4074 264
32.42751 251
32.44763 239
32.46774 243
32.48785 237
32.50797 231
32.52808 220
32.5482 229
32.56831 184
32.58842 212
32.60854 210
32.62865 214
32.64876 190
32.66888 214
32.68899 220
32.7091 198
32.72922 197
32.74933 172
32.76945 162
32.78956 183
32.80967 207
32.82979 190
32.8499 212
32.87001 203
32.89013 180
32.91024 192
32.93036 202
32.95047 210
32.97058 185
32.9907 197
33.01081 174
33.03092 199
33.05104 197
33.07115 231
33.09127 206
33.11138 206
33.13149 203
33.15161 198
33.17172 196
33.19183 210
33.21195 187
33.23206 192
33.25217 179
33.27229 218
33.2924 180
33.31252 186
33.33263 228
33.35274 178
33.37286 196
33.39297 198
33.41308 196
33.4332 207
33.45331 224
33.47343 201
33.49354 210
33.51365 193
33.53377 165
33.55388 193
33.57399 229
33.59411 195
33.61422 197
33.63434 191
33.65445 191
33.67456 210
33.69468 182
33.71479 196
33.7349 188
33.75502 191
33.77513 192
33.79524 207
33.81536 194
33.83547 204
33.85559 200
33.8757 196
33.89581 214
33.91593 221
33.93604 201
33.95615 202
33.97627 193
33.99638 208
34.0165 207
34.03661 193
34.05672 207
34.07684 220
34.09695 204
34.11706 225
34.13718 245
34.15729 254
34.17741 247
34.19752 202
34.21763 249
34.23775 243
34.25786 271
34.27797 234
34.29809 276
34.3182 245
34.33831 249
34.35843 255
34.37854 257
34.39866 261
34.41877 249
34.43888 265
34.459 282
34.47911 276
34.49922 264
34.51934 260
34.53945 295
34.55957 277
34.57968 266
34.59979 298
34.61991 288
34.64002 303
34.66013 307
34.68025 307
34.70036 317
34.72047 319
34.74059 311
34.7607 306
34.78082 375
34.80093 396
34.82104 408
34.84116 364
34.86127 388
34.88138 357
34.9015 391
34.92161 396
34.94173 364
34.96184 405
34.98195 400
35.00207 367
35.02218 351
35.04229 348
35.06241 386
35.08252 364
35.10264 373
35.12275 317
35.14286 385
35.16298 346
35.18309 349
35.2032 324
35.22332 321
35.24343 297
35.26354 290
35.28366 304
35.30377 307
35.32389 312
35.344 340
35.36411 319
35.38423 353
35.40434 378
35.42445 359
35.44457 335
35.46468 359
35.4848 372
35.50491 398
35.52502 356
35.54514 357
35.56525 372
35.58536 312
35.60548 364
35.62559 358
35.64571 357
35.66582 346
35.68593 338
35.70605 341
35.72616 336
35.74627 308
35.76639 290
35.7865 308
35.80661 327
35.82673 315
35.84684 343
35.86696 279
35.88707 317
35.90718 337
35.9273 320
35.94741 352
35.96752 321
35.98764 345
36.00775 270
36.02787 272
36.04798 315
36.06809 314
36.08821 289
36.10832 342
36.12843 326
36.14855 312
36.16866 319
36.18878 323
36.20889 349
36.229 370
36.24912 350
36.26923 377
36.28934 387
36.30946 435
36.32957 469
36.34968 549
36.3698 623
36.38991 760
36.41003 951
36.43014 1130
36.45025 1344
36.47037 1602
36.49048 1848
36.51059 2013
36.53071 2000
36.55082 1800
36.57094 1528
36.59105 1330
36.61116 1186
36.63128 968
36.65139 766
36.6715 617
36.69162 454
36.71173 388
36.73184 368
36.75196 322
36.77207 324
36.79219 348
36.8123 299
36.83241 317
36.85253 310
36.87264 267
36.89275 273
36.91287 287
36.93298 291
36.9531 294
36.97321 347
36.99332 273
37.01344 281
37.03355 262
37.05366 286
37.07378 272
37.09389 296
37.11401 289
37.13412 268
37.15423 290
37.17435 269
37.19446 282
37.21457 264
37.23469 274
37.2548 248
37.27491 279
37.29503 298
37.31514 237
37.33526 275
37.35537 259
37.37548 265
37.3956 265
37.41571 277
37.43582 285
37.45594 290
37.47605 256
37.49617 275
37.51628 267
37.53639 278
37.55651 282
37.57662 310
37.59673 291
37.61685 265
37.63696 300
37.65708 296
37.67719 298
37.6973 328
37.71742 282
37.73753 287
37.75764 298
37.77776 281
37.79787 300
37.81798 275
37.8381 293
37.85821 273
37.87833 301
37.89844 307
37.91855 275
37.93867 280
37.95878 278
37.97889 289
37.99901 287
38.01912 283
38.03924 267
38.05935 284
38.07946 290
38.09958 308
38.11969 313
38.1398 304
38.15992 290
38.18003 332
38.20015 341
38.22026 309
38.24037 333
38.26049 325
38.2806 323
38.30071 312
38.32083 316
38.34094 330
38.36105 341
38.38117 324
38.40128 356
38.4214 317
38.44151 355
38.46162 340
38.48174 353
38.50185 365
38.52196 325
38.54208 303
38.56219 345
38.58231 350
38.60242 377
38.62253 302
38.64265 321
38.66276 305
38.68287 293
38.70299 324
38.7231 308
38.74321 292
38.76333 284
38.78344 281
38.80356 272
38.82367 268
38.84378 279
38.8639 314
38.88401 264
38.90412 267
38.92424 293
38.94435 296
38.96447 279
38.98458 276
39.00469 293
39.02481 275
39.04492 312
39.06503 323
39.08515 325
39.10526 338
39.12538 319
39.14549 348
39.1656 362
39.18572 374
39.20583 396
39.22594 451
39.24606 469
39.26617 536
39.28628 652
39.3064 690
39.32651 837
39.34663 1007
39.36674 1302
39.38685 1428
39.40697 1675
39.42708 1711
39.44719 1774
39.46731 1695
39.48742 1387
39.50754 1237
39.52765 1107
39.54776 980
39.56788 824
39.58799 658
39.6081 539
39.62822 401
39.64833 308
39.66845 310
39.68856 310
39.70867 266
39.72879 288
39.7489 244
39.76901 288
39.78913 251
39.80924 271
39.82935 255
39.84947 249
39.86958 258
39.8897 257
39.90981 277
39.92992 272
39.95004 279
39.97015 268
39.99026 287
40.01038 264
40.03049 292
40.05061 318
40.07072 308
40.09083 369
40.11095 378
40.13106 440
40.15117 521
40.17129 626
40.1914 737
40.21152 819
40.23163 905
40.25174 959
40.27186 951
40.29197 922
40.31208 841
40.3322 689
40.35231 629
40.37242 580
40.39254 499
40.41265 429
40.43277 345
40.45288 295
40.47299 263
40.49311 277
40.51322 291
40.53333 267
40.55345 238
40.57356 234
40.59368 219
40.61379 237
40.6339 191
40.65402 235
40.67413 216
40.69424 210
40.71436 234
40.73447 220
40.75458 225
40.7747 210
40.79481 216
40.81493 228
40.83504 216
40.85515 224
40.87527 200
40.89538 219
40.91549 227
40.93561 201
40.95572 219
40.97584 216
40.99595 202
41.01606 200
41.03618 228
41.05629 210
41.0764 205
41.09652 210
41.11663 206
41.13675 208
41.15686 209
41.17697 213
41.19709 230
41.2172 214
41.23731 217
41.25743 234
41.27754 225
41.29765 224
41.31777 239
41.33788 216
41.358 202
41.37811 228
41.39822 188
41.41834 224
41.43845 178
41.45856 220
41.47868 231
41.49879 224
41.51891 222
41.53902 232
41.55913 239
41.57925 227
41.59936 258
41.61947 234
41.63959 258
41.6597 264
41.67982 277
41.69993 291
41.72004 301
41.74016 308
41.76027 326
41.78038 310
41.8005 316
41.82061 302
41.84072 268
41.86084 275
41.88095 290
41.90107 255
41.92118 242
41.94129 265
41.96141 211
41.98152 220
42.00163 235
42.02175 240
42.04186 256
42.06198 262
42.08209 211
42.1022 258
42.12232 250
42.14243 292
42.16254 253
42.18266 281
42.20277 322
42.22289 401
42.243 407
42.26311 482
42.28323 491
42.30334 605
42.32345 736
42.34357 868
42.36368 1024
42.38379 1106
42.40391 1246
42.42402 1292
42.44414 1198
42.46425 1100
42.48436 914
42.50448 827
42.52459 737
42.5447 737
42.56482 601
42.58493 456
42.60505 409
42.62516 332
42.64527 295
42.66539 269
42.6855 248
42.70561 251
42.72573 262
42.74584 227
42.76595 255
42.78607 252
42.80618 238
42.8263 243
42.84641 276
42.86652 219
42.88664 220
42.90675 216
42.92686 195
42.94698 201
42.96709 194
42.98721 200
43.00732 202
43.02743 196
43.04755 171
43.06766 196
43.08777 200
43.10789 192
43.128 210
43.14812 211
43.16823 190
43.18834 200
43.20846 205
43.22857 192
43.24868 208
43.2688 206
43.28891 217
43.30902 202
43.32914 183
43.34925 188
43.36937 216
43.38948 205
43.40959 222
43.42971 209
43.44982 195
43.46993 194
43.49005 195
43.51016 199
43.53028 211
43.55039 194
43.5705 193
43.59062 213
43.61073 198
43.63084 188
43.65096 208
43.67107 194
43.69119 217
43.7113 180
43.73141 218
43.75153 205
43.77164 200
43.79175 212
43.81187 172
43.83198 216
43.85209 183
43.87221 211
43.89232 206
43.91244 200
43.93255 211
43.95266 197
43.97278 206
43.99289 175
44.013 196
44.03312 201
44.05323 223
44.07335 200
44.09346 211
44.11357 231
44.13369 187
44.1538 214
44.17391 220
44.19403 173
44.21414 201
44.23426 209
44.25437 184
44.27448 198
44.2946 188
44.31471 198
44.33482 199
44.35494 175
44.37505 202
44.39516 187
44.41528 190
44.43539 195
44.45551 187
44.47562 214
44.49573 187
44.51585 178
44.53596 176
44.55607 191
44.57619 201
44.5963 193
44.61642 210
44.63653 193
44.65664 202
44.67676 181
44.69687 193
44.71698 201
44.7371 178
44.75721 187
44.77732 194
44.79744 175
44.81755 189
44.83767 189
44.85778 196
44.87789 198
44.89801 210
44.91812 201
44.93823 232
44.95835 209
44.97846 204
44.99858 201
45.01869 223
45.0388 203
45.05892 221
45.07903 220
45.09914 233
45.11926 232
45.13937 209
45.15949 218
45.1796 217
45.19971 233
45.21983 226
45.23994 226
45.26005 212
45.28017 238
45.30028 230
45.32039 240
45.34051 225
45.36062 229
45.38074 238
45.40085 227
45.42096 222
45.44108 277
45.46119 254
45.4813 278
45.50142 260
45.52153 302
45.54165 309
45.56176 281
45.58187 385
45.60199 372
45.6221 446
45.64221 498
45.66233 612
45.68244 612
45.70256 749
45.72267 808
45.74278 912
45.7629 953
45.78301 939
45.80312 806
45.82324 659
45.84335 618
45.86346 566
45.88358 572
45.90369 515
45.92381 456
45.94392 359
45.96403 306
45.98415 298
46.00426 244
46.02437 243
46.04449 255
46.0646 234
46.08472 219
46.10483 217
46.12494 244
46.14506 256
46.16517 214
46.18528 214
46.2054 205
46.22551 231
46.24563 206
46.26574 219
46.28585 199
46.30597 222
46.32608 188
46.34619 198
46.36631 194
46.38642 222
46.40653 195
46.42665 211
46.44676 195
46.46688 183
46.48699 197
46.5071 195
46.52722 195
46.54733 225
46.56744 197
46.58756 203
46.60767 189
46.62779 184
46.6479 211
46.66801 206
46.68813 189
46.70824 192
46.72835 226
46.74847 208
46.76858 195
46.78869 192
46.80881 207
46.82892 204
46.84904 172
46.86915 167
46.88926 203
46.90938 207
46.92949 216
46.9496 170
46.96972 246
46.98983 219
47.00995 208
47.03006 231
47.05017 210
47.07029 195
47.0904 237
47.11051 220
47.13063 225
47.15074 236
47.17086 234
47.19097 220
47.21108 214
47.2312 218
47.25131 204
47.27142 228
47.29154 216
47.31165 190
47.33176 213
47.35188 223
47.37199 216
47.39211 208
47.41222 217
47.43233 219
47.45245 231
47.47256 223
47.49267 187
47.51279 201
47.5329 243
47.55302 201
47.57313 229
47.59324 207
47.61336 202
47.63347 180
47.65358 167
47.6737 212
47.69381 204
47.71393 197
47.73404 201
47.75415 230
47.77427 197
47.79438 191
47.81449 199
47.83461 216
47.85472 200
47.87483 209
47.89495 193
47.91506 224
47.93518 230
47.95529 213
47.9754 197
47.99552 207
48.01563 204
48.03574 195
48.05586 172
48.07597 164
48.09609 185
48.1162 201
48.13631 197
48.15643 219
48.17654 208
48.19665 192
48.21677 188
48.23688 234
48.257 204
48.27711 206
48.29722 203
48.31734 207
48.33745 200
48.35756 193
48.37768 193
48.39779 208
48.4179 191
48.43802 176
48.45813 209
48.47825 174
48.49836 206
48.51847 179
48.53859 189
48.5587 174
48.57881 199
48.59893 195
48.61904 175
48.63916 207
48.65927 215
48.67938 168
48.6995 188
48.71961 227
48.73972 209
48.75984 208
48.77995 207
48.80006 235
48.82018 209
48.84029 207
48.86041 191
48.88052 199
48.90063 236
48.92075 243
48.94086 239
48.96097 222
48.98109 212
49.0012 227
49.02132 204
49.04143 214
49.06154 203
49.08166 201
49.10177 214
49.12188 206
49.142 223
49.16211 206
49.18223 207
49.20234 178
49.22245 213
49.24257 213
49.26268 189
49.28279 218
49.30291 196
49.32302 213
49.34313 244
49.36325 189
49.38336 198
49.40348 211
49.42359 183
49.4437 196
49.46382 200
49.48393 244
49.50404 217
49.52416 216
49.54427 225
49.56439 220
49.5845 217
49.60461 225
49.62473 227
49.64484 245
49.66495 270
49.68507 275
49.70518 253
49.7253 289
49.74541 304
49.76552 301
49.78564 402
49.80575 357
49.82586 431
49.84598 423
49.86609 495
49.8862 546
49.90632 635
49.92643 714
49.94655 924
49.96666 1091
49.98677 1290
50.00689 1566
50.027 1799
50.04711 2132
50.06723 2421
50.08734 2701
50.10746 2779
50.12757 2583
50.14768 2312
50.1678 1955
50.18791 1567
50.20802 1508
50.22814 1465
50.24825 1389
50.26837 1175
50.28848 976
50.30859 687
50.32871 505
50.34882 403
50.36893 378
50.38905 358
50.40916 343
50.42927 329
50.44939 346
50.4695 348
50.48962 364
50.50973 341
50.52984 391
50.54996 375
50.57007 355
50.59018 368
50.6103 362
50.63041 370
50.65053 341
50.67064 322
50.69075 318
50.71087 288
50.73098 304
50.75109 244
50.77121 271
50.79132 244
50.81143 246
50.83155 245
50.85166 235
50.87178 226
50.89189 232
50.912 221
50.93212 212
50.95223 204
50.97234 207
50.99246 189
51.01257 208
51.03269 212
51.0528 191
51.07291 226
51.09303 194
51.11314 210
51.13325 203
51.15337 192
51.17348 204
51.1936 176
51.21371 172
51.23382 191
51.25394 186
51.27405 195
51.29416 201
51.31428 216
51.33439 197
51.3545 171
51.37462 201
51.39473 171
51.41485 170
51.43496 193
51.45507 213
51.47519 174
51.4953 198
51.51541 175
51.53553 175
51.55564 174
51.57576 189
51.59587 184
51.61598 187
51.6361 168
51.65621 173
51.67632 195
51.69644 178
51.71655 185
51.73667 177
51.75678 180
51.77689 150
51.79701 156
51.81712 189
51.83723 165
51.85735 160
51.87746 173
51.89757 190
51.91769 169
51.9378 176
51.95792 163
51.97803 173
51.99814 180
52.01826 182
52.03837 204
52.05848 182
52.0786 163
52.09871 184
52.11883 181
52.13894 183
52.15905 168
52.17917 167
52.19928 180
52.21939 177
52.23951 177
52.25962 181
52.27974 168
52.29985 174
52.31996 171
52.34008 183
52.36019 150
52.3803 194
52.40042 198
52.42053 185
52.44064 171
52.46076 197
52.48087 183
52.50099 158
52.5211 193
52.54121 160
52.56133 166
52.58144 140
52.60155 176
52.62167 186
52.64178 171
52.6619 176
52.68201 177
52.70212 176
52.72224 190
52.74235 176
52.76246 179
52.78258 168
52.80269 193
52.8228 183
52.84292 180
52.86303 173
52.88315 149
52.90326 174
52.92337 187
52.94349 176
52.9636 161
52.98371 191
53.00383 164
53.02394 169
53.04406 200
53.06417 175
53.08428 202
53.1044 175
53.12451 204
53.14462 195
53.16474 172
53.18485 161
53.20497 213
53.22508 176
53.24519 206
53.26531 221
53.28542 209
53.30553 191
53.32565 196
53.34576 238
53.36587 228
53.38599 203
53.4061 223
53.42622 206
53.44633 221
53.46644 206
53.48656 235
53.50667 228
53.52678 219
53.5469 204
53.56701 197
53.58713 235
53.60724 192
53.62735 181
53.64747 207
53.66758 228
53.68769 168
53.70781 198
53.72792 170
53.74804 186
53.76815 213
53.78826 184
53.80838 170
53.82849 223
53.8486 195
53.86872 199
53.88883 193
53.90894 190
53.92906 198
53.94917 223
53.96929 211
53.9894 201
54.00951 208
54.02963 194
54.04974 218
54.06985 209
54.08997 214
54.11008 245
54.1302 221
54.15031 218
54.17042 228
54.19054 232
54.21065 217
54.23076 231
54.25088 229
54.27099 217
54.29111 262
54.31122 231
54.33133 241
54.35145 250
54.37156 244
54.39167 224
54.41179 251
54.4319 237
54.45201 257
54.47213 271
54.49224 270
54.51236 271
54.53247 254
54.55258 289
54.5727 310
54.59281 328
54.61292 353
54.63304 358
54.65315 379
54.67327 423
54.69338 458
54.71349 568
54.73361 616
54.75372 680
54.77383 735
54.79395 850
54.81406 915
54.83417 975
54.85429 888
54.8744 863
54.89452 757
54.91463 680
54.93474 653
54.95486 559
54.97497 605
54.99508 565
55.0152 522
55.03531 464
55.05543 434
55.07554 384
55.09565 329
55.11577 326
55.13588 319
55.15599 383
55.17611 350
55.19622 418
55.21634 459
55.23645 547
55.25656 523
55.27668 501
55.29679 506
55.3169 509
55.33702 456
55.35713 396
55.37724 408
55.39736 350
55.41747 352
55.43759 375
55.4577 351
55.47781 351
55.49793 262
55.51804 289
55.53815 245
55.55827 253
55.57838 255
55.5985 248
55.61861 225
55.63872 239
55.65884 216
55.67895 233
55.69906 236
55.71918 218
55.73929 214
55.75941 229
55.77952 222
55.79963 224
55.81975 207
55.83986 225
55.85997 203
55.88009 213
55.9002 221
55.92031 208
55.94043 186
55.96054 221
55.98066 217
56.00077 213
56.02088 210
56.041 200
56.06111 200
56.08122 215
56.10134 209
56.12145 209
56.14157 202
56.16168 188
56.18179 192
56.20191 223
56.22202 213
56.24213 177
56.26225 202
56.28236 207
56.30248 205
56.32259 175
56.3427 179
56.36282 185
56.38293 212
56.40304 194
56.42316 185
56.44327 188
56.46338 189
56.4835 204
56.50361 211
56.52373 195
56.54384 191
56.56395 197
56.58407 192
56.60418 194
56.62429 220
56.64441 197
56.66452 190
56.68464 203
56.70475 192
56.72486 181
56.74498 195
56.76509 200
56.7852 191
56.80532 191
56.82543 204
56.84554 194
56.86566 177
56.88577 185
56.90589 161
56.926 207
56.94611 210
56.96623 202
56.98634 195
57.00645 180
57.02657 181
57.04668 185
57.0668 198
57.08691 197
57.10702 210
57.12714 203
57.14725 209
57.16736 225
57.18748 225
57.20759 219
57.22771 233
57.24782 207
57.26793 216
57.28805 214
57.30816 203
57.32827 211
57.34839 200
57.3685 217
57.38861 200
57.40873 196
57.42884 150
57.44896 193
57.46907 176
57.48918 174
57.5093 174
57.52941 177
57.54952 195
57.56964 191
57.58975 184
57.60987 172
57.62998 181
57.65009 215
57.67021 200
57.69032 181
57.71043 164
57.73055 187
57.75066 189
57.77078 200
57.79089 184
57.811 179
57.83112 175
57.85123 199
57.87134 187
57.89146 173
57.91157 205
57.93168 190
57.9518 182
57.97191 181
57.99203 175
58.01214 173
58.03225 183
58.05237 145
58.07248 163
58.09259 170
58.11271 168
58.13282 178
58.15294 188
58.17305 159
58.19316 206
58.21328 168
58.23339 179
58.2535 174
58.27362 160
58.29373 199
58.31385 175
58.33396 175
58.35407 184
58.37419 170
58.3943 191
58.41441 180
58.43453 182
58.45464 173
58.47475 180
58.49487 201
58.51498 184
58.5351 172
58.55521 187
58.57532 201
58.59544 177
58.61555 179
58.63566 210
58.65578 201
58.67589 192
58.69601 187
58.71612 179
58.73623 217
58.75635 191
58.77646 189
58.79657 187
58.81669 196
58.8368 170
58.85691 186
58.87703 180
58.89714 188
58.91726 165
58.93737 170
58.95748 177
58.9776 195
58.99771 176
59.01782 167
59.03794 175
59.05805 189
59.07817 178
59.09828 181
59.11839 218
59.13851 191
59.15862 200
59.17873 195
59.19885 198
59.21896 179
59.23908 206
59.25919 193
59.2793 206
59.29942 174
59.31953 197
59.33964 203
59.35976 203
59.37987 213
59.39998 190
59.4201 215
59.44021 217
59.46033 226
59.48044 241
59.50055 221
59.52067 243
59.54078 230
59.56089 298
59.58101 286
59.60112 313
59.62124 332
59.64135 342
59.66146 372
59.68158 395
59.70169 437
59.7218 525
59.74192 595
59.76203 682
59.78215 787
59.80226 939
59.82237 1068
59.84249 1323
59.8626 1495
59.88271 1625
59.90283 1771
59.92294 1740
59.94305 1587
59.96317 1408
59.98328 1166
60.0034 992
60.02351 957
60.04362 957
60.06374 999
60.08385 957
60.10396 830
60.12408 720
60.14419 544
60.16431 399
60.18442 359
60.20453 309
60.22465 290
60.24476 243
60.26487 228
60.28499 220
60.3051 237
60.32522 240
60.34533 220
60.36544 242
60.38556 202
60.40567 212
60.42578 202
60.4459 201
60.46601 206
60.48612 181
60.50624 213
60.52635 195
60.54647 174
60.56658 207
60.58669 182
60.60681 203
60.62692 185
60.64703 183
60.66715 222
60.68726 191
60.70738 177
60.72749 189
60.7476 194
60.76772 184
60.78783 214
60.80794 193
60.82806 182
60.84817 177
60.86828 178
60.8884 177
60.90851 183
60.92863 194
60.94874 193
60.96885 196
60.98897 183
61.00908 166
61.02919 190
61.04931 171
61.06942 200
61.08954 181
61.10965 202
61.12976 200
61.14988 198
61.16999 179
61.1901 185
61.21022 175
61.23033 188
61.25045 182
61.27056 179
61.29067 222
61.31079 179
61.3309 201
61.35101 190
61.37113 162
61.39124 213
61.41135 194
61.43147 202
61.45158 185
61.4717 178
61.49181 205
61.51192 192
61.53204 180
61.55215 214
61.57226 215
61.59238 213
61.61249 210
61.63261 221
61.65272 214
61.67283 227
61.69295 198
61.71306 211
61.73317 213
61.75329 204
61.7734 228
61.79352 229
61.81363 225
61.83374 219
61.85386 235
61.87397 238
61.89408 236
61.9142 227
61.93431 233
61.95442 270
61.97454 262
61.99465 268
62.01477 279
62.03488 258
62.05499 289
62.07511 277
62.09522 325
62.11533 299
62.13545 303
62.15556 278
62.17568 272
62.19579 275
62.2159 292
62.23602 274
62.25613 264
62.27624 297
62.29636 243
62.31647 279
62.33659 262
62.3567 260
62.37681 261
62.39693 230
62.41704 239
62.43715 215
62.45727 214
62.47738 202
62.49749 235
62.51761 209
62.53772 211
62.55784 225
62.57795 216
62.59806 198
62.61818 217
62.63829 212
62.6584 204
62.67852 201
62.69863 194
62.71875 190
62.73886 196
62.75897 190
62.77909 188
62.7992 243
62.81931 204
62.83943 203
62.85954 207
62.87965 208
62.89977 213
62.91988 185
62.94 191
62.96011 175
62.98022 212
63.00034 192
63.02045 193
63.04056 192
63.06068 180
63.08079 212
63.10091 178
63.12102 193
63.14113 198
63.16125 167
63.18136 187
63.20147 180
63.22159 197
63.2417 202
63.26182 206
63.28193 186
63.30204 180
63.32216 165
63.34227 193
63.36238 213
63.3825 207
63.40261 169
63.42272 214
63.44284 199
63.46295 181
63.48307 173
63.50318 204
63.52329 198
63.54341 202
63.56352 206
63.58363 193
63.60375 185
63.62386 205
63.64398 212
63.66409 229
63.6842 214
63.70432 224
63.72443 228
63.74454 234
63.76466 262
63.78477 258
63.80489 263
63.825 264
63.84511 308
63.86523 308
63.88534 366
63.90545 389
63.92557 399
63.94568 452
63.96579 459
63.98591 463
64.00602 481
64.02614 418
64.04625 359
64.06636 335
64.08648 325
64.10659 319
64.1267 299
64.14682 375
64.16693 339
64.18705 323
64.20716 282
64.22727 261
64.24739 234
64.2675 204
64.28761 193
64.30773 208
64.32784 181
64.34796 163
64.36807 176
64.38818 175
64.4083 159
64.42841 167
64.44852 194
64.46864 177
64.48875 167
64.50886 182
64.52898 210
64.54909 184
64.56921 165
64.58932 160
64.60943 172
64.62955 174
64.64966 178
64.66977 184
64.68989 168
64.71 157
64.73012 147
64.75023 160
64.77034 167
64.79046 168
64.81057 171
64.83068 181
64.8508 190
64.87091 173
64.89102 163
64.91114 178
64.93125 174
64.95137 178
64.97148 174
64.99159 171
65.01171 184
65.03182 182
65.05193 190
65.07205 176
65.09216 171
65.11228 175
65.13239 164
65.1525 173
65.17262 187
65.19273 193
65.21284 182
65.23296 185
65.25307 179
65.27319 173
65.2933 187
65.31341 169
65.33353 177
65.35364 180
65.37375 207
65.39387 166
65.41398 182
65.43409 181
65.45421 194
65.47432 187
65.49444 184
65.51455 186
65.53466 211
65.55478 186
65.57489 195
65.595 220
65.61512 198
65.63523 229
65.65535 198
65.67546 230
65.69557 251
65.71569 236
65.7358 257
65.75591 248
65.77603 200
65.79614 240
65.81626 218
65.83637 198
65.85648 200
65.8766 234
65.89671 190
65.91682 188
65.93694 201
65.95705 196
65.97716 206
65.99728 189
66.01739 175
66.03751 175
66.05762 205
66.07773 177
66.09785 174
66.11796 181
66.13807 174
66.15819 172
66.1783 157
66.19842 189
66.21853 171
66.23864 165
66.25876 189
66.27887 182
66.29898 188
66.3191 158
66.33921 210
66.35933 204
66.37944 193
66.39955 204
66.41967 186
66.43978 195
66.45989 202
66.48001 175
66.50012 205
66.52023 161
66.54035 183
66.56046 192
66.58058 195
66.60069 177
66.6208 180
66.64092 192
66.66103 199
66.68114 186
66.70126 188
66.72137 178
66.74149 164
66.7616 183
66.78171 169
66.80183 174
66.82194 187
66.84205 175
66.86217 199
66.88228 172
66.90239 163
66.92251 190
66.94262 187
66.96274 176
66.98285 178
67.00296 189
67.02308 189
67.04319 183
67.0633 193
67.08342 186
67.10353 198
67.12365 220
67.14376 188
67.16387 207
67.18399 205
67.2041 200
67.22421 188
67.24433 221
67.26444 237
67.28456 251
67.30467 199
67.32478 223
67.3449 263
67.36501 251
67.38512 281
67.40524 298
67.42535 291
67.44546 320
67.46558 372
67.48569 361
67.50581 417
67.52592 476
67.54603 509
67.56615 594
67.58626 677
67.60637 737
67.62649 860
67.6466 972
67.66672 1097
67.68683 1093
67.70694 1054
67.72706 1069
67.74717 897
67.76728 790
67.7874 760
67.80751 684
67.82763 688
67.84774 809
67.86785 780
67.88797 835
67.90808 856
67.92819 878
67.94831 898
67.96842 847
67.98853 935
68.00865 1010
68.02876 1156
68.04888 1287
68.06899 1371
68.0891 1393
68.10922 1422
68.12933 1402
68.14944 1318
68.16956 1153
68.18967 1143
68.20979 1179
68.2299 1289
68.25001 1297
68.27013 1353
68.29024 1328
68.31035 1179
68.33047 984
68.35058 827
68.3707 730
68.39081 604
68.41092 582
68.43104 534
68.45115 504
68.47126 510
68.49138 445
68.51149 394
68.5316 343
68.55172 313
68.57183 269
68.59195 260
68.61206 227
68.63217 224
68.65229 204
68.6724 233
68.69251 202
68.71263 189
68.73274 206
68.75286 189
68.77297 213
68.79308 180
68.8132 184
68.83331 194
68.85342 176
68.87354 210
68.89365 154
68.91376 187
68.93388 215
68.95399 194
68.97411 182
68.99422 176
69.01433 168
69.03445 152
69.05456 166
69.07467 168
69.09479 186
69.1149 166
69.13502 163
69.15513 189
69.17524 187
69.19536 163
69.21547 177
69.23558 161
69.2557 166
69.27581 168
69.29593 160
69.31604 166
69.33615 150
69.35627 165
69.37638 167
69.39649 160
69.41661 162
69.43672 169
69.45683 182
69.47695 156
69.49706 175
69.51718 158
69.53729 172
69.5574 158
69.57752 156
69.59763 167
69.61774 197
69.63786 157
69.65797 175
69.67809 169
69.6982 154
69.71831 163
69.73843 154
69.75854 154
69.77865 157
69.79877 136
69.81888 173
69.839 166
69.85911 163
69.87922 168
69.89934 162
69.91945 160
69.93956 187
69.95968 155
69.97979 177
69.9999 167
70.02002 162
70.04013 189
70.06025 195
70.08036 166
70.10047 189
70.12059 172
70.1407 150
70.16081 181
70.18093 161
70.20104 146
70.22116 165
70.24127 165
70.26138 170
70.2815 179
70.30161 170
70.32172 173
70.34184 161
70.36195 164
70.38207 160
70.40218 182
70.42229 171
70.44241 162
70.46252 174
70.48263 162
70.50275 158
70.52286 175
70.54297 152
70.56309 168
70.5832 164
70.60332 159
70.62343 160
70.64354 164
70.66366 158
70.68377 154
70.70388 149
70.724 164
70.74411 174
70.76423 168
70.78434 176
70.80445 172
70.82457 154
70.84468 155
70.86479 175
70.88491 153
70.90502 160
70.92513 163
70.94525 139
70.96536 165
70.98548 164
71.00559 148
71.0257 158
71.04582 176
71.06593 177
71.08604 152
71.10616 151
71.12627 136
71.14639 156
71.1665 153
71.18661 146
71.20673 172
71.22684 143
71.24695 174
71.26707 153
71.28718 173
71.3073 156
71.32741 163
71.34752 161
71.36764 161
71.38775 166
71.40786 161
71.42798 157
71.44809 183
71.4682 180
71.48832 158
71.50843 162
71.52855 184
71.54866 166
71.56877 169
71.58889 173
71.609 163
71.62911 177
71.64923 172
71.66934 153
71.68946 164
71.70957 174
71.72968 175
71.7498 166
71.76991 177
71.79002 161
71.81014 183
71.83025 171
71.85037 175
71.87048 184
71.89059 180
71.91071 179
71.93082 170
71.95093 186
71.97105 166
71.99116 152
72.01127 169
72.03139 186
72.0515 181
72.07162 171
72.09173 167
72.11184 171
72.13196 159
72.15207 163
72.17218 167
72.1923 160
72.21241 169
72.23253 153
72.25264 149
72.27275 178
72.29287 171
72.31298 170
72.33309 159
72.35321 154
72.37332 157
72.39344 166
72.41355 164
72.43366 183
72.45378 174
72.47389 151
72.494 151
72.51412 147
72.53423 167
72.55434 170
72.57446 153
72.59457 137
72.61469 183
72.6348 190
72.65491 165
72.67503 169
72.69514 183
72.71525 147
72.73537 167
72.75548 160
72.7756 172
72.79571 185
72.81582 174
72.83594 208
72.85605 189
72.87616 176
72.89628 166
72.91639 185
72.9365 171
72.95662 162
72.97673 180
72.99685 172
73.01696 185
73.03707 185
73.05719 211
73.0773 200
73.09741 231
73.11753 206
73.13764 206
73.15776 246
73.17787 243
73.19798 237
73.2181 264
73.23821 272
73.25832 307
73.27844 289
73.29855 313
73.31867 359
73.33878 415
73.35889 438
73.37901 450
73.39912 518
73.41923 509
73.43935 446
73.45946 450
73.47957 362
73.49969 353
73.5198 331
73.53992 298
73.56003 338
73.58014 331
73.60026 333
73.62037 351
73.64048 333
73.6606 344
73.68071 299
73.70083 261
73.72094 260
73.74105 198
73.76117 197
73.78128 202
73.80139 187
73.82151 191
73.84162 199
73.86174 185
73.88185 176
73.90196 226
73.92208 206
73.94219 174
73.9623 195
73.98242 193
74.00253 174
74.02264 227
74.04276 162
74.06287 163
74.08299 167
74.1031 172
74.12321 179
74.14333 194
74.16344 169
74.18355 183
74.20367 162
74.22378 164
74.2439 196
74.26401 160
74.28412 180
74.30424 181
74.32435 186
74.34446 184
74.36458 167
74.38469 178
74.40481 162
74.42492 175
74.44503 189
74.46515 154
74.48526 159
74.50537 170
74.52549 165
74.5456 150
74.56571 170
74.58583 152
74.60594 165
74.62606 157
74.64617 161
74.66628 168
74.6864 175
74.70651 177
74.72662 168
74.74674 177
74.76685 186
74.78697 160
74.80708 193
74.82719 184
74.84731 178
74.86742 179
74.88753 161
74.90765 174
74.92776 173
74.94787 184
74.96799 169
74.9881 150
75.00822 178
