3.00117 24687
3.02128 23863
3.0414 23719
3.06151 22760
3.08162 22216
3.10174 21720
3.12185 20443
3.14197 20512
3.16208 19529
3.18219 19098
3.20231 18738
3.22242 17827
3.24253 18054
3.26265 17091
3.28276 16591
3.30288 16075
3.32299 15693
3.3431 14839
3.36322 14559
3.38333 14122
3.40344 13675
3.42356 13324
3.44367 12851
3.46379 12450
3.4839 12099
3.50401 11473
3.52413 11016
3.54424 10878
3.56435 10366
3.58447 10264
3.60458 9796
3.62469 9220
3.64481 9112
3.66492 8518
3.68504 8508
3.70515 7961
3.72526 7528
3.74538 7596
3.76549 7058
3.7856 6623
3.80572 6610
3.82583 6215
3.84595 6219
3.86606 5674
3.88617 5407
3.90629 5161
3.9264 5014
3.94651 4994
3.96663 4700
3.98674 4464
4.00686 4274
4.02697 3884
4.04708 4025
4.0672 3781
4.08731 3592
4.10742 3374
4.12754 3219
4.14765 3176
4.16776 2901
4.18788 2832
4.20799 2701
4.22811 2517
4.24822 2584
4.26833 2367
4.28845 2367
4.30856 2180
4.32867 2139
4.34879 2082
4.3689 2084
4.38902 1999
4.40913 1929
4.42924 1740
4.44936 1877
4.46947 1807
4.48958 1728
4.5097 1599
4.52981 1598
4.54992 1552
4.57004 1535
4.59015 1483
4.61027 1496
4.63038 1442
4.65049 1464
4.67061 1432
4.69072 1300
4.71083 1288
4.73095 1215
4.75106 1323
4.77118 1312
4.79129 1148
4.8114 1091
4.83152 1125
4.85163 1080
4.87174 1108
4.89186 1100
4.91197 1028
4.93209 988
4.9522 962
4.97231 1013
4.99243 909
5.01254 921
5.03265 936
5.05277 920
5.07288 913
5.09299 802
5.11311 819
5.13322 842
5.15334 850
5.17345 792
5.19356 725
5.21368 695
5.23379 737
5.2539 638
5.27402 658
5.29413 689
5.31425 649
5.33436 712
5.35447 646
5.37459 682
5.3947 581
5.41481 569
5.43493 566
5.45504 531
5.47516 574
5.49527 574
5.51538 591
5.5355 567
5.55561 541
5.57572 537
5.59584 492
5.61595 517
5.63606 509
5.65618 516
5.67629 472
5.69641 439
5.71652 455
5.73663 453
5.75675 464
5.77686 427
5.79697 430
5.81709 415
5.8372 460
5.85732 408
5.87743 411
5.89754 373
5.91766 428
5.93777 418
5.95788 421
5.978 349
5.99811 349
6.01823 401
6.03834 397
6.05845 384
6.07857 362
6.09868 372
6.11879 357
6.13891 366
6.15902 345
6.17913 370
6.19925 354
6.21936 357
6.23948 338
6.25959 376
6.2797 339
6.29982 360
6.31993 367
6.34004 332
6.36016 334
6.38027 353
6.40039 330
6.4205 347
6.44061 360
6.46073 357
6.48084 347
6.50095 326
6.52107 321
6.54118 297
6.56129 306
6.58141 351
6.60152 316
6.62164 281
6.64175 340
6.66186 338
6.68198 302
6.70209 288
6.7222 309
6.74232 281
6.76243 346
6.78255 298
6.80266 335
6.82277 294
6.84289 327
6.863 285
6.88311 287
6.90323 320
6.92334 322
6.94346 307
6.96357 301
6.98368 290
7.0038 258
7.02391 287
7.04402 305
7.06414 294
7.08425 308
7.10436 293
7.12448 301
7.14459 298
7.16471 335
7.18482 279
7.20493 278
7.22505 275
7.24516 298
7.26527 315
7.28539 264
7.3055 299
7.32562 298
7.34573 291
7.36584 299
7.38596 298
7.40607 295
7.42618 335
7.4463 282
7.46641 321
7.48653 298
7.50664 292
7.52675 357
7.54687 331
7.56698 291
7.58709 301
7.60721 299
7.62732 305
7.64743 296
7.66755 294
7.68766 314
7.70778 255
7.72789 320
7.748 278
7.76812 296
7.78823 280
7.80834 291
7.82846 285
7.84857 299
7.86869 295
7.8888 309
7.90891 274
7.92903 265
7.94914 309
7.96925 307
7.98937 308
8.00948 273
8.0296 283
8.04971 282
8.06982 284
8.08994 272
8.11005 265
8.13016 303
8.15028 305
8.17039 286
8.1905 286
8.21062 305
8.23073 275
8.25085 293
8.27096 276
8.29107 272
8.31119 298
8.3313 293
8.35141 321
8.37153 312
8.39164 304
8.41176 270
8.43187 296
8.45198 354
8.4721 326
8.49221 299
8.51232 278
8.53244 311
8.55255 331
8.57266 323
8.59278 313
8.61289 326
8.63301 297
8.65312 295
8.67323 299
8.69335 346
8.71346 340
8.73357 293
8.75369 346
8.7738 323
8.79392 359
8.81403 353
8.83414 338
8.85426 353
8.87437 383
8.89448 373
8.9146 339
8.93471 331
8.95483 375
8.97494 345
8.99505 297
9.01517 314
9.03528 287
9.05539 307
9.07551 320
9.09562 335
9.11573 288
9.13585 273
9.15596 273
9.17608 303
9.19619 314
9.2163 291
9.23642 286
9.25653 287
9.27664 304
9.29676 289
9.31687 263
9.33699 287
9.3571 284
9.37721 291
9.39733 274
9.41744 266
9.43755 284
9.45767 263
9.47778 311
9.4979 311
9.51801 263
9.53812 287
9.55824 301
9.57835 283
9.59846 281
9.61858 282
9.63869 274
9.6588 301
9.67892 259
9.69903 270
9.71915 279
9.73926 278
9.75937 262
9.77949 269
9.7996 263
9.81971 292
9.83983 296
9.85994 253
9.88006 290
9.90017 282
9.92028 279
9.9404 299
9.96051 290
9.98062 268
10.00074 249
10.02085 299
10.04097 291
10.06108 258
10.08119 270
10.10131 258
10.12142 265
10.14153 263
10.16165 237
10.18176 262
10.20187 290
10.22199 271
10.2421 240
10.26222 272
10.28233 254
10.30244 241
10.32256 276
10.34267 273
10.36278 327
10.3829 299
10.40301 278
10.42313 285
10.44324 272
10.46335 281
10.48347 295
10.50358 285
10.52369 302
10.54381 297
10.56392 247
10.58403 290
10.60415 281
10.62426 274
10.64438 283
10.66449 279
10.6846 267
10.70472 301
10.72483 307
10.74494 254
10.76506 279
10.78517 304
10.80529 292
10.8254 271
10.84551 271
10.86563 252
10.88574 257
10.90585 324
10.92597 288
10.94608 263
10.9662 255
10.98631 276
11.00642 284
11.02654 278
11.04665 265
11.06676 248
11.08688 261
11.10699 273
11.1271 238
11.14722 294
11.16733 281
11.18745 242
11.20756 283
11.22767 272
11.24779 288
11.2679 283
11.28801 251
11.30813 294
11.32824 308
11.34836 266
11.36847 263
11.38858 276
11.4087 239
11.42881 266
11.44892 262
11.46904 266
11.48915 266
11.50927 315
11.52938 275
11.54949 286
11.56961 278
11.58972 297
11.60983 276
11.62995 308
11.65006 284
11.67017 300
11.69029 301
11.7104 264
11.73052 255
11.75063 286
11.77074 321
11.79086 290
11.81097 312
11.83108 312
11.8512 311
11.87131 296
11.89143 285
11.91154 309
11.93165 282
11.95177 319
11.97188 319
11.99199 276
12.01211 324
12.03222 331
12.05234 349
12.07245 298
12.09256 312
12.11268 341
12.13279 313
12.1529 289
12.17302 340
12.19313 384
12.21324 391
12.23336 353
12.25347 380
12.27359 375
12.2937 437
12.31381 362
12.33393 380
12.35404 373
12.37415 385
12.39427 359
12.41438 369
12.4345 358
12.45461 395
12.47472 336
12.49484 338
12.51495 339
12.53506 323
12.55518 323
12.57529 296
12.5954 304
12.61552 298
12.63563 278
12.65575 323
12.67586 268
12.69597 280
12.71609 267
12.7362 249
12.75631 269
12.77643 298
12.79654 268
12.81666 294
12.83677 285
12.85688 261
12.877 257
12.89711 269
12.91722 258
12.93734 260
12.95745 251
12.97757 256
12.99768 263
13.01779 263
13.03791 242
13.05802 235
13.07813 259
13.09825 247
13.11836 271
13.13847 240
13.15859 203
13.1787 237
13.19882 240
13.21893 257
13.23904 288
13.25916 290
13.27927 268
13.29938 252
13.3195 266
13.33961 257
13.35973 280
13.37984 268
13.39995 250
13.42007 274
13.44018 261
13.46029 270
13.48041 273
13.50052 260
13.52064 290
13.54075 292
13.56086 241
13.58098 241
13.60109 268
13.6212 242
13.64132 248
13.66143 234
13.68154 247
13.70166 269
13.72177 255
13.74189 256
13.762 278
13.78211 278
13.80223 266
13.82234 261
13.84245 299
13.86257 294
13.88268 248
13.9028 252
13.92291 244
13.94302 261
13.96314 270
13.98325 254
14.00336 258
14.02348 264
14.04359 255
14.06371 229
14.08382 255
14.10393 269
14.12405 267
14.14416 248
14.16427 226
14.18439 231
14.2045 252
14.22461 231
14.24473 240
14.26484 249
14.28496 235
14.30507 268
14.32518 252
14.3453 235
14.36541 251
14.38552 262
14.40564 250
14.42575 234
14.44587 212
14.46598 250
14.48609 257
14.50621 233
14.52632 240
14.54643 224
14.56655 219
14.58666 216
14.60677 229
14.62689 242
14.647 212
14.66712 253
14.68723 248
14.70734 250
14.72746 220
14.74757 220
14.76768 243
14.7878 236
14.80791 225
14.82803 275
14.84814 239
14.86825 252
14.88837 243
14.90848 247
14.92859 251
14.94871 237
14.96882 250
14.98894 242
15.00905 232
15.02916 262
15.04928 233
15.06939 234
15.0895 251
15.10962 239
15.12973 239
15.14984 210
15.16996 226
15.19007 211
15.21019 241
15.2303 224
15.25041 221
15.27053 230
15.29064 251
15.31075 222
15.33087 243
15.35098 234
15.3711 240
15.39121 231
15.41132 229
15.43144 230
15.45155 238
15.47166 247
15.49178 245
15.51189 212
15.53201 220
15.55212 245
15.57223 241
15.59235 213
15.61246 236
15.63257 265
15.65269 245
15.6728 230
15.69291 218
15.71303 222
15.73314 234
15.75326 242
15.77337 231
15.79348 238
15.8136 218
15.83371 218
15.85382 246
15.87394 235
15.89405 230
15.91417 222
15.93428 251
15.95439 210
15.97451 201
15.99462 230
16.01473 248
16.03485 234
16.05496 237
16.07508 235
16.09519 245
16.1153 221
16.13542 236
16.15553 235
16.17564 209
16.19576 236
16.21587 237
16.23598 232
16.2561 238
16.27621 237
16.29633 222
16.31644 237
16.33655 286
16.35667 240
16.37678 230
16.39689 235
16.41701 218
16.43712 214
16.45724 239
16.47735 212
16.49746 232
16.51758 232
16.53769 266
16.5578 244
16.57792 232
16.59803 270
16.61814 250
16.63826 247
16.65837 237
16.67849 226
16.6986 234
16.71871 259
16.73883 211
16.75894 220
16.77905 230
16.79917 213
16.81928 214
16.8394 247
16.85951 238
16.87962 270
16.89974 268
16.91985 232
16.93996 231
16.96008 230
16.98019 258
17.00031 247
17.02042 242
17.04053 212
17.06065 257
17.08076 230
17.10087 228
17.12099 220
17.1411 239
17.16121 237
17.18133 245
17.20144 227
17.22156 247
17.24167 239
17.26178 252
17.2819 240
17.30201 278
17.32212 238
17.34224 240
17.36235 243
17.38247 259
17.40258 250
17.42269 255
17.44281 261
17.46292 235
17.48303 210
17.50315 238
17.52326 260
17.54338 256
17.56349 269
17.5836 270
17.60372 266
17.62383 233
17.64394 258
17.66406 233
17.68417 278
17.70428 247
17.7244 248
17.74451 264
17.76463 312
17.78474 264
17.80485 281
17.82497 281
17.84508 267
17.86519 289
17.88531 277
17.90542 282
17.92554 237
17.94565 280
17.96576 240
17.98588 266
18.00599 262
18.0261 285
18.04622 249
18.06633 261
18.08645 244
18.10656 250
18.12667 242
18.14679 231
18.1669 259
18.18701 243
18.20713 276
18.22724 261
18.24735 247
18.26747 226
18.28758 256
18.3077 242
18.32781 270
18.34792 224
18.36804 259
18.38815 250
18.40826 241
18.42838 247
18.44849 238
18.46861 273
18.48872 257
18.50883 249
18.52895 242
18.54906 259
18.56917 236
18.58929 219
18.6094 254
18.62951 244
18.64963 262
18.66974 268
18.68986 244
18.70997 260
18.73008 251
18.7502 254
18.77031 258
18.79042 266
18.81054 242
18.83065 266
18.85077 265
18.87088 255
18.89099 265
18.91111 234
18.93122 244
18.95133 265
18.97145 255
18.99156 256
19.01168 277
19.03179 257
19.0519 233
19.07202 267
19.09213 274
19.11224 270
19.13236 261
19.15247 259
19.17258 291
19.1927 260
19.21281 299
19.23293 271
19.25304 270
19.27315 256
19.29327 238
19.31338 294
19.33349 283
19.35361 280
19.37372 269
19.39384 272
19.41395 242
19.43406 268
19.45418 285
19.47429 269
19.4944 309
19.51452 284
19.53463 312
19.55475 271
19.57486 321
19.59497 282
19.61509 334
19.6352 353
19.65531 339
19.67543 354
19.69554 407
19.71565 399
19.73577 459
19.75588 491
19.776 479
19.79611 544
19.81622 557
19.83634 596
19.85645 558
19.87656 562
19.89668 555
19.91679 559
19.93691 589
19.95702 527
19.97713 527
19.99725 511
20.01736 472
20.03747 472
20.05759 461
20.0777 449
20.09782 469
20.11793 488
20.13804 517
20.15816 487
20.17827 452
20.19838 488
20.2185 455
20.23861 476
20.25872 457
20.27884 473
20.29895 461
20.31907 475
20.33918 458
20.35929 471
20.37941 456
20.39952 497
20.41963 498
20.43975 512
20.45986 545
20.47998 519
20.50009 547
20.5202 576
20.54032 599
20.56043 577
20.58054 663
20.60066 707
20.62077 693
20.64088 823
20.661 916
20.68111 1065
20.70123 1330
20.72134 1636
20.74145 2218
20.76157 3031
20.78168 4004
20.80179 4993
20.82191 6236
20.84202 6914
20.86214 7005
20.88225 6407
20.90236 5237
20.92248 4006
20.94259 2523
20.9627 1865
20.98282 1261
21.00293 901
21.02305 817
21.04316 756
21.06327 727
21.08339 687
21.1035 594
21.12361 588
21.14373 562
21.16384 568
21.18395 549
21.20407 489
21.22418 491
21.2443 455
21.26441 440
21.28452 480
21.30464 451
21.32475 444
21.34486 427
21.36498 453
21.38509 436
21.40521 463
21.42532 412
21.44543 442
21.46555 462
21.48566 414
21.50577 455
21.52589 420
21.546 412
21.56612 403
21.58623 423
21.60634 408
21.62646 375
21.64657 425
21.66668 399
21.6868 410
21.70691 374
21.72702 380
21.74714 359
21.76725 362
21.78737 409
21.80748 371
21.82759 375
21.84771 385
21.86782 367
21.88793 347
21.90805 363
21.92816 380
21.94828 362
21.96839 354
21.9885 354
22.00862 401
22.02873 388
22.04884 335
22.06896 375
22.08907 377
22.10919 352
22.1293 409
22.14941 377
22.16953 345
22.18964 376
22.20975 351
22.22987 378
22.24998 378
22.27009 335
22.29021 370
22.31032 375
22.33044 368
22.35055 395
22.37066 375
22.39078 355
22.41089 341
22.431 367
22.45112 367
22.47123 376
22.49135 340
22.51146 339
22.53157 352
22.55169 346
22.5718 328
22.59191 392
22.61203 322
22.63214 343
22.65225 347
22.67237 386
22.69248 343
22.7126 337
22.73271 333
22.75282 357
22.77294 330
22.79305 365
22.81316 352
22.83328 349
22.85339 370
22.87351 380
22.89362 383
22.91373 365
22.93385 392
22.95396 369
22.97407 368
22.99419 390
23.0143 338
23.03442 318
23.05453 335
23.07464 376
23.09476 337
23.11487 374
23.13498 316
23.1551 352
23.17521 353
23.19532 334
23.21544 348
23.23555 369
23.25567 342
23.27578 307
23.29589 343
23.31601 318
23.33612 324
23.35623 336
23.37635 336
23.39646 330
23.41658 322
23.43669 311
23.4568 316
23.47692 329
23.49703 350
23.51714 308
23.53726 349
23.55737 334
23.57749 320
23.5976 351
23.61771 372
23.63783 341
23.65794 335
23.67805 365
23.69817 359
23.71828 363
23.73839 358
23.75851 332
23.77862 381
23.79874 379
23.81885 346
23.83896 391
23.85908 401
23.87919 390
23.8993 409
23.91942 404
23.93953 416
23.95965 391
23.97976 431
23.99987 435
24.01999 395
24.0401 406
24.06021 398
24.08033 360
24.10044 363
24.12056 375
24.14067 373
24.16078 352
24.1809 342
24.20101 355
24.22112 334
24.24124 378
24.26135 347
24.28146 334
24.30158 370
24.32169 325
24.34181 343
24.36192 294
24.38203 346
24.40215 340
24.42226 328
24.44237 353
24.46249 332
24.4826 325
24.50272 314
24.52283 345
24.54294 361
24.56306 374
24.58317 332
24.60328 370
24.6234 354
24.64351 360
24.66362 389
24.68374 369
24.70385 414
24.72397 367
24.74408 361
24.76419 338
24.78431 399
24.80442 366
24.82453 409
24.84465 395
24.86476 421
24.88488 422
24.90499 410
24.9251 412
24.94522 443
24.96533 390
24.98544 423
25.00556 391
25.02567 427
25.04579 402
25.0659 397
25.08601 382
25.10613 401
25.12624 416
25.14635 417
25.16647 378
25.18658 408
25.20669 408
25.22681 421
25.24692 427
25.26704 472
25.28715 435
25.30726 451
25.32738 412
25.34749 415
25.3676 451
25.38772 399
25.40783 424
25.42795 406
25.44806 418
25.46817 481
25.48829 454
25.5084 442
25.52851 434
25.54863 470
25.56874 457
25.58886 481
25.60897 496
25.62908 457
25.6492 498
25.66931 527
25.68942 491
25.70954 510
25.72965 521
25.74976 507
25.76988 556
25.78999 524
25.81011 539
25.83022 561
25.85033 537
25.87045 530
25.89056 573
25.91067 611
25.93079 618
25.9509 563
25.97102 604
25.99113 607
26.01124 625
26.03136 670
26.05147 699
26.07158 731
26.0917 688
26.11181 755
26.13193 797
26.15204 821
26.17215 928
26.19227 1002
26.21238 999
26.23249 1095
26.25261 1161
26.27272 1188
26.29283 1320
26.31295 1424
26.33306 1638
26.35318 1749
26.37329 1941
26.3934 2446
26.41352 2733
26.43363 3462
26.45374 4337
26.47386 5568
26.49397 7511
26.51409 10024
26.5342 13306
26.55431 17707
26.57443 22743
26.59454 27453
26.61465 30888
26.63477 31779
26.65488 29509
26.67499 24087
26.69511 18458
26.71522 13818
26.73534 9588
26.75545 6022
26.77556 3712
26.79568 2728
26.81579 2151
26.8359 1847
26.85602 1618
26.87613 1455
26.89625 1388
26.91636 1299
26.93647 1178
26.95659 1023
26.9767 1086
26.99681 953
27.01693 859
27.03704 858
27.05716 769
27.07727 741
27.09738 706
27.1175 716
27.13761 675
27.15772 638
27.17784 607
27.19795 608
27.21806 570
27.23818 552
27.25829 574
27.27841 581
27.29852 611
27.31863 572
27.33875 610
27.35886 633
27.37897 619
27.39909 689
27.4192 733
27.43932 673
27.45943 664
27.47954 687
27.49966 667
27.51977 570
27.53988 562
27.56 504
27.58011 481
27.60023 463
27.62034 449
27.64045 431
27.66057 475
27.68068 424
27.70079 437
27.72091 458
27.74102 451
27.76113 455
27.78125 426
27.80136 457
27.82148 462
27.84159 468
27.8617 423
27.88182 435
27.90193 438
27.92204 412
27.94216 464
27.96227 398
27.98239 417
28.0025 394
28.02261 372
28.04273 394
28.06284 411
28.08295 376
28.10307 372
28.12318 378
28.1433 377
28.16341 355
28.18352 373
28.20364 355
28.22375 395
28.24386 339
28.26398 338
28.28409 320
28.3042 369
28.32432 365
28.34443 336
28.36455 345
28.38466 371
28.40477 335
28.42489 346
28.445 342
28.46511 349
28.48523 355
28.50534 337
28.52546 331
28.54557 352
28.56568 317
28.5858 358
28.60591 353
28.62602 318
28.64614 311
28.66625 318
28.68636 332
28.70648 327
28.72659 347
28.74671 319
28.76682 368
28.78693 312
28.80705 338
28.82716 323
28.84727 309
28.86739 310
28.8875 310
28.90762 351
28.92773 291
28.94784 313
28.96796 323
28.98807 306
29.00818 307
29.0283 306
29.04841 329
29.06853 320
29.08864 333
29.10875 337
29.12887 319
29.14898 310
29.16909 290
29.18921 294
29.20932 326
29.22943 331
29.24955 285
29.26966 347
29.28978 280
29.30989 303
29.33 276
29.35012 351
29.37023 313
29.39034 315
29.41046 325
29.43057 349
29.45069 340
29.4708 312
29.49091 319
29.51103 327
29.53114 297
29.55125 303
29.57137 307
29.59148 296
29.6116 328
29.63171 294
29.65182 299
29.67194 302
29.69205 326
29.71216 330
29.73228 325
29.75239 295
29.7725 300
29.79262 315
29.81273 339
29.83285 349
29.85296 344
29.87307 364
29.89319 294
29.9133 354
29.93341 307
29.95353 307
29.97364 339
29.99376 302
30.01387 315
30.03398 307
30.0541 324
30.07421 295
30.09432 324
30.11444 354
30.13455 351
30.15467 331
30.17478 345
30.19489 344
30.21501 329
30.23512 317
30.25523 285
30.27535 293
30.29546 293
30.31557 311
30.33569 275
30.3558 286
30.37592 268
30.39603 306
30.41614 294
30.43626 297
30.45637 290
30.47648 278
30.4966 281
30.51671 281
30.53683 255
30.55694 278
30.57705 285
30.59717 283
30.61728 291
30.63739 275
30.65751 281
30.67762 309
30.69773 306
30.71785 279
30.73796 319
30.75808 305
30.77819 294
30.7983 309
30.81842 299
30.83853 288
30.85864 308
30.87876 286
30.89887 282
30.91899 281
30.9391 301
30.95921 284
30.97933 292
30.99944 305
31.01955 269
31.03967 308
31.05978 275
31.0799 294
31.10001 322
31.12012 279
31.14024 297
31.16035 324
31.18046 299
31.20058 297
31.22069 322
31.2408 310
31.26092 278
31.28103 270
31.30115 307
31.32126 294
31.34137 263
31.36149 274
31.3816 298
31.40171 258
31.42183 297
31.44194 270
31.46206 286
31.48217 261
31.50228 287
31.5224 257
31.54251 284
31.56262 266
31.58274 307
31.60285 260
31.62297 259
31.64308 252
31.66319 235
31.68331 249
31.70342 285
31.72353 274
31.74365 251
31.76376 294
31.78387 278
31.80399 257
31.8241 240
31.84422 229
31.86433 249
31.88444 277
31.90456 275
31.92467 265
31.94478 305
31.9649 245
31.98501 268
32.00513 253
32.02524 288
32.04535 249
32.06547 290
32.08558 305
32.10569 278
32.12581 277
32.14592 280
32.16604 235
32.18615 268
32.20626 303
32.22638 291
32.24649 274
32.2666 270
32.28672 264
32.30683 268
32.32694 260
32.34706 274
32.36717 244
32.38729 267
32.4074 260
32.42751 285
32.44763 264
32.46774 290
32.48785 276
32.50797 247
32.52808 283
32.5482 267
32.56831 256
32.58842 273
32.60854 267
32.62865 280
32.64876 260
32.66888 279
32.68899 273
32.7091 276
32.72922 260
32.74933 250
32.76945 272
32.78956 253
32.80967 252
32.82979 276
32.8499 278
32.87001 268
32.89013 282
32.91024 255
32.93036 283
32.95047 271
32.97058 269
32.9907 270
33.01081 258
33.03092 275
33.05104 253
33.07115 252
33.09127 302
33.11138 295
33.13149 276
33.15161 291
33.17172 241
33.19183 270
33.21195 254
33.23206 299
33.25217 239
33.27229 246
33.2924 258
33.31252 277
33.33263 271
33.35274 271
33.37286 250
33.39297 258
33.41308 244
33.4332 232
33.45331 267
33.47343 267
33.49354 237
33.51365 227
33.53377 226
33.55388 264
33.57399 247
33.59411 242
33.61422 232
33.63434 244
33.65445 229
33.67456 232
33.69468 230
33.71479 234
33.7349 214
33.75502 265
33.77513 229
33.79524 237
33.81536 230
33.83547 235
33.85559 248
33.8757 265
33.89581 250
33.91593 268
33.93604 253
33.95615 227
33.97627 242
33.99638 252
34.0165 240
34.03661 256
34.05672 249
34.07684 251
34.09695 236
34.11706 254
34.13718 277
34.15729 243
34.17741 247
34.19752 283
34.21763 254
34.23775 284
34.25786 272
34.27797 267
34.29809 239
34.3182 252
34.33831 261
34.35843 260
34.37854 273
34.39866 275
34.41877 298
34.43888 269
34.459 286
34.47911 282
34.49922 290
34.51934 325
34.53945 342
34.55957 345
34.57968 322
34.59979 343
34.61991 363
34.64002 341
34.66013 381
34.68025 337
34.70036 379
34.72047 373
34.74059 366
34.7607 389
34.78082 388
34.80093 370
34.82104 397
34.84116 407
34.86127 416
34.88138 427
34.9015 445
34.92161 469
34.94173 442
34.96184 466
34.98195 480
35.00207 485
35.02218 475
35.04229 446
35.06241 436
35.08252 422
35.10264 349
35.12275 394
35.14286 383
35.16298 349
35.18309 351
35.2032 376
35.22332 309
35.24343 350
35.26354 347
35.28366 318
35.30377 309
35.32389 307
35.344 285
35.36411 321
35.38423 326
35.40434 318
35.42445 335
35.44457 298
35.46468 312
35.4848 310
35.50491 325
35.52502 323
35.54514 366
35.56525 318
35.58536 313
35.60548 320
35.62559 325
35.64571 316
35.66582 282
35.68593 306
35.70605 336
35.72616 322
35.74627 335
35.76639 350
35.7865 319
35.80661 325
35.82673 364
35.84684 343
35.86696 341
35.88707 327
35.90718 328
35.9273 336
35.94741 363
35.96752 383
35.98764 327
36.00775 345
36.02787 359
36.04798 360
36.06809 378
36.08821 346
36.10832 368
36.12843 389
36.14855 376
36.16866 379
36.18878 360
36.20889 353
36.229 417
36.24912 441
36.26923 417
36.28934 497
36.30946 479
36.32957 597
36.34968 617
36.3698 742
36.38991 902
36.41003 1093
36.43014 1269
36.45025 1631
36.47037 1789
36.49048 2035
36.51059 2267
36.53071 2368
36.55082 2061
36.57094 1832
36.59105 1545
36.61116 1324
36.63128 1224
36.65139 1047
36.6715 760
36.69162 572
36.71173 488
36.73184 477
36.75196 434
36.77207 359
36.79219 400
36.8123 406
36.83241 383
36.85253 337
36.87264 318
36.89275 323
36.91287 351
36.93298 363
36.9531 290
36.97321 313
36.99332 298
37.01344 294
37.03355 288
37.05366 313
37.07378 271
37.09389 316
37.11401 263
37.13412 285
37.15423 290
37.17435 278
37.19446 294
37.21457 257
37.23469 279
37.2548 274
37.27491 267
37.29503 262
37.31514 243
37.33526 279
37.35537 252
37.37548 289
37.3956 267
37.41571 279
37.43582 301
37.45594 288
37.47605 293
37.49617 293
37.51628 287
37.53639 296
37.55651 298
37.57662 272
37.59673 311
37.61685 299
37.63696 316
37.65708 337
37.67719 319
37.6973 318
37.71742 313
37.73753 293
37.75764 276
37.77776 305
37.79787 302
37.81798 298
37.8381 338
37.85821 286
37.87833 286
37.89844 258
37.91855 280
37.93867 281
37.95878 288
37.97889 275
37.99901 282
38.01912 265
38.03924 270
38.05935 281
38.07946 288
38.09958 273
38.11969 312
38.1398 299
38.15992 289
38.18003 291
38.20015 293
38.22026 288
38.24037 287
38.26049 294
38.2806 296
38.30071 319
38.32083 298
38.34094 276
38.36105 286
38.38117 293
38.40128 314
38.4214 332
38.44151 319
38.46162 334
38.48174 292
38.50185 319
38.52196 337
38.54208 272
38.56219 276
38.58231 283
38.60242 264
38.62253 280
38.64265 291
38.66276 287
38.68287 284
38.70299 308
38.7231 274
38.74321 287
38.76333 276
38.78344 290
38.80356 289
38.82367 299
38.84378 268
38.8639 282
38.88401 285
38.90412 291
38.92424 289
38.94435 313
38.96447 305
38.98458 299
39.00469 268
39.02481 293
39.04492 325
39.06503 335
39.08515 336
39.10526 325
39.12538 375
39.14549 340
39.1656 411
39.18572 433
39.20583 439
39.22594 462
39.24606 523
39.26617 583
39.28628 667
39.3064 771
39.32651 910
39.34663 1136
39.36674 1315
39.38685 1598
39.40697 1818
39.42708 1939
39.44719 2064
39.46731 1987
39.48742 1691
39.50754 1416
39.52765 1282
39.54776 1148
39.56788 1016
39.58799 839
39.6081 577
39.62822 501
39.64833 416
39.66845 345
39.68856 346
39.70867 337
39.72879 340
39.7489 342
39.76901 321
39.78913 279
39.80924 309
39.82935 322
39.84947 301
39.86958 306
39.8897 318
39.90981 334
39.92992 333
39.95004 323
39.97015 334
39.99026 329
40.01038 390
40.03049 379
40.05061 383
40.07072 412
40.09083 470
40.11095 500
40.13106 545
40.15117 620
40.17129 698
40.1914 760
40.21152 883
40.23163 1032
40.25174 1145
40.27186 1140
40.29197 1120
40.31208 956
40.3322 826
40.35231 761
40.37242 692
40.39254 631
40.41265 537
40.43277 390
40.45288 362
40.47299 329
40.49311 312
40.51322 307
40.53333 307
40.55345 306
40.57356 258
40.59368 298
40.61379 266
40.6339 271
40.65402 248
40.67413 276
40.69424 241
40.71436 246
40.73447 270
40.75458 245
40.7747 281
40.79481 263
40.81493 284
40.83504 291
40.85515 265
40.87527 292
40.89538 273
40.91549 267
40.93561 274
40.95572 273
40.97584 282
40.99595 251
41.01606 253
41.03618 248
41.05629 250
41.0764 310
41.09652 273
41.11663 277
41.13675 280
41.15686 263
41.17697 267
41.19709 276
41.2172 282
41.23731 274
41.25743 306
41.27754 288
41.29765 266
41.31777 268
41.33788 269
41.358 265
41.37811 241
41.39822 269
41.41834 251
41.43845 260
41.45856 248
41.47868 256
41.49879 252
41.51891 265
41.53902 244
41.55913 251
41.57925 291
41.59936 274
41.61947 258
41.63959 264
41.6597 268
41.67982 269
41.69993 289
41.72004 285
41.74016 281
41.76027 280
41.78038 290
41.8005 289
41.82061 281
41.84072 257
41.86084 270
41.88095 275
41.90107 282
41.92118 272
41.94129 278
41.96141 295
41.98152 278
42.00163 285
42.02175 290
42.04186 318
42.06198 287
42.08209 309
42.1022 314
42.12232 335
42.14243 362
42.16254 402
42.18266 389
42.20277 398
42.22289 417
42.243 500
42.26311 541
42.28323 667
42.30334 718
42.32345 913
42.34357 1002
42.36368 1164
42.38379 1381
42.40391 1442
42.42402 1515
42.44414 1473
42.46425 1253
42.48436 1130
42.50448 998
42.52459 888
42.5447 836
42.56482 738
42.58493 553
42.60505 497
42.62516 391
42.64527 319
42.66539 306
42.6855 305
42.70561 314
42.72573 309
42.74584 282
42.76595 258
42.78607 260
42.80618 248
42.8263 278
42.84641 238
42.86652 238
42.88664 235
42.90675 252
42.92686 230
42.94698 240
42.96709 240
42.98721 223
43.00732 249
43.02743 226
43.04755 224
43.06766 207
43.08777 243
43.10789 238
43.128 249
43.14812 225
43.16823 228
43.18834 226
43.20846 224
43.22857 234
43.24868 226
43.2688 206
43.28891 216
43.30902 212
43.32914 208
43.34925 204
43.36937 234
43.38948 236
43.40959 216
43.42971 229
43.44982 238
43.46993 239
43.49005 234
43.51016 222
43.53028 228
43.55039 208
43.5705 219
43.59062 239
43.61073 220
43.63084 238
43.65096 240
43.67107 213
43.69119 231
43.7113 212
43.73141 225
43.75153 215
43.77164 235
43.79175 215
43.81187 233
43.83198 207
43.85209 230
43.87221 243
43.89232 213
43.91244 220
43.93255 245
43.95266 242
43.97278 206
43.99289 238
44.013 254
44.03312 240
44.05323 224
44.07335 221
44.09346 202
44.11357 252
44.13369 223
44.1538 198
44.17391 248
44.19403 208
44.21414 270
44.23426 240
44.25437 243
44.27448 211
44.2946 239
44.31471 222
44.33482 237
44.35494 220
44.37505 224
44.39516 231
44.41528 217
44.43539 232
44.45551 226
44.47562 235
44.49573 221
44.51585 237
44.53596 229
44.55607 232
44.57619 209
44.5963 253
44.61642 257
44.63653 238
44.65664 219
44.67676 202
44.69687 220
44.71698 230
44.7371 220
44.75721 236
44.77732 236
44.79744 204
44.81755 267
44.83767 234
44.85778 252
44.87789 232
44.89801 232
44.91812 220
44.93823 258
44.95835 224
44.97846 254
44.99858 231
45.01869 239
45.0388 245
45.05892 232
45.07903 242
45.09914 230
45.11926 239
45.13937 246
45.15949 225
45.1796 239
45.19971 251
45.21983 247
45.23994 232
45.26005 262
45.28017 265
45.30028 279
45.32039 248
45.34051 239
45.36062 309
45.38074 265
45.40085 304
45.42096 282
45.44108 305
45.46119 290
45.4813 307
45.50142 338
45.52153 344
45.54165 358
45.56176 395
45.58187 403
45.60199 477
45.6221 492
45.64221 567
45.66233 649
45.68244 734
45.70256 839
45.72267 921
45.74278 964
45.7629 1092
45.78301 998
45.80312 941
45.82324 838
45.84335 697
45.86346 660
45.88358 638
45.90369 587
45.92381 487
45.94392 458
45.96403 367
45.98415 339
46.00426 289
46.02437 260
46.04449 281
46.0646 269
46.08472 240
46.10483 263
46.12494 237
46.14506 282
46.16517 255
46.18528 272
46.2054 255
46.22551 230
46.24563 236
46.26574 235
46.28585 231
46.30597 231
46.32608 258
46.34619 223
46.36631 257
46.38642 219
46.40653 236
46.42665 218
46.44676 209
46.46688 222
46.48699 214
46.5071 217
46.52722 197
46.54733 240
46.56744 216
46.58756 220
46.60767 225
46.62779 218
46.6479 250
46.66801 235
46.68813 202
46.70824 220
46.72835 234
46.74847 221
46.76858 204
46.78869 208
46.80881 214
46.82892 232
46.84904 218
46.86915 224
46.88926 211
46.90938 226
46.92949 208
46.9496 203
46.96972 199
46.98983 223
47.00995 248
47.03006 208
47.05017 256
47.07029 196
47.0904 213
47.11051 231
47.13063 251
47.15074 224
47.17086 217
47.19097 219
47.21108 229
47.2312 243
47.25131 215
47.27142 207
47.29154 223
47.31165 243
47.33176 211
47.35188 202
47.37199 233
47.39211 228
47.41222 198
47.43233 208
47.45245 190
47.47256 226
47.49267 216
47.51279 202
47.5329 206
47.55302 217
47.57313 197
47.59324 214
47.61336 191
47.63347 187
47.65358 227
47.6737 208
47.69381 208
47.71393 211
47.73404 210
47.75415 213
47.77427 218
47.79438 208
47.81449 230
47.83461 232
47.85472 208
47.87483 216
47.89495 199
47.91506 214
47.93518 225
47.95529 211
47.9754 206
47.99552 222
48.01563 214
48.03574 228
48.05586 237
48.07597 249
48.09609 226
48.1162 210
48.13631 185
48.15643 196
48.17654 214
48.19665 200
48.21677 225
48.23688 186
48.257 229
48.27711 254
48.29722 214
48.31734 237
48.33745 222
48.35756 204
48.37768 214
48.39779 231
48.4179 198
48.43802 213
48.45813 223
48.47825 223
48.49836 223
48.51847 217
48.53859 220
48.5587 235
48.57881 221
48.59893 235
48.61904 201
48.63916 213
48.65927 230
48.67938 221
48.6995 228
48.71961 221
48.73972 197
48.75984 232
48.77995 237
48.80006 229
48.82018 221
48.84029 228
48.86041 236
48.88052 213
48.90063 206
48.92075 242
48.94086 224
48.96097 210
48.98109 222
49.0012 230
49.02132 233
49.04143 244
49.06154 236
49.08166 242
49.10177 223
49.12188 200
49.142 246
49.16211 226
49.18223 244
49.20234 247
49.22245 239
49.24257 237
49.26268 239
49.28279 235
49.30291 244
49.32302 231
49.34313 213
49.36325 258
49.38336 241
49.40348 256
49.42359 243
49.4437 252
49.46382 266
49.48393 262
49.50404 275
49.52416 273
49.54427 277
49.56439 263
49.5845 280
49.60461 257
49.62473 298
49.64484 268
49.66495 312
49.68507 301
49.70518 366
49.7253 341
49.74541 345
49.76552 349
49.78564 388
49.80575 446
49.82586 490
49.84598 541
49.86609 607
49.8862 682
49.90632 725
49.92643 860
49.94655 977
49.96666 1147
49.98677 1410
50.00689 1770
50.027 2045
50.04711 2310
50.06723 2729
50.08734 3049
50.10746 3050
50.12757 2895
50.14768 2592
50.1678 2193
50.18791 1885
50.20802 1806
50.22814 1734
50.24825 1484
50.26837 1390
50.28848 1123
50.30859 843
50.32871 638
50.34882 530
50.36893 423
50.38905 390
50.40916 405
50.42927 348
50.44939 335
50.4695 356
50.48962 334
50.50973 341
50.52984 319
50.54996 361
50.57007 318
50.59018 350
50.6103 344
50.63041 300
50.65053 286
50.67064 283
50.69075 274
50.71087 311
50.73098 257
50.75109 268
50.77121 250
50.79132 255
50.81143 231
50.83155 253
50.85166 262
50.87178 239
50.89189 213
50.912 256
50.93212 254
50.95223 219
50.97234 213
50.99246 218
51.01257 241
51.03269 228
51.0528 238
51.07291 214
51.09303 195
51.11314 224
51.13325 221
51.15337 199
51.17348 209
51.1936 212
51.21371 223
51.23382 228
51.25394 193
51.27405 208
51.29416 203
51.31428 226
51.33439 237
51.3545 234
51.37462 205
51.39473 187
51.41485 207
51.43496 218
51.45507 202
51.47519 215
51.4953 208
51.51541 175
51.53553 227
51.55564 227
51.57576 204
51.59587 198
51.61598 201
51.6361 198
51.65621 234
51.67632 208
51.69644 196
51.71655 204
51.73667 194
51.75678 237
51.77689 190
51.79701 209
51.81712 196
51.83723 194
51.85735 208
51.87746 207
51.89757 216
51.91769 172
51.9378 187
51.95792 180
51.97803 191
51.99814 203
52.01826 181
52.03837 207
52.05848 205
52.0786 199
52.09871 195
52.11883 213
52.13894 204
52.15905 183
52.17917 198
52.19928 211
52.21939 206
52.23951 213
52.25962 207
52.27974 215
52.29985 213
52.31996 187
52.34008 209
52.36019 198
52.3803 207
52.40042 216
52.42053 232
52.44064 209
52.46076 206
52.48087 211
52.50099 208
52.5211 199
52.54121 207
52.56133 207
52.58144 213
52.60155 181
52.62167 216
52.64178 219
52.6619 215
52.68201 209
52.70212 220
52.72224 229
52.74235 207
52.76246 211
52.78258 225
52.80269 222
52.8228 222
52.84292 210
52.86303 171
52.88315 238
52.90326 199
52.92337 219
52.94349 197
52.9636 247
52.98371 224
53.00383 236
53.02394 239
53.04406 206
53.06417 208
53.08428 271
53.1044 239
53.12451 215
53.14462 218
53.16474 244
53.18485 238
53.20497 211
53.22508 213
53.24519 229
53.26531 205
53.28542 215
53.30553 207
53.32565 233
53.34576 215
53.36587 254
53.38599 230
53.4061 234
53.42622 245
53.44633 219
53.46644 240
53.48656 245
53.50667 253
53.52678 209
53.5469 250
53.56701 243
53.58713 200
53.60724 243
53.62735 230
53.64747 221
53.66758 239
53.68769 249
53.70781 224
53.72792 250
53.74804 222
53.76815 219
53.78826 244
53.80838 240
53.82849 244
53.8486 231
53.86872 239
53.88883 233
53.90894 265
53.92906 246
53.94917 231
53.96929 207
53.9894 251
54.00951 254
54.02963 262
54.04974 243
54.06985 254
54.08997 261
54.11008 270
54.1302 251
54.15031 266
54.17042 270
54.19054 237
54.21065 287
54.23076 276
54.25088 275
54.27099 261
54.29111 310
54.31122 265
54.33133 258
54.35145 255
54.37156 280
54.39167 259
54.41179 255
54.4319 272
54.45201 297
54.47213 276
54.49224 293
54.51236 278
54.53247 317
54.55258 293
54.5727 327
54.59281 353
54.61292 365
54.63304 381
54.65315 449
54.67327 455
54.69338 522
54.71349 566
54.73361 644
54.75372 765
54.77383 832
54.79395 869
54.81406 967
54.83417 1006
54.85429 1001
54.8744 961
54.89452 823
54.91463 757
54.93474 617
54.95486 675
54.97497 658
54.99508 625
55.0152 604
55.03531 559
55.05543 490
55.07554 432
55.09565 406
55.11577 387
55.13588 416
55.15599 396
55.17611 414
55.19622 453
55.21634 533
55.23645 540
55.25656 599
55.27668 577
55.29679 589
55.3169 570
55.33702 549
55.35713 469
55.37724 413
55.39736 397
55.41747 400
55.43759 430
55.4577 423
55.47781 383
55.49793 353
55.51804 294
55.53815 269
55.55827 232
55.57838 251
55.5985 248
55.61861 251
55.63872 248
55.65884 263
55.67895 258
55.69906 248
55.71918 269
55.73929 286
55.75941 247
55.77952 222
55.79963 253
55.81975 249
55.83986 223
55.85997 227
55.88009 228
55.9002 226
55.92031 250
55.94043 269
55.96054 243
55.98066 250
56.00077 249
56.02088 235
56.041 221
56.06111 209
56.08122 203
56.10134 213
56.12145 227
56.14157 205
56.16168 221
56.18179 214
56.20191 239
56.22202 210
56.24213 239
56.26225 211
56.28236 228
56.30248 226
56.32259 198
56.3427 227
56.36282 219
56.38293 211
56.40304 239
56.42316 220
56.44327 196
56.46338 242
56.4835 206
56.50361 217
56.52373 217
56.54384 225
56.56395 233
56.58407 216
56.60418 235
56.62429 214
56.64441 215
56.66452 221
56.68464 248
56.70475 234
56.72486 208
56.74498 224
56.76509 211
56.7852 230
56.80532 205
56.82543 218
56.84554 217
56.86566 222
56.88577 230
56.90589 259
56.926 232
56.94611 215
56.96623 216
56.98634 229
57.00645 236
57.02657 217
57.04668 223
57.0668 233
57.08691 232
57.10702 254
57.12714 245
57.14725 211
57.16736 229
57.18748 229
57.20759 239
57.22771 231
57.24782 232
57.26793 234
57.28805 246
57.30816 250
57.32827 230
57.34839 221
57.3685 225
57.38861 242
57.40873 244
57.42884 215
57.44896 228
57.46907 224
57.48918 206
57.5093 217
57.52941 217
57.54952 193
57.56964 216
57.58975 224
57.60987 200
57.62998 201
57.65009 183
57.67021 234
57.69032 218
57.71043 202
57.73055 219
57.75066 203
57.77078 214
57.79089 194
57.811 214
57.83112 206
57.85123 203
57.87134 216
57.89146 197
57.91157 214
57.93168 210
57.9518 202
57.97191 203
57.99203 206
58.01214 187
58.03225 179
58.05237 200
58.07248 202
58.09259 206
58.11271 209
58.13282 224
58.15294 205
58.17305 209
58.19316 203
58.21328 199
58.23339 217
58.2535 206
58.27362 227
58.29373 190
58.31385 211
58.33396 227
58.35407 220
58.37419 201
58.3943 197
58.41441 227
58.43453 198
58.45464 186
58.47475 199
58.49487 211
58.51498 183
58.5351 195
58.55521 229
58.57532 211
58.59544 214
58.61555 209
58.63566 214
58.65578 186
58.67589 215
58.69601 212
58.71612 226
58.73623 237
58.75635 196
58.77646 198
58.79657 203
58.81669 211
58.8368 218
58.85691 215
58.87703 208
58.89714 232
58.91726 204
58.93737 212
58.95748 195
58.9776 219
58.99771 192
59.01782 214
59.03794 209
59.05805 205
59.07817 209
59.09828 212
59.11839 226
59.13851 214
59.15862 242
59.17873 180
59.19885 217
59.21896 231
59.23908 216
59.25919 232
59.2793 220
59.29942 229
59.31953 210
59.33964 259
59.35976 264
59.37987 250
59.39998 248
59.4201 241
59.44021 256
59.46033 274
59.48044 286
59.50055 309
59.52067 302
59.54078 316
59.56089 323
59.58101 338
59.60112 352
59.62124 402
59.64135 444
59.66146 474
59.68158 466
59.70169 529
59.7218 623
59.74192 726
59.76203 812
59.78215 909
59.80226 1030
59.82237 1249
59.84249 1457
59.8626 1700
59.88271 1745
59.90283 1843
59.92294 1854
59.94305 1741
59.96317 1529
59.98328 1343
60.0034 1155
60.02351 1097
60.04362 1113
60.06374 1037
60.08385 1029
60.10396 896
60.12408 836
60.14419 616
60.16431 506
60.18442 453
60.20453 357
60.22465 320
60.24476 315
60.26487 299
60.28499 279
60.3051 226
60.32522 272
60.34533 269
60.36544 240
60.38556 246
60.40567 235
60.42578 200
60.4459 256
60.46601 243
60.48612 218
60.50624 218
60.52635 214
60.54647 267
60.56658 239
60.58669 238
60.60681 220
60.62692 227
60.64703 255
60.66715 214
60.68726 200
60.70738 212
60.72749 223
60.7476 249
60.76772 213
60.78783 226
60.80794 229
60.82806 221
60.84817 220
60.86828 229
60.8884 228
60.90851 217
60.92863 234
60.94874 196
60.96885 197
60.98897 218
61.00908 202
61.02919 175
61.04931 196
61.06942 224
61.08954 206
61.10965 218
61.12976 193
61.14988 232
61.16999 213
61.1901 182
61.21022 209
61.23033 229
61.25045 227
61.27056 213
61.29067 234
61.31079 227
61.3309 248
61.35101 223
61.37113 202
61.39124 221
61.41135 226
61.43147 208
61.45158 246
61.4717 242
61.49181 236
61.51192 251
61.53204 236
61.55215 240
61.57226 246
61.59238 229
61.61249 245
61.63261 256
61.65272 266
61.67283 266
61.69295 229
61.71306 265
61.73317 248
61.75329 289
61.7734 251
61.79352 246
61.81363 251
61.83374 251
61.85386 284
61.87397 258
61.89408 260
61.9142 240
61.93431 261
61.95442 262
61.97454 251
61.99465 245
62.01477 243
62.03488 259
62.05499 239
62.07511 253
62.09522 247
62.11533 249
62.13545 272
62.15556 226
62.17568 248
62.19579 265
62.2159 226
62.23602 233
62.25613 220
62.27624 248
62.29636 206
62.31647 231
62.33659 236
62.3567 242
62.37681 248
62.39693 219
62.41704 236
62.43715 223
62.45727 214
62.47738 216
62.49749 216
62.51761 235
62.53772 187
62.55784 212
62.57795 213
62.59806 211
62.61818 200
62.63829 221
62.6584 210
62.67852 228
62.69863 216
62.71875 194
62.73886 203
62.75897 239
62.77909 209
62.7992 197
62.81931 196
62.83943 234
62.85954 210
62.87965 220
62.89977 229
62.91988 199
62.94 210
62.96011 198
62.98022 203
63.00034 198
63.02045 214
63.04056 206
63.06068 204
63.08079 202
63.10091 191
63.12102 202
63.14113 210
63.16125 176
63.18136 211
63.20147 193
63.22159 180
63.2417 203
63.26182 198
63.28193 191
63.30204 212
63.32216 199
63.34227 221
63.36238 182
63.3825 204
63.40261 181
63.42272 214
63.44284 197
63.46295 201
63.48307 180
63.50318 204
63.52329 199
63.54341 239
63.56352 204
63.58363 200
63.60375 217
63.62386 239
63.64398 204
63.66409 193
63.6842 200
63.70432 226
63.72443 249
63.74454 241
63.76466 260
63.78477 277
63.80489 287
63.825 274
63.84511 302
63.86523 370
63.88534 340
63.90545 421
63.92557 425
63.94568 463
63.96579 442
63.98591 474
64.00602 485
64.02614 416
64.04625 419
64.06636 399
64.08648 338
64.10659 364
64.1267 344
64.14682 350
64.16693 322
64.18705 350
64.20716 297
64.22727 266
64.24739 245
64.2675 238
64.28761 223
64.30773 218
64.32784 214
64.34796 219
64.36807 201
64.38818 208
64.4083 187
64.42841 199
64.44852 202
64.46864 188
64.48875 205
64.50886 183
64.52898 178
64.54909 193
64.56921 193
64.58932 194
64.60943 187
64.62955 186
64.64966 179
64.66977 199
64.68989 200
64.71 211
64.73012 204
64.75023 184
64.77034 163
64.79046 189
64.81057 180
64.83068 188
64.8508 182
64.87091 200
64.89102 188
64.91114 184
64.93125 193
64.95137 175
64.97148 185
64.99159 197
65.01171 219
65.03182 198
65.05193 215
65.07205 188
65.09216 184
65.11228 172
65.13239 185
65.1525 191
65.17262 189
65.19273 180
65.21284 200
65.23296 165
65.25307 181
65.27319 209
65.2933 216
65.31341 187
65.33353 175
65.35364 195
65.37375 169
65.39387 179
65.41398 201
65.43409 206
65.45421 169
65.47432 201
65.49444 201
65.51455 197
65.53466 206
65.55478 222
65.57489 200
65.595 238
65.61512 207
65.63523 241
65.65535 227
65.67546 263
65.69557 262
65.71569 222
65.7358 257
65.75591 290
65.77603 241
65.79614 253
65.81626 252
65.83637 211
65.85648 261
65.8766 253
65.89671 236
65.91682 215
65.93694 224
65.95705 227
65.97716 197
65.99728 235
66.01739 206
66.03751 193
66.05762 210
66.07773 203
66.09785 204
66.11796 195
66.13807 215
66.15819 202
66.1783 200
66.19842 180
66.21853 182
66.23864 193
66.25876 165
66.27887 193
66.29898 195
66.3191 185
66.33921 203
66.35933 220
66.37944 176
66.39955 188
66.41967 201
66.43978 190
66.45989 171
66.48001 183
66.50012 206
66.52023 191
66.54035 193
66.56046 204
66.58058 201
66.60069 190
66.6208 213
66.64092 202
66.66103 188
66.68114 183
66.70126 229
66.72137 186
66.74149 196
66.7616 210
66.78171 180
66.80183 199
66.82194 213
66.84205 192
66.86217 228
66.88228 182
66.90239 205
66.92251 207
66.94262 200
66.96274 218
66.98285 201
67.00296 207
67.02308 219
67.04319 207
67.0633 230
67.08342 206
67.10353 215
67.12365 201
67.14376 242
67.16387 251
67.18399 245
67.2041 256
67.22421 230
67.24433 228
67.26444 228
67.28456 258
67.30467 264
67.32478 292
67.3449 264
67.36501 286
67.38512 312
67.40524 320
67.42535 364
67.44546 345
67.46558 372
67.48569 421
67.50581 507
67.52592 539
67.54603 577
67.56615 650
67.58626 778
67.60637 822
67.62649 947
67.6466 1054
67.66672 1110
67.68683 1221
67.70694 1062
67.72706 1120
67.74717 950
67.76728 869
67.7874 755
67.80751 787
67.82763 821
67.84774 845
67.86785 893
67.88797 964
67.90808 944
67.92819 915
67.94831 954
67.96842 952
67.98853 1011
68.00865 1128
68.02876 1254
68.04888 1337
68.06899 1484
68.0891 1525
68.10922 1459
68.12933 1445
68.14944 1434
68.16956 1351
68.18967 1199
68.20979 1261
68.2299 1332
68.25001 1380
68.27013 1420
68.29024 1378
68.31035 1225
68.33047 1067
68.35058 940
68.3707 807
68.39081 683
68.41092 654
68.43104 647
68.45115 587
68.47126 575
68.49138 521
68.51149 464
68.5316 408
68.55172 369
68.57183 334
68.59195 300
68.61206 251
68.63217 234
68.65229 241
68.6724 237
68.69251 236
68.71263 243
68.73274 210
68.75286 224
68.77297 218
68.79308 228
68.8132 198
68.83331 222
68.85342 224
68.87354 225
68.89365 211
68.91376 225
68.93388 213
68.95399 228
68.97411 228
68.99422 226
69.01433 213
69.03445 208
69.05456 219
69.07467 189
69.09479 190
69.1149 207
69.13502 195
69.15513 198
69.17524 178
69.19536 200
69.21547 215
69.23558 197
69.2557 204
69.27581 199
69.29593 189
69.31604 215
69.33615 214
69.35627 195
69.37638 207
69.39649 208
69.41661 200
69.43672 233
69.45683 217
69.47695 185
69.49706 206
69.51718 192
69.53729 203
69.5574 196
69.57752 211
69.59763 184
69.61774 195
69.63786 229
69.65797 180
69.67809 183
69.6982 188
69.71831 192
69.73843 185
69.75854 182
69.77865 190
69.79877 186
69.81888 178
69.839 204
69.85911 178
69.87922 207
69.89934 199
69.91945 225
69.93956 204
69.95968 182
69.97979 170
69.9999 190
70.02002 199
70.04013 179
70.06025 188
70.08036 204
70.10047 190
70.12059 181
70.1407 175
70.16081 205
70.18093 194
70.20104 178
70.22116 191
70.24127 196
70.26138 178
70.2815 183
70.30161 200
70.32172 171
70.34184 182
70.36195 154
70.38207 188
70.40218 162
70.42229 192
70.44241 199
70.46252 177
70.48263 184
70.50275 184
70.52286 178
70.54297 174
70.56309 197
70.5832 186
70.60332 179
70.62343 180
70.64354 193
70.66366 179
70.68377 191
70.70388 213
70.724 180
70.74411 186
70.76423 166
70.78434 162
70.80445 167
70.82457 177
70.84468 157
70.86479 188
70.88491 199
70.90502 194
70.92513 159
70.94525 176
70.96536 179
70.98548 193
71.00559 174
71.0257 178
71.04582 165
71.06593 159
71.08604 181
71.10616 195
71.12627 167
71.14639 165
71.1665 170
71.18661 181
71.20673 182
71.22684 179
71.24695 159
71.26707 190
71.28718 170
71.3073 164
71.32741 161
71.34752 169
71.36764 173
71.38775 166
71.40786 157
71.42798 153
71.44809 151
71.4682 171
71.48832 158
71.50843 156
71.52855 159
71.54866 175
71.56877 190
71.58889 170
71.609 154
71.62911 169
71.64923 158
71.66934 183
71.68946 164
71.70957 146
71.72968 189
71.7498 187
71.76991 173
71.79002 199
71.81014 161
71.83025 179
71.85037 158
71.87048 162
71.89059 163
71.91071 191
71.93082 188
71.95093 168
71.97105 163
71.99116 171
72.01127 166
72.03139 163
72.0515 169
72.07162 189
72.09173 148
72.11184 182
72.13196 172
72.15207 181
72.17218 178
72.1923 173
72.21241 216
72.23253 187
72.25264 168
72.27275 166
72.29287 204
72.31298 190
72.33309 182
72.35321 184
72.37332 161
72.39344 162
72.41355 176
72.43366 153
72.45378 190
72.47389 203
72.494 163
72.51412 177
72.53423 189
72.55434 174
72.57446 168
72.59457 183
72.61469 205
72.6348 174
72.65491 171
72.67503 172
72.69514 174
72.71525 192
72.73537 176
72.75548 168
72.7756 178
72.79571 183
72.81582 193
72.83594 191
72.85605 209
72.87616 209
72.89628 211
72.91639 202
72.9365 190
72.95662 189
72.97673 191
72.99685 198
73.01696 199
73.03707 201
73.05719 196
73.0773 233
73.09741 236
73.11753 246
73.13764 225
73.15776 235
73.17787 249
73.19798 255
73.2181 268
73.23821 290
73.25832 316
73.27844 315
73.29855 360
73.31867 400
73.33878 413
73.35889 483
73.37901 486
73.39912 466
73.41923 458
73.43935 491
73.45946 433
73.47957 408
73.49969 378
73.5198 348
73.53992 352
73.56003 306
73.58014 328
73.60026 356
73.62037 322
73.64048 324
73.6606 305
73.68071 290
73.70083 280
73.72094 260
73.74105 234
73.76117 207
73.78128 193
73.80139 200
73.82151 201
73.84162 178
73.86174 177
73.88185 185
73.90196 169
73.92208 166
73.94219 178
73.9623 179
73.98242 195
74.00253 199
74.02264 167
74.04276 176
74.06287 167
74.08299 167
74.1031 189
74.12321 165
74.14333 173
74.16344 176
74.18355 165
74.20367 157
74.22378 175
74.2439 188
74.26401 180
74.28412 166
74.30424 194
74.32435 156
74.34446 185
74.36458 181
74.38469 175
74.40481 190
74.42492 180
74.44503 158
74.46515 179
74.48526 192
74.50537 175
74.52549 189
74.5456 180
74.56571 165
74.58583 187
74.60594 169
74.62606 179
74.64617 182
74.66628 178
74.6864 184
74.70651 171
74.72662 188
74.74674 201
74.76685 175
74.78697 178
74.80708 188
74.82719 160
74.84731 168
74.86742 179
74.88753 176
74.90765 185
74.92776 194
74.94787 190
74.96799 173
74.9881 167
75.00822 199
