3.00117 26226
3.02128 25870
3.0414 25138
3.06151 24980
3.08162 23946
3.10174 23593
3.12185 23141
3.14197 22021
3.16208 21685
3.18219 21245
3.20231 20307
3.22242 20162
3.24253 19284
3.26265 19271
3.28276 18240
3.30288 17593
3.32299 17312
3.3431 16554
3.36322 16305
3.38333 15755
3.40344 15438
3.42356 15024
3.44367 14464
3.46379 13952
3.4839 13564
3.50401 12983
3.52413 13050
3.54424 12271
3.56435 12022
3.58447 11410
3.60458 11001
3.62469 11131
3.64481 10360
3.66492 10310
3.68504 9797
3.70515 9489
3.72526 9224
3.74538 8986
3.76549 8595
3.7856 8078
3.80572 7876
3.82583 7831
3.84595 7391
3.86606 7123
3.88617 6914
3.90629 6553
3.9264 6449
3.94651 6141
3.96663 6096
3.98674 5590
4.00686 5343
4.02697 5623
4.04708 5160
4.0672 4885
4.08731 4749
4.10742 4641
4.12754 4427
4.14765 4265
4.16776 4233
4.18788 3993
4.20799 3828
4.22811 3958
4.24822 3690
4.26833 3684
4.28845 3518
4.30856 3366
4.32867 3346
4.34879 3220
4.3689 3113
4.38902 3011
4.40913 2874
4.42924 3057
4.44936 2953
4.46947 2917
4.48958 2726
4.5097 2722
4.52981 2693
4.54992 2801
4.57004 2642
4.59015 2573
4.61027 2569
4.63038 2647
4.65049 2578
4.67061 2541
4.69072 2503
4.71083 2479
4.73095 2493
4.75106 2457
4.77118 2397
4.79129 2381
4.8114 2455
4.83152 2378
4.85163 2439
4.87174 2258
4.89186 2297
4.91197 2359
4.93209 2262
4.9522 2341
4.97231 2252
4.99243 2204
5.01254 2310
5.03265 2255
5.05277 2304
5.07288 2242
5.09299 2270
5.11311 2187
5.13322 2185
5.15334 2225
5.17345 2201
5.19356 2311
5.21368 2178
5.23379 2207
5.2539 2279
5.27402 2244
5.29413 2192
5.31425 2228
5.33436 2221
5.35447 2198
5.37459 2133
5.3947 2149
5.41481 2126
5.43493 2117
5.45504 2194
5.47516 2012
5.49527 2118
5.51538 2097
5.5355 2122
5.55561 2134
5.57572 2009
5.59584 1972
5.61595 2065
5.63606 2039
5.65618 2013
5.67629 1950
5.69641 1949
5.71652 1957
5.73663 1934
5.75675 1947
5.77686 1973
5.79697 1871
5.81709 1999
5.8372 1916
5.85732 1854
5.87743 1902
5.89754 1844
5.91766 1772
5.93777 1814
5.95788 1805
5.978 1799
5.99811 1683
6.01823 1675
6.03834 1625
6.05845 1690
6.07857 1648
6.09868 1664
6.11879 1689
6.13891 1616
6.15902 1527
6.17913 1518
6.19925 1555
6.21936 1491
6.23948 1506
6.25959 1388
6.2797 1440
6.29982 1427
6.31993 1388
6.34004 1361
6.36016 1418
6.38027 1366
6.40039 1402
6.4205 1292
6.44061 1333
6.46073 1238
6.48084 1280
6.50095 1262
6.52107 1249
6.54118 1215
6.56129 1152
6.58141 1150
6.60152 1101
6.62164 1099
6.64175 1135
6.66186 1106
6.68198 1068
6.70209 1059
6.7222 1058
6.74232 1065
6.76243 969
6.78255 1009
6.80266 1007
6.82277 1005
6.84289 1062
6.863 973
6.88311 998
6.90323 927
6.92334 946
6.94346 941
6.96357 892
6.98368 900
7.0038 889
7.02391 854
7.04402 873
7.06414 843
7.08425 864
7.10436 766
7.12448 840
7.14459 789
7.16471 818
7.18482 775
7.20493 714
7.22505 736
7.24516 763
7.26527 751
7.28539 729
7.3055 726
7.32562 714
7.34573 737
7.36584 643
7.38596 738
7.40607 727
7.42618 703
7.4463 722
7.46641 652
7.48653 648
7.50664 715
7.52675 688
7.54687 666
7.56698 734
7.58709 608
7.60721 677
7.62732 677
7.64743 599
7.66755 648
7.68766 637
7.70778 637
7.72789 647
7.748 620
7.76812 611
7.78823 589
7.80834 588
7.82846 632
7.84857 555
7.86869 601
7.8888 592
7.90891 581
7.92903 589
7.94914 613
7.96925 558
7.98937 550
8.00948 587
8.0296 593
8.04971 550
8.06982 586
8.08994 566
8.11005 576
8.13016 526
8.15028 535
8.17039 606
8.1905 537
8.21062 523
8.23073 568
8.25085 547
8.27096 521
8.29107 526
8.31119 529
8.3313 599
8.35141 529
8.37153 537
8.39164 600
8.41176 496
8.43187 507
8.45198 548
8.4721 565
8.49221 535
8.51232 518
8.53244 502
8.55255 522
8.57266 525
8.59278 554
8.61289 541
8.63301 523
8.65312 484
8.67323 508
8.69335 491
8.71346 511
8.73357 514
8.75369 523
8.7738 510
8.79392 486
8.81403 494
8.83414 511
8.85426 491
8.87437 503
8.89448 487
8.9146 501
8.93471 469
8.95483 499
8.97494 480
8.99505 444
9.01517 489
9.03528 446
9.05539 525
9.07551 477
9.09562 531
9.11573 507
9.13585 506
9.15596 484
9.17608 468
9.19619 465
9.2163 440
9.23642 477
9.25653 473
9.27664 498
9.29676 461
9.31687 463
9.33699 425
9.3571 427
9.37721 468
9.39733 454
9.41744 443
9.43755 450
9.45767 447
9.47778 468
9.4979 458
9.51801 428
9.53812 490
9.55824 427
9.57835 467
9.59846 403
9.61858 441
9.63869 431
9.6588 401
9.67892 460
9.69903 431
9.71915 431
9.73926 434
9.75937 407
9.77949 429
9.7996 422
9.81971 430
9.83983 404
9.85994 468
9.88006 404
9.90017 418
9.92028 447
9.9404 409
9.96051 441
9.98062 460
10.00074 424
10.02085 409
10.04097 427
10.06108 414
10.08119 477
10.10131 422
10.12142 435
10.14153 414
10.16165 458
10.18176 418
10.20187 417
10.22199 412
10.2421 400
10.26222 394
10.28233 412
10.30244 410
10.32256 455
10.34267 426
10.36278 396
10.3829 401
10.40301 460
10.42313 428
10.44324 400
10.46335 437
10.48347 421
10.50358 408
10.52369 411
10.54381 427
10.56392 405
10.58403 411
10.60415 412
10.62426 429
10.64438 469
10.66449 416
10.6846 373
10.70472 445
10.72483 405
10.74494 383
10.76506 401
10.78517 418
10.80529 402
10.8254 405
10.84551 431
10.86563 423
10.88574 392
10.90585 357
10.92597 386
10.94608 388
10.9662 378
10.98631 403
11.00642 401
11.02654 359
11.04665 406
11.06676 398
11.08688 401
11.10699 415
11.1271 402
11.14722 394
11.16733 388
11.18745 420
11.20756 384
11.22767 385
11.24779 437
11.2679 404
11.28801 342
11.30813 374
11.32824 426
11.34836 384
11.36847 391
11.38858 404
11.4087 398
11.42881 409
11.44892 437
11.46904 410
11.48915 416
11.50927 398
11.52938 386
11.54949 404
11.56961 341
11.58972 421
11.60983 382
11.62995 377
11.65006 404
11.67017 414
11.69029 402
11.7104 366
11.73052 392
11.75063 432
11.77074 392
11.79086 376
11.81097 364
11.83108 379
11.8512 395
11.87131 400
11.89143 343
11.91154 381
11.93165 386
11.95177 347
11.97188 443
11.99199 371
12.01211 393
12.03222 411
12.05234 396
12.07245 379
12.09256 396
12.11268 386
12.13279 395
12.1529 332
12.17302 372
12.19313 399
12.21324 398
12.23336 376
12.25347 371
12.27359 391
12.2937 396
12.31381 396
12.33393 401
12.35404 372
12.37415 401
12.39427 371
12.41438 397
12.4345 398
12.45461 436
12.47472 397
12.49484 399
12.51495 370
12.53506 386
12.55518 378
12.57529 400
12.5954 351
12.61552 407
12.63563 399
12.65575 391
12.67586 372
12.69597 362
12.71609 348
12.7362 380
12.75631 393
12.77643 370
12.79654 375
12.81666 357
12.83677 381
12.85688 376
12.877 406
12.89711 381
12.91722 362
12.93734 385
12.95745 398
12.97757 372
12.99768 404
13.01779 368
13.03791 346
13.05802 318
13.07813 347
13.09825 346
13.11836 354
13.13847 393
13.15859 338
13.1787 369
13.19882 403
13.21893 390
13.23904 369
13.25916 372
13.27927 363
13.29938 378
13.3195 364
13.33961 360
13.35973 336
13.37984 374
13.39995 375
13.42007 346
13.44018 356
13.46029 390
13.48041 351
13.50052 430
13.52064 397
13.54075 419
13.56086 391
13.58098 417
13.60109 440
13.6212 428
13.64132 451
13.66143 410
13.68154 480
13.70166 404
13.72177 449
13.74189 391
13.762 392
13.78211 429
13.80223 430
13.82234 399
13.84245 379
13.86257 371
13.88268 407
13.9028 385
13.92291 372
13.94302 393
13.96314 342
13.98325 362
14.00336 345
14.02348 350
14.04359 406
14.06371 366
14.08382 359
14.10393 394
14.12405 346
14.14416 343
14.16427 368
14.18439 358
14.2045 367
14.22461 394
14.24473 390
14.26484 355
14.28496 384
14.30507 359
14.32518 359
14.3453 358
14.36541 337
14.38552 374
14.40564 379
14.42575 369
14.44587 362
14.46598 357
14.48609 366
14.50621 353
14.52632 397
14.54643 356
14.56655 368
14.58666 352
14.60677 355
14.62689 391
14.647 349
14.66712 370
14.68723 344
14.70734 356
14.72746 364
14.74757 358
14.76768 344
14.7878 385
14.80791 366
14.82803 386
14.84814 385
14.86825 364
14.88837 346
14.90848 318
14.92859 344
14.94871 337
14.96882 365
14.98894 386
15.00905 379
15.02916 371
15.04928 386
15.06939 375
15.0895 371
15.10962 385
15.12973 370
15.14984 395
15.16996 370
15.19007 402
15.21019 389
15.2303 375
15.25041 388
15.27053 420
15.29064 397
15.31075 366
15.33087 420
15.35098 357
15.3711 382
15.39121 365
15.41132 348
15.43144 374
15.45155 340
15.47166 413
15.49178 398
15.51189 402
15.53201 344
15.55212 368
15.57223 396
15.59235 392
15.61246 393
15.63257 372
15.65269 361
15.6728 355
15.69291 411
15.71303 380
15.73314 370
15.75326 370
15.77337 366
15.79348 320
15.8136 393
15.83371 361
15.85382 350
15.87394 363
15.89405 356
15.91417 375
15.93428 398
15.95439 382
15.97451 342
15.99462 345
16.01473 395
16.03485 368
16.05496 363
16.07508 408
16.09519 355
16.1153 402
16.13542 361
16.15553 381
16.17564 389
16.19576 378
16.21587 346
16.23598 387
16.2561 380
16.27621 377
16.29633 371
16.31644 375
16.33655 374
16.35667 388
16.37678 382
16.39689 374
16.41701 348
16.43712 381
16.45724 408
16.47735 354
16.49746 403
16.51758 367
16.53769 368
16.5578 392
16.57792 401
16.59803 391
16.61814 385
16.63826 404
16.65837 388
16.67849 434
16.6986 390
16.71871 385
16.73883 389
16.75894 365
16.77905 362
16.79917 376
16.81928 404
16.8394 395
16.85951 433
16.87962 386
16.89974 384
16.91985 433
16.93996 370
16.96008 408
16.98019 380
17.00031 407
17.02042 421
17.04053 395
17.06065 369
17.08076 407
17.10087 346
17.12099 421
17.1411 401
17.16121 396
17.18133 371
17.20144 402
17.22156 357
17.24167 398
17.26178 398
17.2819 403
17.30201 415
17.32212 408
17.34224 416
17.36235 425
17.38247 368
17.40258 399
17.42269 370
17.44281 382
17.46292 381
17.48303 411
17.50315 389
17.52326 392
17.54338 384
17.56349 381
17.5836 404
17.60372 429
17.62383 394
17.64394 422
17.66406 378
17.68417 428
17.70428 396
17.7244 412
17.74451 437
17.76463 406
17.78474 410
17.80485 366
17.82497 440
17.84508 429
17.86519 347
17.88531 401
17.90542 406
17.92554 409
17.94565 402
17.96576 404
17.98588 395
18.00599 400
18.0261 421
18.04622 396
18.06633 392
18.08645 378
18.10656 421
18.12667 397
18.14679 397
18.1669 435
18.18701 406
18.20713 368
18.22724 403
18.24735 410
18.26747 368
18.28758 383
18.3077 432
18.32781 372
18.34792 415
18.36804 399
18.38815 375
18.40826 409
18.42838 405
18.44849 409
18.46861 392
18.48872 408
18.50883 383
18.52895 425
18.54906 362
18.56917 447
18.58929 368
18.6094 379
18.62951 384
18.64963 355
18.66974 416
18.68986 396
18.70997 381
18.73008 360
18.7502 353
18.77031 413
18.79042 414
18.81054 401
18.83065 417
18.85077 404
18.87088 431
18.89099 414
18.91111 408
18.93122 397
18.95133 419
18.97145 396
18.99156 423
19.01168 418
19.03179 430
19.0519 455
19.07202 461
19.09213 430
19.11224 426
19.13236 465
19.15247 435
19.17258 453
19.1927 470
19.21281 476
19.23293 467
19.25304 530
19.27315 495
19.29327 482
19.31338 512
19.33349 526
19.35361 513
19.37372 551
19.39384 608
19.41395 682
19.43406 657
19.45418 664
19.47429 714
19.4944 689
19.51452 807
19.53463 853
19.55475 799
19.57486 878
19.59497 986
19.61509 986
19.6352 953
19.65531 1023
19.67543 1124
19.69554 1053
19.71565 1113
19.73577 1127
19.75588 1136
19.776 1130
19.79611 1179
19.81622 1089
19.83634 1070
19.85645 1049
19.87656 1094
19.89668 1026
19.91679 1045
19.93691 995
19.95702 964
19.97713 998
19.99725 922
20.01736 904
20.03747 907
20.05759 904
20.0777 867
20.09782 883
20.11793 904
20.13804 902
20.15816 846
20.17827 828
20.19838 804
20.2185 800
20.23861 814
20.25872 807
20.27884 819
20.29895 840
20.31907 804
20.33918 796
20.35929 758
20.37941 742
20.39952 799
20.41963 828
20.43975 751
20.45986 782
20.47998 797
20.50009 796
20.5202 846
20.54032 788
20.56043 766
20.58054 810
20.60066 821
20.62077 827
20.64088 854
20.661 904
20.68111 1037
20.70123 1141
20.72134 1368
20.74145 1619
20.76157 1915
20.78168 2280
20.80179 2516
20.82191 2817
20.84202 2996
20.86214 2791
20.88225 2574
20.90236 2188
20.92248 1736
20.94259 1408
20.9627 1112
20.98282 929
21.00293 881
21.02305 825
21.04316 764
21.06327 733
21.08339 691
21.1035 663
21.12361 684
21.14373 718
21.16384 704
21.18395 689
21.20407 681
21.22418 612
21.2443 671
21.26441 686
21.28452 658
21.30464 642
21.32475 640
21.34486 596
21.36498 685
21.38509 658
21.40521 700
21.42532 629
21.44543 686
21.46555 697
21.48566 706
21.50577 722
21.52589 726
21.546 733
21.56612 763
21.58623 759
21.60634 770
21.62646 765
21.64657 724
21.66668 677
21.6868 693
21.70691 694
21.72702 662
21.74714 673
21.76725 670
21.78737 619
21.80748 655
21.82759 614
21.84771 632
21.86782 628
21.88793 611
21.90805 637
21.92816 642
21.94828 644
21.96839 616
21.9885 670
22.00862 646
22.02873 657
22.04884 623
22.06896 628
22.08907 640
22.10919 528
22.1293 611
22.14941 575
22.16953 559
22.18964 562
22.20975 584
22.22987 601
22.24998 538
22.27009 609
22.29021 577
22.31032 546
22.33044 624
22.35055 560
22.37066 563
22.39078 568
22.41089 575
22.431 599
22.45112 601
22.47123 548
22.49135 558
22.51146 549
22.53157 580
22.55169 582
22.5718 567
22.59191 593
22.61203 596
22.63214 556
22.65225 535
22.67237 579
22.69248 557
22.7126 528
22.73271 608
22.75282 601
22.77294 634
22.79305 656
22.81316 584
22.83328 601
22.85339 631
22.87351 648
22.89362 587
22.91373 637
22.93385 669
22.95396 622
22.97407 650
22.99419 602
23.0143 644
23.03442 572
23.05453 645
23.07464 630
23.09476 631
23.11487 601
23.13498 560
23.1551 606
23.17521 612
23.19532 598
23.21544 599
23.23555 547
23.25567 583
23.27578 607
23.29589 619
23.31601 579
23.33612 579
23.35623 621
23.37635 635
23.39646 566
23.41658 657
23.43669 631
23.4568 599
23.47692 692
23.49703 653
23.51714 636
23.53726 679
23.55737 658
23.57749 690
23.5976 704
23.61771 719
23.63783 743
23.65794 745
23.67805 794
23.69817 730
23.71828 673
23.73839 706
23.75851 678
23.77862 657
23.79874 648
23.81885 628
23.83896 640
23.85908 592
23.87919 600
23.8993 624
23.91942 666
23.93953 593
23.95965 585
23.97976 567
23.99987 639
24.01999 621
24.0401 523
24.06021 605
24.08033 590
24.10044 568
24.12056 571
24.14067 573
24.16078 528
24.1809 572
24.20101 605
24.22112 570
24.24124 550
24.26135 562
24.28146 538
24.30158 521
24.32169 534
24.34181 570
24.36192 547
24.38203 550
24.40215 603
24.42226 556
24.44237 585
24.46249 566
24.4826 559
24.50272 601
24.52283 600
24.54294 584
24.56306 565
24.58317 531
24.60328 571
24.6234 557
24.64351 558
24.66362 591
24.68374 544
24.70385 542
24.72397 584
24.74408 566
24.76419 559
24.78431 521
24.80442 597
24.82453 547
24.84465 520
24.86476 571
24.88488 572
24.90499 565
24.9251 528
24.94522 570
24.96533 532
24.98544 543
25.00556 554
25.02567 557
25.04579 581
25.0659 602
25.08601 614
25.10613 559
25.12624 567
25.14635 571
25.16647 551
25.18658 593
25.20669 581
25.22681 588
25.24692 561
25.26704 598
25.28715 583
25.30726 573
25.32738 560
25.34749 573
25.3676 530
25.38772 561
25.40783 592
25.42795 549
25.44806 565
25.46817 609
25.48829 593
25.5084 606
25.52851 616
25.54863 681
25.56874 652
25.58886 656
25.60897 618
25.62908 653
25.6492 608
25.66931 679
25.68942 673
25.70954 736
25.72965 670
25.74976 683
25.76988 669
25.78999 670
25.81011 712
25.83022 712
25.85033 694
25.87045 658
25.89056 710
25.91067 630
25.93079 660
25.9509 632
25.97102 654
25.99113 704
26.01124 662
26.03136 655
26.05147 626
26.07158 670
26.0917 712
26.11181 677
26.13193 723
26.15204 739
26.17215 755
26.19227 749
26.21238 798
26.23249 767
26.25261 863
26.27272 888
26.29283 971
26.31295 1011
26.33306 1131
26.35318 1136
26.37329 1302
26.3934 1548
26.41352 1762
26.43363 2158
26.45374 2643
26.47386 3410
26.49397 4276
26.51409 5596
26.5342 6858
26.55431 8349
26.57443 9734
26.59454 10644
26.61465 11216
26.63477 10640
26.65488 9399
26.67499 7862
26.69511 6016
26.71522 4626
26.73534 3252
26.75545 2361
26.77556 1644
26.79568 1422
26.81579 1239
26.8359 1045
26.85602 988
26.87613 936
26.89625 906
26.91636 871
26.93647 874
26.95659 840
26.9767 804
26.99681 801
27.01693 778
27.03704 737
27.05716 787
27.07727 710
27.09738 753
27.1175 727
27.13761 769
27.15772 725
27.17784 728
27.19795 726
27.21806 732
27.23818 718
27.25829 727
27.27841 710
27.29852 770
27.31863 836
27.33875 831
27.35886 950
27.37897 981
27.39909 1038
27.4192 1113
27.43932 1134
27.45943 1102
27.47954 1120
27.49966 1145
27.51977 1018
27.53988 1052
27.56 946
27.58011 966
27.60023 968
27.62034 916
27.64045 957
27.66057 990
27.68068 997
27.70079 1053
27.72091 1030
27.74102 993
27.76113 1021
27.78125 920
27.80136 942
27.82148 917
27.84159 849
27.8617 826
27.88182 783
27.90193 809
27.92204 744
27.94216 771
27.96227 723
27.98239 702
28.0025 698
28.02261 676
28.04273 651
28.06284 684
28.08295 617
28.10307 581
28.12318 635
28.1433 632
28.16341 612
28.18352 653
28.20364 668
28.22375 662
28.24386 674
28.26398 688
28.28409 654
28.3042 624
28.32432 579
28.34443 588
28.36455 587
28.38466 595
28.40477 588
28.42489 596
28.445 588
28.46511 614
28.48523 595
28.50534 576
28.52546 605
28.54557 559
28.56568 614
28.5858 543
28.60591 568
28.62602 572
28.64614 556
28.66625 541
28.68636 534
28.70648 551
28.72659 562
28.74671 536
28.76682 583
28.78693 593
28.80705 595
28.82716 565
28.84727 561
28.86739 543
28.8875 554
28.90762 528
28.92773 552
28.94784 593
28.96796 556
28.98807 525
29.00818 598
29.0283 591
29.04841 578
29.06853 548
29.08864 549
29.10875 554
29.12887 556
29.14898 566
29.16909 587
29.18921 616
29.20932 630
29.22943 677
29.24955 693
29.26966 731
29.28978 802
29.30989 850
29.33 900
29.35012 975
29.37023 927
29.39034 977
29.41046 928
29.43057 924
29.45069 795
29.4708 759
29.49091 726
29.51103 660
29.53114 593
29.55125 639
29.57137 545
29.59148 565
29.6116 567
29.63171 530
29.65182 599
29.67194 576
29.69205 558
29.71216 528
29.73228 572
29.75239 564
29.7725 594
29.79262 615
29.81273 586
29.83285 561
29.85296 573
29.87307 601
29.89319 571
29.9133 554
29.93341 599
29.95353 608
29.97364 594
29.99376 555
30.01387 577
30.03398 573
30.0541 558
30.07421 570
30.09432 587
30.11444 544
30.13455 525
30.15467 539
30.17478 528
30.19489 544
30.21501 554
30.23512 551
30.25523 540
30.27535 519
30.29546 544
30.31557 530
30.33569 544
30.3558 536
30.37592 518
30.39603 556
30.41614 546
30.43626 581
30.45637 573
30.47648 523
30.4966 535
30.51671 557
30.53683 557
30.55694 520
30.57705 537
30.59717 551
30.61728 570
30.63739 526
30.65751 572
30.67762 564
30.69773 525
30.71785 550
30.73796 507
30.75808 595
30.77819 529
30.7983 568
30.81842 567
30.83853 512
30.85864 553
30.87876 531
30.89887 517
30.91899 522
30.9391 516
30.95921 510
30.97933 463
30.99944 512
31.01955 496
31.03967 449
31.05978 501
31.0799 509
31.10001 449
31.12012 525
31.14024 503
31.16035 482
31.18046 505
31.20058 556
31.22069 527
31.2408 469
31.26092 501
31.28103 491
31.30115 440
31.32126 470
31.34137 448
31.36149 467
31.3816 472
31.40171 493
31.42183 447
31.44194 469
31.46206 491
31.48217 445
31.50228 434
31.5224 467
31.54251 470
31.56262 490
31.58274 435
31.60285 453
31.62297 442
31.64308 500
31.66319 451
31.68331 467
31.70342 401
31.72353 426
31.74365 446
31.76376 444
31.78387 454
31.80399 429
31.8241 433
31.84422 453
31.86433 429
31.88444 417
31.90456 419
31.92467 430
31.94478 448
31.9649 437
31.98501 461
32.00513 418
32.02524 488
32.04535 435
32.06547 454
32.08558 432
32.10569 415
32.12581 467
32.14592 466
32.16604 481
32.18615 444
32.20626 480
32.22638 494
32.24649 476
32.2666 436
32.28672 495
32.30683 438
32.32694 519
32.34706 444
32.36717 495
32.38729 436
32.4074 445
32.42751 467
32.44763 458
32.46774 429
32.48785 477
32.50797 430
32.52808 455
32.5482 451
32.56831 466
32.58842 475
32.60854 453
32.62865 463
32.64876 468
32.66888 458
32.68899 411
32.7091 485
32.72922 446
32.74933 396
32.76945 397
32.78956 443
32.80967 435
32.82979 442
32.8499 462
32.87001 403
32.89013 435
32.91024 454
32.93036 471
32.95047 421
32.97058 425
32.9907 474
33.01081 448
33.03092 392
33.05104 429
33.07115 436
33.09127 399
33.11138 434
33.13149 388
33.15161 420
33.17172 412
33.19183 407
33.21195 394
33.23206 407
33.25217 426
33.27229 408
33.2924 430
33.31252 426
33.33263 422
33.35274 431
33.37286 426
33.39297 442
33.41308 428
33.4332 439
33.45331 424
33.47343 445
33.49354 426
33.51365 465
33.53377 377
33.55388 404
33.57399 458
33.59411 411
33.61422 402
33.63434 433
33.65445 412
33.67456 412
33.69468 417
33.71479 423
33.7349 420
33.75502 439
33.77513 446
33.79524 449
33.81536 474
33.83547 415
33.85559 429
33.8757 431
33.89581 428
33.91593 428
33.93604 447
33.95615 469
33.97627 418
33.99638 482
34.0165 444
34.03661 457
34.05672 445
34.07684 507
34.09695 450
34.11706 495
34.13718 485
34.15729 446
34.17741 463
34.19752 515
34.21763 538
34.23775 537
34.25786 545
34.27797 541
34.29809 534
34.3182 556
34.33831 560
34.35843 570
34.37854 573
34.39866 574
34.41877 602
34.43888 625
34.459 615
34.47911 597
34.49922 667
34.51934 624
34.53945 672
34.55957 628
34.57968 641
34.59979 675
34.61991 708
34.64002 690
34.66013 698
34.68025 699
34.70036 764
34.72047 666
34.74059 711
34.7607 711
34.78082 693
34.80093 679
34.82104 704
34.84116 722
34.86127 698
34.88138 708
34.9015 702
34.92161 730
34.94173 718
34.96184 715
34.98195 715
35.00207 753
35.02218 728
35.04229 695
35.06241 726
35.08252 704
35.10264 738
35.12275 739
35.14286 706
35.16298 763
35.18309 752
35.2032 730
35.22332 687
35.24343 640
35.26354 692
35.28366 714
35.30377 674
35.32389 704
35.344 712
35.36411 656
35.38423 657
35.40434 628
35.42445 685
35.44457 600
35.46468 640
35.4848 608
35.50491 666
35.52502 665
35.54514 618
35.56525 668
35.58536 637
35.60548 607
35.62559 600
35.64571 609
35.66582 614
35.68593 592
35.70605 592
35.72616 641
35.74627 553
35.76639 621
35.7865 619
35.80661 642
35.82673 615
35.84684 604
35.86696 577
35.88707 633
35.90718 649
35.9273 604
35.94741 610
35.96752 636
35.98764 645
36.00775 624
36.02787 614
36.04798 641
36.06809 614
36.08821 631
36.10832 598
36.12843 588
36.14855 561
36.16866 619
36.18878 588
36.20889 561
36.229 640
36.24912 701
36.26923 688
36.28934 677
36.30946 676
36.32957 713
36.34968 737
36.3698 815
36.38991 826
36.41003 949
36.43014 1023
36.45025 1078
36.47037 1169
36.49048 1214
36.51059 1241
36.53071 1198
36.55082 1111
36.57094 1058
36.59105 901
36.61116 825
36.63128 840
36.65139 705
36.6715 716
36.69162 631
36.71173 609
36.73184 610
36.75196 636
36.77207 544
36.79219 567
36.8123 560
36.83241 608
36.85253 584
36.87264 578
36.89275 577
36.91287 577
36.93298 536
36.9531 568
36.97321 573
36.99332 551
37.01344 528
37.03355 541
37.05366 532
37.07378 570
37.09389 550
37.11401 512
37.13412 548
37.15423 515
37.17435 566
37.19446 569
37.21457 529
37.23469 521
37.2548 577
37.27491 541
37.29503 556
37.31514 576
37.33526 530
37.35537 522
37.37548 513
37.3956 496
37.41571 520
37.43582 517
37.45594 514
37.47605 486
37.49617 523
37.51628 499
37.53639 560
37.55651 547
37.57662 520
37.59673 540
37.61685 516
37.63696 532
37.65708 518
37.67719 526
37.6973 513
37.71742 532
37.73753 502
37.75764 469
37.77776 519
37.79787 465
37.81798 511
37.8381 528
37.85821 484
37.87833 485
37.89844 443
37.91855 489
37.93867 505
37.95878 493
37.97889 497
37.99901 511
38.01912 520
38.03924 506
38.05935 505
38.07946 522
38.09958 451
38.11969 468
38.1398 457
38.15992 475
38.18003 478
38.20015 485
38.22026 477
38.24037 467
38.26049 481
38.2806 477
38.30071 475
38.32083 525
38.34094 497
38.36105 498
38.38117 445
38.40128 514
38.4214 476
38.44151 501
38.46162 523
38.48174 499
38.50185 507
38.52196 490
38.54208 468
38.56219 480
38.58231 442
38.60242 497
38.62253 506
38.64265 448
38.66276 514
38.68287 465
38.70299 463
38.7231 474
38.74321 467
38.76333 467
38.78344 501
38.80356 507
38.82367 473
38.84378 487
38.8639 475
38.88401 514
38.90412 484
38.92424 480
38.94435 473
38.96447 453
38.98458 479
39.00469 481
39.02481 501
39.04492 454
39.06503 467
39.08515 530
39.10526 518
39.12538 487
39.14549 496
39.1656 547
39.18572 548
39.20583 556
39.22594 627
39.24606 613
39.26617 674
39.28628 723
39.3064 822
39.32651 849
39.34663 970
39.36674 981
39.38685 1101
39.40697 1162
39.42708 1118
39.44719 1037
39.46731 1022
39.48742 990
39.50754 934
39.52765 792
39.54776 742
39.56788 672
39.58799 671
39.6081 546
39.62822 520
39.64833 514
39.66845 511
39.68856 506
39.70867 510
39.72879 450
39.7489 511
39.76901 490
39.78913 510
39.80924 490
39.82935 525
39.84947 509
39.86958 474
39.8897 518
39.90981 463
39.92992 482
39.95004 477
39.97015 465
39.99026 469
40.01038 507
40.03049 493
40.05061 555
40.07072 564
40.09083 559
40.11095 594
40.13106 596
40.15117 609
40.17129 670
40.1914 653
40.21152 725
40.23163 722
40.25174 768
40.27186 778
40.29197 697
40.31208 636
40.3322 611
40.35231 643
40.37242 543
40.39254 566
40.41265 532
40.43277 519
40.45288 492
40.47299 463
40.49311 494
40.51322 475
40.53333 480
40.55345 496
40.57356 498
40.59368 487
40.61379 443
40.6339 461
40.65402 442
40.67413 413
40.69424 444
40.71436 465
40.73447 476
40.75458 486
40.7747 476
40.79481 478
40.81493 444
40.83504 517
40.85515 469
40.87527 459
40.89538 478
40.91549 475
40.93561 493
40.95572 438
40.97584 499
40.99595 445
41.01606 486
41.03618 446
41.05629 497
41.0764 436
41.09652 492
41.11663 485
41.13675 454
41.15686 448
41.17697 459
41.19709 461
41.2172 447
41.23731 443
41.25743 402
41.27754 456
41.29765 463
41.31777 403
41.33788 511
41.358 437
41.37811 460
41.39822 454
41.41834 456
41.43845 444
41.45856 473
41.47868 502
41.49879 450
41.51891 458
41.53902 522
41.55913 468
41.57925 480
41.59936 458
41.61947 502
41.63959 494
41.6597 510
41.67982 447
41.69993 470
41.72004 476
41.74016 459
41.76027 509
41.78038 460
41.8005 456
41.82061 473
41.84072 487
41.86084 443
41.88095 436
41.90107 513
41.92118 488
41.94129 451
41.96141 469
41.98152 455
42.00163 427
42.02175 453
42.04186 481
42.06198 460
42.08209 475
42.1022 450
42.12232 467
42.14243 480
42.16254 544
42.18266 504
42.20277 518
42.22289 593
42.243 540
42.26311 606
42.28323 660
42.30334 658
42.32345 697
42.34357 818
42.36368 875
42.38379 882
42.40391 866
42.42402 873
42.44414 796
42.46425 787
42.48436 746
42.50448 693
42.52459 674
42.5447 633
42.56482 538
42.58493 544
42.60505 558
42.62516 505
42.64527 429
42.66539 465
42.6855 446
42.70561 458
42.72573 435
42.74584 485
42.76595 468
42.78607 440
42.80618 405
42.8263 425
42.84641 406
42.86652 489
42.88664 465
42.90675 435
42.92686 440
42.94698 450
42.96709 491
42.98721 492
43.00732 446
43.02743 497
43.04755 441
43.06766 521
43.08777 489
43.10789 539
43.128 500
43.14812 489
43.16823 491
43.18834 492
43.20846 431
43.22857 442
43.24868 486
43.2688 441
43.28891 430
43.30902 412
43.32914 433
43.34925 418
43.36937 424
43.38948 367
43.40959 429
43.42971 431
43.44982 430
43.46993 418
43.49005 409
43.51016 390
43.53028 451
43.55039 422
43.5705 419
43.59062 445
43.61073 429
43.63084 463
43.65096 397
43.67107 408
43.69119 410
43.7113 444
43.73141 421
43.75153 411
43.77164 424
43.79175 389
43.81187 423
43.83198 395
43.85209 443
43.87221 415
43.89232 416
43.91244 392
43.93255 392
43.95266 404
43.97278 449
43.99289 437
44.013 478
44.03312 447
44.05323 399
44.07335 418
44.09346 381
44.11357 416
44.13369 459
44.1538 441
44.17391 395
44.19403 424
44.21414 435
44.23426 406
44.25437 382
44.27448 397
44.2946 418
44.31471 427
44.33482 453
44.35494 397
44.37505 376
44.39516 382
44.41528 397
44.43539 422
44.45551 404
44.47562 431
44.49573 414
44.51585 408
44.53596 388
44.55607 416
44.57619 388
44.5963 399
44.61642 395
44.63653 385
44.65664 420
44.67676 415
44.69687 413
44.71698 393
44.7371 439
44.75721 403
44.77732 418
44.79744 399
44.81755 425
44.83767 399
44.85778 399
44.87789 390
44.89801 405
44.91812 445
44.93823 395
44.95835 398
44.97846 422
44.99858 401
45.01869 416
45.0388 383
45.05892 408
45.07903 398
45.09914 392
45.11926 411
45.13937 414
45.15949 429
45.1796 440
45.19971 421
45.21983 356
45.23994 395
45.26005 381
45.28017 419
45.30028 397
45.32039 417
45.34051 403
45.36062 397
45.38074 430
45.40085 415
45.42096 442
45.44108 427
45.46119 433
45.4813 422
45.50142 418
45.52153 468
45.54165 471
45.56176 461
45.58187 468
45.60199 500
45.6221 486
45.64221 541
45.66233 569
45.68244 625
45.70256 680
45.72267 612
45.74278 707
45.7629 674
45.78301 632
45.80312 659
45.82324 582
45.84335 566
45.86346 525
45.88358 492
45.90369 496
45.92381 510
45.94392 462
45.96403 413
45.98415 401
46.00426 410
46.02437 366
46.04449 443
46.0646 384
46.08472 402
46.10483 409
46.12494 410
46.14506 368
46.16517 386
46.18528 397
46.2054 386
46.22551 408
46.24563 393
46.26574 404
46.28585 400
46.30597 384
46.32608 393
46.34619 400
46.36631 411
46.38642 395
46.40653 412
46.42665 419
46.44676 389
46.46688 384
46.48699 386
46.5071 359
46.52722 403
46.54733 370
46.56744 366
46.58756 397
46.60767 423
46.62779 401
46.6479 401
46.66801 379
46.68813 407
46.70824 430
46.72835 419
46.74847 422
46.76858 436
46.78869 389
46.80881 426
46.82892 451
46.84904 428
46.86915 445
46.88926 478
46.90938 457
46.92949 448
46.9496 477
46.96972 471
46.98983 476
47.00995 476
47.03006 440
47.05017 440
47.07029 444
47.0904 457
47.11051 443
47.13063 429
47.15074 428
47.17086 405
47.19097 454
47.21108 411
47.2312 405
47.25131 408
47.27142 410
47.29154 452
47.31165 395
47.33176 438
47.35188 432
47.37199 438
47.39211 424
47.41222 431
47.43233 473
47.45245 431
47.47256 473
47.49267 435
47.51279 410
47.5329 425
47.55302 453
47.57313 431
47.59324 394
47.61336 413
47.63347 407
47.65358 395
47.6737 375
47.69381 395
47.71393 431
47.73404 385
47.75415 403
47.77427 405
47.79438 387
47.81449 430
47.83461 390
47.85472 375
47.87483 422
47.89495 436
47.91506 380
47.93518 399
47.95529 378
47.9754 386
47.99552 353
48.01563 323
48.03574 394
48.05586 429
48.07597 391
48.09609 362
48.1162 345
48.13631 391
48.15643 420
48.17654 405
48.19665 378
48.21677 423
48.23688 420
48.257 415
48.27711 358
48.29722 394
48.31734 400
48.33745 417
48.35756 468
48.37768 464
48.39779 444
48.4179 435
48.43802 425
48.45813 424
48.47825 439
48.49836 450
48.51847 446
48.53859 460
48.5587 441
48.57881 383
48.59893 397
48.61904 413
48.63916 420
48.65927 376
48.67938 370
48.6995 413
48.71961 353
48.73972 382
48.75984 420
48.77995 379
48.80006 364
48.82018 376
48.84029 365
48.86041 399
48.88052 381
48.90063 394
48.92075 360
48.94086 408
48.96097 396
48.98109 406
49.0012 391
49.02132 382
49.04143 393
49.06154 362
49.08166 389
49.10177 376
49.12188 349
49.142 393
49.16211 377
49.18223 388
49.20234 365
49.22245 352
49.24257 407
49.26268 388
49.28279 339
49.30291 372
49.32302 384
49.34313 399
49.36325 390
49.38336 347
49.40348 408
49.42359 385
49.4437 370
49.46382 401
49.48393 375
49.50404 385
49.52416 382
49.54427 414
49.56439 411
49.5845 407
49.60461 411
49.62473 407
49.64484 443
49.66495 417
49.68507 442
49.70518 414
49.7253 432
49.74541 441
49.76552 489
49.78564 482
49.80575 507
49.82586 509
49.84598 565
49.86609 552
49.8862 627
49.90632 670
49.92643 692
49.94655 783
49.96666 919
49.98677 1016
50.00689 1110
50.027 1201
50.04711 1308
50.06723 1336
50.08734 1382
50.10746 1312
50.12757 1220
50.14768 1192
50.1678 1006
50.18791 904
50.20802 841
50.22814 818
50.24825 772
50.26837 672
50.28848 577
50.30859 570
50.32871 498
50.34882 442
50.36893 505
50.38905 421
50.40916 405
50.42927 429
50.44939 399
50.4695 427
50.48962 419
50.50973 394
50.52984 457
50.54996 414
50.57007 458
50.59018 397
50.6103 394
50.63041 424
50.65053 411
50.67064 441
50.69075 409
50.71087 443
50.73098 428
50.75109 398
50.77121 409
50.79132 360
50.81143 451
50.83155 382
50.85166 415
50.87178 444
50.89189 404
50.912 416
50.93212 419
50.95223 390
50.97234 427
50.99246 409
51.01257 408
51.03269 433
51.0528 372
51.07291 400
51.09303 363
51.11314 387
51.13325 395
51.15337 340
51.17348 366
51.1936 423
51.21371 378
51.23382 383
51.25394 363
51.27405 365
51.29416 346
51.31428 376
51.33439 362
51.3545 370
51.37462 346
51.39473 333
51.41485 330
51.43496 382
51.45507 376
51.47519 357
51.4953 341
51.51541 409
51.53553 353
51.55564 348
51.57576 343
51.59587 331
51.61598 321
51.6361 382
51.65621 392
51.67632 346
51.69644 341
51.71655 368
51.73667 356
51.75678 381
51.77689 327
51.79701 357
51.81712 338
51.83723 354
51.85735 337
51.87746 337
51.89757 375
51.91769 321
51.9378 347
51.95792 359
51.97803 344
51.99814 377
52.01826 362
52.03837 362
52.05848 364
52.0786 339
52.09871 343
52.11883 369
52.13894 347
52.15905 365
52.17917 352
52.19928 370
52.21939 349
52.23951 323
52.25962 341
52.27974 360
52.29985 353
52.31996 342
52.34008 378
52.36019 353
52.3803 357
52.40042 355
52.42053 364
52.44064 342
52.46076 362
52.48087 356
52.50099 355
52.5211 334
52.54121 369
52.56133 347
52.58144 364
52.60155 366
52.62167 339
52.64178 355
52.6619 362
52.68201 376
52.70212 372
52.72224 379
52.74235 372
52.76246 390
52.78258 382
52.80269 389
52.8228 367
52.84292 392
52.86303 366
52.88315 369
52.90326 345
52.92337 384
52.94349 358
52.9636 384
52.98371 358
53.00383 380
53.02394 378
53.04406 373
53.06417 440
53.08428 394
53.1044 373
53.12451 423
53.14462 413
53.16474 396
53.18485 430
53.20497 392
53.22508 406
53.24519 400
53.26531 374
53.28542 391
53.30553 419
53.32565 394
53.34576 411
53.36587 432
53.38599 425
53.4061 448
53.42622 434
53.44633 434
53.46644 419
53.48656 412
53.50667 414
53.52678 420
53.5469 439
53.56701 401
53.58713 422
53.60724 421
53.62735 438
53.64747 445
53.66758 435
53.68769 449
53.70781 398
53.72792 452
53.74804 440
53.76815 429
53.78826 404
53.80838 430
53.82849 413
53.8486 414
53.86872 398
53.88883 438
53.90894 443
53.92906 411
53.94917 405
53.96929 451
53.9894 445
54.00951 426
54.02963 408
54.04974 430
54.06985 426
54.08997 432
54.11008 442
54.1302 427
54.15031 440
54.17042 428
54.19054 395
54.21065 426
54.23076 407
54.25088 447
54.27099 434
54.29111 427
54.31122 423
54.33133 428
54.35145 472
54.37156 423
54.39167 455
54.41179 424
54.4319 460
54.45201 451
54.47213 479
54.49224 475
54.51236 443
54.53247 479
54.55258 450
54.5727 462
54.59281 466
54.61292 497
54.63304 494
54.65315 483
54.67327 569
54.69338 593
54.71349 614
54.73361 596
54.75372 701
54.77383 674
54.79395 694
54.81406 736
54.83417 679
54.85429 670
54.8744 652
54.89452 632
54.91463 614
54.93474 566
54.95486 553
54.97497 586
54.99508 536
55.0152 520
55.03531 490
55.05543 488
55.07554 464
55.09565 478
55.11577 469
55.13588 457
55.15599 514
55.17611 519
55.19622 492
55.21634 496
55.23645 529
55.25656 521
55.27668 521
55.29679 501
55.3169 537
55.33702 445
55.35713 508
55.37724 481
55.39736 484
55.41747 452
55.43759 451
55.4577 432
55.47781 428
55.49793 425
55.51804 452
55.53815 455
55.55827 386
55.57838 410
55.5985 390
55.61861 423
55.63872 383
55.65884 447
55.67895 401
55.69906 386
55.71918 400
55.73929 416
55.75941 428
55.77952 382
55.79963 427
55.81975 386
55.83986 386
55.85997 387
55.88009 353
55.9002 424
55.92031 391
55.94043 402
55.96054 387
55.98066 419
56.00077 404
56.02088 372
56.041 381
56.06111 406
56.08122 382
56.10134 396
56.12145 366
56.14157 394
56.16168 393
56.18179 409
56.20191 392
56.22202 382
56.24213 392
56.26225 380
56.28236 413
56.30248 392
56.32259 402
56.3427 416
56.36282 396
56.38293 390
56.40304 356
56.42316 400
56.44327 427
56.46338 382
56.4835 369
56.50361 393
56.52373 425
56.54384 389
56.56395 418
56.58407 391
56.60418 389
56.62429 378
56.64441 414
56.66452 401
56.68464 379
56.70475 379
56.72486 399
56.74498 375
56.76509 419
56.7852 404
56.80532 411
56.82543 345
56.84554 377
56.86566 401
56.88577 374
56.90589 404
56.926 409
56.94611 406
56.96623 403
56.98634 383
57.00645 401
57.02657 373
57.04668 384
57.0668 389
57.08691 383
57.10702 394
57.12714 371
57.14725 409
57.16736 414
57.18748 377
57.20759 378
57.22771 387
57.24782 366
57.26793 391
57.28805 400
57.30816 409
57.32827 382
57.34839 421
57.3685 405
57.38861 372
57.40873 363
57.42884 396
57.44896 371
57.46907 397
57.48918 382
57.5093 345
57.52941 411
57.54952 393
57.56964 410
57.58975 387
57.60987 419
57.62998 375
57.65009 375
57.67021 373
57.69032 345
57.71043 388
57.73055 352
57.75066 413
57.77078 349
57.79089 369
57.811 382
57.83112 348
57.85123 398
57.87134 356
57.89146 365
57.91157 399
57.93168 342
57.9518 304
57.97191 367
57.99203 384
58.01214 398
58.03225 347
58.05237 350
58.07248 385
58.09259 354
58.11271 371
58.13282 389
58.15294 366
58.17305 393
58.19316 370
58.21328 379
58.23339 349
58.2535 376
58.27362 377
58.29373 356
58.31385 399
58.33396 346
58.35407 378
58.37419 353
58.3943 378
58.41441 353
58.43453 363
58.45464 360
58.47475 368
58.49487 345
58.51498 382
58.5351 379
58.55521 353
58.57532 366
58.59544 353
58.61555 375
58.63566 345
58.65578 353
58.67589 354
58.69601 377
58.71612 368
58.73623 388
58.75635 367
58.77646 341
58.79657 346
58.81669 366
58.8368 350
58.85691 424
58.87703 356
58.89714 387
58.91726 369
58.93737 377
58.95748 339
58.9776 367
58.99771 374
59.01782 367
59.03794 397
59.05805 350
59.07817 363
59.09828 369
59.11839 354
59.13851 356
59.15862 397
59.17873 370
59.19885 384
59.21896 377
59.23908 364
59.25919 357
59.2793 373
59.29942 361
59.31953 365
59.33964 370
59.35976 388
59.37987 353
59.39998 394
59.4201 428
59.44021 385
59.46033 394
59.48044 392
59.50055 354
59.52067 431
59.54078 407
59.56089 398
59.58101 442
59.60112 434
59.62124 454
59.64135 497
59.66146 540
59.68158 480
59.70169 539
59.7218 563
59.74192 632
59.76203 695
59.78215 698
59.80226 768
59.82237 804
59.84249 926
59.8626 967
59.88271 1023
59.90283 1017
59.92294 916
59.94305 952
59.96317 846
59.98328 793
60.0034 751
60.02351 738
60.04362 691
60.06374 701
60.08385 640
60.10396 610
60.12408 569
60.14419 503
60.16431 459
60.18442 466
60.20453 433
60.22465 409
60.24476 395
60.26487 370
60.28499 419
60.3051 362
60.32522 373
60.34533 388
60.36544 380
60.38556 404
60.40567 391
60.42578 368
60.4459 434
60.46601 411
60.48612 392
60.50624 347
60.52635 381
60.54647 427
60.56658 360
60.58669 382
60.60681 380
60.62692 398
60.64703 402
60.66715 384
60.68726 378
60.70738 396
60.72749 415
60.7476 402
60.76772 383
60.78783 452
60.80794 389
60.82806 418
60.84817 425
60.86828 415
60.8884 432
60.90851 447
60.92863 415
60.94874 410
60.96885 438
60.98897 436
61.00908 439
61.02919 488
61.04931 477
61.06942 437
61.08954 435
61.10965 464
61.12976 414
61.14988 443
61.16999 484
61.1901 471
61.21022 438
61.23033 472
61.25045 469
61.27056 523
61.29067 492
61.31079 507
61.3309 509
61.35101 525
61.37113 500
61.39124 505
61.41135 507
61.43147 521
61.45158 536
61.4717 549
61.49181 541
61.51192 540
61.53204 530
61.55215 572
61.57226 546
61.59238 576
61.61249 539
61.63261 543
61.65272 553
61.67283 531
61.69295 538
61.71306 553
61.73317 564
61.75329 509
61.7734 532
61.79352 497
61.81363 510
61.83374 519
61.85386 508
61.87397 465
61.89408 500
61.9142 490
61.93431 465
61.95442 519
61.97454 469
61.99465 500
62.01477 503
62.03488 498
62.05499 474
62.07511 435
62.09522 437
62.11533 477
62.13545 477
62.15556 493
62.17568 447
62.19579 444
62.2159 421
62.23602 448
62.25613 461
62.27624 411
62.29636 406
62.31647 443
62.33659 449
62.3567 397
62.37681 437
62.39693 439
62.41704 400
62.43715 421
62.45727 405
62.47738 395
62.49749 410
62.51761 400
62.53772 396
62.55784 374
62.57795 390
62.59806 376
62.61818 374
62.63829 365
62.6584 407
62.67852 337
62.69863 365
62.71875 362
62.73886 365
62.75897 350
62.77909 378
62.7992 385
62.81931 376
62.83943 383
62.85954 364
62.87965 360
62.89977 339
62.91988 400
62.94 349
62.96011 374
62.98022 369
63.00034 332
63.02045 356
63.04056 359
63.06068 368
63.08079 387
63.10091 384
63.12102 339
63.14113 378
63.16125 383
63.18136 353
63.20147 361
63.22159 363
63.2417 363
63.26182 361
63.28193 366
63.30204 337
63.32216 349
63.34227 359
63.36238 348
63.3825 370
63.40261 346
63.42272 355
63.44284 363
63.46295 344
63.48307 376
63.50318 334
63.52329 348
63.54341 369
63.56352 363
63.58363 339
63.60375 373
63.62386 357
63.64398 395
63.66409 321
63.6842 424
63.70432 412
63.72443 389
63.74454 384
63.76466 389
63.78477 362
63.80489 395
63.825 394
63.84511 430
63.86523 424
63.88534 426
63.90545 461
63.92557 470
63.94568 474
63.96579 492
63.98591 471
64.00602 443
64.02614 453
64.04625 455
64.06636 419
64.08648 392
64.10659 397
64.1267 431
64.14682 383
64.16693 404
64.18705 407
64.20716 315
64.22727 381
64.24739 365
64.2675 358
64.28761 343
64.30773 357
64.32784 340
64.34796 388
64.36807 377
64.38818 343
64.4083 358
64.42841 365
64.44852 341
64.46864 351
64.48875 365
64.50886 347
64.52898 352
64.54909 345
64.56921 333
64.58932 358
64.60943 373
64.62955 338
64.64966 338
64.66977 322
64.68989 343
64.71 349
64.73012 333
64.75023 377
64.77034 356
64.79046 370
64.81057 325
64.83068 322
64.8508 348
64.87091 353
64.89102 377
64.91114 356
64.93125 345
64.95137 338
64.97148 344
64.99159 368
65.01171 327
65.03182 323
65.05193 393
65.07205 362
65.09216 380
65.11228 356
65.13239 339
65.1525 322
65.17262 338
65.19273 352
65.21284 354
65.23296 347
65.25307 336
65.27319 345
65.2933 347
65.31341 398
65.33353 344
65.35364 355
65.37375 369
65.39387 334
65.41398 368
65.43409 367
65.45421 318
65.47432 367
65.49444 338
65.51455 384
65.53466 358
65.55478 337
65.57489 384
65.595 409
65.61512 351
65.63523 384
65.65535 371
65.67546 391
65.69557 390
65.71569 353
65.7358 371
65.75591 333
65.77603 379
65.79614 385
65.81626 367
65.83637 368
65.85648 379
65.8766 341
65.89671 371
65.91682 376
65.93694 400
65.95705 376
65.97716 347
65.99728 359
66.01739 369
66.03751 313
66.05762 356
66.07773 356
66.09785 347
66.11796 355
66.13807 360
66.15819 311
66.1783 343
66.19842 359
66.21853 346
66.23864 362
66.25876 319
66.27887 356
66.29898 312
66.3191 304
66.33921 326
66.35933 311
66.37944 319
66.39955 343
66.41967 332
66.43978 353
66.45989 345
66.48001 310
66.50012 333
66.52023 375
66.54035 362
66.56046 363
66.58058 356
66.60069 330
66.6208 344
66.64092 337
66.66103 352
66.68114 349
66.70126 346
66.72137 341
66.74149 355
66.7616 326
66.78171 330
66.80183 355
66.82194 377
66.84205 321
66.86217 351
66.88228 350
66.90239 321
66.92251 334
66.94262 325
66.96274 343
66.98285 368
67.00296 354
67.02308 340
67.04319 359
67.0633 349
67.08342 374
67.10353 336
67.12365 373
67.14376 367
67.16387 359
67.18399 366
67.2041 356
67.22421 383
67.24433 334
67.26444 393
67.28456 413
67.30467 357
67.32478 410
67.3449 404
67.36501 428
67.38512 389
67.40524 378
67.42535 450
67.44546 412
67.46558 435
67.48569 463
67.50581 506
67.52592 538
67.54603 534
67.56615 568
67.58626 590
67.60637 671
67.62649 656
67.6466 716
67.66672 699
67.68683 717
67.70694 725
67.72706 672
67.74717 656
67.76728 633
67.7874 570
67.80751 621
67.82763 642
67.84774 607
67.86785 693
67.88797 673
67.90808 674
67.92819 684
67.94831 704
67.96842 699
67.98853 762
68.00865 787
68.02876 822
68.04888 867
68.06899 886
68.0891 882
68.10922 893
68.12933 867
68.14944 800
68.16956 816
68.18967 779
68.20979 789
68.2299 810
68.25001 841
68.27013 835
68.29024 727
68.31035 677
68.33047 664
68.35058 552
68.3707 549
68.39081 561
68.41092 521
68.43104 517
68.45115 520
68.47126 510
68.49138 423
68.51149 451
68.5316 404
68.55172 409
68.57183 372
68.59195 366
68.61206 388
68.63217 337
68.65229 357
68.6724 350
68.69251 384
68.71263 345
68.73274 337
68.75286 352
68.77297 368
68.79308 348
68.8132 350
68.83331 325
68.85342 373
68.87354 337
68.89365 363
68.91376 321
68.93388 338
68.95399 320
68.97411 332
68.99422 332
69.01433 343
69.03445 366
69.05456 343
69.07467 345
69.09479 323
69.1149 362
69.13502 375
69.15513 308
69.17524 341
69.19536 362
69.21547 359
69.23558 351
69.2557 319
69.27581 366
69.29593 319
69.31604 371
69.33615 361
69.35627 338
69.37638 318
69.39649 346
69.41661 355
69.43672 315
69.45683 333
69.47695 350
69.49706 335
69.51718 341
69.53729 313
69.5574 336
69.57752 356
69.59763 336
69.61774 319
69.63786 379
69.65797 337
69.67809 344
69.6982 340
69.71831 328
69.73843 339
69.75854 378
69.77865 338
69.79877 327
69.81888 339
69.839 331
69.85911 319
69.87922 327
69.89934 334
69.91945 322
69.93956 353
69.95968 342
69.97979 354
69.9999 344
70.02002 333
70.04013 350
70.06025 338
70.08036 308
70.10047 353
70.12059 332
70.1407 321
70.16081 360
70.18093 330
70.20104 360
70.22116 309
70.24127 309
70.26138 335
70.2815 349
70.30161 345
70.32172 313
70.34184 353
70.36195 282
70.38207 359
70.40218 327
70.42229 343
70.44241 336
70.46252 351
70.48263 342
70.50275 343
70.52286 329
70.54297 332
70.56309 350
70.5832 319
70.60332 307
70.62343 319
70.64354 314
70.66366 315
70.68377 328
70.70388 324
70.724 358
70.74411 313
70.76423 329
70.78434 320
70.80445 328
70.82457 308
70.84468 343
70.86479 316
70.88491 309
70.90502 369
70.92513 345
70.94525 328
70.96536 314
70.98548 318
71.00559 341
71.0257 339
71.04582 314
71.06593 321
71.08604 343
71.10616 294
71.12627 321
71.14639 326
71.1665 349
71.18661 352
71.20673 313
71.22684 328
71.24695 306
71.26707 361
71.28718 364
71.3073 318
71.32741 305
71.34752 315
71.36764 328
71.38775 332
71.40786 335
71.42798 322
71.44809 331
71.4682 352
71.48832 338
71.50843 360
71.52855 337
71.54866 336
71.56877 341
71.58889 350
71.609 338
71.62911 335
71.64923 325
71.66934 333
71.68946 332
71.70957 379
71.72968 350
71.7498 348
71.76991 358
71.79002 338
71.81014 350
71.83025 339
71.85037 357
71.87048 345
71.89059 355
71.91071 315
71.93082 306
71.95093 380
71.97105 339
71.99116 344
72.01127 341
72.03139 348
72.0515 341
72.07162 358
72.09173 345
72.11184 390
72.13196 372
72.15207 326
72.17218 346
72.1923 358
72.21241 355
72.23253 341
72.25264 374
72.27275 342
72.29287 378
72.31298 370
72.33309 352
72.35321 371
72.37332 357
72.39344 382
72.41355 369
72.43366 385
72.45378 386
72.47389 366
72.494 371
72.51412 354
72.53423 374
72.55434 378
72.57446 399
72.59457 391
72.61469 390
72.6348 372
72.65491 379
72.67503 390
72.69514 373
72.71525 396
72.73537 432
72.75548 411
72.7756 389
72.79571 376
72.81582 377
72.83594 400
72.85605 357
72.87616 387
72.89628 376
72.91639 411
72.9365 413
72.95662 393
72.97673 378
72.99685 385
73.01696 408
73.03707 436
73.05719 380
73.0773 398
73.09741 456
73.11753 422
73.13764 399
73.15776 384
73.17787 376
73.19798 418
73.2181 423
73.23821 405
73.25832 432
73.27844 429
73.29855 437
73.31867 477
73.33878 481
73.35889 514
73.37901 508
73.39912 531
73.41923 495
73.43935 452
73.45946 447
73.47957 461
73.49969 426
73.5198 393
73.53992 430
73.56003 447
73.58014 423
73.60026 415
73.62037 390
73.64048 399
73.6606 407
73.68071 400
73.70083 400
73.72094 352
73.74105 385
73.76117 373
73.78128 352
73.80139 375
73.82151 333
73.84162 344
73.86174 380
73.88185 335
73.90196 353
73.92208 358
73.94219 381
73.9623 355
73.98242 365
74.00253 374
74.02264 395
74.04276 369
74.06287 398
74.08299 372
74.1031 342
74.12321 333
74.14333 399
74.16344 341
74.18355 344
74.20367 354
74.22378 345
74.2439 365
74.26401 315
74.28412 345
74.30424 382
74.32435 356
74.34446 352
74.36458 358
74.38469 337
74.40481 341
74.42492 354
74.44503 351
74.46515 363
74.48526 360
74.50537 340
74.52549 357
74.5456 337
74.56571 362
74.58583 364
74.60594 343
74.62606 348
74.64617 347
74.66628 367
74.6864 328
74.70651 348
74.72662 333
74.74674 342
74.76685 344
74.78697 335
74.80708 343
74.82719 326
74.84731 361
74.86742 321
74.88753 332
74.90765 344
74.92776 309
74.94787 331
74.96799 339
74.9881 310
75.00822 326
