3.00117 20241
3.02128 19885
3.0414 19292
3.06151 19333
3.08162 18058
3.10174 17820
3.12185 17014
3.14197 16738
3.16208 16218
3.18219 15961
3.20231 15595
3.22242 14993
3.24253 14491
3.26265 14305
3.28276 13498
3.30288 13480
3.32299 12654
3.3431 12447
3.36322 12257
3.38333 11601
3.40344 11418
3.42356 10933
3.44367 10711
3.46379 10454
3.4839 9791
3.50401 9817
3.52413 9018
3.54424 9126
3.56435 8653
3.58447 8378
3.60458 8186
3.62469 7540
3.64481 7698
3.66492 7336
3.68504 6955
3.70515 7000
3.72526 6429
3.74538 6277
3.76549 6251
3.7856 5807
3.80572 5598
3.82583 5232
3.84595 5182
3.86606 5034
3.88617 4745
3.90629 4742
3.9264 4469
3.94651 4192
3.96663 4168
3.98674 3980
4.00686 4054
4.02697 3598
4.04708 3647
4.0672 3589
4.08731 3391
4.10742 3295
4.12754 3037
4.14765 3050
4.16776 2832
4.18788 2870
4.20799 2878
4.22811 2620
4.24822 2591
4.26833 2582
4.28845 2491
4.30856 2467
4.32867 2243
4.34879 2321
4.3689 2317
4.38902 2362
4.40913 2372
4.42924 2210
4.44936 2185
4.46947 2126
4.48958 2162
4.5097 2010
4.52981 1972
4.54992 1995
4.57004 1984
4.59015 1970
4.61027 1982
4.63038 1947
4.65049 1836
4.67061 1869
4.69072 1871
4.71083 1761
4.73095 1809
4.75106 1823
4.77118 1742
4.79129 1777
4.8114 1741
4.83152 1708
4.85163 1605
4.87174 1672
4.89186 1598
4.91197 1632
4.93209 1629
4.9522 1544
4.97231 1640
4.99243 1626
5.01254 1532
5.03265 1573
5.05277 1466
5.07288 1584
5.09299 1550
5.11311 1506
5.13322 1453
5.15334 1522
5.17345 1487
5.19356 1462
5.21368 1511
5.23379 1402
5.2539 1446
5.27402 1391
5.29413 1435
5.31425 1414
5.33436 1535
5.35447 1433
5.37459 1399
5.3947 1435
5.41481 1400
5.43493 1387
5.45504 1340
5.47516 1385
5.49527 1372
5.51538 1369
5.5355 1318
5.55561 1354
5.57572 1295
5.59584 1352
5.61595 1345
5.63606 1430
5.65618 1286
5.67629 1324
5.69641 1273
5.71652 1285
5.73663 1294
5.75675 1312
5.77686 1250
5.79697 1340
5.81709 1207
5.8372 1232
5.85732 1220
5.87743 1245
5.89754 1233
5.91766 1268
5.93777 1237
5.95788 1221
5.978 1194
5.99811 1191
6.01823 1124
6.03834 1211
6.05845 1201
6.07857 1203
6.09868 1112
6.11879 1153
6.13891 1109
6.15902 1132
6.17913 1053
6.19925 1072
6.21936 1092
6.23948 1066
6.25959 1089
6.2797 1132
6.29982 1064
6.31993 1059
6.34004 1032
6.36016 1050
6.38027 1030
6.40039 1018
6.4205 961
6.44061 1010
6.46073 939
6.48084 994
6.50095 941
6.52107 952
6.54118 962
6.56129 911
6.58141 933
6.60152 958
6.62164 891
6.64175 916
6.66186 836
6.68198 874
6.70209 916
6.7222 851
6.74232 790
6.76243 850
6.78255 846
6.80266 844
6.82277 851
6.84289 746
6.863 778
6.88311 742
6.90323 781
6.92334 817
6.94346 800
6.96357 758
6.98368 768
7.0038 830
7.02391 711
7.04402 745
7.06414 738
7.08425 736
7.10436 746
7.12448 672
7.14459 722
7.16471 710
7.18482 737
7.20493 714
7.22505 715
7.24516 677
7.26527 646
7.28539 629
7.3055 710
7.32562 719
7.34573 604
7.36584 620
7.38596 616
7.40607 658
7.42618 634
7.4463 678
7.46641 616
7.48653 633
7.50664 643
7.52675 639
7.54687 602
7.56698 588
7.58709 599
7.60721 599
7.62732 631
7.64743 597
7.66755 619
7.68766 608
7.70778 571
7.72789 550
7.748 617
7.76812 597
7.78823 603
7.80834 553
7.82846 518
7.84857 582
7.86869 555
7.8888 554
7.90891 564
7.92903 558
7.94914 564
7.96925 543
7.98937 514
8.00948 561
8.0296 538
8.04971 513
8.06982 591
8.08994 556
8.11005 598
8.13016 544
8.15028 531
8.17039 533
8.1905 545
8.21062 503
8.23073 519
8.25085 524
8.27096 507
8.29107 551
8.31119 532
8.3313 533
8.35141 521
8.37153 499
8.39164 520
8.41176 525
8.43187 477
8.45198 506
8.4721 544
8.49221 559
8.51232 502
8.53244 539
8.55255 528
8.57266 524
8.59278 509
8.61289 485
8.63301 528
8.65312 492
8.67323 511
8.69335 499
8.71346 567
8.73357 545
8.75369 492
8.7738 466
8.79392 503
8.81403 501
8.83414 506
8.85426 530
8.87437 485
8.89448 464
8.9146 478
8.93471 475
8.95483 460
8.97494 493
8.99505 442
9.01517 469
9.03528 503
9.05539 503
9.07551 460
9.09562 477
9.11573 456
9.13585 448
9.15596 491
9.17608 415
9.19619 459
9.2163 428
9.23642 472
9.25653 463
9.27664 449
9.29676 498
9.31687 528
9.33699 449
9.3571 476
9.37721 493
9.39733 454
9.41744 433
9.43755 425
9.45767 419
9.47778 403
9.4979 423
9.51801 476
9.53812 477
9.55824 411
9.57835 434
9.59846 479
9.61858 479
9.63869 436
9.6588 449
9.67892 445
9.69903 408
9.71915 473
9.73926 430
9.75937 469
9.77949 418
9.7996 450
9.81971 449
9.83983 406
9.85994 439
9.88006 416
9.90017 469
9.92028 441
9.9404 352
9.96051 441
9.98062 419
10.00074 420
10.02085 406
10.04097 403
10.06108 438
10.08119 430
10.10131 409
10.12142 408
10.14153 434
10.16165 443
10.18176 416
10.20187 448
10.22199 427
10.2421 412
10.26222 405
10.28233 429
10.30244 418
10.32256 420
10.34267 419
10.36278 423
10.3829 395
10.40301 458
10.42313 418
10.44324 414
10.46335 424
10.48347 427
10.50358 388
10.52369 449
10.54381 444
10.56392 422
10.58403 439
10.60415 410
10.62426 386
10.64438 389
10.66449 388
10.6846 426
10.70472 390
10.72483 447
10.74494 422
10.76506 430
10.78517 429
10.80529 390
10.8254 398
10.84551 437
10.86563 401
10.88574 398
10.90585 414
10.92597 448
10.94608 435
10.9662 451
10.98631 434
11.00642 413
11.02654 421
11.04665 388
11.06676 383
11.08688 395
11.10699 409
11.1271 465
11.14722 438
11.16733 427
11.18745 425
11.20756 404
11.22767 415
11.24779 425
11.2679 450
11.28801 469
11.30813 476
11.32824 428
11.34836 396
11.36847 429
11.38858 439
11.4087 458
11.42881 451
11.44892 505
11.46904 447
11.48915 440
11.50927 474
11.52938 450
11.54949 406
11.56961 435
11.58972 483
11.60983 482
11.62995 458
11.65006 454
11.67017 434
11.69029 436
11.7104 504
11.73052 456
11.75063 462
11.77074 498
11.79086 459
11.81097 490
11.83108 499
11.8512 477
11.87131 487
11.89143 464
11.91154 493
11.93165 542
11.95177 542
11.97188 560
11.99199 518
12.01211 512
12.03222 532
12.05234 532
12.07245 542
12.09256 519
12.11268 570
12.13279 524
12.1529 552
12.17302 548
12.19313 567
12.21324 558
12.23336 555
12.25347 594
12.27359 540
12.2937 581
12.31381 559
12.33393 540
12.35404 502
12.37415 494
12.39427 600
12.41438 478
12.4345 530
12.45461 501
12.47472 500
12.49484 512
12.51495 466
12.53506 475
12.55518 443
12.57529 424
12.5954 433
12.61552 362
12.63563 431
12.65575 406
12.67586 446
12.69597 398
12.71609 412
12.7362 423
12.75631 394
12.77643 389
12.79654 405
12.81666 408
12.83677 373
12.85688 420
12.877 405
12.89711 385
12.91722 371
12.93734 383
12.95745 351
12.97757 392
12.99768 371
13.01779 395
13.03791 426
13.05802 387
13.07813 401
13.09825 402
13.11836 365
13.13847 444
13.15859 398
13.1787 351
13.19882 370
13.21893 381
13.23904 353
13.25916 392
13.27927 409
13.29938 379
13.3195 312
13.33961 401
13.35973 333
13.37984 337
13.39995 363
13.42007 351
13.44018 366
13.46029 386
13.48041 398
13.50052 379
13.52064 329
13.54075 358
13.56086 325
13.58098 367
13.60109 340
13.6212 379
13.64132 361
13.66143 363
13.68154 348
13.70166 311
13.72177 330
13.74189 380
13.762 370
13.78211 374
13.80223 370
13.82234 376
13.84245 340
13.86257 360
13.88268 347
13.9028 355
13.92291 336
13.94302 339
13.96314 387
13.98325 347
14.00336 376
14.02348 327
14.04359 371
14.06371 346
14.08382 321
14.10393 324
14.12405 363
14.14416 343
14.16427 339
14.18439 346
14.2045 369
14.22461 341
14.24473 332
14.26484 315
14.28496 325
14.30507 372
14.32518 356
14.3453 352
14.36541 378
14.38552 361
14.40564 330
14.42575 353
14.44587 305
14.46598 353
14.48609 302
14.50621 376
14.52632 352
14.54643 355
14.56655 374
14.58666 365
14.60677 357
14.62689 308
14.647 352
14.66712 349
14.68723 332
14.70734 288
14.72746 333
14.74757 309
14.76768 329
14.7878 360
14.80791 385
14.82803 329
14.84814 374
14.86825 362
14.88837 357
14.90848 325
14.92859 362
14.94871 348
14.96882 352
14.98894 335
15.00905 345
15.02916 324
15.04928 349
15.06939 373
15.0895 338
15.10962 355
15.12973 307
15.14984 354
15.16996 338
15.19007 322
15.21019 340
15.2303 376
15.25041 365
15.27053 361
15.29064 362
15.31075 349
15.33087 342
15.35098 356
15.3711 318
15.39121 329
15.41132 358
15.43144 336
15.45155 345
15.47166 364
15.49178 351
15.51189 347
15.53201 353
15.55212 339
15.57223 356
15.59235 326
15.61246 337
15.63257 321
15.65269 344
15.6728 329
15.69291 338
15.71303 351
15.73314 350
15.75326 329
15.77337 339
15.79348 354
15.8136 351
15.83371 333
15.85382 370
15.87394 331
15.89405 364
15.91417 357
15.93428 355
15.95439 370
15.97451 340
15.99462 340
16.01473 324
16.03485 360
16.05496 347
16.07508 381
16.09519 349
16.1153 369
16.13542 361
16.15553 324
16.17564 357
16.19576 332
16.21587 340
16.23598 351
16.2561 361
16.27621 386
16.29633 361
16.31644 356
16.33655 359
16.35667 319
16.37678 345
16.39689 325
16.41701 390
16.43712 374
16.45724 358
16.47735 357
16.49746 336
16.51758 372
16.53769 345
16.5578 362
16.57792 352
16.59803 346
16.61814 388
16.63826 320
16.65837 338
16.67849 359
16.6986 379
16.71871 373
16.73883 388
16.75894 375
16.77905 372
16.79917 368
16.81928 349
16.8394 360
16.85951 335
16.87962 351
16.89974 352
16.91985 360
16.93996 363
16.96008 361
16.98019 336
17.00031 380
17.02042 367
17.04053 389
17.06065 374
17.08076 374
17.10087 382
17.12099 378
17.1411 356
17.16121 379
17.18133 348
17.20144 352
17.22156 362
17.24167 379
17.26178 371
17.2819 378
17.30201 382
17.32212 411
17.34224 368
17.36235 384
17.38247 372
17.40258 355
17.42269 361
17.44281 379
17.46292 342
17.48303 385
17.50315 412
17.52326 403
17.54338 390
17.56349 363
17.5836 376
17.60372 388
17.62383 434
17.64394 393
17.66406 366
17.68417 435
17.70428 440
17.7244 396
17.74451 380
17.76463 363
17.78474 382
17.80485 372
17.82497 365
17.84508 390
17.86519 375
17.88531 398
17.90542 356
17.92554 407
17.94565 395
17.96576 347
17.98588 381
18.00599 375
18.0261 385
18.04622 366
18.06633 350
18.08645 404
18.10656 361
18.12667 391
18.14679 372
18.1669 399
18.18701 378
18.20713 379
18.22724 383
18.24735 431
18.26747 402
18.28758 392
18.3077 389
18.32781 390
18.34792 403
18.36804 403
18.38815 389
18.40826 407
18.42838 412
18.44849 393
18.46861 378
18.48872 367
18.50883 359
18.52895 370
18.54906 393
18.56917 347
18.58929 380
18.6094 365
18.62951 376
18.64963 377
18.66974 392
18.68986 384
18.70997 398
18.73008 396
18.7502 415
18.77031 446
18.79042 420
18.81054 386
18.83065 404
18.85077 402
18.87088 376
18.89099 391
18.91111 420
18.93122 381
18.95133 397
18.97145 441
18.99156 409
19.01168 399
19.03179 443
19.0519 432
19.07202 433
19.09213 434
19.11224 470
19.13236 451
19.15247 448
19.17258 474
19.1927 455
19.21281 474
19.23293 485
19.25304 507
19.27315 497
19.29327 514
19.31338 524
19.33349 544
19.35361 533
19.37372 531
19.39384 607
19.41395 613
19.43406 639
19.45418 632
19.47429 631
19.4944 680
19.51452 701
19.53463 742
19.55475 779
19.57486 804
19.59497 894
19.61509 911
19.6352 988
19.65531 957
19.67543 967
19.69554 1037
19.71565 1036
19.73577 1106
19.75588 1115
19.776 1158
19.79611 1175
19.81622 1159
19.83634 1117
19.85645 1150
19.87656 1155
19.89668 1095
19.91679 1135
19.93691 1062
19.95702 1057
19.97713 1056
19.99725 1022
20.01736 1025
20.03747 974
20.05759 1014
20.0777 1037
20.09782 959
20.11793 1012
20.13804 907
20.15816 934
20.17827 960
20.19838 904
20.2185 966
20.23861 931
20.25872 945
20.27884 865
20.29895 906
20.31907 936
20.33918 868
20.35929 890
20.37941 866
20.39952 907
20.41963 949
20.43975 860
20.45986 901
20.47998 839
20.50009 873
20.5202 876
20.54032 903
20.56043 905
20.58054 971
20.60066 948
20.62077 1007
20.64088 1028
20.661 1192
20.68111 1293
20.70123 1486
20.72134 1778
20.74145 2129
20.76157 2444
20.78168 2702
20.80179 2910
20.82191 2917
20.84202 2639
20.86214 2355
20.88225 1963
20.90236 1536
20.92248 1345
20.94259 1104
20.9627 979
20.98282 985
21.00293 872
21.02305 928
21.04316 844
21.06327 838
21.08339 789
21.1035 787
21.12361 709
21.14373 778
21.16384 764
21.18395 826
21.20407 712
21.22418 721
21.2443 743
21.26441 746
21.28452 724
21.30464 753
21.32475 682
21.34486 711
21.36498 701
21.38509 783
21.40521 742
21.42532 682
21.44543 687
21.46555 771
21.48566 706
21.50577 686
21.52589 671
21.546 713
21.56612 699
21.58623 716
21.60634 695
21.62646 726
21.64657 743
21.66668 644
21.6868 665
21.70691 658
21.72702 694
21.74714 722
21.76725 654
21.78737 671
21.80748 621
21.82759 705
21.84771 672
21.86782 689
21.88793 694
21.90805 675
21.92816 650
21.94828 649
21.96839 662
21.9885 631
22.00862 635
22.02873 642
22.04884 662
22.06896 649
22.08907 628
22.10919 666
22.1293 621
22.14941 657
22.16953 621
22.18964 634
22.20975 629
22.22987 660
22.24998 649
22.27009 640
22.29021 681
22.31032 628
22.33044 623
22.35055 601
22.37066 634
22.39078 671
22.41089 621
22.431 655
22.45112 628
22.47123 615
22.49135 634
22.51146 655
22.53157 588
22.55169 649
22.5718 620
22.59191 627
22.61203 611
22.63214 678
22.65225 605
22.67237 627
22.69248 656
22.7126 599
22.73271 582
22.75282 631
22.77294 614
22.79305 587
22.81316 616
22.83328 628
22.85339 573
22.87351 620
22.89362 624
22.91373 618
22.93385 582
22.95396 648
22.97407 619
22.99419 611
23.0143 585
23.03442 601
23.05453 628
23.07464 640
23.09476 566
23.11487 598
23.13498 592
23.1551 570
23.17521 596
23.19532 639
23.21544 623
23.23555 609
23.25567 605
23.27578 599
23.29589 559
23.31601 623
23.33612 575
23.35623 641
23.37635 577
23.39646 588
23.41658 604
23.43669 591
23.4568 602
23.47692 631
23.49703 597
23.51714 589
23.53726 622
23.55737 634
23.57749 617
23.5976 648
23.61771 608
23.63783 621
23.65794 596
23.67805 578
23.69817 575
23.71828 556
23.73839 596
23.75851 598
23.77862 621
23.79874 584
23.81885 607
23.83896 616
23.85908 607
23.87919 646
23.8993 587
23.91942 605
23.93953 598
23.95965 617
23.97976 616
23.99987 574
24.01999 601
24.0401 572
24.06021 604
24.08033 587
24.10044 563
24.12056 578
24.14067 602
24.16078 571
24.1809 631
24.20101 586
24.22112 576
24.24124 559
24.26135 603
24.28146 648
24.30158 618
24.32169 588
24.34181 653
24.36192 655
24.38203 625
24.40215 593
24.42226 626
24.44237 639
24.46249 632
24.4826 622
24.50272 642
24.52283 636
24.54294 619
24.56306 636
24.58317 617
24.60328 655
24.6234 663
24.64351 700
24.66362 695
24.68374 697
24.70385 668
24.72397 676
24.74408 747
24.76419 689
24.78431 755
24.80442 738
24.82453 758
24.84465 700
24.86476 692
24.88488 730
24.90499 681
24.9251 720
24.94522 701
24.96533 645
24.98544 654
25.00556 665
25.02567 630
25.04579 645
25.0659 721
25.08601 701
25.10613 708
25.12624 705
25.14635 659
25.16647 700
25.18658 695
25.20669 644
25.22681 698
25.24692 687
25.26704 712
25.28715 647
25.30726 668
25.32738 665
25.34749 678
25.3676 643
25.38772 641
25.40783 702
25.42795 638
25.44806 654
25.46817 627
25.48829 627
25.5084 676
25.52851 658
25.54863 695
25.56874 616
25.58886 683
25.60897 636
25.62908 661
25.6492 662
25.66931 692
25.68942 590
25.70954 700
25.72965 648
25.74976 633
25.76988 663
25.78999 663
25.81011 651
25.83022 659
25.85033 691
25.87045 616
25.89056 648
25.91067 613
25.93079 644
25.9509 675
25.97102 654
25.99113 657
26.01124 677
26.03136 696
26.05147 762
26.07158 697
26.0917 724
26.11181 769
26.13193 785
26.15204 756
26.17215 782
26.19227 798
26.21238 877
26.23249 879
26.25261 909
26.27272 950
26.29283 952
26.31295 1091
26.33306 1142
26.35318 1356
26.37329 1428
26.3934 1787
26.41352 2145
26.43363 2559
26.45374 3302
26.47386 4369
26.49397 5503
26.51409 6976
26.5342 8771
26.55431 10007
26.57443 10677
26.59454 10800
26.61465 9772
26.63477 8531
26.65488 6591
26.67499 4971
26.69511 3613
26.71522 2537
26.73534 1812
26.75545 1438
26.77556 1231
26.79568 1152
26.81579 1034
26.8359 926
26.85602 949
26.87613 837
26.89625 860
26.91636 839
26.93647 764
26.95659 778
26.9767 759
26.99681 715
27.01693 723
27.03704 705
27.05716 710
27.07727 637
27.09738 648
27.1175 606
27.13761 634
27.15772 625
27.17784 647
27.19795 630
27.21806 611
27.23818 639
27.25829 623
27.27841 595
27.29852 576
27.31863 637
27.33875 588
27.35886 639
27.37897 657
27.39909 717
27.4192 682
27.43932 657
27.45943 705
27.47954 634
27.49966 608
27.51977 594
27.53988 628
27.56 565
27.58011 530
27.60023 529
27.62034 585
27.64045 535
27.66057 546
27.68068 549
27.70079 522
27.72091 570
27.74102 569
27.76113 561
27.78125 551
27.80136 521
27.82148 510
27.84159 500
27.8617 501
27.88182 536
27.90193 558
27.92204 514
27.94216 490
27.96227 526
27.98239 502
28.0025 530
28.02261 514
28.04273 511
28.06284 453
28.08295 479
28.10307 499
28.12318 509
28.1433 472
28.16341 532
28.18352 505
28.20364 512
28.22375 479
28.24386 493
28.26398 460
28.28409 474
28.3042 426
28.32432 468
28.34443 452
28.36455 474
28.38466 503
28.40477 497
28.42489 461
28.445 495
28.46511 466
28.48523 477
28.50534 498
28.52546 461
28.54557 493
28.56568 483
28.5858 462
28.60591 472
28.62602 443
28.64614 500
28.66625 468
28.68636 465
28.70648 454
28.72659 406
28.74671 497
28.76682 468
28.78693 449
28.80705 449
28.82716 492
28.84727 459
28.86739 467
28.8875 447
28.90762 437
28.92773 452
28.94784 457
28.96796 430
28.98807 476
29.00818 432
29.0283 457
29.04841 435
29.06853 463
29.08864 453
29.10875 410
29.12887 435
29.14898 440
29.16909 425
29.18921 492
29.20932 485
29.22943 465
29.24955 452
29.26966 485
29.28978 453
29.30989 443
29.33 443
29.35012 453
29.37023 459
29.39034 468
29.41046 435
29.43057 449
29.45069 432
29.4708 444
29.49091 416
29.51103 461
29.53114 479
29.55125 421
29.57137 438
29.59148 482
29.6116 469
29.63171 457
29.65182 474
29.67194 455
29.69205 458
29.71216 484
29.73228 498
29.75239 429
29.7725 421
29.79262 436
29.81273 497
29.83285 444
29.85296 433
29.87307 426
29.89319 462
29.9133 422
29.93341 461
29.95353 455
29.97364 413
29.99376 437
30.01387 461
30.03398 484
30.0541 432
30.07421 433
30.09432 413
30.11444 441
30.13455 428
30.15467 429
30.17478 414
30.19489 429
30.21501 461
30.23512 408
30.25523 460
30.27535 419
30.29546 428
30.31557 413
30.33569 447
30.3558 389
30.37592 431
30.39603 425
30.41614 399
30.43626 405
30.45637 443
30.47648 400
30.4966 455
30.51671 463
30.53683 444
30.55694 414
30.57705 446
30.59717 418
30.61728 439
30.63739 416
30.65751 426
30.67762 375
30.69773 446
30.71785 395
30.73796 440
30.75808 450
30.77819 420
30.7983 428
30.81842 447
30.83853 438
30.85864 420
30.87876 419
30.89887 387
30.91899 439
30.9391 397
30.95921 415
30.97933 394
30.99944 397
31.01955 410
31.03967 406
31.05978 390
31.0799 400
31.10001 389
31.12012 400
31.14024 387
31.16035 390
31.18046 398
31.20058 388
31.22069 395
31.2408 369
31.26092 398
31.28103 416
31.30115 353
31.32126 369
31.34137 405
31.36149 393
31.3816 369
31.40171 391
31.42183 359
31.44194 366
31.46206 327
31.48217 389
31.50228 432
31.5224 400
31.54251 369
31.56262 380
31.58274 396
31.60285 364
31.62297 382
31.64308 373
31.66319 392
31.68331 354
31.70342 370
31.72353 356
31.74365 374
31.76376 375
31.78387 354
31.80399 377
31.8241 372
31.84422 331
31.86433 390
31.88444 354
31.90456 379
31.92467 365
31.94478 391
31.9649 377
31.98501 395
32.00513 374
32.02524 394
32.04535 392
32.06547 357
32.08558 354
32.10569 376
32.12581 350
32.14592 417
32.16604 364
32.18615 398
32.20626 423
32.22638 409
32.24649 379
32.2666 418
32.28672 366
32.30683 393
32.32694 372
32.34706 363
32.36717 378
32.38729 391
32.4074 361
32.42751 355
32.44763 358
32.46774 349
32.48785 357
32.50797 380
32.52808 372
32.5482 371
32.56831 307
32.58842 351
32.60854 339
32.62865 363
32.64876 357
32.66888 333
32.68899 365
32.7091 377
32.72922 365
32.74933 366
32.76945 343
32.78956 334
32.80967 331
32.82979 353
32.8499 367
32.87001 368
32.89013 319
32.91024 354
32.93036 389
32.95047 339
32.97058 357
32.9907 346
33.01081 327
33.03092 348
33.05104 349
33.07115 333
33.09127 387
33.11138 373
33.13149 373
33.15161 368
33.17172 368
33.19183 370
33.21195 356
33.23206 333
33.25217 347
33.27229 363
33.2924 331
33.31252 359
33.33263 354
33.35274 347
33.37286 351
33.39297 360
33.41308 352
33.4332 328
33.45331 395
33.47343 329
33.49354 386
33.51365 345
33.53377 327
33.55388 338
33.57399 357
33.59411 362
33.61422 361
33.63434 364
33.65445 346
33.67456 339
33.69468 367
33.71479 339
33.7349 357
33.75502 373
33.77513 353
33.79524 378
33.81536 344
33.83547 357
33.85559 362
33.8757 383
33.89581 366
33.91593 336
33.93604 412
33.95615 354
33.97627 386
33.99638 395
34.0165 378
34.03661 440
34.05672 435
34.07684 414
34.09695 405
34.11706 447
34.13718 414
34.15729 395
34.17741 458
34.19752 430
34.21763 427
34.23775 463
34.25786 416
34.27797 458
34.29809 471
34.3182 454
34.33831 479
34.35843 485
34.37854 463
34.39866 481
34.41877 513
34.43888 489
34.459 548
34.47911 539
34.49922 572
34.51934 552
34.53945 532
34.55957 528
34.57968 568
34.59979 578
34.61991 574
34.64002 588
34.66013 586
34.68025 597
34.70036 625
34.72047 660
34.74059 692
34.7607 643
34.78082 624
34.80093 644
34.82104 669
34.84116 712
34.86127 694
34.88138 712
34.9015 641
34.92161 728
34.94173 727
34.96184 631
34.98195 636
35.00207 651
35.02218 647
35.04229 607
35.06241 625
35.08252 563
35.10264 622
35.12275 621
35.14286 618
35.16298 564
35.18309 595
35.2032 551
35.22332 563
35.24343 592
35.26354 574
35.28366 560
35.30377 562
35.32389 566
35.344 564
35.36411 579
35.38423 571
35.40434 568
35.42445 565
35.44457 585
35.46468 579
35.4848 559
35.50491 561
35.52502 544
35.54514 606
35.56525 602
35.58536 552
35.60548 542
35.62559 558
35.64571 553
35.66582 525
35.68593 559
35.70605 558
35.72616 524
35.74627 592
35.76639 552
35.7865 556
35.80661 584
35.82673 571
35.84684 568
35.86696 575
35.88707 580
35.90718 537
35.9273 568
35.94741 547
35.96752 619
35.98764 535
36.00775 538
36.02787 573
36.04798 574
36.06809 575
36.08821 528
36.10832 570
36.12843 519
36.14855 526
36.16866 534
36.18878 550
36.20889 562
36.229 540
36.24912 565
36.26923 580
36.28934 651
36.30946 650
36.32957 684
36.34968 699
36.3698 772
36.38991 813
36.41003 930
36.43014 1007
36.45025 1110
36.47037 1212
36.49048 1165
36.51059 1080
36.53071 932
36.55082 990
36.57094 873
36.59105 792
36.61116 670
36.63128 641
36.65139 598
36.6715 537
36.69162 565
36.71173 507
36.73184 501
36.75196 477
36.77207 550
36.79219 528
36.8123 469
36.83241 521
36.85253 500
36.87264 512
36.89275 518
36.91287 508
36.93298 495
36.9531 471
36.97321 513
36.99332 456
37.01344 486
37.03355 489
37.05366 467
37.07378 455
37.09389 474
37.11401 503
37.13412 502
37.15423 464
37.17435 485
37.19446 487
37.21457 484
37.23469 489
37.2548 528
37.27491 509
37.29503 509
37.31514 518
37.33526 519
37.35537 484
37.37548 457
37.3956 482
37.41571 488
37.43582 491
37.45594 490
37.47605 486
37.49617 502
37.51628 515
37.53639 537
37.55651 540
37.57662 475
37.59673 473
37.61685 485
37.63696 499
37.65708 524
37.67719 499
37.6973 539
37.71742 500
37.73753 489
37.75764 527
37.77776 471
37.79787 514
37.81798 505
37.8381 530
37.85821 459
37.87833 532
37.89844 507
37.91855 519
37.93867 478
37.95878 497
37.97889 456
37.99901 487
38.01912 471
38.03924 518
38.05935 478
38.07946 535
38.09958 484
38.11969 491
38.1398 475
38.15992 498
38.18003 500
38.20015 502
38.22026 502
38.24037 515
38.26049 544
38.2806 520
38.30071 526
38.32083 543
38.34094 483
38.36105 526
38.38117 502
38.40128 477
38.4214 477
38.44151 508
38.46162 483
38.48174 545
38.50185 512
38.52196 515
38.54208 456
38.56219 496
38.58231 503
38.60242 471
38.62253 467
38.64265 476
38.66276 511
38.68287 451
38.70299 451
38.7231 467
38.74321 475
38.76333 441
38.78344 459
38.80356 446
38.82367 480
38.84378 469
38.8639 456
38.88401 432
38.90412 502
38.92424 429
38.94435 482
38.96447 480
38.98458 445
39.00469 491
39.02481 440
39.04492 462
39.06503 522
39.08515 464
39.10526 457
39.12538 441
39.14549 474
39.1656 490
39.18572 481
39.20583 541
39.22594 582
39.24606 599
39.26617 617
39.28628 711
39.3064 725
39.32651 800
39.34663 878
39.36674 926
39.38685 1011
39.40697 1081
39.42708 949
39.44719 874
39.46731 788
39.48742 762
39.50754 673
39.52765 647
39.54776 628
39.56788 558
39.58799 488
39.6081 469
39.62822 441
39.64833 408
39.66845 465
39.68856 435
39.70867 440
39.72879 395
39.7489 422
39.76901 402
39.78913 414
39.80924 419
39.82935 421
39.84947 437
39.86958 415
39.8897 434
39.90981 434
39.92992 428
39.95004 429
39.97015 434
39.99026 453
40.01038 446
40.03049 483
40.05061 421
40.07072 499
40.09083 506
40.11095 547
40.13106 502
40.15117 580
40.17129 652
40.1914 680
40.21152 683
40.23163 694
40.25174 618
40.27186 645
40.29197 569
40.31208 593
40.3322 545
40.35231 509
40.37242 472
40.39254 465
40.41265 405
40.43277 420
40.45288 429
40.47299 429
40.49311 423
40.51322 351
40.53333 368
40.55345 426
40.57356 363
40.59368 399
40.61379 377
40.6339 386
40.65402 427
40.67413 393
40.69424 423
40.71436 388
40.73447 433
40.75458 423
40.7747 389
40.79481 404
40.81493 406
40.83504 351
40.85515 407
40.87527 369
40.89538 396
40.91549 379
40.93561 431
40.95572 425
40.97584 410
40.99595 429
41.01606 407
41.03618 395
41.05629 394
41.0764 373
41.09652 405
41.11663 399
41.13675 390
41.15686 378
41.17697 373
41.19709 386
41.2172 372
41.23731 399
41.25743 422
41.27754 393
41.29765 389
41.31777 356
41.33788 354
41.358 401
41.37811 356
41.39822 402
41.41834 385
41.43845 392
41.45856 374
41.47868 389
41.49879 381
41.51891 355
41.53902 364
41.55913 365
41.57925 409
41.59936 392
41.61947 380
41.63959 369
41.6597 375
41.67982 403
41.69993 393
41.72004 400
41.74016 387
41.76027 393
41.78038 417
41.8005 414
41.82061 400
41.84072 388
41.86084 401
41.88095 390
41.90107 394
41.92118 400
41.94129 369
41.96141 373
41.98152 387
42.00163 368
42.02175 391
42.04186 387
42.06198 414
42.08209 389
42.1022 386
42.12232 403
42.14243 430
42.16254 425
42.18266 418
42.20277 428
42.22289 457
42.243 508
42.26311 537
42.28323 598
42.30334 665
42.32345 752
42.34357 737
42.36368 799
42.38379 826
42.40391 755
42.42402 681
42.44414 684
42.46425 624
42.48436 604
42.50448 570
42.52459 484
42.5447 491
42.56482 465
42.58493 427
42.60505 420
42.62516 372
42.64527 379
42.66539 368
42.6855 402
42.70561 378
42.72573 370
42.74584 337
42.76595 358
42.78607 357
42.80618 333
42.8263 346
42.84641 320
42.86652 343
42.88664 410
42.90675 370
42.92686 350
42.94698 386
42.96709 353
42.98721 341
43.00732 319
43.02743 345
43.04755 355
43.06766 357
43.08777 350
43.10789 319
43.128 341
43.14812 334
43.16823 368
43.18834 353
43.20846 322
43.22857 354
43.24868 341
43.2688 319
43.28891 356
43.30902 333
43.32914 374
43.34925 346
43.36937 361
43.38948 329
43.40959 324
43.42971 361
43.44982 360
43.46993 344
43.49005 327
43.51016 329
43.53028 341
43.55039 314
43.5705 355
43.59062 338
43.61073 360
43.63084 338
43.65096 335
43.67107 339
43.69119 323
43.7113 341
43.73141 336
43.75153 346
43.77164 336
43.79175 328
43.81187 309
43.83198 354
43.85209 337
43.87221 359
43.89232 322
43.91244 317
43.93255 329
43.95266 355
43.97278 340
43.99289 363
44.013 357
44.03312 341
44.05323 340
44.07335 351
44.09346 341
44.11357 332
44.13369 335
44.1538 358
44.17391 352
44.19403 376
44.21414 368
44.23426 364
44.25437 359
44.27448 329
44.2946 347
44.31471 323
44.33482 345
44.35494 334
44.37505 321
44.39516 348
44.41528 340
44.43539 352
44.45551 347
44.47562 314
44.49573 407
44.51585 319
44.53596 326
44.55607 341
44.57619 335
44.5963 354
44.61642 354
44.63653 368
44.65664 327
44.67676 368
44.69687 364
44.71698 339
44.7371 367
44.75721 337
44.77732 369
44.79744 318
44.81755 364
44.83767 361
44.85778 318
44.87789 349
44.89801 330
44.91812 354
44.93823 346
44.95835 377
44.97846 350
44.99858 374
45.01869 376
45.0388 359
45.05892 351
45.07903 338
45.09914 334
45.11926 323
45.13937 381
45.15949 352
45.1796 344
45.19971 374
45.21983 377
45.23994 379
45.26005 375
45.28017 379
45.30028 378
45.32039 400
45.34051 378
45.36062 357
45.38074 356
45.40085 367
45.42096 385
45.44108 391
45.46119 394
45.4813 406
45.50142 455
45.52153 414
45.54165 421
45.56176 441
45.58187 471
45.60199 495
45.6221 524
45.64221 530
45.66233 550
45.68244 615
45.70256 628
45.72267 608
45.74278 604
45.7629 551
45.78301 591
45.80312 514
45.82324 511
45.84335 504
45.86346 507
45.88358 449
45.90369 419
45.92381 388
45.94392 383
45.96403 386
45.98415 361
46.00426 357
46.02437 341
46.04449 353
46.0646 366
46.08472 361
46.10483 373
46.12494 370
46.14506 344
46.16517 367
46.18528 357
46.2054 353
46.22551 361
46.24563 396
46.26574 350
46.28585 365
46.30597 364
46.32608 348
46.34619 317
46.36631 370
46.38642 294
46.40653 328
46.42665 319
46.44676 338
46.46688 315
46.48699 376
46.5071 315
46.52722 353
46.54733 353
46.56744 401
46.58756 330
46.60767 328
46.62779 333
46.6479 320
46.66801 339
46.68813 341
46.70824 337
46.72835 360
46.74847 343
46.76858 328
46.78869 341
46.80881 339
46.82892 345
46.84904 331
46.86915 324
46.88926 314
46.90938 317
46.92949 310
46.9496 325
46.96972 325
46.98983 350
47.00995 365
47.03006 316
47.05017 336
47.07029 366
47.0904 337
47.11051 347
47.13063 324
47.15074 336
47.17086 350
47.19097 346
47.21108 308
47.2312 345
47.25131 322
47.27142 374
47.29154 375
47.31165 335
47.33176 303
47.35188 336
47.37199 328
47.39211 348
47.41222 330
47.43233 347
47.45245 331
47.47256 349
47.49267 326
47.51279 346
47.5329 345
47.55302 320
47.57313 324
47.59324 286
47.61336 307
47.63347 318
47.65358 352
47.6737 305
47.69381 337
47.71393 307
47.73404 309
47.75415 319
47.77427 330
47.79438 338
47.81449 319
47.83461 344
47.85472 380
47.87483 330
47.89495 319
47.91506 357
47.93518 334
47.95529 342
47.9754 358
47.99552 326
48.01563 360
48.03574 340
48.05586 342
48.07597 304
48.09609 318
48.1162 307
48.13631 314
48.15643 335
48.17654 313
48.19665 341
48.21677 317
48.23688 328
48.257 321
48.27711 302
48.29722 328
48.31734 302
48.33745 324
48.35756 312
48.37768 321
48.39779 334
48.4179 302
48.43802 316
48.45813 371
48.47825 334
48.49836 289
48.51847 314
48.53859 301
48.5587 343
48.57881 328
48.59893 323
48.61904 295
48.63916 344
48.65927 296
48.67938 290
48.6995 297
48.71961 355
48.73972 329
48.75984 317
48.77995 342
48.80006 303
48.82018 290
48.84029 337
48.86041 338
48.88052 303
48.90063 339
48.92075 319
48.94086 338
48.96097 342
48.98109 317
49.0012 317
49.02132 334
49.04143 307
49.06154 291
49.08166 310
49.10177 353
49.12188 347
49.142 303
49.16211 317
49.18223 317
49.20234 331
49.22245 327
49.24257 311
49.26268 345
49.28279 323
49.30291 287
49.32302 344
49.34313 321
49.36325 334
49.38336 334
49.40348 347
49.42359 303
49.4437 309
49.46382 329
49.48393 339
49.50404 355
49.52416 306
49.54427 341
49.56439 342
49.5845 354
49.60461 328
49.62473 337
49.64484 342
49.66495 393
49.68507 344
49.70518 342
49.7253 352
49.74541 392
49.76552 420
49.78564 396
49.80575 407
49.82586 454
49.84598 481
49.86609 517
49.8862 561
49.90632 645
49.92643 641
49.94655 761
49.96666 846
49.98677 1006
50.00689 1098
50.027 1125
50.04711 1268
50.06723 1289
50.08734 1259
50.10746 1191
50.12757 1058
50.14768 947
50.1678 863
50.18791 814
50.20802 765
50.22814 698
50.24825 656
50.26837 538
50.28848 470
50.30859 433
50.32871 389
50.34882 364
50.36893 366
50.38905 377
50.40916 401
50.42927 382
50.44939 379
50.4695 372
50.48962 384
50.50973 385
50.52984 404
50.54996 383
50.57007 360
50.59018 362
50.6103 366
50.63041 348
50.65053 334
50.67064 369
50.69075 353
50.71087 346
50.73098 338
50.75109 342
50.77121 353
50.79132 288
50.81143 318
50.83155 342
50.85166 310
50.87178 335
50.89189 322
50.912 312
50.93212 314
50.95223 317
50.97234 299
50.99246 317
51.01257 298
51.03269 290
51.0528 297
51.07291 310
51.09303 290
51.11314 303
51.13325 304
51.15337 312
51.17348 293
51.1936 318
51.21371 348
51.23382 296
51.25394 293
51.27405 306
51.29416 311
51.31428 297
51.33439 278
51.3545 314
51.37462 284
51.39473 315
51.41485 301
51.43496 309
51.45507 290
51.47519 306
51.4953 281
51.51541 314
51.53553 288
51.55564 270
51.57576 270
51.59587 288
51.61598 320
51.6361 295
51.65621 283
51.67632 299
51.69644 293
51.71655 298
51.73667 276
51.75678 282
51.77689 287
51.79701 305
51.81712 273
51.83723 304
51.85735 280
51.87746 286
51.89757 298
51.91769 270
51.9378 282
51.95792 299
51.97803 290
51.99814 274
52.01826 308
52.03837 269
52.05848 298
52.0786 325
52.09871 306
52.11883 314
52.13894 304
52.15905 310
52.17917 306
52.19928 298
52.21939 313
52.23951 306
52.25962 301
52.27974 291
52.29985 305
52.31996 309
52.34008 306
52.36019 290
52.3803 294
52.40042 302
52.42053 292
52.44064 278
52.46076 313
52.48087 311
52.50099 292
52.5211 265
52.54121 295
52.56133 268
52.58144 295
52.60155 284
52.62167 328
52.64178 275
52.6619 295
52.68201 296
52.70212 297
52.72224 320
52.74235 324
52.76246 331
52.78258 292
52.80269 305
52.8228 327
52.84292 314
52.86303 325
52.88315 320
52.90326 298
52.92337 303
52.94349 340
52.9636 334
52.98371 319
53.00383 299
53.02394 291
53.04406 341
53.06417 316
53.08428 334
53.1044 336
53.12451 319
53.14462 346
53.16474 311
53.18485 326
53.20497 318
53.22508 346
53.24519 325
53.26531 317
53.28542 329
53.30553 299
53.32565 344
53.34576 341
53.36587 334
53.38599 358
53.4061 358
53.42622 320
53.44633 345
53.46644 327
53.48656 337
53.50667 300
53.52678 367
53.5469 340
53.56701 338
53.58713 352
53.60724 328
53.62735 344
53.64747 375
53.66758 318
53.68769 358
53.70781 340
53.72792 372
53.74804 384
53.76815 341
53.78826 322
53.80838 343
53.82849 359
53.8486 368
53.86872 382
53.88883 392
53.90894 337
53.92906 366
53.94917 390
53.96929 376
53.9894 403
54.00951 345
54.02963 356
54.04974 393
54.06985 377
54.08997 378
54.11008 361
54.1302 341
54.15031 379
54.17042 359
54.19054 387
54.21065 385
54.23076 392
54.25088 411
54.27099 384
54.29111 384
54.31122 387
54.33133 401
54.35145 396
54.37156 411
54.39167 391
54.41179 422
54.4319 421
54.45201 396
54.47213 429
54.49224 399
54.51236 399
54.53247 368
54.55258 447
54.5727 407
54.59281 455
54.61292 460
54.63304 490
54.65315 495
54.67327 525
54.69338 540
54.71349 628
54.73361 676
54.75372 639
54.77383 680
54.79395 609
54.81406 690
54.83417 616
54.85429 615
54.8744 630
54.89452 550
54.91463 554
54.93474 547
54.95486 512
54.97497 538
54.99508 498
55.0152 466
55.03531 451
55.05543 453
55.07554 395
55.09565 455
55.11577 459
55.13588 473
55.15599 503
55.17611 504
55.19622 480
55.21634 487
55.23645 499
55.25656 504
55.27668 484
55.29679 519
55.3169 462
55.33702 458
55.35713 466
55.37724 427
55.39736 440
55.41747 385
55.43759 407
55.4577 405
55.47781 403
55.49793 376
55.51804 387
55.53815 379
55.55827 343
55.57838 365
55.5985 397
55.61861 388
55.63872 374
55.65884 373
55.67895 357
55.69906 374
55.71918 376
55.73929 342
55.75941 404
55.77952 383
55.79963 368
55.81975 352
55.83986 347
55.85997 370
55.88009 360
55.9002 352
55.92031 340
55.94043 373
55.96054 347
55.98066 356
56.00077 394
56.02088 341
56.041 367
56.06111 363
56.08122 352
56.10134 347
56.12145 344
56.14157 370
56.16168 339
56.18179 328
56.20191 340
56.22202 351
56.24213 358
56.26225 317
56.28236 362
56.30248 308
56.32259 365
56.3427 348
56.36282 353
56.38293 341
56.40304 339
56.42316 325
56.44327 337
56.46338 312
56.4835 344
56.50361 314
56.52373 351
56.54384 363
56.56395 311
56.58407 329
56.60418 333
56.62429 322
56.64441 360
56.66452 323
56.68464 323
56.70475 339
56.72486 336
56.74498 347
56.76509 340
56.7852 339
56.80532 367
56.82543 331
56.84554 339
56.86566 318
56.88577 360
56.90589 307
56.926 297
56.94611 356
56.96623 347
56.98634 341
57.00645 349
57.02657 348
57.04668 339
57.0668 358
57.08691 316
57.10702 338
57.12714 330
57.14725 359
57.16736 354
57.18748 347
57.20759 326
57.22771 316
57.24782 320
57.26793 330
57.28805 342
57.30816 339
57.32827 361
57.34839 321
57.3685 306
57.38861 321
57.40873 350
57.42884 331
57.44896 296
57.46907 295
57.48918 319
57.5093 316
57.52941 339
57.54952 271
57.56964 289
57.58975 292
57.60987 290
57.62998 322
57.65009 285
57.67021 323
57.69032 303
57.71043 290
57.73055 335
57.75066 341
57.77078 305
57.79089 299
57.811 299
57.83112 277
57.85123 337
57.87134 340
57.89146 312
57.91157 287
57.93168 317
57.9518 284
57.97191 306
57.99203 295
58.01214 303
58.03225 338
58.05237 286
58.07248 313
58.09259 330
58.11271 337
58.13282 320
58.15294 304
58.17305 318
58.19316 286
58.21328 302
58.23339 329
58.2535 319
58.27362 323
58.29373 296
58.31385 323
58.33396 289
58.35407 331
58.37419 284
58.3943 314
58.41441 300
58.43453 321
58.45464 321
58.47475 305
58.49487 323
58.51498 327
58.5351 318
58.55521 338
58.57532 325
58.59544 322
58.61555 314
58.63566 318
58.65578 303
58.67589 305
58.69601 300
58.71612 330
58.73623 302
58.75635 340
58.77646 307
58.79657 305
58.81669 287
58.8368 304
58.85691 334
58.87703 285
58.89714 320
58.91726 320
58.93737 350
58.95748 304
58.9776 313
58.99771 335
59.01782 323
59.03794 333
59.05805 332
59.07817 298
59.09828 318
59.11839 324
59.13851 308
59.15862 332
59.17873 309
59.19885 317
59.21896 319
59.23908 337
59.25919 354
59.2793 308
59.29942 335
59.31953 333
59.33964 327
59.35976 339
59.37987 324
59.39998 318
59.4201 303
59.44021 354
59.46033 336
59.48044 316
59.50055 328
59.52067 356
59.54078 358
59.56089 365
59.58101 405
59.60112 382
59.62124 385
59.64135 399
59.66146 442
59.68158 491
59.70169 509
59.7218 551
59.74192 616
59.76203 618
59.78215 737
59.80226 765
59.82237 835
59.84249 939
59.8626 928
59.88271 886
59.90283 870
59.92294 840
59.94305 756
59.96317 653
59.98328 675
60.0034 667
60.02351 634
60.04362 628
60.06374 613
60.08385 506
60.10396 462
60.12408 460
60.14419 423
60.16431 390
60.18442 377
60.20453 372
60.22465 358
60.24476 377
60.26487 340
60.28499 343
60.3051 338
60.32522 346
60.34533 360
60.36544 328
60.38556 353
60.40567 343
60.42578 300
60.4459 341
60.46601 333
60.48612 338
60.50624 348
60.52635 346
60.54647 342
60.56658 323
60.58669 310
60.60681 318
60.62692 320
60.64703 359
60.66715 338
60.68726 301
60.70738 330
60.72749 349
60.7476 349
60.76772 330
60.78783 317
60.80794 334
60.82806 343
60.84817 311
60.86828 330
60.8884 354
60.90851 367
60.92863 346
60.94874 349
60.96885 322
60.98897 344
61.00908 353
61.02919 355
61.04931 362
61.06942 399
61.08954 374
61.10965 353
61.12976 345
61.14988 353
61.16999 397
61.1901 402
61.21022 374
61.23033 365
61.25045 408
61.27056 404
61.29067 402
61.31079 385
61.3309 409
61.35101 404
61.37113 405
61.39124 422
61.41135 395
61.43147 420
61.45158 376
61.4717 379
61.49181 400
61.51192 414
61.53204 397
61.55215 389
61.57226 437
61.59238 412
61.61249 419
61.63261 452
61.65272 430
61.67283 407
61.69295 416
61.71306 481
61.73317 419
61.75329 442
61.7734 442
61.79352 411
61.81363 432
61.83374 433
61.85386 432
61.87397 428
61.89408 399
61.9142 466
61.93431 425
61.95442 451
61.97454 455
61.99465 437
62.01477 443
62.03488 476
62.05499 487
62.07511 484
62.09522 483
62.11533 484
62.13545 468
62.15556 484
62.17568 438
62.19579 479
62.2159 441
62.23602 460
62.25613 424
62.27624 403
62.29636 405
62.31647 400
62.33659 382
62.3567 392
62.37681 400
62.39693 383
62.41704 418
62.43715 396
62.45727 391
62.47738 385
62.49749 342
62.51761 365
62.53772 376
62.55784 378
62.57795 362
62.59806 379
62.61818 336
62.63829 344
62.6584 301
62.67852 370
62.69863 329
62.71875 373
62.73886 357
62.75897 327
62.77909 348
62.7992 338
62.81931 322
62.83943 329
62.85954 337
62.87965 327
62.89977 324
62.91988 344
62.94 334
62.96011 342
62.98022 344
63.00034 356
63.02045 318
63.04056 334
63.06068 332
63.08079 310
63.10091 317
63.12102 358
63.14113 322
63.16125 328
63.18136 362
63.20147 362
63.22159 296
63.2417 322
63.26182 296
63.28193 313
63.30204 321
63.32216 276
63.34227 319
63.36238 327
63.3825 310
63.40261 274
63.42272 290
63.44284 300
63.46295 299
63.48307 348
63.50318 326
63.52329 324
63.54341 301
63.56352 296
63.58363 328
63.60375 328
63.62386 347
63.64398 319
63.66409 328
63.6842 309
63.70432 348
63.72443 334
63.74454 344
63.76466 328
63.78477 359
63.80489 349
63.825 357
63.84511 381
63.86523 339
63.88534 378
63.90545 410
63.92557 404
63.94568 419
63.96579 446
63.98591 385
64.00602 380
64.02614 385
64.04625 390
64.06636 375
64.08648 361
64.10659 396
64.1267 340
64.14682 359
64.16693 319
64.18705 322
64.20716 282
64.22727 319
64.24739 331
64.2675 320
64.28761 306
64.30773 290
64.32784 290
64.34796 279
64.36807 314
64.38818 276
64.4083 288
64.42841 299
64.44852 300
64.46864 304
64.48875 296
64.50886 308
64.52898 277
64.54909 288
64.56921 289
64.58932 282
64.60943 285
64.62955 292
64.64966 285
64.66977 303
64.68989 297
64.71 311
64.73012 294
64.75023 309
64.77034 323
64.79046 277
64.81057 271
64.83068 269
64.8508 310
64.87091 283
64.89102 283
64.91114 300
64.93125 300
64.95137 285
64.97148 277
64.99159 296
65.01171 269
65.03182 280
65.05193 302
65.07205 298
65.09216 299
65.11228 307
65.13239 301
65.1525 291
65.17262 290
65.19273 293
65.21284 277
65.23296 288
65.25307 304
65.27319 298
65.2933 285
65.31341 300
65.33353 280
65.35364 260
65.37375 300
65.39387 287
65.41398 295
65.43409 327
65.45421 355
65.47432 305
65.49444 293
65.51455 305
65.53466 270
65.55478 328
65.57489 320
65.595 312
65.61512 312
65.63523 310
65.65535 322
65.67546 301
65.69557 316
65.71569 312
65.7358 316
65.75591 323
65.77603 296
65.79614 306
65.81626 300
65.83637 268
65.85648 270
65.8766 325
65.89671 333
65.91682 296
65.93694 289
65.95705 306
65.97716 299
65.99728 304
66.01739 293
66.03751 299
66.05762 316
66.07773 261
66.09785 279
66.11796 296
66.13807 319
66.15819 272
66.1783 308
66.19842 311
66.21853 269
66.23864 297
66.25876 314
66.27887 309
66.29898 288
66.3191 294
66.33921 308
66.35933 285
66.37944 278
66.39955 288
66.41967 281
66.43978 294
66.45989 278
66.48001 315
66.50012 296
66.52023 266
66.54035 291
66.56046 283
66.58058 315
66.60069 281
66.6208 310
66.64092 281
66.66103 262
66.68114 297
66.70126 289
66.72137 270
66.74149 314
66.7616 295
66.78171 275
66.80183 308
66.82194 276
66.84205 303
66.86217 297
66.88228 280
66.90239 284
66.92251 275
66.94262 302
66.96274 261
66.98285 299
67.00296 303
67.02308 307
67.04319 297
67.0633 298
67.08342 287
67.10353 312
67.12365 277
67.14376 301
67.16387 326
67.18399 304
67.2041 300
67.22421 286
67.24433 305
67.26444 302
67.28456 341
67.30467 305
67.32478 340
67.3449 357
67.36501 354
67.38512 362
67.40524 340
67.42535 370
67.44546 382
67.46558 383
67.48569 405
67.50581 427
67.52592 461
67.54603 522
67.56615 517
67.58626 603
67.60637 611
67.62649 633
67.6466 653
67.66672 700
67.68683 632
67.70694 607
67.72706 574
67.74717 554
67.76728 490
67.7874 524
67.80751 548
67.82763 541
67.84774 546
67.86785 603
67.88797 603
67.90808 599
67.92819 605
67.94831 602
67.96842 695
67.98853 690
68.00865 732
68.02876 756
68.04888 812
68.06899 825
68.0891 825
68.10922 751
68.12933 760
68.14944 706
68.16956 728
68.18967 750
68.20979 790
68.2299 804
68.25001 756
68.27013 676
68.29024 670
68.31035 615
68.33047 536
68.35058 537
68.3707 476
68.39081 449
68.41092 448
68.43104 486
68.45115 440
68.47126 389
68.49138 385
68.51149 352
68.5316 349
68.55172 311
68.57183 317
68.59195 343
68.61206 339
68.63217 333
68.65229 329
68.6724 337
68.69251 328
68.71263 319
68.73274 280
68.75286 254
68.77297 299
68.79308 340
68.8132 304
68.83331 258
68.85342 309
68.87354 281
68.89365 290
68.91376 272
68.93388 305
68.95399 280
68.97411 293
68.99422 302
69.01433 303
69.03445 301
69.05456 312
69.07467 301
69.09479 303
69.1149 270
69.13502 284
69.15513 282
69.17524 281
69.19536 303
69.21547 308
69.23558 277
69.2557 285
69.27581 279
69.29593 313
69.31604 276
69.33615 292
69.35627 276
69.37638 268
69.39649 294
69.41661 307
69.43672 292
69.45683 289
69.47695 300
69.49706 308
69.51718 275
69.53729 263
69.5574 268
69.57752 278
69.59763 283
69.61774 272
69.63786 258
69.65797 309
69.67809 280
69.6982 289
69.71831 286
69.73843 268
69.75854 311
69.77865 279
69.79877 268
69.81888 266
69.839 289
69.85911 308
69.87922 257
69.89934 278
69.91945 306
69.93956 304
69.95968 294
69.97979 296
69.9999 260
70.02002 288
70.04013 278
70.06025 314
70.08036 277
70.10047 292
70.12059 283
70.1407 286
70.16081 307
70.18093 262
70.20104 298
70.22116 283
70.24127 289
70.26138 278
70.2815 299
70.30161 293
70.32172 274
70.34184 281
70.36195 277
70.38207 260
70.40218 288
70.42229 274
70.44241 332
70.46252 245
70.48263 295
70.50275 285
70.52286 291
70.54297 279
70.56309 260
70.5832 267
70.60332 277
70.62343 282
70.64354 291
70.66366 272
70.68377 280
70.70388 286
70.724 278
70.74411 281
70.76423 291
70.78434 304
70.80445 274
70.82457 308
70.84468 255
70.86479 260
70.88491 286
70.90502 307
70.92513 281
70.94525 278
70.96536 300
70.98548 270
71.00559 270
71.0257 272
71.04582 293
71.06593 286
71.08604 281
71.10616 256
71.12627 272
71.14639 280
71.1665 271
71.18661 295
71.20673 294
71.22684 282
71.24695 291
71.26707 293
71.28718 300
71.3073 266
71.32741 274
71.34752 275
71.36764 299
71.38775 253
71.40786 273
71.42798 288
71.44809 278
71.4682 300
71.48832 286
71.50843 292
71.52855 268
71.54866 287
71.56877 272
71.58889 258
71.609 279
71.62911 280
71.64923 283
71.66934 293
71.68946 303
71.70957 303
71.72968 259
71.7498 297
71.76991 302
71.79002 321
71.81014 325
71.83025 281
71.85037 318
71.87048 290
71.89059 271
71.91071 292
71.93082 292
71.95093 302
71.97105 303
71.99116 283
72.01127 263
72.03139 291
72.0515 306
72.07162 304
72.09173 282
72.11184 301
72.13196 319
72.15207 278
72.17218 294
72.1923 321
72.21241 282
72.23253 287
72.25264 274
72.27275 295
72.29287 308
72.31298 301
72.33309 312
72.35321 299
72.37332 307
72.39344 299
72.41355 266
72.43366 304
72.45378 321
72.47389 280
72.494 285
72.51412 265
72.53423 332
72.55434 270
72.57446 298
72.59457 322
72.61469 303
72.6348 312
72.65491 325
72.67503 284
72.69514 303
72.71525 295
72.73537 308
72.75548 290
72.7756 311
72.79571 298
72.81582 297
72.83594 299
72.85605 314
72.87616 313
72.89628 312
72.91639 317
72.9365 315
72.95662 311
72.97673 301
72.99685 309
73.01696 325
73.03707 354
73.05719 315
73.0773 349
73.09741 324
73.11753 367
73.13764 317
73.15776 359
73.17787 359
73.19798 353
73.2181 382
73.23821 386
73.25832 374
73.27844 412
73.29855 410
73.31867 381
73.33878 433
73.35889 423
73.37901 462
73.39912 445
73.41923 422
73.43935 408
73.45946 407
73.47957 377
73.49969 372
73.5198 370
73.53992 391
73.56003 379
73.58014 380
73.60026 376
73.62037 369
73.64048 344
73.6606 348
73.68071 375
73.70083 339
73.72094 332
73.74105 340
73.76117 342
73.78128 323
73.80139 318
73.82151 339
73.84162 304
73.86174 297
73.88185 321
73.90196 302
73.92208 334
73.94219 362
73.9623 263
73.98242 315
74.00253 289
74.02264 284
74.04276 288
74.06287 309
74.08299 289
74.1031 337
74.12321 280
74.14333 291
74.16344 308
74.18355 295
74.20367 282
74.22378 290
74.2439 298
74.26401 294
74.28412 315
74.30424 282
74.32435 304
74.34446 269
74.36458 299
74.38469 308
74.40481 308
74.42492 306
74.44503 313
74.46515 296
74.48526 297
74.50537 274
74.52549 281
74.5456 278
74.56571 272
74.58583 273
74.60594 270
74.62606 281
74.64617 274
74.66628 245
74.6864 281
74.70651 302
74.72662 301
74.74674 292
74.76685 309
74.78697 267
74.80708 273
74.82719 278
74.84731 294
74.86742 309
74.88753 269
74.90765 325
74.92776 308
74.94787 300
74.96799 270
74.9881 319
75.00822 316
