3.00117 19271
3.02128 18057
3.0414 18072
3.06151 17098
3.08162 16913
3.10174 16830
3.12185 15896
3.14197 15669
3.16208 15072
3.18219 14767
3.20231 14634
3.22242 13561
3.24253 13714
3.26265 13040
3.28276 12571
3.30288 12310
3.32299 12105
3.3431 11680
3.36322 11301
3.38333 10947
3.40344 10609
3.42356 9948
3.44367 9889
3.46379 9440
3.4839 9170
3.50401 9001
3.52413 8585
3.54424 8464
3.56435 7817
3.58447 7558
3.60458 7585
3.62469 6914
3.64481 6981
3.66492 6400
3.68504 6295
3.70515 6272
3.72526 5810
3.74538 5493
3.76549 5392
3.7856 5203
3.80572 5030
3.82583 4680
3.84595 4617
3.86606 4489
3.88617 4229
3.90629 4073
3.9264 3856
3.94651 3685
3.96663 3475
3.98674 3264
4.00686 3386
4.02697 3018
4.04708 3070
4.0672 2844
4.08731 2813
4.10742 2885
4.12754 2497
4.14765 2433
4.16776 2293
4.18788 2283
4.20799 2340
4.22811 1913
4.24822 2086
4.26833 1972
4.28845 1867
4.30856 1937
4.32867 1699
4.34879 1735
4.3689 1710
4.38902 1650
4.40913 1753
4.42924 1572
4.44936 1581
4.46947 1594
4.48958 1519
4.5097 1461
4.52981 1346
4.54992 1437
4.57004 1404
4.59015 1364
4.61027 1359
4.63038 1194
4.65049 1337
4.67061 1227
4.69072 1209
4.71083 1199
4.73095 1168
4.75106 1142
4.77118 1103
4.79129 1132
4.8114 1097
4.83152 1045
4.85163 1041
4.87174 1023
4.89186 1028
4.91197 946
4.93209 930
4.9522 957
4.97231 870
4.99243 893
5.01254 908
5.03265 829
5.05277 781
5.07288 915
5.09299 886
5.11311 818
5.13322 776
5.15334 800
5.17345 790
5.19356 827
5.21368 725
5.23379 720
5.2539 754
5.27402 723
5.29413 721
5.31425 693
5.33436 682
5.35447 692
5.37459 698
5.3947 735
5.41481 663
5.43493 627
5.45504 625
5.47516 595
5.49527 646
5.51538 604
5.5355 651
5.55561 600
5.57572 612
5.59584 590
5.61595 600
5.63606 647
5.65618 574
5.67629 593
5.69641 557
5.71652 569
5.73663 579
5.75675 525
5.77686 542
5.79697 553
5.81709 565
5.8372 550
5.85732 536
5.87743 544
5.89754 550
5.91766 507
5.93777 562
5.95788 503
5.978 514
5.99811 513
6.01823 537
6.03834 492
6.05845 539
6.07857 534
6.09868 506
6.11879 469
6.13891 509
6.15902 506
6.17913 442
6.19925 502
6.21936 488
6.23948 506
6.25959 480
6.2797 507
6.29982 506
6.31993 436
6.34004 479
6.36016 503
6.38027 473
6.40039 464
6.4205 465
6.44061 463
6.46073 486
6.48084 432
6.50095 484
6.52107 471
6.54118 440
6.56129 481
6.58141 453
6.60152 429
6.62164 440
6.64175 431
6.66186 427
6.68198 409
6.70209 419
6.7222 424
6.74232 411
6.76243 425
6.78255 444
6.80266 409
6.82277 437
6.84289 403
6.863 433
6.88311 455
6.90323 408
6.92334 405
6.94346 403
6.96357 418
6.98368 451
7.0038 382
7.02391 420
7.04402 429
7.06414 362
7.08425 430
7.10436 355
7.12448 384
7.14459 390
7.16471 368
7.18482 420
7.20493 375
7.22505 413
7.24516 397
7.26527 396
7.28539 431
7.3055 378
7.32562 407
7.34573 427
7.36584 413
7.38596 385
7.40607 353
7.42618 395
7.4463 406
7.46641 397
7.48653 437
7.50664 350
7.52675 373
7.54687 374
7.56698 382
7.58709 410
7.60721 376
7.62732 393
7.64743 377
7.66755 365
7.68766 344
7.70778 404
7.72789 380
7.748 379
7.76812 365
7.78823 440
7.80834 380
7.82846 379
7.84857 378
7.86869 390
7.8888 393
7.90891 366
7.92903 378
7.94914 387
7.96925 396
7.98937 385
8.00948 383
8.0296 383
8.04971 381
8.06982 345
8.08994 411
8.11005 378
8.13016 387
8.15028 414
8.17039 397
8.1905 408
8.21062 395
8.23073 376
8.25085 379
8.27096 345
8.29107 366
8.31119 381
8.3313 390
8.35141 397
8.37153 383
8.39164 408
8.41176 388
8.43187 354
8.45198 413
8.4721 380
8.49221 432
8.51232 380
8.53244 374
8.55255 381
8.57266 395
8.59278 432
8.61289 396
8.63301 380
8.65312 404
8.67323 383
8.69335 374
8.71346 398
8.73357 391
8.75369 396
8.7738 382
8.79392 394
8.81403 406
8.83414 487
8.85426 396
8.87437 385
8.89448 372
8.9146 376
8.93471 402
8.95483 376
8.97494 373
8.99505 356
9.01517 380
9.03528 360
9.05539 362
9.07551 389
9.09562 350
9.11573 337
9.13585 357
9.15596 379
9.17608 350
9.19619 336
9.2163 361
9.23642 350
9.25653 342
9.27664 383
9.29676 398
9.31687 366
9.33699 395
9.3571 375
9.37721 360
9.39733 370
9.41744 358
9.43755 333
9.45767 383
9.47778 352
9.4979 355
9.51801 327
9.53812 390
9.55824 370
9.57835 306
9.59846 367
9.61858 349
9.63869 323
9.6588 337
9.67892 334
9.69903 356
9.71915 375
9.73926 339
9.75937 357
9.77949 381
9.7996 339
9.81971 376
9.83983 347
9.85994 370
9.88006 402
9.90017 363
9.92028 323
9.9404 349
9.96051 355
9.98062 363
10.00074 384
10.02085 345
10.04097 345
10.06108 346
10.08119 324
10.10131 354
10.12142 366
10.14153 338
10.16165 352
10.18176 401
10.20187 371
10.22199 384
10.2421 343
10.26222 392
10.28233 341
10.30244 360
10.32256 364
10.34267 332
10.36278 361
10.3829 355
10.40301 361
10.42313 333
10.44324 335
10.46335 318
10.48347 364
10.50358 382
10.52369 395
10.54381 332
10.56392 343
10.58403 351
10.60415 351
10.62426 399
10.64438 356
10.66449 350
10.6846 367
10.70472 353
10.72483 345
10.74494 342
10.76506 378
10.78517 307
10.80529 344
10.8254 381
10.84551 369
10.86563 363
10.88574 322
10.90585 338
10.92597 383
10.94608 318
10.9662 398
10.98631 323
11.00642 353
11.02654 351
11.04665 345
11.06676 373
11.08688 388
11.10699 398
11.1271 364
11.14722 375
11.16733 363
11.18745 335
11.20756 352
11.22767 354
11.24779 383
11.2679 388
11.28801 332
11.30813 376
11.32824 337
11.34836 375
11.36847 426
11.38858 399
11.4087 361
11.42881 390
11.44892 386
11.46904 368
11.48915 403
11.50927 375
11.52938 404
11.54949 383
11.56961 394
11.58972 419
11.60983 370
11.62995 398
11.65006 370
11.67017 341
11.69029 432
11.7104 416
11.73052 386
11.75063 373
11.77074 380
11.79086 435
11.81097 411
11.83108 407
11.8512 442
11.87131 387
11.89143 399
11.91154 414
11.93165 434
11.95177 409
11.97188 456
11.99199 428
12.01211 419
12.03222 406
12.05234 408
12.07245 429
12.09256 459
12.11268 413
12.13279 416
12.1529 382
12.17302 403
12.19313 376
12.21324 442
12.23336 433
12.25347 420
12.27359 416
12.2937 406
12.31381 372
12.33393 401
12.35404 401
12.37415 394
12.39427 332
12.41438 384
12.4345 411
12.45461 363
12.47472 364
12.49484 394
12.51495 350
12.53506 367
12.55518 354
12.57529 369
12.5954 352
12.61552 314
12.63563 359
12.65575 390
12.67586 359
12.69597 374
12.71609 346
12.7362 393
12.75631 354
12.77643 329
12.79654 365
12.81666 354
12.83677 366
12.85688 325
12.877 369
12.89711 335
12.91722 308
12.93734 355
12.95745 358
12.97757 363
12.99768 340
13.01779 355
13.03791 280
13.05802 311
13.07813 350
13.09825 302
13.11836 337
13.13847 319
13.15859 320
13.1787 345
13.19882 315
13.21893 343
13.23904 339
13.25916 334
13.27927 381
13.29938 333
13.3195 364
13.33961 370
13.35973 339
13.37984 342
13.39995 375
13.42007 315
13.44018 324
13.46029 345
13.48041 351
13.50052 356
13.52064 318
13.54075 373
13.56086 364
13.58098 374
13.60109 378
13.6212 395
13.64132 356
13.66143 367
13.68154 412
13.70166 357
13.72177 391
13.74189 413
13.762 390
13.78211 391
13.80223 383
13.82234 337
13.84245 356
13.86257 331
13.88268 335
13.9028 354
13.92291 326
13.94302 332
13.96314 346
13.98325 340
14.00336 332
14.02348 298
14.04359 334
14.06371 318
14.08382 302
14.10393 288
14.12405 345
14.14416 355
14.16427 318
14.18439 307
14.2045 331
14.22461 343
14.24473 316
14.26484 345
14.28496 300
14.30507 346
14.32518 334
14.3453 316
14.36541 263
14.38552 285
14.40564 296
14.42575 317
14.44587 289
14.46598 299
14.48609 281
14.50621 303
14.52632 359
14.54643 333
14.56655 269
14.58666 290
14.60677 273
14.62689 320
14.647 324
14.66712 350
14.68723 307
14.70734 312
14.72746 288
14.74757 330
14.76768 306
14.7878 326
14.80791 288
14.82803 275
14.84814 327
14.86825 324
14.88837 311
14.90848 315
14.92859 339
14.94871 319
14.96882 342
14.98894 350
15.00905 359
15.02916 368
15.04928 362
15.06939 371
15.0895 383
15.10962 363
15.12973 360
15.14984 352
15.16996 363
15.19007 331
15.21019 310
15.2303 312
15.25041 287
15.27053 287
15.29064 285
15.31075 286
15.33087 323
15.35098 314
15.3711 301
15.39121 283
15.41132 326
15.43144 318
15.45155 311
15.47166 360
15.49178 339
15.51189 289
15.53201 324
15.55212 330
15.57223 278
15.59235 330
15.61246 292
15.63257 310
15.65269 325
15.6728 299
15.69291 312
15.71303 273
15.73314 290
15.75326 293
15.77337 348
15.79348 287
15.8136 295
15.83371 309
15.85382 300
15.87394 297
15.89405 290
15.91417 332
15.93428 291
15.95439 304
15.97451 292
15.99462 313
16.01473 294
16.03485 301
16.05496 297
16.07508 328
16.09519 312
16.1153 286
16.13542 274
16.15553 304
16.17564 317
16.19576 297
16.21587 302
16.23598 299
16.2561 288
16.27621 321
16.29633 289
16.31644 299
16.33655 303
16.35667 313
16.37678 294
16.39689 293
16.41701 297
16.43712 313
16.45724 295
16.47735 306
16.49746 322
16.51758 290
16.53769 318
16.5578 295
16.57792 312
16.59803 327
16.61814 312
16.63826 289
16.65837 329
16.67849 310
16.6986 294
16.71871 297
16.73883 320
16.75894 303
16.77905 311
16.79917 327
16.81928 322
16.8394 308
16.85951 292
16.87962 305
16.89974 315
16.91985 288
16.93996 308
16.96008 313
16.98019 312
17.00031 316
17.02042 290
17.04053 308
17.06065 313
17.08076 323
17.10087 312
17.12099 321
17.1411 324
17.16121 295
17.18133 315
17.20144 269
17.22156 327
17.24167 293
17.26178 292
17.2819 309
17.30201 344
17.32212 303
17.34224 279
17.36235 320
17.38247 315
17.40258 301
17.42269 323
17.44281 284
17.46292 344
17.48303 319
17.50315 285
17.52326 306
17.54338 301
17.56349 296
17.5836 317
17.60372 287
17.62383 331
17.64394 322
17.66406 277
17.68417 306
17.70428 347
17.7244 310
17.74451 323
17.76463 306
17.78474 327
17.80485 317
17.82497 311
17.84508 326
17.86519 301
17.88531 310
17.90542 306
17.92554 319
17.94565 284
17.96576 302
17.98588 310
18.00599 315
18.0261 308
18.04622 326
18.06633 312
18.08645 318
18.10656 294
18.12667 333
18.14679 307
18.1669 308
18.18701 300
18.20713 319
18.22724 278
18.24735 304
18.26747 320
18.28758 315
18.3077 304
18.32781 287
18.34792 331
18.36804 301
18.38815 310
18.40826 319
18.42838 325
18.44849 288
18.46861 334
18.48872 317
18.50883 294
18.52895 290
18.54906 315
18.56917 315
18.58929 290
18.6094 288
18.62951 321
18.64963 308
18.66974 309
18.68986 317
18.70997 347
18.73008 303
18.7502 334
18.77031 354
18.79042 326
18.81054 336
18.83065 308
18.85077 325
18.87088 343
18.89099 355
18.91111 312
18.93122 356
18.95133 345
18.97145 319
18.99156 331
19.01168 343
19.03179 331
19.0519 350
19.07202 371
19.09213 360
19.11224 331
19.13236 343
19.15247 356
19.17258 350
19.1927 327
19.21281 357
19.23293 368
19.25304 395
19.27315 333
19.29327 387
19.31338 384
19.33349 387
19.35361 395
19.37372 379
19.39384 398
19.41395 382
19.43406 409
19.45418 383
19.47429 399
19.4944 432
19.51452 464
19.53463 408
19.55475 450
19.57486 461
19.59497 450
19.61509 451
19.6352 469
19.65531 482
19.67543 507
19.69554 526
19.71565 513
19.73577 557
19.75588 569
19.776 548
19.79611 569
19.81622 585
19.83634 554
19.85645 555
19.87656 582
19.89668 587
19.91679 610
19.93691 561
19.95702 528
19.97713 570
19.99725 541
20.01736 536
20.03747 543
20.05759 518
20.0777 579
20.09782 532
20.11793 526
20.13804 485
20.15816 524
20.17827 534
20.19838 523
20.2185 508
20.23861 570
20.25872 545
20.27884 561
20.29895 522
20.31907 549
20.33918 515
20.35929 544
20.37941 540
20.39952 537
20.41963 527
20.43975 528
20.45986 514
20.47998 592
20.50009 567
20.5202 553
20.54032 572
20.56043 673
20.58054 691
20.60066 692
20.62077 757
20.64088 867
20.661 1027
20.68111 1183
20.70123 1465
20.72134 1731
20.74145 1938
20.76157 2216
20.78168 2456
20.80179 2568
20.82191 2523
20.84202 2522
20.86214 2207
20.88225 2053
20.90236 1748
20.92248 1390
20.94259 1272
20.9627 1051
20.98282 1026
21.00293 939
21.02305 901
21.04316 870
21.06327 755
21.08339 715
21.1035 615
21.12361 596
21.14373 641
21.16384 590
21.18395 527
21.20407 570
21.22418 566
21.2443 535
21.26441 542
21.28452 524
21.30464 537
21.32475 499
21.34486 559
21.36498 525
21.38509 524
21.40521 488
21.42532 491
21.44543 518
21.46555 504
21.48566 431
21.50577 464
21.52589 454
21.546 470
21.56612 476
21.58623 489
21.60634 499
21.62646 471
21.64657 456
21.66668 461
21.6868 461
21.70691 464
21.72702 473
21.74714 444
21.76725 506
21.78737 497
21.80748 547
21.82759 550
21.84771 573
21.86782 598
21.88793 627
21.90805 663
21.92816 692
21.94828 703
21.96839 657
21.9885 600
22.00862 612
22.02873 561
22.04884 563
22.06896 459
22.08907 485
22.10919 499
22.1293 430
22.14941 498
22.16953 476
22.18964 412
22.20975 438
22.22987 472
22.24998 445
22.27009 433
22.29021 435
22.31032 403
22.33044 428
22.35055 443
22.37066 450
22.39078 479
22.41089 494
22.431 541
22.45112 524
22.47123 501
22.49135 466
22.51146 486
22.53157 450
22.55169 466
22.5718 451
22.59191 424
22.61203 396
22.63214 426
22.65225 412
22.67237 439
22.69248 426
22.7126 417
22.73271 420
22.75282 422
22.77294 439
22.79305 462
22.81316 476
22.83328 421
22.85339 491
22.87351 495
22.89362 470
22.91373 432
22.93385 448
22.95396 461
22.97407 491
22.99419 433
23.0143 437
23.03442 453
23.05453 463
23.07464 428
23.09476 428
23.11487 436
23.13498 436
23.1551 462
23.17521 497
23.19532 414
23.21544 461
23.23555 448
23.25567 499
23.27578 479
23.29589 474
23.31601 475
23.33612 495
23.35623 516
23.37635 601
23.39646 617
23.41658 604
23.43669 637
23.4568 664
23.47692 753
23.49703 717
23.51714 784
23.53726 780
23.55737 749
23.57749 733
23.5976 721
23.61771 725
23.63783 617
23.65794 593
23.67805 579
23.69817 602
23.71828 554
23.73839 533
23.75851 554
23.77862 556
23.79874 569
23.81885 574
23.83896 585
23.85908 543
23.87919 582
23.8993 506
23.91942 475
23.93953 484
23.95965 486
23.97976 471
23.99987 483
24.01999 466
24.0401 481
24.06021 486
24.08033 453
24.10044 465
24.12056 502
24.14067 483
24.16078 457
24.1809 524
24.20101 463
24.22112 552
24.24124 530
24.26135 530
24.28146 536
24.30158 547
24.32169 527
24.34181 519
24.36192 509
24.38203 515
24.40215 535
24.42226 555
24.44237 449
24.46249 465
24.4826 476
24.50272 478
24.52283 500
24.54294 481
24.56306 493
24.58317 490
24.60328 487
24.6234 488
24.64351 489
24.66362 465
24.68374 441
24.70385 462
24.72397 489
24.74408 539
24.76419 432
24.78431 490
24.80442 495
24.82453 447
24.84465 487
24.86476 501
24.88488 496
24.90499 486
24.9251 482
24.94522 516
24.96533 509
24.98544 541
25.00556 519
25.02567 508
25.04579 515
25.0659 526
25.08601 531
25.10613 488
25.12624 505
25.14635 469
25.16647 575
25.18658 488
25.20669 506
25.22681 501
25.24692 464
25.26704 528
25.28715 479
25.30726 484
25.32738 484
25.34749 513
25.3676 493
25.38772 565
25.40783 507
25.42795 550
25.44806 573
25.46817 562
25.48829 659
25.5084 632
25.52851 702
25.54863 732
25.56874 734
25.58886 735
25.60897 776
25.62908 753
25.6492 689
25.66931 693
25.68942 677
25.70954 602
25.72965 636
25.74976 571
25.76988 553
25.78999 538
25.81011 496
25.83022 515
25.85033 524
25.87045 543
25.89056 492
25.91067 554
25.93079 543
25.9509 548
25.97102 547
25.99113 534
26.01124 523
26.03136 510
26.05147 511
26.07158 584
26.0917 645
26.11181 627
26.13193 642
26.15204 614
26.17215 646
26.19227 699
26.21238 829
26.23249 832
26.25261 851
26.27272 971
26.29283 1034
26.31295 1146
26.33306 1409
26.35318 1613
26.37329 1853
26.3934 2281
26.41352 2862
26.43363 3425
26.45374 4125
26.47386 5159
26.49397 6260
26.51409 7378
26.5342 8575
26.55431 9701
26.57443 10206
26.59454 9989
26.61465 9404
26.63477 8702
26.65488 7407
26.67499 5975
26.69511 4591
26.71522 3462
26.73534 2619
26.75545 2013
26.77556 1701
26.79568 1445
26.81579 1291
26.8359 1253
26.85602 1209
26.87613 1250
26.89625 1158
26.91636 1166
26.93647 1076
26.95659 1072
26.9767 1047
26.99681 1088
27.01693 1034
27.03704 1024
27.05716 936
27.07727 906
27.09738 894
27.1175 798
27.13761 753
27.15772 694
27.17784 704
27.19795 651
27.21806 666
27.23818 597
27.25829 641
27.27841 712
27.29852 747
27.31863 743
27.33875 791
27.35886 854
27.37897 958
27.39909 955
27.4192 1064
27.43932 1106
27.45943 1009
27.47954 1091
27.49966 986
27.51977 1051
27.53988 989
27.56 869
27.58011 860
27.60023 860
27.62034 880
27.64045 924
27.66057 894
27.68068 895
27.70079 908
27.72091 990
27.74102 986
27.76113 1010
27.78125 958
27.80136 1055
27.82148 952
27.84159 916
27.8617 821
27.88182 862
27.90193 762
27.92204 777
27.94216 735
27.96227 717
27.98239 697
28.0025 702
28.02261 689
28.04273 681
28.06284 650
28.08295 515
28.10307 517
28.12318 589
28.1433 524
28.16341 494
28.18352 495
28.20364 503
28.22375 526
28.24386 585
28.26398 567
28.28409 495
28.3042 507
28.32432 444
28.34443 470
28.36455 417
28.38466 420
28.40477 422
28.42489 391
28.445 411
28.46511 383
28.48523 419
28.50534 380
28.52546 442
28.54557 362
28.56568 386
28.5858 381
28.60591 382
28.62602 392
28.64614 418
28.66625 364
28.68636 396
28.70648 370
28.72659 366
28.74671 381
28.76682 352
28.78693 363
28.80705 336
28.82716 358
28.84727 360
28.86739 368
28.8875 396
28.90762 339
28.92773 364
28.94784 380
28.96796 329
28.98807 362
29.00818 365
29.0283 355
29.04841 402
29.06853 363
29.08864 371
29.10875 369
29.12887 362
29.14898 412
29.16909 373
29.18921 349
29.20932 372
29.22943 388
29.24955 388
29.26966 393
29.28978 359
29.30989 371
29.33 361
29.35012 341
29.37023 401
29.39034 391
29.41046 364
29.43057 377
29.45069 393
29.4708 392
29.49091 454
29.51103 436
29.53114 446
29.55125 411
29.57137 444
29.59148 477
29.6116 453
29.63171 538
29.65182 525
29.67194 487
29.69205 550
29.71216 642
29.73228 576
29.75239 658
29.7725 590
29.79262 617
29.81273 527
29.83285 582
29.85296 556
29.87307 499
29.89319 548
29.9133 512
29.93341 497
29.95353 494
29.97364 456
29.99376 494
30.01387 439
30.03398 429
30.0541 418
30.07421 399
30.09432 377
30.11444 463
30.13455 423
30.15467 428
30.17478 413
30.19489 435
30.21501 444
30.23512 464
30.25523 482
30.27535 489
30.29546 461
30.31557 515
30.33569 476
30.3558 484
30.37592 462
30.39603 467
30.41614 469
30.43626 519
30.45637 460
30.47648 448
30.4966 459
30.51671 410
30.53683 453
30.55694 456
30.57705 419
30.59717 435
30.61728 487
30.63739 437
30.65751 488
30.67762 507
30.69773 547
30.71785 554
30.73796 519
30.75808 510
30.77819 492
30.7983 513
30.81842 479
30.83853 471
30.85864 430
30.87876 408
30.89887 411
30.91899 380
30.9391 354
30.95921 337
30.97933 371
30.99944 348
31.01955 325
31.03967 330
31.05978 350
31.0799 377
31.10001 356
31.12012 358
31.14024 349
31.16035 368
31.18046 377
31.20058 380
31.22069 363
31.2408 347
31.26092 375
31.28103 366
31.30115 385
31.32126 371
31.34137 395
31.36149 381
31.3816 391
31.40171 348
31.42183 397
31.44194 342
31.46206 361
31.48217 334
31.50228 346
31.5224 351
31.54251 356
31.56262 326
31.58274 370
31.60285 342
31.62297 353
31.64308 358
31.66319 339
31.68331 333
31.70342 350
31.72353 342
31.74365 293
31.76376 357
31.78387 327
31.80399 361
31.8241 350
31.84422 357
31.86433 302
31.88444 363
31.90456 350
31.92467 379
31.94478 319
31.9649 340
31.98501 350
32.00513 362
32.02524 376
32.04535 344
32.06547 370
32.08558 376
32.10569 390
32.12581 434
32.14592 387
32.16604 419
32.18615 412
32.20626 403
32.22638 433
32.24649 427
32.2666 426
32.28672 484
32.30683 431
32.32694 447
32.34706 423
32.36717 423
32.38729 420
32.4074 436
32.42751 425
32.44763 383
32.46774 381
32.48785 412
32.50797 417
32.52808 412
32.5482 370
32.56831 363
32.58842 405
32.60854 414
32.62865 406
32.64876 395
32.66888 370
32.68899 370
32.7091 368
32.72922 340
32.74933 372
32.76945 338
32.78956 358
32.80967 378
32.82979 365
32.8499 362
32.87001 379
32.89013 389
32.91024 407
32.93036 397
32.95047 397
32.97058 413
32.9907 416
33.01081 381
33.03092 394
33.05104 368
33.07115 389
33.09127 378
33.11138 408
33.13149 375
33.15161 388
33.17172 371
33.19183 352
33.21195 380
33.23206 373
33.25217 431
33.27229 360
33.2924 370
33.31252 366
33.33263 376
33.35274 394
33.37286 383
33.39297 373
33.41308 352
33.4332 388
33.45331 346
33.47343 368
33.49354 361
33.51365 361
33.53377 348
33.55388 391
33.57399 383
33.59411 380
33.61422 380
33.63434 377
33.65445 330
33.67456 382
33.69468 407
33.71479 401
33.7349 401
33.75502 377
33.77513 423
33.79524 369
33.81536 395
33.83547 403
33.85559 366
33.8757 380
33.89581 350
33.91593 379
33.93604 393
33.95615 386
33.97627 373
33.99638 377
34.0165 385
34.03661 386
34.05672 391
34.07684 373
34.09695 397
34.11706 417
34.13718 423
34.15729 425
34.17741 419
34.19752 427
34.21763 409
34.23775 436
34.25786 462
34.27797 464
34.29809 443
34.3182 463
34.33831 474
34.35843 442
34.37854 463
34.39866 473
34.41877 500
34.43888 446
34.459 474
34.47911 415
34.49922 463
34.51934 447
34.53945 453
34.55957 481
34.57968 462
34.59979 513
34.61991 479
34.64002 514
34.66013 505
34.68025 549
34.70036 528
34.72047 500
34.74059 555
34.7607 574
34.78082 553
34.80093 570
34.82104 519
34.84116 580
34.86127 573
34.88138 583
34.9015 572
34.92161 555
34.94173 550
34.96184 533
34.98195 540
35.00207 524
35.02218 539
35.04229 497
35.06241 545
35.08252 507
35.10264 593
35.12275 556
35.14286 558
35.16298 556
35.18309 510
35.2032 500
35.22332 513
35.24343 543
35.26354 595
35.28366 549
35.30377 554
35.32389 553
35.344 489
35.36411 569
35.38423 538
35.40434 537
35.42445 505
35.44457 540
35.46468 535
35.4848 537
35.50491 517
35.52502 518
35.54514 516
35.56525 537
35.58536 486
35.60548 514
35.62559 557
35.64571 485
35.66582 502
35.68593 432
35.70605 489
35.72616 493
35.74627 476
35.76639 449
35.7865 490
35.80661 467
35.82673 454
35.84684 447
35.86696 479
35.88707 448
35.90718 476
35.9273 447
35.94741 492
35.96752 505
35.98764 510
36.00775 496
36.02787 523
36.04798 478
36.06809 439
36.08821 501
36.10832 490
36.12843 463
36.14855 460
36.16866 465
36.18878 496
36.20889 462
36.229 512
36.24912 505
36.26923 537
36.28934 574
36.30946 617
36.32957 658
36.34968 680
36.3698 736
36.38991 873
36.41003 882
36.43014 960
36.45025 1004
36.47037 990
36.49048 982
36.51059 963
36.53071 935
36.55082 880
36.57094 777
36.59105 705
36.61116 555
36.63128 604
36.65139 538
36.6715 477
36.69162 462
36.71173 487
36.73184 520
36.75196 471
36.77207 463
36.79219 433
36.8123 435
36.83241 459
36.85253 478
36.87264 464
36.89275 501
36.91287 431
36.93298 456
36.9531 409
36.97321 441
36.99332 442
37.01344 461
37.03355 418
37.05366 464
37.07378 437
37.09389 425
37.11401 467
37.13412 465
37.15423 427
37.17435 448
37.19446 461
37.21457 414
37.23469 466
37.2548 409
37.27491 429
37.29503 442
37.31514 405
37.33526 393
37.35537 388
37.37548 396
37.3956 413
37.41571 404
37.43582 395
37.45594 423
37.47605 374
37.49617 449
37.51628 402
37.53639 420
37.55651 443
37.57662 421
37.59673 430
37.61685 441
37.63696 388
37.65708 422
37.67719 445
37.6973 455
37.71742 421
37.73753 378
37.75764 413
37.77776 433
37.79787 420
37.81798 429
37.8381 411
37.85821 399
37.87833 395
37.89844 378
37.91855 400
37.93867 389
37.95878 399
37.97889 408
37.99901 393
38.01912 366
38.03924 392
38.05935 384
38.07946 393
38.09958 417
38.11969 364
38.1398 436
38.15992 418
38.18003 391
38.20015 391
38.22026 416
38.24037 411
38.26049 389
38.2806 412
38.30071 403
38.32083 403
38.34094 372
38.36105 404
38.38117 403
38.40128 448
38.4214 363
38.44151 379
38.46162 390
38.48174 408
38.50185 345
38.52196 387
38.54208 422
38.56219 374
38.58231 417
38.60242 423
38.62253 414
38.64265 373
38.66276 451
38.68287 409
38.70299 401
38.7231 373
38.74321 364
38.76333 380
38.78344 383
38.80356 355
38.82367 372
38.84378 368
38.8639 411
38.88401 401
38.90412 399
38.92424 407
38.94435 370
38.96447 364
38.98458 372
39.00469 397
39.02481 422
39.04492 408
39.06503 451
39.08515 422
39.10526 438
39.12538 442
39.14549 433
39.1656 435
39.18572 513
39.20583 508
39.22594 588
39.24606 598
39.26617 674
39.28628 724
39.3064 731
39.32651 776
39.34663 836
39.36674 953
39.38685 904
39.40697 872
39.42708 925
39.44719 773
39.46731 806
39.48742 695
39.50754 671
39.52765 618
39.54776 577
39.56788 537
39.58799 462
39.6081 438
39.62822 434
39.64833 434
39.66845 410
39.68856 401
39.70867 390
39.72879 390
39.7489 378
39.76901 340
39.78913 361
39.80924 377
39.82935 368
39.84947 380
39.86958 400
39.8897 382
39.90981 374
39.92992 387
39.95004 400
39.97015 401
39.99026 394
40.01038 456
40.03049 465
40.05061 420
40.07072 457
40.09083 519
40.11095 539
40.13106 565
40.15117 587
40.17129 613
40.1914 634
40.21152 679
40.23163 637
40.25174 613
40.27186 602
40.29197 582
40.31208 504
40.3322 519
40.35231 480
40.37242 493
40.39254 443
40.41265 435
40.43277 405
40.45288 375
40.47299 331
40.49311 387
40.51322 362
40.53333 360
40.55345 404
40.57356 394
40.59368 363
40.61379 374
40.6339 362
40.65402 372
40.67413 403
40.69424 363
40.71436 368
40.73447 398
40.75458 416
40.7747 383
40.79481 407
40.81493 379
40.83504 393
40.85515 428
40.87527 365
40.89538 379
40.91549 354
40.93561 348
40.95572 404
40.97584 390
40.99595 344
41.01606 351
41.03618 398
41.05629 357
41.0764 364
41.09652 364
41.11663 379
41.13675 407
41.15686 371
41.17697 347
41.19709 379
41.2172 358
41.23731 380
41.25743 363
41.27754 377
41.29765 358
41.31777 346
41.33788 396
41.358 343
41.37811 375
41.39822 392
41.41834 400
41.43845 392
41.45856 396
41.47868 409
41.49879 387
41.51891 404
41.53902 416
41.55913 434
41.57925 405
41.59936 446
41.61947 469
41.63959 453
41.6597 452
41.67982 469
41.69993 446
41.72004 416
41.74016 431
41.76027 395
41.78038 402
41.8005 388
41.82061 398
41.84072 314
41.86084 334
41.88095 351
41.90107 344
41.92118 381
41.94129 333
41.96141 377
41.98152 339
42.00163 366
42.02175 366
42.04186 391
42.06198 409
42.08209 405
42.1022 415
42.12232 393
42.14243 407
42.16254 454
42.18266 492
42.20277 508
42.22289 467
42.243 543
42.26311 584
42.28323 620
42.30334 672
42.32345 713
42.34357 719
42.36368 768
42.38379 770
42.40391 749
42.42402 716
42.44414 686
42.46425 644
42.48436 621
42.50448 545
42.52459 551
42.5447 498
42.56482 505
42.58493 440
42.60505 421
42.62516 439
42.64527 355
42.66539 364
42.6855 394
42.70561 405
42.72573 405
42.74584 400
42.76595 395
42.78607 413
42.80618 344
42.8263 385
42.84641 342
42.86652 348
42.88664 370
42.90675 363
42.92686 368
42.94698 341
42.96709 374
42.98721 321
43.00732 349
43.02743 310
43.04755 358
43.06766 348
43.08777 309
43.10789 296
43.128 327
43.14812 359
43.16823 323
43.18834 298
43.20846 295
43.22857 306
43.24868 294
43.2688 307
43.28891 306
43.30902 283
43.32914 330
43.34925 295
43.36937 329
43.38948 335
43.40959 307
43.42971 305
43.44982 292
43.46993 337
43.49005 306
43.51016 328
43.53028 328
43.55039 331
43.5705 309
43.59062 318
43.61073 337
43.63084 312
43.65096 301
43.67107 326
43.69119 351
43.7113 308
43.73141 301
43.75153 345
43.77164 319
43.79175 356
43.81187 354
43.83198 301
43.85209 309
43.87221 315
43.89232 336
43.91244 339
43.93255 321
43.95266 310
43.97278 321
43.99289 322
44.013 352
44.03312 324
44.05323 352
44.07335 318
44.09346 293
44.11357 368
44.13369 319
44.1538 345
44.17391 323
44.19403 332
44.21414 302
44.23426 299
44.25437 318
44.27448 321
44.2946 301
44.31471 299
44.33482 307
44.35494 297
44.37505 329
44.39516 303
44.41528 301
44.43539 305
44.45551 324
44.47562 268
44.49573 314
44.51585 309
44.53596 326
44.55607 341
44.57619 349
44.5963 308
44.61642 334
44.63653 282
44.65664 307
44.67676 313
44.69687 312
44.71698 286
44.7371 316
44.75721 315
44.77732 319
44.79744 344
44.81755 326
44.83767 305
44.85778 324
44.87789 334
44.89801 336
44.91812 323
44.93823 373
44.95835 346
44.97846 342
44.99858 340
45.01869 358
45.0388 360
45.05892 340
45.07903 410
45.09914 368
45.11926 344
45.13937 338
45.15949 368
45.1796 329
45.19971 358
45.21983 352
45.23994 332
45.26005 366
45.28017 328
45.30028 402
45.32039 325
45.34051 359
45.36062 390
45.38074 367
45.40085 397
45.42096 385
45.44108 363
45.46119 406
45.4813 420
45.50142 428
45.52153 440
45.54165 412
45.56176 458
45.58187 442
45.60199 480
45.6221 551
45.64221 564
45.66233 565
45.68244 577
45.70256 625
45.72267 588
45.74278 600
45.7629 552
45.78301 544
45.80312 540
45.82324 494
45.84335 478
45.86346 473
45.88358 443
45.90369 432
45.92381 402
45.94392 422
45.96403 396
45.98415 360
46.00426 340
46.02437 354
46.04449 376
46.0646 356
46.08472 326
46.10483 341
46.12494 303
46.14506 330
46.16517 320
46.18528 293
46.2054 294
46.22551 319
46.24563 324
46.26574 337
46.28585 342
46.30597 296
46.32608 338
46.34619 357
46.36631 336
46.38642 335
46.40653 326
46.42665 296
46.44676 303
46.46688 339
46.48699 304
46.5071 325
46.52722 306
46.54733 315
46.56744 301
46.58756 320
46.60767 295
46.62779 318
46.6479 324
46.66801 305
46.68813 313
46.70824 291
46.72835 335
46.74847 340
46.76858 326
46.78869 318
46.80881 322
46.82892 340
46.84904 340
46.86915 340
46.88926 320
46.90938 303
46.92949 295
46.9496 358
46.96972 378
46.98983 348
47.00995 373
47.03006 327
47.05017 348
47.07029 325
47.0904 357
47.11051 348
47.13063 356
47.15074 357
47.17086 360
47.19097 375
47.21108 343
47.2312 367
47.25131 356
47.27142 342
47.29154 366
47.31165 339
47.33176 381
47.35188 372
47.37199 365
47.39211 333
47.41222 363
47.43233 339
47.45245 329
47.47256 344
47.49267 357
47.51279 354
47.5329 371
47.55302 301
47.57313 311
47.59324 335
47.61336 337
47.63347 321
47.65358 316
47.6737 306
47.69381 283
47.71393 304
47.73404 341
47.75415 343
47.77427 299
47.79438 297
47.81449 357
47.83461 319
47.85472 280
47.87483 317
47.89495 301
47.91506 310
47.93518 286
47.95529 287
47.9754 340
47.99552 336
48.01563 324
48.03574 277
48.05586 326
48.07597 317
48.09609 328
48.1162 294
48.13631 323
48.15643 362
48.17654 297
48.19665 320
48.21677 323
48.23688 367
48.257 328
48.27711 317
48.29722 324
48.31734 324
48.33745 324
48.35756 344
48.37768 324
48.39779 346
48.4179 334
48.43802 311
48.45813 330
48.47825 340
48.49836 300
48.51847 317
48.53859 344
48.5587 316
48.57881 331
48.59893 318
48.61904 340
48.63916 371
48.65927 344
48.67938 334
48.6995 380
48.71961 340
48.73972 343
48.75984 345
48.77995 317
48.80006 323
48.82018 365
48.84029 355
48.86041 327
48.88052 341
48.90063 373
48.92075 357
48.94086 363
48.96097 315
48.98109 354
49.0012 378
49.02132 376
49.04143 373
49.06154 366
49.08166 380
49.10177 346
49.12188 351
49.142 363
49.16211 371
49.18223 360
49.20234 372
49.22245 374
49.24257 361
49.26268 333
49.28279 354
49.30291 377
49.32302 335
49.34313 317
49.36325 335
49.38336 341
49.40348 358
49.42359 359
49.4437 354
49.46382 349
49.48393 395
49.50404 380
49.52416 352
49.54427 381
49.56439 359
49.5845 361
49.60461 378
49.62473 388
49.64484 423
49.66495 395
49.68507 428
49.70518 465
49.7253 467
49.74541 451
49.76552 472
49.78564 555
49.80575 561
49.82586 518
49.84598 628
49.86609 651
49.8862 700
49.90632 751
49.92643 841
49.94655 808
49.96666 1045
49.98677 1017
50.00689 1154
50.027 1141
50.04711 1214
50.06723 1271
50.08734 1165
50.10746 1147
50.12757 1043
50.14768 974
50.1678 896
50.18791 785
50.20802 756
50.22814 724
50.24825 642
50.26837 550
50.28848 524
50.30859 443
50.32871 411
50.34882 382
50.36893 400
50.38905 414
50.40916 416
50.42927 479
50.44939 459
50.4695 450
50.48962 438
50.50973 434
50.52984 451
50.54996 488
50.57007 451
50.59018 469
50.6103 472
50.63041 467
50.65053 491
50.67064 481
50.69075 471
50.71087 467
50.73098 450
50.75109 429
50.77121 410
50.79132 396
50.81143 366
50.83155 368
50.85166 371
50.87178 382
50.89189 340
50.912 355
50.93212 341
50.95223 318
50.97234 348
50.99246 335
51.01257 346
51.03269 335
51.0528 322
51.07291 345
51.09303 307
51.11314 291
51.13325 348
51.15337 313
51.17348 343
51.1936 337
51.21371 343
51.23382 338
51.25394 362
51.27405 315
51.29416 348
51.31428 353
51.33439 344
51.3545 336
51.37462 353
51.39473 335
51.41485 340
51.43496 302
51.45507 329
51.47519 322
51.4953 326
51.51541 347
51.53553 331
51.55564 294
51.57576 302
51.59587 285
51.61598 286
51.6361 322
51.65621 331
51.67632 304
51.69644 296
51.71655 313
51.73667 320
51.75678 332
51.77689 280
51.79701 320
51.81712 300
51.83723 330
51.85735 290
51.87746 297
51.89757 296
51.91769 290
51.9378 307
51.95792 303
51.97803 295
51.99814 324
52.01826 296
52.03837 313
52.05848 323
52.0786 327
52.09871 321
52.11883 289
52.13894 326
52.15905 303
52.17917 312
52.19928 285
52.21939 329
52.23951 317
52.25962 291
52.27974 304
52.29985 320
52.31996 343
52.34008 309
52.36019 318
52.3803 306
52.40042 335
52.42053 330
52.44064 329
52.46076 353
52.48087 300
52.50099 309
52.5211 330
52.54121 349
52.56133 313
52.58144 315
52.60155 318
52.62167 310
52.64178 307
52.6619 307
52.68201 344
52.70212 313
52.72224 314
52.74235 312
52.76246 310
52.78258 329
52.80269 331
52.8228 360
52.84292 311
52.86303 346
52.88315 330
52.90326 339
52.92337 342
52.94349 306
52.9636 388
52.98371 347
53.00383 356
53.02394 376
53.04406 343
53.06417 368
53.08428 375
53.1044 375
53.12451 350
53.14462 361
53.16474 382
53.18485 373
53.20497 364
53.22508 336
53.24519 356
53.26531 358
53.28542 343
53.30553 358
53.32565 339
53.34576 372
53.36587 369
53.38599 333
53.4061 349
53.42622 365
53.44633 345
53.46644 343
53.48656 376
53.50667 340
53.52678 373
53.5469 344
53.56701 336
53.58713 358
53.60724 369
53.62735 370
53.64747 372
53.66758 345
53.68769 376
53.70781 349
53.72792 348
53.74804 338
53.76815 365
53.78826 361
53.80838 350
53.82849 367
53.8486 360
53.86872 394
53.88883 364
53.90894 416
53.92906 383
53.94917 415
53.96929 374
53.9894 325
54.00951 368
54.02963 339
54.04974 374
54.06985 361
54.08997 366
54.11008 405
54.1302 351
54.15031 395
54.17042 353
54.19054 376
54.21065 413
54.23076 354
54.25088 384
54.27099 381
54.29111 359
54.31122 379
54.33133 360
54.35145 394
54.37156 403
54.39167 366
54.41179 370
54.4319 375
54.45201 394
54.47213 422
54.49224 383
54.51236 395
54.53247 450
54.55258 420
54.5727 433
54.59281 437
54.61292 452
54.63304 490
54.65315 508
54.67327 514
54.69338 524
54.71349 555
54.73361 568
54.75372 611
54.77383 615
54.79395 652
54.81406 607
54.83417 616
54.85429 574
54.8744 571
54.89452 509
54.91463 529
54.93474 553
54.95486 482
54.97497 517
54.99508 452
55.0152 411
55.03531 465
55.05543 461
55.07554 403
55.09565 395
55.11577 438
55.13588 399
55.15599 449
55.17611 428
55.19622 461
55.21634 460
55.23645 472
55.25656 504
55.27668 476
55.29679 486
55.3169 405
55.33702 413
55.35713 431
55.37724 448
55.39736 419
55.41747 397
55.43759 385
55.4577 360
55.47781 357
55.49793 381
55.51804 375
55.53815 348
55.55827 336
55.57838 326
55.5985 351
55.61861 375
55.63872 331
55.65884 318
55.67895 347
55.69906 322
55.71918 317
55.73929 322
55.75941 306
55.77952 326
55.79963 307
55.81975 305
55.83986 321
55.85997 357
55.88009 343
55.9002 319
55.92031 306
55.94043 316
55.96054 321
55.98066 286
56.00077 333
56.02088 312
56.041 327
56.06111 318
56.08122 340
56.10134 331
56.12145 334
56.14157 336
56.16168 354
56.18179 317
56.20191 308
56.22202 324
56.24213 334
56.26225 317
56.28236 324
56.30248 338
56.32259 337
56.3427 355
56.36282 384
56.38293 346
56.40304 314
56.42316 329
56.44327 348
56.46338 308
56.4835 316
56.50361 358
56.52373 335
56.54384 357
56.56395 317
56.58407 339
56.60418 355
56.62429 325
56.64441 311
56.66452 316
56.68464 357
56.70475 312
56.72486 306
56.74498 303
56.76509 298
56.7852 333
56.80532 328
56.82543 312
56.84554 309
56.86566 277
56.88577 303
56.90589 292
56.926 305
56.94611 326
56.96623 310
56.98634 315
57.00645 330
57.02657 328
57.04668 326
57.0668 324
57.08691 357
57.10702 314
57.12714 310
57.14725 336
57.16736 345
57.18748 291
57.20759 330
57.22771 324
57.24782 313
57.26793 358
57.28805 312
57.30816 331
57.32827 345
57.34839 311
57.3685 311
57.38861 325
57.40873 331
57.42884 326
57.44896 301
57.46907 313
57.48918 332
57.5093 297
57.52941 306
57.54952 302
57.56964 326
57.58975 301
57.60987 320
57.62998 332
57.65009 305
57.67021 308
57.69032 305
57.71043 283
57.73055 313
57.75066 303
57.77078 288
57.79089 332
57.811 298
57.83112 318
57.85123 360
57.87134 310
57.89146 312
57.91157 324
57.93168 304
57.9518 306
57.97191 308
57.99203 301
58.01214 318
58.03225 293
58.05237 326
58.07248 297
58.09259 303
58.11271 313
58.13282 282
58.15294 276
58.17305 306
58.19316 357
58.21328 302
58.23339 297
58.2535 312
58.27362 320
58.29373 327
58.31385 289
58.33396 312
58.35407 352
58.37419 323
58.3943 288
58.41441 307
58.43453 348
58.45464 303
58.47475 321
58.49487 335
58.51498 341
58.5351 323
58.55521 345
58.57532 343
58.59544 335
58.61555 298
58.63566 347
58.65578 342
58.67589 323
58.69601 330
58.71612 300
58.73623 343
58.75635 323
58.77646 286
58.79657 313
58.81669 331
58.8368 322
58.85691 335
58.87703 313
58.89714 302
58.91726 312
58.93737 339
58.95748 299
58.9776 290
58.99771 287
59.01782 348
59.03794 292
59.05805 356
59.07817 295
59.09828 329
59.11839 354
59.13851 307
59.15862 310
59.17873 339
59.19885 322
59.21896 322
59.23908 321
59.25919 326
59.2793 324
59.29942 314
59.31953 326
59.33964 331
59.35976 315
59.37987 349
59.39998 367
59.4201 332
59.44021 314
59.46033 318
59.48044 365
59.50055 382
59.52067 394
59.54078 386
59.56089 378
59.58101 425
59.60112 435
59.62124 445
59.64135 466
59.66146 573
59.68158 525
59.70169 588
59.7218 602
59.74192 664
59.76203 712
59.78215 794
59.80226 762
59.82237 816
59.84249 865
59.8626 842
59.88271 884
59.90283 870
59.92294 818
59.94305 783
59.96317 715
59.98328 676
60.0034 661
60.02351 648
60.04362 562
60.06374 603
60.08385 567
60.10396 541
60.12408 468
60.14419 445
60.16431 415
60.18442 351
60.20453 392
60.22465 349
60.24476 339
60.26487 343
60.28499 362
60.3051 348
60.32522 365
60.34533 384
60.36544 324
60.38556 371
60.40567 327
60.42578 350
60.4459 358
60.46601 325
60.48612 306
60.50624 343
60.52635 322
60.54647 330
60.56658 355
60.58669 324
60.60681 341
60.62692 356
60.64703 361
60.66715 333
60.68726 336
60.70738 326
60.72749 323
60.7476 328
60.76772 316
60.78783 340
60.80794 359
60.82806 308
60.84817 317
60.86828 331
60.8884 344
60.90851 342
60.92863 305
60.94874 361
60.96885 328
60.98897 366
61.00908 315
61.02919 323
61.04931 354
61.06942 339
61.08954 366
61.10965 318
61.12976 347
61.14988 343
61.16999 364
61.1901 315
61.21022 351
61.23033 328
61.25045 334
61.27056 325
61.29067 352
61.31079 328
61.3309 301
61.35101 357
61.37113 363
61.39124 366
61.41135 349
61.43147 346
61.45158 361
61.4717 350
61.49181 353
61.51192 329
61.53204 361
61.55215 354
61.57226 383
61.59238 357
61.61249 373
61.63261 352
61.65272 367
61.67283 335
61.69295 382
61.71306 367
61.73317 373
61.75329 376
61.7734 377
61.79352 421
61.81363 398
61.83374 359
61.85386 391
61.87397 444
61.89408 384
61.9142 392
61.93431 417
61.95442 407
61.97454 421
61.99465 414
62.01477 440
62.03488 412
62.05499 427
62.07511 422
62.09522 415
62.11533 421
62.13545 396
62.15556 395
62.17568 400
62.19579 406
62.2159 407
62.23602 374
62.25613 381
62.27624 386
62.29636 425
62.31647 358
62.33659 382
62.3567 380
62.37681 342
62.39693 365
62.41704 363
62.43715 327
62.45727 379
62.47738 361
62.49749 322
62.51761 340
62.53772 363
62.55784 347
62.57795 327
62.59806 329
62.61818 363
62.63829 349
62.6584 352
62.67852 336
62.69863 304
62.71875 319
62.73886 340
62.75897 336
62.77909 312
62.7992 327
62.81931 352
62.83943 328
62.85954 328
62.87965 325
62.89977 311
62.91988 328
62.94 307
62.96011 343
62.98022 346
63.00034 324
63.02045 346
63.04056 351
63.06068 348
63.08079 315
63.10091 321
63.12102 346
63.14113 312
63.16125 333
63.18136 337
63.20147 323
63.22159 326
63.2417 328
63.26182 313
63.28193 332
63.30204 320
63.32216 318
63.34227 332
63.36238 312
63.3825 319
63.40261 317
63.42272 340
63.44284 345
63.46295 311
63.48307 336
63.50318 319
63.52329 343
63.54341 372
63.56352 344
63.58363 346
63.60375 331
63.62386 367
63.64398 370
63.66409 376
63.6842 351
63.70432 401
63.72443 362
63.74454 389
63.76466 400
63.78477 407
63.80489 394
63.825 401
63.84511 417
63.86523 440
63.88534 423
63.90545 455
63.92557 444
63.94568 430
63.96579 448
63.98591 412
64.00602 404
64.02614 395
64.04625 390
64.06636 421
64.08648 411
64.10659 400
64.1267 378
64.14682 423
64.16693 351
64.18705 374
64.20716 364
64.22727 362
64.24739 367
64.2675 329
64.28761 319
64.30773 333
64.32784 328
64.34796 316
64.36807 320
64.38818 313
64.4083 293
64.42841 342
64.44852 348
64.46864 307
64.48875 317
64.50886 325
64.52898 325
64.54909 324
64.56921 349
64.58932 336
64.60943 305
64.62955 324
64.64966 337
64.66977 312
64.68989 318
64.71 312
64.73012 309
64.75023 342
64.77034 342
64.79046 298
64.81057 320
64.83068 316
64.8508 300
64.87091 325
64.89102 327
64.91114 344
64.93125 341
64.95137 325
64.97148 325
64.99159 346
65.01171 300
65.03182 341
65.05193 350
65.07205 349
65.09216 330
65.11228 308
65.13239 304
65.1525 332
65.17262 312
65.19273 322
65.21284 318
65.23296 340
65.25307 285
65.27319 327
65.2933 299
65.31341 313
65.33353 321
65.35364 286
65.37375 306
65.39387 336
65.41398 324
65.43409 304
65.45421 326
65.47432 331
65.49444 305
65.51455 311
65.53466 322
65.55478 348
65.57489 328
65.595 331
65.61512 326
65.63523 314
65.65535 338
65.67546 320
65.69557 327
65.71569 306
65.7358 327
65.75591 335
65.77603 310
65.79614 307
65.81626 301
65.83637 297
65.85648 291
65.8766 297
65.89671 334
65.91682 332
65.93694 324
65.95705 341
65.97716 355
65.99728 330
66.01739 316
66.03751 316
66.05762 298
66.07773 308
66.09785 305
66.11796 315
66.13807 319
66.15819 313
66.1783 313
66.19842 321
66.21853 312
66.23864 296
66.25876 308
66.27887 275
66.29898 300
66.3191 316
66.33921 298
66.35933 354
66.37944 306
66.39955 318
66.41967 326
66.43978 354
66.45989 302
66.48001 322
66.50012 294
66.52023 321
66.54035 291
66.56046 299
66.58058 317
66.60069 274
66.6208 299
66.64092 306
66.66103 308
66.68114 293
66.70126 309
66.72137 238
66.74149 316
66.7616 311
66.78171 286
66.80183 274
66.82194 307
66.84205 310
66.86217 285
66.88228 298
66.90239 316
66.92251 307
66.94262 293
66.96274 309
66.98285 298
67.00296 326
67.02308 311
67.04319 306
67.0633 319
67.08342 342
67.10353 303
67.12365 354
67.14376 305
67.16387 363
67.18399 341
67.2041 309
67.22421 353
67.24433 334
67.26444 323
67.28456 352
67.30467 323
67.32478 368
67.3449 355
67.36501 372
67.38512 368
67.40524 400
67.42535 398
67.44546 445
67.46558 447
67.48569 495
67.50581 530
67.52592 508
67.54603 578
67.56615 587
67.58626 691
67.60637 629
67.62649 674
67.6466 674
67.66672 660
67.68683 632
67.70694 681
67.72706 647
67.74717 616
67.76728 670
67.7874 596
67.80751 621
67.82763 623
67.84774 661
67.86785 609
67.88797 619
67.90808 668
67.92819 654
67.94831 687
67.96842 679
67.98853 694
68.00865 780
68.02876 836
68.04888 853
68.06899 837
68.0891 802
68.10922 857
68.12933 815
68.14944 811
68.16956 786
68.18967 774
68.20979 777
68.2299 773
68.25001 742
68.27013 666
68.29024 669
68.31035 611
68.33047 516
68.35058 559
68.3707 482
68.39081 509
68.41092 492
68.43104 421
68.45115 416
68.47126 425
68.49138 412
68.51149 376
68.5316 379
68.55172 337
68.57183 366
68.59195 351
68.61206 318
68.63217 284
68.65229 314
68.6724 312
68.69251 348
68.71263 306
68.73274 353
68.75286 301
68.77297 311
68.79308 304
68.8132 325
68.83331 314
68.85342 325
68.87354 324
68.89365 316
68.91376 323
68.93388 300
68.95399 324
68.97411 328
68.99422 312
69.01433 334
69.03445 323
69.05456 329
69.07467 304
69.09479 305
69.1149 310
69.13502 307
69.15513 329
69.17524 287
69.19536 328
69.21547 318
69.23558 321
69.2557 346
69.27581 298
69.29593 338
69.31604 299
69.33615 307
69.35627 314
69.37638 294
69.39649 318
69.41661 295
69.43672 330
69.45683 326
69.47695 302
69.49706 305
69.51718 307
69.53729 285
69.5574 344
69.57752 335
69.59763 305
69.61774 323
69.63786 304
69.65797 321
69.67809 318
69.6982 284
69.71831 290
69.73843 304
69.75854 334
69.77865 297
69.79877 317
69.81888 316
69.839 345
69.85911 289
69.87922 290
69.89934 306
69.91945 314
69.93956 338
69.95968 349
69.97979 330
69.9999 307
70.02002 308
70.04013 286
70.06025 313
70.08036 321
70.10047 296
70.12059 316
70.1407 328
70.16081 319
70.18093 321
70.20104 322
70.22116 300
70.24127 302
70.26138 302
70.2815 309
70.30161 297
70.32172 292
70.34184 284
70.36195 289
70.38207 337
70.40218 326
70.42229 314
70.44241 315
70.46252 305
70.48263 269
70.50275 281
70.52286 297
70.54297 275
70.56309 291
70.5832 276
70.60332 273
70.62343 305
70.64354 251
70.66366 296
70.68377 285
70.70388 271
70.724 278
70.74411 329
70.76423 294
70.78434 304
70.80445 304
70.82457 319
70.84468 334
70.86479 305
70.88491 319
70.90502 276
70.92513 330
70.94525 316
70.96536 325
70.98548 319
71.00559 316
71.0257 301
71.04582 317
71.06593 343
71.08604 310
71.10616 283
71.12627 336
71.14639 326
71.1665 280
71.18661 300
71.20673 289
71.22684 325
71.24695 308
71.26707 310
71.28718 280
71.3073 311
71.32741 317
71.34752 332
71.36764 304
71.38775 293
71.40786 325
71.42798 268
71.44809 308
71.4682 316
71.48832 298
71.50843 295
71.52855 326
71.54866 330
71.56877 326
71.58889 305
71.609 312
71.62911 295
71.64923 317
71.66934 288
71.68946 341
71.70957 325
71.72968 321
71.7498 313
71.76991 335
71.79002 340
71.81014 334
71.83025 330
71.85037 313
71.87048 280
71.89059 316
71.91071 302
71.93082 330
71.95093 298
71.97105 293
71.99116 324
72.01127 316
72.03139 309
72.0515 322
72.07162 305
72.09173 302
72.11184 317
72.13196 310
72.15207 306
72.17218 307
72.1923 335
72.21241 375
72.23253 299
72.25264 305
72.27275 327
72.29287 297
72.31298 326
72.33309 288
72.35321 298
72.37332 268
72.39344 329
72.41355 343
72.43366 311
72.45378 325
72.47389 308
72.494 302
72.51412 300
72.53423 314
72.55434 311
72.57446 302
72.59457 290
72.61469 310
72.6348 347
72.65491 293
72.67503 324
72.69514 298
72.71525 325
72.73537 319
72.75548 297
72.7756 321
72.79571 326
72.81582 313
72.83594 333
72.85605 328
72.87616 301
72.89628 303
72.91639 309
72.9365 303
72.95662 298
72.97673 326
72.99685 338
73.01696 313
73.03707 367
73.05719 326
73.0773 334
73.09741 330
73.11753 374
73.13764 369
73.15776 350
73.17787 376
73.19798 359
73.2181 375
73.23821 350
73.25832 367
73.27844 405
73.29855 394
73.31867 429
73.33878 425
73.35889 439
73.37901 478
73.39912 484
73.41923 436
73.43935 404
73.45946 420
73.47957 400
73.49969 418
73.5198 406
73.53992 369
73.56003 383
73.58014 361
73.60026 365
73.62037 363
73.64048 341
73.6606 342
73.68071 378
73.70083 331
73.72094 328
73.74105 326
73.76117 339
73.78128 341
73.80139 324
73.82151 348
73.84162 318
73.86174 334
73.88185 321
73.90196 340
73.92208 305
73.94219 347
73.9623 316
73.98242 310
74.00253 296
74.02264 332
74.04276 332
74.06287 311
74.08299 300
74.1031 318
74.12321 349
74.14333 302
74.16344 320
74.18355 346
74.20367 309
74.22378 339
74.2439 341
74.26401 307
74.28412 297
74.30424 319
74.32435 273
74.34446 328
74.36458 259
74.38469 310
74.40481 295
74.42492 310
74.44503 305
74.46515 314
74.48526 310
74.50537 268
74.52549 314
74.5456 323
74.56571 295
74.58583 323
74.60594 314
74.62606 343
74.64617 283
74.66628 309
74.6864 318
74.70651 309
74.72662 315
74.74674 315
74.76685 304
74.78697 287
74.80708 312
74.82719 298
74.84731 300
74.86742 327
74.88753 327
74.90765 290
74.92776 328
74.94787 319
74.96799 287
74.9881 316
75.00822 317
