3.00117 20594
3.02128 19976
3.0414 19365
3.06151 19312
3.08162 18342
3.10174 17733
3.12185 17630
3.14197 16782
3.16208 16896
3.18219 15875
3.20231 15455
3.22242 15359
3.24253 14633
3.26265 14225
3.28276 13447
3.30288 13354
3.32299 13106
3.3431 12490
3.36322 12410
3.38333 11635
3.40344 11193
3.42356 11054
3.44367 10646
3.46379 10581
3.4839 9887
3.50401 9632
3.52413 9311
3.54424 8738
3.56435 8722
3.58447 8199
3.60458 7940
3.62469 7523
3.64481 7342
3.66492 7309
3.68504 6698
3.70515 6629
3.72526 6462
3.74538 6037
3.76549 5940
3.7856 5511
3.80572 5267
3.82583 5409
3.84595 4936
3.86606 4976
3.88617 4607
3.90629 4346
3.9264 4281
3.94651 4026
3.96663 3899
3.98674 3611
4.00686 3429
4.02697 3318
4.04708 3086
4.0672 3173
4.08731 2881
4.10742 2748
4.12754 2716
4.14765 2625
4.16776 2649
4.18788 2314
4.20799 2350
4.22811 2319
4.24822 2209
4.26833 2155
4.28845 1894
4.30856 1994
4.32867 1979
4.34879 1832
4.3689 1758
4.38902 1673
4.40913 1685
4.42924 1711
4.44936 1679
4.46947 1653
4.48958 1511
4.5097 1503
4.52981 1541
4.54992 1452
4.57004 1504
4.59015 1375
4.61027 1340
4.63038 1417
4.65049 1350
4.67061 1235
4.69072 1190
4.71083 1185
4.73095 1219
4.75106 1205
4.77118 1144
4.79129 1113
4.8114 1105
4.83152 1088
4.85163 1068
4.87174 1086
4.89186 1022
4.91197 933
4.93209 975
4.9522 1048
4.97231 881
4.99243 897
5.01254 917
5.03265 894
5.05277 871
5.07288 840
5.09299 825
5.11311 832
5.13322 815
5.15334 826
5.17345 792
5.19356 787
5.21368 740
5.23379 858
5.2539 682
5.27402 703
5.29413 690
5.31425 659
5.33436 664
5.35447 671
5.37459 636
5.3947 646
5.41481 666
5.43493 642
5.45504 632
5.47516 581
5.49527 621
5.51538 573
5.5355 620
5.55561 591
5.57572 584
5.59584 549
5.61595 558
5.63606 556
5.65618 484
5.67629 566
5.69641 522
5.71652 490
5.73663 482
5.75675 541
5.77686 481
5.79697 451
5.81709 526
5.8372 494
5.85732 523
5.87743 502
5.89754 450
5.91766 483
5.93777 452
5.95788 457
5.978 411
5.99811 422
6.01823 425
6.03834 447
6.05845 438
6.07857 442
6.09868 464
6.11879 420
6.13891 427
6.15902 437
6.17913 430
6.19925 416
6.21936 385
6.23948 437
6.25959 403
6.2797 398
6.29982 422
6.31993 356
6.34004 409
6.36016 408
6.38027 400
6.40039 370
6.4205 370
6.44061 440
6.46073 404
6.48084 403
6.50095 380
6.52107 428
6.54118 392
6.56129 434
6.58141 388
6.60152 381
6.62164 380
6.64175 386
6.66186 394
6.68198 346
6.70209 353
6.7222 381
6.74232 366
6.76243 372
6.78255 378
6.80266 364
6.82277 343
6.84289 340
6.863 369
6.88311 367
6.90323 389
6.92334 373
6.94346 359
6.96357 364
6.98368 345
7.0038 344
7.02391 350
7.04402 366
7.06414 314
7.08425 363
7.10436 377
7.12448 337
7.14459 402
7.16471 354
7.18482 354
7.20493 308
7.22505 353
7.24516 337
7.26527 385
7.28539 336
7.3055 303
7.32562 304
7.34573 335
7.36584 326
7.38596 325
7.40607 348
7.42618 350
7.4463 346
7.46641 370
7.48653 347
7.50664 339
7.52675 332
7.54687 328
7.56698 327
7.58709 320
7.60721 340
7.62732 342
7.64743 334
7.66755 352
7.68766 348
7.70778 312
7.72789 341
7.748 361
7.76812 336
7.78823 354
7.80834 338
7.82846 347
7.84857 366
7.86869 332
7.8888 346
7.90891 356
7.92903 327
7.94914 367
7.96925 313
7.98937 315
8.00948 323
8.0296 335
8.04971 300
8.06982 325
8.08994 318
8.11005 332
8.13016 351
8.15028 305
8.17039 334
8.1905 355
8.21062 330
8.23073 328
8.25085 310
8.27096 317
8.29107 315
8.31119 316
8.3313 349
8.35141 318
8.37153 324
8.39164 316
8.41176 309
8.43187 329
8.45198 329
8.4721 348
8.49221 332
8.51232 342
8.53244 326
8.55255 298
8.57266 301
8.59278 330
8.61289 330
8.63301 360
8.65312 332
8.67323 329
8.69335 332
8.71346 342
8.73357 332
8.75369 327
8.7738 338
8.79392 331
8.81403 308
8.83414 357
8.85426 325
8.87437 318
8.89448 361
8.9146 341
8.93471 316
8.95483 306
8.97494 323
8.99505 325
9.01517 346
9.03528 325
9.05539 303
9.07551 362
9.09562 337
9.11573 325
9.13585 349
9.15596 311
9.17608 325
9.19619 307
9.2163 307
9.23642 326
9.25653 298
9.27664 325
9.29676 338
9.31687 332
9.33699 337
9.3571 316
9.37721 329
9.39733 290
9.41744 318
9.43755 301
9.45767 347
9.47778 307
9.4979 348
9.51801 312
9.53812 315
9.55824 303
9.57835 320
9.59846 321
9.61858 349
9.63869 358
9.6588 296
9.67892 287
9.69903 283
9.71915 305
9.73926 313
9.75937 334
9.77949 315
9.7996 292
9.81971 283
9.83983 307
9.85994 318
9.88006 316
9.90017 319
9.92028 284
9.9404 333
9.96051 315
9.98062 315
10.00074 315
10.02085 300
10.04097 332
10.06108 308
10.08119 287
10.10131 294
10.12142 275
10.14153 249
10.16165 312
10.18176 283
10.20187 286
10.22199 333
10.2421 332
10.26222 281
10.28233 320
10.30244 316
10.32256 291
10.34267 303
10.36278 323
10.3829 327
10.40301 294
10.42313 307
10.44324 306
10.46335 301
10.48347 304
10.50358 308
10.52369 322
10.54381 334
10.56392 282
10.58403 303
10.60415 324
10.62426 302
10.64438 328
10.66449 303
10.6846 303
10.70472 301
10.72483 304
10.74494 285
10.76506 295
10.78517 303
10.80529 305
10.8254 309
10.84551 313
10.86563 326
10.88574 313
10.90585 328
10.92597 295
10.94608 288
10.9662 270
10.98631 267
11.00642 317
11.02654 332
11.04665 284
11.06676 307
11.08688 308
11.10699 357
11.1271 308
11.14722 327
11.16733 330
11.18745 296
11.20756 281
11.22767 314
11.24779 301
11.2679 279
11.28801 322
11.30813 300
11.32824 297
11.34836 299
11.36847 294
11.38858 309
11.4087 294
11.42881 305
11.44892 302
11.46904 282
11.48915 342
11.50927 320
11.52938 283
11.54949 313
11.56961 334
11.58972 324
11.60983 325
11.62995 293
11.65006 346
11.67017 353
11.69029 324
11.7104 338
11.73052 331
11.75063 300
11.77074 305
11.79086 308
11.81097 317
11.83108 308
11.8512 295
11.87131 327
11.89143 321
11.91154 320
11.93165 368
11.95177 301
11.97188 334
11.99199 313
12.01211 317
12.03222 312
12.05234 331
12.07245 355
12.09256 312
12.11268 287
12.13279 300
12.1529 278
12.17302 329
12.19313 306
12.21324 288
12.23336 315
12.25347 317
12.27359 299
12.2937 334
12.31381 330
12.33393 343
12.35404 320
12.37415 282
12.39427 334
12.41438 325
12.4345 323
12.45461 300
12.47472 278
12.49484 306
12.51495 305
12.53506 302
12.55518 276
12.57529 310
12.5954 294
12.61552 280
12.63563 314
12.65575 298
12.67586 286
12.69597 273
12.71609 264
12.7362 305
12.75631 277
12.77643 293
12.79654 299
12.81666 287
12.83677 247
12.85688 245
12.877 260
12.89711 269
12.91722 280
12.93734 251
12.95745 285
12.97757 266
12.99768 265
13.01779 318
13.03791 280
13.05802 293
13.07813 315
13.09825 273
13.11836 312
13.13847 292
13.15859 294
13.1787 295
13.19882 320
13.21893 292
13.23904 287
13.25916 297
13.27927 297
13.29938 281
13.3195 273
13.33961 303
13.35973 252
13.37984 297
13.39995 280
13.42007 280
13.44018 236
13.46029 300
13.48041 267
13.50052 259
13.52064 311
13.54075 333
13.56086 294
13.58098 316
13.60109 346
13.6212 361
13.64132 336
13.66143 312
13.68154 304
13.70166 272
13.72177 304
13.74189 268
13.762 278
13.78211 323
13.80223 284
13.82234 250
13.84245 278
13.86257 300
13.88268 268
13.9028 281
13.92291 277
13.94302 245
13.96314 269
13.98325 277
14.00336 268
14.02348 247
14.04359 256
14.06371 248
14.08382 237
14.10393 244
14.12405 254
14.14416 248
14.16427 273
14.18439 263
14.2045 283
14.22461 238
14.24473 237
14.26484 250
14.28496 245
14.30507 266
14.32518 250
14.3453 263
14.36541 246
14.38552 273
14.40564 271
14.42575 276
14.44587 255
14.46598 247
14.48609 258
14.50621 253
14.52632 271
14.54643 237
14.56655 264
14.58666 248
14.60677 244
14.62689 259
14.647 278
14.66712 284
14.68723 248
14.70734 262
14.72746 251
14.74757 271
14.76768 269
14.7878 264
14.80791 274
14.82803 262
14.84814 264
14.86825 297
14.88837 273
14.90848 270
14.92859 274
14.94871 255
14.96882 310
14.98894 266
15.00905 280
15.02916 293
15.04928 244
15.06939 278
15.0895 265
15.10962 271
15.12973 305
15.14984 269
15.16996 258
15.19007 260
15.21019 279
15.2303 271
15.25041 252
15.27053 238
15.29064 257
15.31075 260
15.33087 261
15.35098 270
15.3711 255
15.39121 236
15.41132 261
15.43144 233
15.45155 273
15.47166 230
15.49178 249
15.51189 247
15.53201 249
15.55212 250
15.57223 247
15.59235 256
15.61246 255
15.63257 234
15.65269 282
15.6728 230
15.69291 255
15.71303 230
15.73314 250
15.75326 286
15.77337 248
15.79348 258
15.8136 256
15.83371 250
15.85382 215
15.87394 274
15.89405 248
15.91417 242
15.93428 277
15.95439 249
15.97451 230
15.99462 242
16.01473 245
16.03485 255
16.05496 243
16.07508 248
16.09519 211
16.1153 215
16.13542 253
16.15553 250
16.17564 249
16.19576 276
16.21587 267
16.23598 247
16.2561 241
16.27621 260
16.29633 261
16.31644 246
16.33655 202
16.35667 237
16.37678 235
16.39689 210
16.41701 238
16.43712 226
16.45724 268
16.47735 237
16.49746 225
16.51758 226
16.53769 217
16.5578 245
16.57792 292
16.59803 259
16.61814 245
16.63826 220
16.65837 214
16.67849 233
16.6986 259
16.71871 245
16.73883 249
16.75894 270
16.77905 273
16.79917 267
16.81928 230
16.8394 228
16.85951 225
16.87962 237
16.89974 237
16.91985 258
16.93996 215
16.96008 247
16.98019 238
17.00031 271
17.02042 254
17.04053 262
17.06065 249
17.08076 242
17.10087 259
17.12099 247
17.1411 276
17.16121 232
17.18133 259
17.20144 240
17.22156 246
17.24167 244
17.26178 249
17.2819 270
17.30201 284
17.32212 253
17.34224 234
17.36235 230
17.38247 221
17.40258 268
17.42269 268
17.44281 238
17.46292 228
17.48303 258
17.50315 253
17.52326 264
17.54338 271
17.56349 267
17.5836 248
17.60372 256
17.62383 260
17.64394 274
17.66406 258
17.68417 236
17.70428 256
17.7244 255
17.74451 271
17.76463 230
17.78474 282
17.80485 296
17.82497 263
17.84508 253
17.86519 259
17.88531 235
17.90542 249
17.92554 272
17.94565 272
17.96576 246
17.98588 238
18.00599 263
18.0261 256
18.04622 233
18.06633 257
18.08645 247
18.10656 276
18.12667 243
18.14679 250
18.1669 274
18.18701 262
18.20713 271
18.22724 241
18.24735 280
18.26747 231
18.28758 247
18.3077 255
18.32781 267
18.34792 270
18.36804 228
18.38815 239
18.40826 245
18.42838 267
18.44849 285
18.46861 247
18.48872 264
18.50883 236
18.52895 256
18.54906 257
18.56917 264
18.58929 270
18.6094 233
18.62951 244
18.64963 258
18.66974 272
18.68986 281
18.70997 275
18.73008 277
18.7502 272
18.77031 266
18.79042 270
18.81054 250
18.83065 296
18.85077 288
18.87088 269
18.89099 264
18.91111 258
18.93122 272
18.95133 272
18.97145 284
18.99156 250
19.01168 260
19.03179 265
19.0519 254
19.07202 249
19.09213 269
19.11224 274
19.13236 260
19.15247 314
19.17258 283
19.1927 272
19.21281 299
19.23293 287
19.25304 314
19.27315 329
19.29327 281
19.31338 271
19.33349 311
19.35361 334
19.37372 310
19.39384 340
19.41395 342
19.43406 356
19.45418 353
19.47429 319
19.4944 344
19.51452 357
19.53463 345
19.55475 384
19.57486 387
19.59497 395
19.61509 420
19.6352 434
19.65531 436
19.67543 453
19.69554 439
19.71565 479
19.73577 508
19.75588 529
19.776 520
19.79611 495
19.81622 550
19.83634 516
19.85645 465
19.87656 512
19.89668 518
19.91679 487
19.93691 500
19.95702 507
19.97713 501
19.99725 458
20.01736 491
20.03747 473
20.05759 461
20.0777 462
20.09782 461
20.11793 505
20.13804 474
20.15816 478
20.17827 495
20.19838 492
20.2185 468
20.23861 461
20.25872 475
20.27884 472
20.29895 411
20.31907 449
20.33918 447
20.35929 474
20.37941 493
20.39952 462
20.41963 508
20.43975 503
20.45986 475
20.47998 459
20.50009 576
20.5202 548
20.54032 611
20.56043 603
20.58054 684
20.60066 824
20.62077 901
20.64088 1091
20.661 1318
20.68111 1641
20.70123 2180
20.72134 2627
20.74145 3144
20.76157 3730
20.78168 4062
20.80179 4274
20.82191 4047
20.84202 3535
20.86214 2986
20.88225 2308
20.90236 1814
20.92248 1355
20.94259 1092
20.9627 977
20.98282 861
21.00293 817
21.02305 796
21.04316 759
21.06327 686
21.08339 596
21.1035 593
21.12361 549
21.14373 489
21.16384 483
21.18395 477
21.20407 480
21.22418 483
21.2443 487
21.26441 406
21.28452 441
21.30464 430
21.32475 433
21.34486 444
21.36498 426
21.38509 456
21.40521 423
21.42532 401
21.44543 379
21.46555 381
21.48566 382
21.50577 394
21.52589 384
21.546 389
21.56612 347
21.58623 408
21.60634 382
21.62646 369
21.64657 379
21.66668 365
21.6868 387
21.70691 375
21.72702 351
21.74714 392
21.76725 384
21.78737 389
21.80748 444
21.82759 375
21.84771 372
21.86782 448
21.88793 421
21.90805 516
21.92816 454
21.94828 445
21.96839 462
21.9885 415
22.00862 466
22.02873 408
22.04884 431
22.06896 376
22.08907 383
22.10919 385
22.1293 330
22.14941 378
22.16953 410
22.18964 401
22.20975 406
22.22987 423
22.24998 397
22.27009 415
22.29021 379
22.31032 426
22.33044 435
22.35055 383
22.37066 383
22.39078 379
22.41089 385
22.431 361
22.45112 339
22.47123 366
22.49135 371
22.51146 409
22.53157 367
22.55169 386
22.5718 375
22.59191 359
22.61203 347
22.63214 350
22.65225 335
22.67237 385
22.69248 351
22.7126 375
22.73271 327
22.75282 351
22.77294 350
22.79305 355
22.81316 367
22.83328 381
22.85339 366
22.87351 362
22.89362 369
22.91373 343
22.93385 389
22.95396 346
22.97407 393
22.99419 373
23.0143 357
23.03442 378
23.05453 420
23.07464 415
23.09476 413
23.11487 453
23.13498 454
23.1551 450
23.17521 439
23.19532 424
23.21544 405
23.23555 400
23.25567 386
23.27578 367
23.29589 414
23.31601 370
23.33612 371
23.35623 418
23.37635 392
23.39646 422
23.41658 447
23.43669 465
23.4568 419
23.47692 427
23.49703 446
23.51714 468
23.53726 456
23.55737 453
23.57749 479
23.5976 464
23.61771 419
23.63783 428
23.65794 415
23.67805 413
23.69817 412
23.71828 459
23.73839 427
23.75851 391
23.77862 410
23.79874 351
23.81885 461
23.83896 446
23.85908 491
23.87919 487
23.8993 481
23.91942 489
23.93953 467
23.95965 487
23.97976 455
23.99987 427
24.01999 418
24.0401 412
24.06021 426
24.08033 467
24.10044 357
24.12056 411
24.14067 448
24.16078 425
24.1809 415
24.20101 421
24.22112 444
24.24124 425
24.26135 410
24.28146 399
24.30158 428
24.32169 393
24.34181 409
24.36192 401
24.38203 386
24.40215 365
24.42226 319
24.44237 341
24.46249 364
24.4826 382
24.50272 367
24.52283 365
24.54294 390
24.56306 395
24.58317 407
24.60328 402
24.6234 402
24.64351 437
24.66362 387
24.68374 379
24.70385 414
24.72397 362
24.74408 402
24.76419 355
24.78431 383
24.80442 348
24.82453 348
24.84465 360
24.86476 366
24.88488 362
24.90499 369
24.9251 390
24.94522 412
24.96533 345
24.98544 333
25.00556 347
25.02567 347
25.04579 378
25.0659 367
25.08601 395
25.10613 385
25.12624 368
25.14635 377
25.16647 399
25.18658 402
25.20669 415
25.22681 424
25.24692 447
25.26704 435
25.28715 401
25.30726 418
25.32738 423
25.34749 413
25.3676 461
25.38772 460
25.40783 506
25.42795 524
25.44806 545
25.46817 589
25.48829 558
25.5084 585
25.52851 622
25.54863 615
25.56874 642
25.58886 585
25.60897 589
25.62908 556
25.6492 571
25.66931 588
25.68942 516
25.70954 533
25.72965 488
25.74976 480
25.76988 500
25.78999 545
25.81011 492
25.83022 524
25.85033 477
25.87045 490
25.89056 535
25.91067 499
25.93079 530
25.9509 528
25.97102 531
25.99113 558
26.01124 573
26.03136 598
26.05147 623
26.07158 612
26.0917 635
26.11181 683
26.13193 760
26.15204 804
26.17215 777
26.19227 903
26.21238 930
26.23249 1029
26.25261 1132
26.27272 1245
26.29283 1419
26.31295 1625
26.33306 1934
26.35318 2469
26.37329 2716
26.3934 3509
26.41352 4588
26.43363 5773
26.45374 7532
26.47386 9408
26.49397 11936
26.51409 14053
26.5342 16160
26.55431 17916
26.57443 18312
26.59454 17461
26.61465 15725
26.63477 13174
26.65488 9919
26.67499 7336
26.69511 5167
26.71522 3568
26.73534 2368
26.75545 1753
26.77556 1391
26.79568 1211
26.81579 1164
26.8359 1079
26.85602 1036
26.87613 918
26.89625 908
26.91636 970
26.93647 857
26.95659 886
26.9767 884
26.99681 857
27.01693 860
27.03704 877
27.05716 802
27.07727 807
27.09738 732
27.1175 659
27.13761 637
27.15772 640
27.17784 660
27.19795 616
27.21806 639
27.23818 685
27.25829 714
27.27841 759
27.29852 809
27.31863 929
27.33875 940
27.35886 1000
27.37897 1014
27.39909 1001
27.4192 1015
27.43932 970
27.45943 893
27.47954 784
27.49966 788
27.51977 732
27.53988 670
27.56 604
27.58011 623
27.60023 539
27.62034 563
27.64045 551
27.66057 573
27.68068 545
27.70079 597
27.72091 576
27.74102 579
27.76113 593
27.78125 546
27.80136 580
27.82148 577
27.84159 545
27.8617 585
27.88182 637
27.90193 550
27.92204 572
27.94216 592
27.96227 483
27.98239 479
28.0025 463
28.02261 452
28.04273 400
28.06284 433
28.08295 395
28.10307 396
28.12318 362
28.1433 390
28.16341 426
28.18352 386
28.20364 370
28.22375 379
28.24386 381
28.26398 357
28.28409 358
28.3042 350
28.32432 302
28.34443 385
28.36455 349
28.38466 340
28.40477 369
28.42489 346
28.445 378
28.46511 364
28.48523 356
28.50534 331
28.52546 304
28.54557 298
28.56568 315
28.5858 314
28.60591 337
28.62602 343
28.64614 310
28.66625 393
28.68636 303
28.70648 343
28.72659 336
28.74671 293
28.76682 329
28.78693 350
28.80705 287
28.82716 350
28.84727 329
28.86739 354
28.8875 303
28.90762 288
28.92773 284
28.94784 283
28.96796 347
28.98807 334
29.00818 338
29.0283 303
29.04841 319
29.06853 303
29.08864 299
29.10875 322
29.12887 330
29.14898 328
29.16909 340
29.18921 356
29.20932 309
29.22943 333
29.24955 323
29.26966 357
29.28978 380
29.30989 359
29.33 380
29.35012 396
29.37023 367
29.39034 369
29.41046 380
29.43057 347
29.45069 372
29.4708 369
29.49091 398
29.51103 373
29.53114 348
29.55125 333
29.57137 352
29.59148 367
29.6116 364
29.63171 359
29.65182 364
29.67194 352
29.69205 294
29.71216 347
29.73228 368
29.75239 384
29.7725 371
29.79262 329
29.81273 361
29.83285 383
29.85296 347
29.87307 385
29.89319 384
29.9133 370
29.93341 378
29.95353 414
29.97364 364
29.99376 373
30.01387 378
30.03398 385
30.0541 418
30.07421 432
30.09432 363
30.11444 421
30.13455 422
30.15467 453
30.17478 389
30.19489 408
30.21501 411
30.23512 378
30.25523 367
30.27535 352
30.29546 360
30.31557 351
30.33569 347
30.3558 307
30.37592 333
30.39603 353
30.41614 337
30.43626 311
30.45637 335
30.47648 349
30.4966 320
30.51671 350
30.53683 380
30.55694 352
30.57705 360
30.59717 349
30.61728 396
30.63739 415
30.65751 421
30.67762 425
30.69773 402
30.71785 424
30.73796 391
30.75808 417
30.77819 408
30.7983 410
30.81842 363
30.83853 383
30.85864 378
30.87876 367
30.89887 309
30.91899 332
30.9391 323
30.95921 305
30.97933 287
30.99944 292
31.01955 302
31.03967 299
31.05978 277
31.0799 268
31.10001 276
31.12012 292
31.14024 281
31.16035 295
31.18046 300
31.20058 299
31.22069 313
31.2408 281
31.26092 331
31.28103 287
31.30115 245
31.32126 301
31.34137 302
31.36149 281
31.3816 292
31.40171 319
31.42183 291
31.44194 259
31.46206 291
31.48217 295
31.50228 287
31.5224 299
31.54251 291
31.56262 260
31.58274 288
31.60285 308
31.62297 279
31.64308 291
31.66319 291
31.68331 298
31.70342 283
31.72353 297
31.74365 264
31.76376 250
31.78387 278
31.80399 273
31.8241 307
31.84422 271
31.86433 300
31.88444 274
31.90456 289
31.92467 304
31.94478 291
31.9649 284
31.98501 310
32.00513 313
32.02524 300
32.04535 286
32.06547 309
32.08558 316
32.10569 296
32.12581 299
32.14592 266
32.16604 306
32.18615 319
32.20626 291
32.22638 349
32.24649 324
32.2666 307
32.28672 326
32.30683 308
32.32694 321
32.34706 326
32.36717 352
32.38729 336
32.4074 323
32.42751 328
32.44763 350
32.46774 342
32.48785 327
32.50797 297
32.52808 298
32.5482 317
32.56831 316
32.58842 298
32.60854 293
32.62865 282
32.64876 291
32.66888 273
32.68899 260
32.7091 258
32.72922 300
32.74933 287
32.76945 269
32.78956 259
32.80967 276
32.82979 258
32.8499 278
32.87001 292
32.89013 274
32.91024 248
32.93036 272
32.95047 287
32.97058 237
32.9907 242
33.01081 298
33.03092 256
33.05104 254
33.07115 258
33.09127 277
33.11138 289
33.13149 292
33.15161 272
33.17172 290
33.19183 283
33.21195 287
33.23206 269
33.25217 247
33.27229 277
33.2924 272
33.31252 262
33.33263 293
33.35274 271
33.37286 316
33.39297 284
33.41308 271
33.4332 271
33.45331 289
33.47343 267
33.49354 273
33.51365 288
33.53377 266
33.55388 272
33.57399 274
33.59411 282
33.61422 258
33.63434 265
33.65445 281
33.67456 257
33.69468 263
33.71479 298
33.7349 290
33.75502 288
33.77513 279
33.79524 301
33.81536 302
33.83547 267
33.85559 305
33.8757 274
33.89581 277
33.91593 280
33.93604 293
33.95615 297
33.97627 292
33.99638 296
34.0165 309
34.03661 323
34.05672 319
34.07684 322
34.09695 331
34.11706 335
34.13718 360
34.15729 330
34.17741 359
34.19752 341
34.21763 352
34.23775 327
34.25786 320
34.27797 337
34.29809 327
34.3182 363
34.33831 366
34.35843 335
34.37854 363
34.39866 352
34.41877 342
34.43888 346
34.459 342
34.47911 323
34.49922 372
34.51934 390
34.53945 384
34.55957 392
34.57968 383
34.59979 399
34.61991 398
34.64002 393
34.66013 401
34.68025 395
34.70036 425
34.72047 434
34.74059 453
34.7607 456
34.78082 431
34.80093 428
34.82104 400
34.84116 442
34.86127 460
34.88138 397
34.9015 460
34.92161 427
34.94173 473
34.96184 444
34.98195 416
35.00207 434
35.02218 419
35.04229 442
35.06241 384
35.08252 409
35.10264 454
35.12275 450
35.14286 426
35.16298 386
35.18309 408
35.2032 436
35.22332 448
35.24343 393
35.26354 423
35.28366 449
35.30377 429
35.32389 401
35.344 437
35.36411 413
35.38423 395
35.40434 429
35.42445 441
35.44457 435
35.46468 397
35.4848 420
35.50491 414
35.52502 399
35.54514 413
35.56525 400
35.58536 394
35.60548 396
35.62559 383
35.64571 381
35.66582 361
35.68593 371
35.70605 420
35.72616 374
35.74627 362
35.76639 381
35.7865 341
35.80661 376
35.82673 356
35.84684 346
35.86696 389
35.88707 355
35.90718 367
35.9273 357
35.94741 360
35.96752 340
35.98764 350
36.00775 384
36.02787 334
36.04798 360
36.06809 356
36.08821 358
36.10832 396
36.12843 388
36.14855 414
36.16866 344
36.18878 406
36.20889 451
36.229 481
36.24912 446
36.26923 512
36.28934 645
36.30946 640
36.32957 808
36.34968 897
36.3698 971
36.38991 1129
36.41003 1265
36.43014 1361
36.45025 1424
36.47037 1418
36.49048 1257
36.51059 1335
36.53071 1150
36.55082 980
36.57094 879
36.59105 757
36.61116 666
36.63128 550
36.65139 525
36.6715 446
36.69162 405
36.71173 424
36.73184 401
36.75196 407
36.77207 392
36.79219 435
36.8123 427
36.83241 368
36.85253 411
36.87264 399
36.89275 380
36.91287 375
36.93298 371
36.9531 379
36.97321 361
36.99332 341
37.01344 374
37.03355 353
37.05366 394
37.07378 373
37.09389 350
37.11401 309
37.13412 362
37.15423 346
37.17435 357
37.19446 323
37.21457 364
37.23469 294
37.2548 314
37.27491 328
37.29503 327
37.31514 307
37.33526 325
37.35537 311
37.37548 330
37.3956 295
37.41571 312
37.43582 354
37.45594 333
37.47605 299
37.49617 319
37.51628 331
37.53639 319
37.55651 298
37.57662 306
37.59673 317
37.61685 319
37.63696 330
37.65708 329
37.67719 297
37.6973 297
37.71742 279
37.73753 316
37.75764 286
37.77776 297
37.79787 282
37.81798 304
37.8381 294
37.85821 313
37.87833 327
37.89844 297
37.91855 302
37.93867 310
37.95878 332
37.97889 292
37.99901 299
38.01912 300
38.03924 324
38.05935 326
38.07946 302
38.09958 312
38.11969 315
38.1398 301
38.15992 306
38.18003 303
38.20015 301
38.22026 319
38.24037 307
38.26049 283
38.2806 281
38.30071 325
38.32083 280
38.34094 323
38.36105 310
38.38117 308
38.40128 319
38.4214 347
38.44151 353
38.46162 340
38.48174 321
38.50185 330
38.52196 350
38.54208 303
38.56219 322
38.58231 365
38.60242 316
38.62253 316
38.64265 312
38.66276 284
38.68287 315
38.70299 292
38.7231 292
38.74321 334
38.76333 290
38.78344 295
38.80356 289
38.82367 295
38.84378 263
38.8639 287
38.88401 282
38.90412 323
38.92424 319
38.94435 293
38.96447 319
38.98458 302
39.00469 330
39.02481 346
39.04492 358
39.06503 346
39.08515 336
39.10526 361
39.12538 384
39.14549 417
39.1656 441
39.18572 503
39.20583 493
39.22594 611
39.24606 745
39.26617 796
39.28628 926
39.3064 1009
39.32651 1145
39.34663 1209
39.36674 1289
39.38685 1315
39.40697 1271
39.42708 1222
39.44719 1123
39.46731 991
39.48742 815
39.50754 744
39.52765 630
39.54776 578
39.56788 457
39.58799 402
39.6081 372
39.62822 325
39.64833 354
39.66845 357
39.68856 318
39.70867 288
39.72879 320
39.7489 323
39.76901 316
39.78913 303
39.80924 318
39.82935 290
39.84947 351
39.86958 336
39.8897 330
39.90981 319
39.92992 336
39.95004 344
39.97015 352
39.99026 391
40.01038 365
40.03049 413
40.05061 454
40.07072 510
40.09083 532
40.11095 649
40.13106 654
40.15117 722
40.17129 764
40.1914 796
40.21152 738
40.23163 814
40.25174 747
40.27186 657
40.29197 612
40.31208 572
40.3322 525
40.35231 464
40.37242 422
40.39254 376
40.41265 342
40.43277 338
40.45288 314
40.47299 317
40.49311 306
40.51322 300
40.53333 271
40.55345 238
40.57356 265
40.59368 289
40.61379 289
40.6339 305
40.65402 297
40.67413 263
40.69424 332
40.71436 282
40.73447 306
40.75458 265
40.7747 266
40.79481 281
40.81493 291
40.83504 260
40.85515 284
40.87527 304
40.89538 300
40.91549 262
40.93561 344
40.95572 287
40.97584 269
40.99595 297
41.01606 285
41.03618 291
41.05629 275
41.0764 266
41.09652 297
41.11663 283
41.13675 301
41.15686 337
41.17697 297
41.19709 291
41.2172 273
41.23731 309
41.25743 267
41.27754 295
41.29765 280
41.31777 297
41.33788 280
41.358 274
41.37811 280
41.39822 314
41.41834 275
41.43845 316
41.45856 322
41.47868 318
41.49879 295
41.51891 294
41.53902 336
41.55913 354
41.57925 300
41.59936 327
41.61947 349
41.63959 362
41.6597 386
41.67982 350
41.69993 384
41.72004 383
41.74016 381
41.76027 352
41.78038 338
41.8005 316
41.82061 329
41.84072 344
41.86084 310
41.88095 320
41.90107 321
41.92118 285
41.94129 316
41.96141 314
41.98152 307
42.00163 321
42.02175 277
42.04186 295
42.06198 338
42.08209 331
42.1022 372
42.12232 387
42.14243 374
42.16254 433
42.18266 437
42.20277 484
42.22289 558
42.243 599
42.26311 747
42.28323 771
42.30334 915
42.32345 928
42.34357 991
42.36368 1010
42.38379 968
42.40391 974
42.42402 820
42.44414 819
42.46425 700
42.48436 638
42.50448 576
42.52459 521
42.5447 428
42.56482 384
42.58493 381
42.60505 338
42.62516 289
42.64527 304
42.66539 290
42.6855 304
42.70561 283
42.72573 292
42.74584 304
42.76595 308
42.78607 258
42.80618 306
42.8263 263
42.84641 284
42.86652 279
42.88664 280
42.90675 283
42.92686 257
42.94698 270
42.96709 260
42.98721 300
43.00732 231
43.02743 255
43.04755 274
43.06766 255
43.08777 283
43.10789 242
43.128 264
43.14812 283
43.16823 259
43.18834 240
43.20846 255
43.22857 255
43.24868 260
43.2688 272
43.28891 251
43.30902 260
43.32914 244
43.34925 256
43.36937 271
43.38948 242
43.40959 275
43.42971 279
43.44982 286
43.46993 258
43.49005 227
43.51016 252
43.53028 231
43.55039 252
43.5705 278
43.59062 271
43.61073 249
43.63084 256
43.65096 241
43.67107 235
43.69119 267
43.7113 256
43.73141 252
43.75153 262
43.77164 248
43.79175 277
43.81187 270
43.83198 233
43.85209 232
43.87221 253
43.89232 259
43.91244 238
43.93255 279
43.95266 252
43.97278 227
43.99289 259
44.013 250
44.03312 275
44.05323 250
44.07335 262
44.09346 255
44.11357 251
44.13369 259
44.1538 293
44.17391 261
44.19403 280
44.21414 239
44.23426 283
44.25437 238
44.27448 237
44.2946 246
44.31471 233
44.33482 252
44.35494 264
44.37505 246
44.39516 242
44.41528 250
44.43539 257
44.45551 259
44.47562 286
44.49573 249
44.51585 261
44.53596 267
44.55607 260
44.57619 267
44.5963 242
44.61642 252
44.63653 252
44.65664 237
44.67676 248
44.69687 246
44.71698 266
44.7371 278
44.75721 242
44.77732 259
44.79744 251
44.81755 260
44.83767 276
44.85778 261
44.87789 289
44.89801 256
44.91812 256
44.93823 272
44.95835 252
44.97846 260
44.99858 264
45.01869 228
45.0388 261
45.05892 263
45.07903 242
45.09914 265
45.11926 304
45.13937 264
45.15949 258
45.1796 250
45.19971 277
45.21983 235
45.23994 271
45.26005 272
45.28017 282
45.30028 317
45.32039 283
45.34051 310
45.36062 302
45.38074 293
45.40085 334
45.42096 334
45.44108 323
45.46119 331
45.4813 331
45.50142 368
45.52153 394
45.54165 430
45.56176 473
45.58187 532
45.60199 564
45.6221 638
45.64221 678
45.66233 703
45.68244 736
45.70256 813
45.72267 733
45.74278 734
45.7629 615
45.78301 574
45.80312 575
45.82324 495
45.84335 463
45.86346 445
45.88358 417
45.90369 363
45.92381 317
45.94392 322
45.96403 272
45.98415 279
46.00426 298
46.02437 263
46.04449 283
46.0646 259
46.08472 248
46.10483 278
46.12494 282
46.14506 253
46.16517 265
46.18528 274
46.2054 253
46.22551 240
46.24563 274
46.26574 239
46.28585 257
46.30597 263
46.32608 241
46.34619 272
46.36631 263
46.38642 218
46.40653 211
46.42665 248
46.44676 215
46.46688 252
46.48699 220
46.5071 257
46.52722 248
46.54733 220
46.56744 220
46.58756 251
46.60767 238
46.62779 217
46.6479 211
46.66801 220
46.68813 259
46.70824 226
46.72835 259
46.74847 238
46.76858 246
46.78869 259
46.80881 237
46.82892 218
46.84904 237
46.86915 228
46.88926 222
46.90938 270
46.92949 236
46.9496 244
46.96972 241
46.98983 252
47.00995 258
47.03006 262
47.05017 261
47.07029 277
47.0904 279
47.11051 271
47.13063 252
47.15074 286
47.17086 279
47.19097 269
47.21108 259
47.2312 239
47.25131 248
47.27142 262
47.29154 272
47.31165 282
47.33176 266
47.35188 248
47.37199 253
47.39211 268
47.41222 274
47.43233 281
47.45245 289
47.47256 259
47.49267 243
47.51279 260
47.5329 258
47.55302 259
47.57313 243
47.59324 257
47.61336 216
47.63347 244
47.65358 229
47.6737 239
47.69381 248
47.71393 234
47.73404 267
47.75415 250
47.77427 243
47.79438 240
47.81449 257
47.83461 224
47.85472 207
47.87483 266
47.89495 244
47.91506 262
47.93518 240
47.95529 241
47.9754 246
47.99552 250
48.01563 265
48.03574 258
48.05586 252
48.07597 260
48.09609 248
48.1162 236
48.13631 213
48.15643 226
48.17654 238
48.19665 253
48.21677 242
48.23688 243
48.257 271
48.27711 206
48.29722 252
48.31734 242
48.33745 269
48.35756 251
48.37768 249
48.39779 223
48.4179 279
48.43802 230
48.45813 272
48.47825 241
48.49836 229
48.51847 262
48.53859 281
48.5587 264
48.57881 250
48.59893 251
48.61904 264
48.63916 271
48.65927 277
48.67938 272
48.6995 264
48.71961 271
48.73972 275
48.75984 253
48.77995 263
48.80006 256
48.82018 259
48.84029 266
48.86041 280
48.88052 260
48.90063 261
48.92075 262
48.94086 277
48.96097 295
48.98109 271
49.0012 256
49.02132 263
49.04143 295
49.06154 252
49.08166 278
49.10177 281
49.12188 251
49.142 256
49.16211 298
49.18223 259
49.20234 275
49.22245 270
49.24257 288
49.26268 279
49.28279 281
49.30291 249
49.32302 276
49.34313 273
49.36325 265
49.38336 278
49.40348 283
49.42359 313
49.4437 257
49.46382 265
49.48393 237
49.50404 256
49.52416 299
49.54427 288
49.56439 310
49.5845 335
49.60461 325
49.62473 294
49.64484 372
49.66495 338
49.68507 351
49.70518 415
49.7253 450
49.74541 412
49.76552 472
49.78564 515
49.80575 600
49.82586 596
49.84598 701
49.86609 769
49.8862 826
49.90632 1057
49.92643 1187
49.94655 1320
49.96666 1558
49.98677 1686
50.00689 1761
50.027 1937
50.04711 2001
50.06723 1962
50.08734 1849
50.10746 1659
50.12757 1483
50.14768 1363
50.1678 1199
50.18791 1104
50.20802 976
50.22814 819
50.24825 776
50.26837 632
50.28848 503
50.30859 433
50.32871 401
50.34882 378
50.36893 369
50.38905 407
50.40916 427
50.42927 399
50.44939 460
50.4695 394
50.48962 439
50.50973 405
50.52984 437
50.54996 356
50.57007 365
50.59018 383
50.6103 328
50.63041 371
50.65053 358
50.67064 321
50.69075 357
50.71087 315
50.73098 360
50.75109 316
50.77121 269
50.79132 316
50.81143 291
50.83155 286
50.85166 298
50.87178 299
50.89189 284
50.912 254
50.93212 287
50.95223 252
50.97234 255
50.99246 289
51.01257 243
51.03269 259
51.0528 254
51.07291 257
51.09303 280
51.11314 261
51.13325 240
51.15337 246
51.17348 252
51.1936 223
51.21371 213
51.23382 254
51.25394 241
51.27405 236
51.29416 259
51.31428 250
51.33439 239
51.3545 227
51.37462 214
51.39473 236
51.41485 233
51.43496 214
51.45507 268
51.47519 244
51.4953 235
51.51541 244
51.53553 217
51.55564 237
51.57576 259
51.59587 207
51.61598 245
51.6361 219
51.65621 224
51.67632 234
51.69644 203
51.71655 262
51.73667 260
51.75678 238
51.77689 222
51.79701 224
51.81712 229
51.83723 192
51.85735 216
51.87746 235
51.89757 235
51.91769 238
51.9378 217
51.95792 207
51.97803 230
51.99814 220
52.01826 238
52.03837 221
52.05848 216
52.0786 231
52.09871 212
52.11883 215
52.13894 255
52.15905 233
52.17917 257
52.19928 244
52.21939 256
52.23951 278
52.25962 224
52.27974 230
52.29985 215
52.31996 234
52.34008 242
52.36019 238
52.3803 238
52.40042 250
52.42053 231
52.44064 256
52.46076 232
52.48087 249
52.50099 240
52.5211 257
52.54121 255
52.56133 225
52.58144 249
52.60155 225
52.62167 233
52.64178 242
52.6619 271
52.68201 238
52.70212 241
52.72224 220
52.74235 238
52.76246 260
52.78258 263
52.80269 257
52.8228 219
52.84292 237
52.86303 269
52.88315 236
52.90326 250
52.92337 277
52.94349 267
52.9636 270
52.98371 256
53.00383 243
53.02394 285
53.04406 273
53.06417 267
53.08428 259
53.1044 275
53.12451 255
53.14462 286
53.16474 253
53.18485 265
53.20497 300
53.22508 278
53.24519 273
53.26531 256
53.28542 291
53.30553 296
53.32565 249
53.34576 254
53.36587 267
53.38599 277
53.4061 268
53.42622 267
53.44633 248
53.46644 253
53.48656 279
53.50667 242
53.52678 285
53.5469 265
53.56701 280
53.58713 303
53.60724 261
53.62735 256
53.64747 277
53.66758 248
53.68769 258
53.70781 257
53.72792 280
53.74804 281
53.76815 263
53.78826 260
53.80838 265
53.82849 279
53.8486 294
53.86872 288
53.88883 292
53.90894 278
53.92906 286
53.94917 273
53.96929 287
53.9894 294
54.00951 262
54.02963 293
54.04974 276
54.06985 291
54.08997 265
54.11008 296
54.1302 296
54.15031 302
54.17042 286
54.19054 290
54.21065 310
54.23076 284
54.25088 289
54.27099 296
54.29111 278
54.31122 313
54.33133 247
54.35145 302
54.37156 342
54.39167 304
54.41179 298
54.4319 298
54.45201 307
54.47213 318
54.49224 335
54.51236 357
54.53247 344
54.55258 368
54.5727 392
54.59281 409
54.61292 443
54.63304 477
54.65315 548
54.67327 619
54.69338 614
54.71349 694
54.73361 705
54.75372 752
54.77383 787
54.79395 815
54.81406 773
54.83417 762
54.85429 662
54.8744 610
54.89452 588
54.91463 553
54.93474 576
54.95486 496
54.97497 496
54.99508 434
55.0152 406
55.03531 410
55.05543 360
55.07554 386
55.09565 389
55.11577 414
55.13588 415
55.15599 403
55.17611 434
55.19622 477
55.21634 516
55.23645 479
55.25656 498
55.27668 409
55.29679 428
55.3169 413
55.33702 394
55.35713 366
55.37724 348
55.39736 348
55.41747 328
55.43759 361
55.4577 325
55.47781 300
55.49793 293
55.51804 274
55.53815 276
55.55827 248
55.57838 284
55.5985 248
55.61861 262
55.63872 252
55.65884 272
55.67895 247
55.69906 255
55.71918 282
55.73929 250
55.75941 276
55.77952 235
55.79963 267
55.81975 251
55.83986 262
55.85997 255
55.88009 246
55.9002 218
55.92031 262
55.94043 241
55.96054 244
55.98066 266
56.00077 239
56.02088 253
56.041 205
56.06111 235
56.08122 260
56.10134 246
56.12145 255
56.14157 220
56.16168 255
56.18179 233
56.20191 259
56.22202 267
56.24213 227
56.26225 247
56.28236 239
56.30248 243
56.32259 248
56.3427 244
56.36282 211
56.38293 237
56.40304 239
56.42316 267
56.44327 242
56.46338 251
56.4835 244
56.50361 254
56.52373 244
56.54384 243
56.56395 244
56.58407 250
56.60418 243
56.62429 267
56.64441 234
56.66452 257
56.68464 260
56.70475 261
56.72486 258
56.74498 244
56.76509 228
56.7852 252
56.80532 248
56.82543 274
56.84554 245
56.86566 253
56.88577 235
56.90589 248
56.926 246
56.94611 244
56.96623 262
56.98634 262
57.00645 261
57.02657 250
57.04668 261
57.0668 261
57.08691 299
57.10702 249
57.12714 249
57.14725 257
57.16736 276
57.18748 261
57.20759 239
57.22771 250
57.24782 237
57.26793 259
57.28805 249
57.30816 234
57.32827 260
57.34839 224
57.3685 243
57.38861 239
57.40873 245
57.42884 235
57.44896 219
57.46907 245
57.48918 234
57.5093 203
57.52941 252
57.54952 270
57.56964 240
57.58975 241
57.60987 239
57.62998 267
57.65009 242
57.67021 231
57.69032 257
57.71043 238
57.73055 237
57.75066 259
57.77078 238
57.79089 231
57.811 231
57.83112 262
57.85123 266
57.87134 252
57.89146 233
57.91157 260
57.93168 246
57.9518 244
57.97191 255
57.99203 257
58.01214 245
58.03225 236
58.05237 232
58.07248 285
58.09259 238
58.11271 223
58.13282 261
58.15294 243
58.17305 262
58.19316 262
58.21328 242
58.23339 228
58.2535 227
58.27362 245
58.29373 223
58.31385 242
58.33396 236
58.35407 265
58.37419 211
58.3943 246
58.41441 222
58.43453 254
58.45464 256
58.47475 234
58.49487 229
58.51498 278
58.5351 233
58.55521 270
58.57532 268
58.59544 230
58.61555 252
58.63566 281
58.65578 257
58.67589 254
58.69601 248
58.71612 234
58.73623 213
58.75635 221
58.77646 252
58.79657 259
58.81669 248
58.8368 231
58.85691 256
58.87703 246
58.89714 242
58.91726 258
58.93737 246
58.95748 222
58.9776 230
58.99771 231
59.01782 223
59.03794 243
59.05805 265
59.07817 227
59.09828 228
59.11839 271
59.13851 273
59.15862 249
59.17873 245
59.19885 247
59.21896 233
59.23908 242
59.25919 263
59.2793 268
59.29942 258
59.31953 273
59.33964 285
59.35976 302
59.37987 274
59.39998 265
59.4201 300
59.44021 281
59.46033 293
59.48044 304
59.50055 362
59.52067 361
59.54078 376
59.56089 380
59.58101 430
59.60112 423
59.62124 498
59.64135 498
59.66146 578
59.68158 588
59.70169 683
59.7218 798
59.74192 875
59.76203 991
59.78215 1118
59.80226 1227
59.82237 1282
59.84249 1383
59.8626 1378
59.88271 1346
59.90283 1166
59.92294 1089
59.94305 953
59.96317 879
59.98328 794
60.0034 773
60.02351 795
60.04362 747
60.06374 679
60.08385 563
60.10396 491
60.12408 423
60.14419 369
60.16431 355
60.18442 330
60.20453 300
60.22465 305
60.24476 264
60.26487 277
60.28499 260
60.3051 277
60.32522 251
60.34533 270
60.36544 265
60.38556 255
60.40567 261
60.42578 262
60.4459 247
60.46601 260
60.48612 269
60.50624 256
60.52635 242
60.54647 274
60.56658 250
60.58669 244
60.60681 241
60.62692 223
60.64703 268
60.66715 254
60.68726 247
60.70738 236
60.72749 238
60.7476 233
60.76772 271
60.78783 231
60.80794 262
60.82806 284
60.84817 242
60.86828 247
60.8884 239
60.90851 268
60.92863 262
60.94874 271
60.96885 243
60.98897 283
61.00908 279
61.02919 266
61.04931 289
61.06942 291
61.08954 269
61.10965 248
61.12976 290
61.14988 272
61.16999 269
61.1901 261
61.21022 269
61.23033 239
61.25045 296
61.27056 281
61.29067 276
61.31079 295
61.3309 266
61.35101 276
61.37113 265
61.39124 309
61.41135 309
61.43147 295
61.45158 282
61.4717 266
61.49181 272
61.51192 299
61.53204 279
61.55215 293
61.57226 286
61.59238 306
61.61249 307
61.63261 291
61.65272 269
61.67283 279
61.69295 275
61.71306 313
61.73317 300
61.75329 284
61.7734 325
61.79352 344
61.81363 295
61.83374 302
61.85386 281
61.87397 322
61.89408 282
61.9142 313
61.93431 311
61.95442 321
61.97454 295
61.99465 300
62.01477 308
62.03488 319
62.05499 301
62.07511 295
62.09522 295
62.11533 314
62.13545 270
62.15556 290
62.17568 275
62.19579 296
62.2159 275
62.23602 299
62.25613 308
62.27624 276
62.29636 287
62.31647 290
62.33659 270
62.3567 260
62.37681 230
62.39693 262
62.41704 268
62.43715 253
62.45727 250
62.47738 233
62.49749 267
62.51761 253
62.53772 249
62.55784 253
62.57795 292
62.59806 257
62.61818 279
62.63829 262
62.6584 227
62.67852 261
62.69863 261
62.71875 260
62.73886 231
62.75897 245
62.77909 251
62.7992 245
62.81931 236
62.83943 257
62.85954 284
62.87965 262
62.89977 266
62.91988 290
62.94 251
62.96011 270
62.98022 257
63.00034 247
63.02045 272
63.04056 252
63.06068 279
63.08079 258
63.10091 275
63.12102 250
63.14113 272
63.16125 248
63.18136 263
63.20147 246
63.22159 256
63.2417 240
63.26182 272
63.28193 243
63.30204 268
63.32216 243
63.34227 247
63.36238 247
63.3825 261
63.40261 224
63.42272 259
63.44284 268
63.46295 246
63.48307 249
63.50318 241
63.52329 266
63.54341 259
63.56352 236
63.58363 253
63.60375 268
63.62386 279
63.64398 290
63.66409 272
63.6842 289
63.70432 294
63.72443 304
63.74454 333
63.76466 334
63.78477 315
63.80489 393
63.825 375
63.84511 429
63.86523 420
63.88534 424
63.90545 477
63.92557 419
63.94568 470
63.96579 405
63.98591 391
64.00602 370
64.02614 343
64.04625 390
64.06636 336
64.08648 345
64.10659 354
64.1267 319
64.14682 314
64.16693 323
64.18705 332
64.20716 288
64.22727 252
64.24739 260
64.2675 239
64.28761 204
64.30773 239
64.32784 237
64.34796 224
64.36807 251
64.38818 218
64.4083 249
64.42841 247
64.44852 230
64.46864 245
64.48875 207
64.50886 226
64.52898 222
64.54909 223
64.56921 244
64.58932 211
64.60943 207
64.62955 240
64.64966 224
64.66977 230
64.68989 212
64.71 223
64.73012 241
64.75023 243
64.77034 205
64.79046 239
64.81057 227
64.83068 228
64.8508 231
64.87091 259
64.89102 256
64.91114 237
64.93125 236
64.95137 259
64.97148 232
64.99159 240
65.01171 220
65.03182 254
65.05193 221
65.07205 228
65.09216 220
65.11228 258
65.13239 254
65.1525 280
65.17262 255
65.19273 272
65.21284 267
65.23296 259
65.25307 244
65.27319 252
65.2933 229
65.31341 254
65.33353 268
65.35364 228
65.37375 257
65.39387 250
65.41398 245
65.43409 242
65.45421 240
65.47432 229
65.49444 236
65.51455 271
65.53466 257
65.55478 244
65.57489 245
65.595 262
65.61512 270
65.63523 238
65.65535 264
65.67546 268
65.69557 307
65.71569 268
65.7358 250
65.75591 256
65.77603 241
65.79614 227
65.81626 250
65.83637 267
65.85648 232
65.8766 257
65.89671 253
65.91682 214
65.93694 275
65.95705 194
65.97716 239
65.99728 214
66.01739 248
66.03751 254
66.05762 234
66.07773 238
66.09785 248
66.11796 246
66.13807 234
66.15819 259
66.1783 257
66.19842 254
66.21853 247
66.23864 205
66.25876 256
66.27887 254
66.29898 239
66.3191 242
66.33921 235
66.35933 229
66.37944 252
66.39955 250
66.41967 224
66.43978 220
66.45989 255
66.48001 238
66.50012 243
66.52023 209
66.54035 242
66.56046 225
66.58058 227
66.60069 233
66.6208 212
66.64092 221
66.66103 222
66.68114 256
66.70126 226
66.72137 252
66.74149 192
66.7616 195
66.78171 217
66.80183 245
66.82194 250
66.84205 236
66.86217 240
66.88228 256
66.90239 217
66.92251 235
66.94262 241
66.96274 226
66.98285 253
67.00296 247
67.02308 259
67.04319 251
67.0633 251
67.08342 244
67.10353 231
67.12365 263
67.14376 236
67.16387 228
67.18399 276
67.2041 272
67.22421 257
67.24433 278
67.26444 274
67.28456 311
67.30467 278
67.32478 305
67.3449 317
67.36501 341
67.38512 349
67.40524 409
67.42535 441
67.44546 423
67.46558 459
67.48569 495
67.50581 544
67.52592 624
67.54603 739
67.56615 732
67.58626 845
67.60637 844
67.62649 969
67.6466 910
67.66672 884
67.68683 841
67.70694 848
67.72706 750
67.74717 706
67.76728 728
67.7874 727
67.80751 785
67.82763 792
67.84774 843
67.86785 761
67.88797 804
67.90808 850
67.92819 813
67.94831 896
67.96842 1029
67.98853 1067
68.00865 1111
68.02876 1177
68.04888 1152
68.06899 1171
68.0891 1193
68.10922 1104
68.12933 1067
68.14944 1120
68.16956 1064
68.18967 1085
68.20979 1094
68.2299 1013
68.25001 1002
68.27013 891
68.29024 813
68.31035 670
68.33047 634
68.35058 592
68.3707 509
68.39081 509
68.41092 529
68.43104 414
68.45115 379
68.47126 386
68.49138 373
68.51149 331
68.5316 312
68.55172 248
68.57183 280
68.59195 250
68.61206 253
68.63217 251
68.65229 266
68.6724 261
68.69251 258
68.71263 252
68.73274 254
68.75286 263
68.77297 267
68.79308 269
68.8132 257
68.83331 238
68.85342 232
68.87354 234
68.89365 275
68.91376 227
68.93388 250
68.95399 240
68.97411 226
68.99422 231
69.01433 212
69.03445 217
69.05456 236
69.07467 229
69.09479 248
69.1149 239
69.13502 245
69.15513 248
69.17524 241
69.19536 224
69.21547 230
69.23558 219
69.2557 247
69.27581 218
69.29593 223
69.31604 245
69.33615 237
69.35627 213
69.37638 232
69.39649 227
69.41661 230
69.43672 233
69.45683 219
69.47695 213
69.49706 228
69.51718 229
69.53729 235
69.5574 242
69.57752 176
69.59763 247
69.61774 235
69.63786 219
69.65797 243
69.67809 244
69.6982 260
69.71831 225
69.73843 209
69.75854 223
69.77865 218
69.79877 229
69.81888 226
69.839 237
69.85911 258
69.87922 229
69.89934 231
69.91945 205
69.93956 215
69.95968 204
69.97979 218
69.9999 238
70.02002 231
70.04013 258
70.06025 215
70.08036 222
70.10047 225
70.12059 239
70.1407 189
70.16081 217
70.18093 213
70.20104 222
70.22116 229
70.24127 226
70.26138 222
70.2815 235
70.30161 211
70.32172 210
70.34184 226
70.36195 212
70.38207 224
70.40218 223
70.42229 241
70.44241 203
70.46252 223
70.48263 210
70.50275 220
70.52286 229
70.54297 220
70.56309 200
70.5832 223
70.60332 228
70.62343 225
70.64354 228
70.66366 198
70.68377 215
70.70388 218
70.724 210
70.74411 234
70.76423 223
70.78434 200
70.80445 203
70.82457 210
70.84468 225
70.86479 231
70.88491 198
70.90502 215
70.92513 239
70.94525 206
70.96536 216
70.98548 222
71.00559 201
71.0257 220
71.04582 209
71.06593 222
71.08604 245
71.10616 226
71.12627 221
71.14639 205
71.1665 214
71.18661 212
71.20673 201
71.22684 205
71.24695 220
71.26707 230
71.28718 243
71.3073 208
71.32741 213
71.34752 249
71.36764 204
71.38775 204
71.40786 229
71.42798 244
71.44809 214
71.4682 220
71.48832 222
71.50843 227
71.52855 221
71.54866 246
71.56877 222
71.58889 232
71.609 229
71.62911 236
71.64923 203
71.66934 225
71.68946 209
71.70957 210
71.72968 223
71.7498 218
71.76991 182
71.79002 234
71.81014 244
71.83025 216
71.85037 247
71.87048 241
71.89059 224
71.91071 227
71.93082 206
71.95093 225
71.97105 266
71.99116 234
72.01127 235
72.03139 222
72.0515 231
72.07162 226
72.09173 222
72.11184 243
72.13196 227
72.15207 224
72.17218 229
72.1923 253
72.21241 230
72.23253 217
72.25264 233
72.27275 232
72.29287 262
72.31298 250
72.33309 238
72.35321 201
72.37332 248
72.39344 230
72.41355 230
72.43366 229
72.45378 219
72.47389 218
72.494 218
72.51412 235
72.53423 230
72.55434 209
72.57446 237
72.59457 218
72.61469 242
72.6348 224
72.65491 262
72.67503 233
72.69514 240
72.71525 231
72.73537 220
72.75548 229
72.7756 260
72.79571 244
72.81582 243
72.83594 253
72.85605 228
72.87616 249
72.89628 256
72.91639 257
72.9365 232
72.95662 231
72.97673 244
72.99685 255
73.01696 260
73.03707 290
73.05719 304
73.0773 247
73.09741 260
73.11753 316
73.13764 289
73.15776 273
73.17787 297
73.19798 296
73.2181 335
73.23821 325
73.25832 356
73.27844 385
73.29855 446
73.31867 430
73.33878 474
73.35889 440
73.37901 468
73.39912 481
73.41923 423
73.43935 430
73.45946 386
73.47957 367
73.49969 361
73.5198 343
73.53992 334
73.56003 366
73.58014 344
73.60026 328
73.62037 318
73.64048 315
73.6606 300
73.68071 269
73.70083 267
73.72094 265
73.74105 252
73.76117 269
73.78128 252
73.80139 257
73.82151 278
73.84162 253
73.86174 241
73.88185 215
73.90196 238
73.92208 237
73.94219 235
73.9623 191
73.98242 249
74.00253 229
74.02264 227
74.04276 238
74.06287 235
74.08299 238
74.1031 237
74.12321 240
74.14333 229
74.16344 230
74.18355 228
74.20367 232
74.22378 245
74.2439 229
74.26401 217
74.28412 244
74.30424 214
74.32435 224
74.34446 250
74.36458 245
74.38469 215
74.40481 197
74.42492 238
74.44503 210
74.46515 220
74.48526 235
74.50537 234
74.52549 233
74.5456 236
74.56571 233
74.58583 241
74.60594 215
74.62606 257
74.64617 238
74.66628 218
74.6864 217
74.70651 217
74.72662 217
74.74674 236
74.76685 227
74.78697 224
74.80708 213
74.82719 224
74.84731 222
74.86742 232
74.88753 254
74.90765 258
74.92776 229
74.94787 226
74.96799 222
74.9881 234
75.00822 236
