3.00117 20071
3.02128 19655
3.0414 19265
3.06151 18726
3.08162 17968
3.10174 17627
3.12185 17040
3.14197 16775
3.16208 16119
3.18219 15709
3.20231 15291
3.22242 14506
3.24253 14173
3.26265 13814
3.28276 13145
3.30288 12967
3.32299 12403
3.3431 12375
3.36322 11940
3.38333 11034
3.40344 11002
3.42356 10585
3.44367 10322
3.46379 10018
3.4839 9596
3.50401 9303
3.52413 8810
3.54424 8752
3.56435 8367
3.58447 7929
3.60458 7768
3.62469 7217
3.64481 7068
3.66492 6842
3.68504 6445
3.70515 6599
3.72526 5925
3.74538 5827
3.76549 5659
3.7856 5223
3.80572 5171
3.82583 4847
3.84595 4783
3.86606 4642
3.88617 4219
3.90629 4182
3.9264 3825
3.94651 3834
3.96663 3738
3.98674 3440
4.00686 3515
4.02697 3323
4.04708 3105
4.0672 3077
4.08731 2811
4.10742 2717
4.12754 2699
4.14765 2582
4.16776 2530
4.18788 2246
4.20799 2237
4.22811 2215
4.24822 2096
4.26833 2214
4.28845 1943
4.30856 1918
4.32867 1839
4.34879 1888
4.3689 1814
4.38902 1745
4.40913 1598
4.42924 1737
4.44936 1661
4.46947 1701
4.48958 1484
4.5097 1451
4.52981 1491
4.54992 1482
4.57004 1424
4.59015 1255
4.61027 1260
4.63038 1373
4.65049 1272
4.67061 1299
4.69072 1164
4.71083 1174
4.73095 1191
4.75106 1187
4.77118 1106
4.79129 1091
4.8114 1076
4.83152 1084
4.85163 1046
4.87174 1008
4.89186 962
4.91197 1059
4.93209 1039
4.9522 925
4.97231 957
4.99243 864
5.01254 830
5.03265 901
5.05277 915
5.07288 875
5.09299 834
5.11311 824
5.13322 811
5.15334 787
5.17345 752
5.19356 735
5.21368 729
5.23379 731
5.2539 675
5.27402 666
5.29413 621
5.31425 670
5.33436 626
5.35447 675
5.37459 591
5.3947 582
5.41481 568
5.43493 633
5.45504 604
5.47516 594
5.49527 614
5.51538 539
5.5355 551
5.55561 545
5.57572 533
5.59584 556
5.61595 546
5.63606 534
5.65618 537
5.67629 465
5.69641 460
5.71652 494
5.73663 519
5.75675 479
5.77686 457
5.79697 475
5.81709 470
5.8372 484
5.85732 451
5.87743 429
5.89754 488
5.91766 444
5.93777 454
5.95788 410
5.978 409
5.99811 427
6.01823 403
6.03834 424
6.05845 435
6.07857 402
6.09868 426
6.11879 385
6.13891 431
6.15902 470
6.17913 407
6.19925 432
6.21936 413
6.23948 431
6.25959 397
6.2797 401
6.29982 412
6.31993 400
6.34004 421
6.36016 328
6.38027 417
6.40039 363
6.4205 372
6.44061 356
6.46073 398
6.48084 349
6.50095 393
6.52107 345
6.54118 359
6.56129 430
6.58141 344
6.60152 358
6.62164 333
6.64175 368
6.66186 388
6.68198 350
6.70209 373
6.7222 363
6.74232 343
6.76243 393
6.78255 369
6.80266 367
6.82277 395
6.84289 374
6.863 358
6.88311 356
6.90323 357
6.92334 378
6.94346 375
6.96357 362
6.98368 356
7.0038 333
7.02391 390
7.04402 331
7.06414 359
7.08425 365
7.10436 357
7.12448 371
7.14459 356
7.16471 319
7.18482 360
7.20493 302
7.22505 359
7.24516 370
7.26527 365
7.28539 374
7.3055 361
7.32562 332
7.34573 333
7.36584 339
7.38596 346
7.40607 351
7.42618 333
7.4463 354
7.46641 351
7.48653 329
7.50664 339
7.52675 368
7.54687 393
7.56698 363
7.58709 377
7.60721 374
7.62732 343
7.64743 383
7.66755 346
7.68766 364
7.70778 344
7.72789 325
7.748 328
7.76812 313
7.78823 385
7.80834 341
7.82846 347
7.84857 320
7.86869 336
7.8888 356
7.90891 355
7.92903 371
7.94914 351
7.96925 353
7.98937 355
8.00948 359
8.0296 361
8.04971 369
8.06982 338
8.08994 345
8.11005 362
8.13016 351
8.15028 331
8.17039 351
8.1905 351
8.21062 376
8.23073 350
8.25085 339
8.27096 356
8.29107 347
8.31119 368
8.3313 330
8.35141 325
8.37153 385
8.39164 316
8.41176 365
8.43187 326
8.45198 358
8.4721 357
8.49221 332
8.51232 341
8.53244 330
8.55255 348
8.57266 363
8.59278 334
8.61289 352
8.63301 342
8.65312 379
8.67323 327
8.69335 373
8.71346 337
8.73357 334
8.75369 391
8.7738 347
8.79392 366
8.81403 399
8.83414 356
8.85426 371
8.87437 339
8.89448 359
8.9146 356
8.93471 333
8.95483 329
8.97494 371
8.99505 334
9.01517 367
9.03528 350
9.05539 340
9.07551 355
9.09562 342
9.11573 342
9.13585 372
9.15596 328
9.17608 389
9.19619 392
9.2163 326
9.23642 345
9.25653 400
9.27664 327
9.29676 343
9.31687 352
9.33699 366
9.3571 356
9.37721 369
9.39733 374
9.41744 342
9.43755 368
9.45767 330
9.47778 340
9.4979 336
9.51801 345
9.53812 345
9.55824 350
9.57835 361
9.59846 372
9.61858 314
9.63869 362
9.6588 326
9.67892 320
9.69903 363
9.71915 335
9.73926 322
9.75937 399
9.77949 326
9.7996 319
9.81971 343
9.83983 337
9.85994 346
9.88006 342
9.90017 352
9.92028 362
9.9404 339
9.96051 319
9.98062 342
10.00074 366
10.02085 336
10.04097 345
10.06108 339
10.08119 360
10.10131 329
10.12142 350
10.14153 332
10.16165 343
10.18176 340
10.20187 336
10.22199 355
10.2421 377
10.26222 334
10.28233 370
10.30244 339
10.32256 362
10.34267 334
10.36278 326
10.3829 346
10.40301 312
10.42313 355
10.44324 340
10.46335 360
10.48347 323
10.50358 349
10.52369 382
10.54381 358
10.56392 346
10.58403 306
10.60415 329
10.62426 316
10.64438 333
10.66449 363
10.6846 397
10.70472 341
10.72483 343
10.74494 339
10.76506 344
10.78517 352
10.80529 334
10.8254 352
10.84551 333
10.86563 372
10.88574 358
10.90585 357
10.92597 353
10.94608 310
10.9662 398
10.98631 372
11.00642 378
11.02654 306
11.04665 346
11.06676 336
11.08688 358
11.10699 361
11.1271 359
11.14722 379
11.16733 337
11.18745 366
11.20756 386
11.22767 355
11.24779 352
11.2679 343
11.28801 349
11.30813 332
11.32824 359
11.34836 368
11.36847 435
11.38858 380
11.4087 378
11.42881 388
11.44892 339
11.46904 386
11.48915 393
11.50927 373
11.52938 372
11.54949 384
11.56961 373
11.58972 376
11.60983 372
11.62995 389
11.65006 368
11.67017 436
11.69029 402
11.7104 379
11.73052 424
11.75063 446
11.77074 393
11.79086 421
11.81097 444
11.83108 466
11.8512 507
11.87131 497
11.89143 479
11.91154 556
11.93165 534
11.95177 529
11.97188 589
11.99199 598
12.01211 645
12.03222 660
12.05234 641
12.07245 736
12.09256 726
12.11268 820
12.13279 818
12.1529 937
12.17302 907
12.19313 947
12.21324 981
12.23336 956
12.25347 1031
12.27359 1034
12.2937 1064
12.31381 1023
12.33393 1016
12.35404 1000
12.37415 980
12.39427 915
12.41438 889
12.4345 819
12.45461 822
12.47472 772
12.49484 744
12.51495 674
12.53506 664
12.55518 599
12.57529 562
12.5954 574
12.61552 501
12.63563 495
12.65575 499
12.67586 526
12.69597 427
12.71609 444
12.7362 448
12.75631 425
12.77643 401
12.79654 415
12.81666 399
12.83677 365
12.85688 386
12.877 362
12.89711 376
12.91722 400
12.93734 357
12.95745 352
12.97757 339
12.99768 346
13.01779 367
13.03791 317
13.05802 319
13.07813 315
13.09825 352
13.11836 350
13.13847 308
13.15859 361
13.1787 320
13.19882 319
13.21893 312
13.23904 308
13.25916 339
13.27927 332
13.29938 338
13.3195 331
13.33961 329
13.35973 341
13.37984 348
13.39995 305
13.42007 312
13.44018 319
13.46029 285
13.48041 313
13.50052 283
13.52064 325
13.54075 340
13.56086 315
13.58098 330
13.60109 309
13.6212 303
13.64132 295
13.66143 323
13.68154 306
13.70166 305
13.72177 259
13.74189 332
13.762 306
13.78211 311
13.80223 294
13.82234 323
13.84245 300
13.86257 305
13.88268 297
13.9028 342
13.92291 307
13.94302 331
13.96314 330
13.98325 327
14.00336 306
14.02348 299
14.04359 316
14.06371 341
14.08382 274
14.10393 300
14.12405 301
14.14416 332
14.16427 310
14.18439 293
14.2045 305
14.22461 310
14.24473 323
14.26484 308
14.28496 317
14.30507 281
14.32518 311
14.3453 298
14.36541 339
14.38552 322
14.40564 284
14.42575 334
14.44587 282
14.46598 291
14.48609 299
14.50621 311
14.52632 317
14.54643 309
14.56655 285
14.58666 329
14.60677 303
14.62689 315
14.647 286
14.66712 299
14.68723 307
14.70734 294
14.72746 281
14.74757 277
14.76768 274
14.7878 304
14.80791 282
14.82803 292
14.84814 298
14.86825 282
14.88837 325
14.90848 292
14.92859 290
14.94871 303
14.96882 319
14.98894 254
15.00905 321
15.02916 325
15.04928 299
15.06939 286
15.0895 298
15.10962 309
15.12973 272
15.14984 279
15.16996 292
15.19007 299
15.21019 299
15.2303 310
15.25041 291
15.27053 318
15.29064 282
15.31075 286
15.33087 306
15.35098 292
15.3711 282
15.39121 324
15.41132 290
15.43144 317
15.45155 329
15.47166 299
15.49178 276
15.51189 312
15.53201 312
15.55212 307
15.57223 282
15.59235 291
15.61246 284
15.63257 294
15.65269 313
15.6728 285
15.69291 290
15.71303 330
15.73314 300
15.75326 281
15.77337 306
15.79348 272
15.8136 280
15.83371 255
15.85382 311
15.87394 263
15.89405 290
15.91417 326
15.93428 297
15.95439 305
15.97451 283
15.99462 286
16.01473 303
16.03485 272
16.05496 297
16.07508 300
16.09519 302
16.1153 296
16.13542 300
16.15553 277
16.17564 269
16.19576 279
16.21587 290
16.23598 339
16.2561 272
16.27621 266
16.29633 301
16.31644 323
16.33655 252
16.35667 270
16.37678 292
16.39689 300
16.41701 288
16.43712 294
16.45724 262
16.47735 323
16.49746 291
16.51758 316
16.53769 290
16.5578 284
16.57792 300
16.59803 274
16.61814 296
16.63826 298
16.65837 268
16.67849 309
16.6986 300
16.71871 289
16.73883 301
16.75894 256
16.77905 292
16.79917 307
16.81928 276
16.8394 272
16.85951 279
16.87962 258
16.89974 287
16.91985 312
16.93996 291
16.96008 301
16.98019 262
17.00031 284
17.02042 306
17.04053 263
17.06065 288
17.08076 299
17.10087 312
17.12099 291
17.1411 281
17.16121 300
17.18133 273
17.20144 313
17.22156 296
17.24167 294
17.26178 285
17.2819 295
17.30201 248
17.32212 353
17.34224 259
17.36235 268
17.38247 283
17.40258 268
17.42269 274
17.44281 309
17.46292 276
17.48303 294
17.50315 326
17.52326 305
17.54338 327
17.56349 288
17.5836 304
17.60372 300
17.62383 281
17.64394 320
17.66406 311
17.68417 305
17.70428 304
17.7244 266
17.74451 305
17.76463 328
17.78474 324
17.80485 319
17.82497 296
17.84508 364
17.86519 337
17.88531 315
17.90542 285
17.92554 332
17.94565 314
17.96576 342
17.98588 335
18.00599 399
18.0261 367
18.04622 351
18.06633 353
18.08645 376
18.10656 430
18.12667 429
18.14679 453
18.1669 546
18.18701 621
18.20713 646
18.22724 754
18.24735 919
18.26747 896
18.28758 957
18.3077 860
18.32781 874
18.34792 777
18.36804 720
18.38815 581
18.40826 459
18.42838 444
18.44849 395
18.46861 373
18.48872 405
18.50883 351
18.52895 319
18.54906 343
18.56917 348
18.58929 327
18.6094 329
18.62951 321
18.64963 311
18.66974 301
18.68986 289
18.70997 320
18.73008 320
18.7502 332
18.77031 342
18.79042 318
18.81054 312
18.83065 333
18.85077 300
18.87088 316
18.89099 313
18.91111 344
18.93122 295
18.95133 299
18.97145 292
18.99156 285
19.01168 307
19.03179 296
19.0519 300
19.07202 311
19.09213 318
19.11224 284
19.13236 327
19.15247 322
19.17258 305
19.1927 292
19.21281 319
19.23293 282
19.25304 326
19.27315 294
19.29327 321
19.31338 320
19.33349 340
19.35361 319
19.37372 375
19.39384 335
19.41395 317
19.43406 322
19.45418 328
19.47429 327
19.4944 380
19.51452 377
19.53463 344
19.55475 392
19.57486 389
19.59497 372
19.61509 405
19.6352 450
19.65531 444
19.67543 467
19.69554 503
19.71565 577
19.73577 580
19.75588 629
19.776 670
19.79611 715
19.81622 743
19.83634 760
19.85645 835
19.87656 825
19.89668 837
19.91679 828
19.93691 794
19.95702 833
19.97713 754
19.99725 771
20.01736 741
20.03747 712
20.05759 742
20.0777 749
20.09782 785
20.11793 803
20.13804 825
20.15816 839
20.17827 794
20.19838 918
20.2185 877
20.23861 930
20.25872 937
20.27884 984
20.29895 908
20.31907 946
20.33918 893
20.35929 866
20.37941 824
20.39952 818
20.41963 847
20.43975 835
20.45986 851
20.47998 840
20.50009 861
20.5202 839
20.54032 843
20.56043 874
20.58054 894
20.60066 929
20.62077 961
20.64088 1054
20.661 1017
20.68111 1316
20.70123 1528
20.72134 1831
20.74145 2231
20.76157 2989
20.78168 3614
20.80179 4041
20.82191 4355
20.84202 4462
20.86214 4036
20.88225 3247
20.90236 2384
20.92248 1751
20.94259 1349
20.9627 1046
20.98282 914
21.00293 815
21.02305 802
21.04316 784
21.06327 778
21.08339 674
21.1035 756
21.12361 692
21.14373 713
21.16384 688
21.18395 676
21.20407 705
21.22418 693
21.2443 704
21.26441 734
21.28452 727
21.30464 726
21.32475 703
21.34486 750
21.36498 712
21.38509 749
21.40521 760
21.42532 751
21.44543 738
21.46555 703
21.48566 729
21.50577 741
21.52589 746
21.546 696
21.56612 696
21.58623 687
21.60634 675
21.62646 664
21.64657 619
21.66668 636
21.6868 627
21.70691 620
21.72702 628
21.74714 597
21.76725 579
21.78737 545
21.80748 554
21.82759 565
21.84771 502
21.86782 546
21.88793 520
21.90805 564
21.92816 594
21.94828 506
21.96839 538
21.9885 518
22.00862 505
22.02873 521
22.04884 488
22.06896 510
22.08907 517
22.10919 478
22.1293 485
22.14941 487
22.16953 477
22.18964 514
22.20975 525
22.22987 509
22.24998 495
22.27009 506
22.29021 503
22.31032 515
22.33044 504
22.35055 465
22.37066 474
22.39078 473
22.41089 488
22.431 469
22.45112 509
22.47123 451
22.49135 470
22.51146 393
22.53157 455
22.55169 467
22.5718 470
22.59191 441
22.61203 481
22.63214 471
22.65225 412
22.67237 444
22.69248 433
22.7126 460
22.73271 441
22.75282 487
22.77294 457
22.79305 434
22.81316 466
22.83328 413
22.85339 422
22.87351 438
22.89362 440
22.91373 408
22.93385 428
22.95396 431
22.97407 418
22.99419 451
23.0143 417
23.03442 387
23.05453 440
23.07464 432
23.09476 422
23.11487 424
23.13498 413
23.1551 396
23.17521 408
23.19532 387
23.21544 392
23.23555 390
23.25567 364
23.27578 428
23.29589 394
23.31601 417
23.33612 407
23.35623 419
23.37635 413
23.39646 415
23.41658 409
23.43669 437
23.4568 377
23.47692 400
23.49703 405
23.51714 392
23.53726 385
23.55737 421
23.57749 433
23.5976 401
23.61771 418
23.63783 415
23.65794 409
23.67805 378
23.69817 432
23.71828 413
23.73839 405
23.75851 446
23.77862 412
23.79874 425
23.81885 407
23.83896 412
23.85908 433
23.87919 469
23.8993 469
23.91942 458
23.93953 482
23.95965 477
23.97976 452
23.99987 463
24.01999 456
24.0401 469
24.06021 440
24.08033 486
24.10044 465
24.12056 464
24.14067 483
24.16078 441
24.1809 481
24.20101 471
24.22112 451
24.24124 467
24.26135 476
24.28146 466
24.30158 483
24.32169 468
24.34181 508
24.36192 530
24.38203 497
24.40215 466
24.42226 512
24.44237 482
24.46249 543
24.4826 561
24.50272 576
24.52283 593
24.54294 580
24.56306 622
24.58317 613
24.60328 608
24.6234 662
24.64351 700
24.66362 722
24.68374 740
24.70385 783
24.72397 809
24.74408 806
24.76419 801
24.78431 809
24.80442 886
24.82453 923
24.84465 923
24.86476 856
24.88488 893
24.90499 943
24.9251 814
24.94522 827
24.96533 794
24.98544 731
25.00556 753
25.02567 718
25.04579 708
25.0659 671
25.08601 697
25.10613 690
25.12624 642
25.14635 627
25.16647 708
25.18658 679
25.20669 646
25.22681 654
25.24692 618
25.26704 648
25.28715 645
25.30726 557
25.32738 560
25.34749 540
25.3676 528
25.38772 508
25.40783 510
25.42795 523
25.44806 502
25.46817 494
25.48829 465
25.5084 470
25.52851 430
25.54863 451
25.56874 429
25.58886 485
25.60897 457
25.62908 506
25.6492 498
25.66931 468
25.68942 471
25.70954 521
25.72965 519
25.74976 524
25.76988 474
25.78999 501
25.81011 500
25.83022 509
25.85033 517
25.87045 549
25.89056 506
25.91067 525
25.93079 557
25.9509 535
25.97102 539
25.99113 503
26.01124 563
26.03136 605
26.05147 547
26.07158 592
26.0917 627
26.11181 644
26.13193 680
26.15204 723
26.17215 743
26.19227 743
26.21238 808
26.23249 849
26.25261 843
26.27272 940
26.29283 914
26.31295 1088
26.33306 1125
26.35318 1236
26.37329 1514
26.3934 1758
26.41352 2178
26.43363 2776
26.45374 3546
26.47386 4784
26.49397 6471
26.51409 8729
26.5342 11318
26.55431 14695
26.57443 17153
26.59454 18607
26.61465 17972
26.63477 15904
26.65488 13265
26.67499 10175
26.69511 7360
26.71522 4835
26.73534 3347
26.75545 2068
26.77556 1622
26.79568 1253
26.81579 1139
26.8359 1054
26.85602 959
26.87613 969
26.89625 843
26.91636 842
26.93647 770
26.95659 712
26.9767 680
26.99681 610
27.01693 594
27.03704 546
27.05716 528
27.07727 540
27.09738 549
27.1175 516
27.13761 492
27.15772 456
27.17784 513
27.19795 479
27.21806 467
27.23818 485
27.25829 431
27.27841 477
27.29852 479
27.31863 478
27.33875 458
27.35886 481
27.37897 456
27.39909 442
27.4192 453
27.43932 469
27.45943 448
27.47954 440
27.49966 402
27.51977 407
27.53988 415
27.56 411
27.58011 478
27.60023 408
27.62034 409
27.64045 443
27.66057 425
27.68068 395
27.70079 422
27.72091 351
27.74102 395
27.76113 411
27.78125 413
27.80136 458
27.82148 447
27.84159 410
27.8617 410
27.88182 411
27.90193 413
27.92204 407
27.94216 446
27.96227 416
27.98239 401
28.0025 425
28.02261 416
28.04273 363
28.06284 356
28.08295 370
28.10307 371
28.12318 402
28.1433 357
28.16341 375
28.18352 397
28.20364 384
28.22375 383
28.24386 383
28.26398 367
28.28409 376
28.3042 350
28.32432 385
28.34443 338
28.36455 391
28.38466 357
28.40477 359
28.42489 385
28.445 367
28.46511 331
28.48523 368
28.50534 335
28.52546 355
28.54557 363
28.56568 354
28.5858 334
28.60591 370
28.62602 368
28.64614 348
28.66625 379
28.68636 352
28.70648 345
28.72659 333
28.74671 322
28.76682 386
28.78693 353
28.80705 338
28.82716 362
28.84727 342
28.86739 362
28.8875 291
28.90762 372
28.92773 332
28.94784 334
28.96796 343
28.98807 343
29.00818 353
29.0283 324
29.04841 389
29.06853 382
29.08864 328
29.10875 334
29.12887 367
29.14898 335
29.16909 363
29.18921 298
29.20932 316
29.22943 306
29.24955 334
29.26966 358
29.28978 342
29.30989 318
29.33 330
29.35012 333
29.37023 374
29.39034 335
29.41046 336
29.43057 370
29.45069 321
29.4708 317
29.49091 347
29.51103 321
29.53114 307
29.55125 323
29.57137 326
29.59148 329
29.6116 346
29.63171 321
29.65182 349
29.67194 337
29.69205 291
29.71216 323
29.73228 316
29.75239 340
29.7725 314
29.79262 366
29.81273 310
29.83285 327
29.85296 327
29.87307 303
29.89319 314
29.9133 344
29.93341 336
29.95353 323
29.97364 319
29.99376 330
30.01387 320
30.03398 350
30.0541 310
30.07421 311
30.09432 327
30.11444 351
30.13455 352
30.15467 323
30.17478 292
30.19489 332
30.21501 323
30.23512 280
30.25523 339
30.27535 354
30.29546 330
30.31557 327
30.33569 310
30.3558 312
30.37592 308
30.39603 298
30.41614 335
30.43626 320
30.45637 306
30.47648 328
30.4966 334
30.51671 326
30.53683 363
30.55694 310
30.57705 302
30.59717 304
30.61728 310
30.63739 303
30.65751 294
30.67762 322
30.69773 302
30.71785 346
30.73796 316
30.75808 336
30.77819 351
30.7983 328
30.81842 326
30.83853 316
30.85864 313
30.87876 295
30.89887 310
30.91899 330
30.9391 316
30.95921 323
30.97933 335
30.99944 270
31.01955 303
31.03967 317
31.05978 304
31.0799 312
31.10001 311
31.12012 308
31.14024 320
31.16035 296
31.18046 311
31.20058 306
31.22069 330
31.2408 309
31.26092 330
31.28103 303
31.30115 330
31.32126 310
31.34137 311
31.36149 313
31.3816 308
31.40171 326
31.42183 307
31.44194 305
31.46206 316
31.48217 316
31.50228 318
31.5224 293
31.54251 319
31.56262 337
31.58274 307
31.60285 324
31.62297 308
31.64308 332
31.66319 285
31.68331 326
31.70342 304
31.72353 325
31.74365 312
31.76376 310
31.78387 332
31.80399 303
31.8241 284
31.84422 308
31.86433 312
31.88444 303
31.90456 326
31.92467 301
31.94478 333
31.9649 326
31.98501 288
32.00513 303
32.02524 333
32.04535 324
32.06547 292
32.08558 303
32.10569 300
32.12581 289
32.14592 311
32.16604 289
32.18615 316
32.20626 319
32.22638 311
32.24649 298
32.2666 341
32.28672 297
32.30683 313
32.32694 300
32.34706 316
32.36717 325
32.38729 312
32.4074 310
32.42751 319
32.44763 326
32.46774 308
32.48785 344
32.50797 309
32.52808 319
32.5482 340
32.56831 337
32.58842 317
32.60854 313
32.62865 360
32.64876 300
32.66888 320
32.68899 310
32.7091 333
32.72922 349
32.74933 338
32.76945 330
32.78956 360
32.80967 348
32.82979 363
32.8499 315
32.87001 366
32.89013 334
32.91024 374
32.93036 360
32.95047 371
32.97058 351
32.9907 368
33.01081 352
33.03092 382
33.05104 379
33.07115 392
33.09127 385
33.11138 375
33.13149 366
33.15161 398
33.17172 420
33.19183 392
33.21195 353
33.23206 373
33.25217 372
33.27229 411
33.2924 407
33.31252 396
33.33263 387
33.35274 400
33.37286 371
33.39297 377
33.41308 349
33.4332 393
33.45331 372
33.47343 376
33.49354 383
33.51365 394
33.53377 341
33.55388 369
33.57399 345
33.59411 358
33.61422 365
33.63434 369
33.65445 370
33.67456 367
33.69468 354
33.71479 372
33.7349 336
33.75502 348
33.77513 341
33.79524 367
33.81536 385
33.83547 372
33.85559 339
33.8757 306
33.89581 357
33.91593 390
33.93604 342
33.95615 342
33.97627 376
33.99638 351
34.0165 342
34.03661 320
34.05672 314
34.07684 358
34.09695 314
34.11706 331
34.13718 330
34.15729 331
34.17741 327
34.19752 320
34.21763 322
34.23775 333
34.25786 325
34.27797 318
34.29809 327
34.3182 333
34.33831 359
34.35843 351
34.37854 334
34.39866 313
34.41877 350
34.43888 364
34.459 312
34.47911 382
34.49922 345
34.51934 336
34.53945 319
34.55957 350
34.57968 350
34.59979 378
34.61991 388
34.64002 380
34.66013 410
34.68025 415
34.70036 439
34.72047 434
34.74059 435
34.7607 432
34.78082 465
34.80093 515
34.82104 498
34.84116 525
34.86127 598
34.88138 567
34.9015 612
34.92161 584
34.94173 585
34.96184 565
34.98195 548
35.00207 562
35.02218 517
35.04229 510
35.06241 532
35.08252 471
35.10264 473
35.12275 495
35.14286 475
35.16298 482
35.18309 514
35.2032 485
35.22332 460
35.24343 487
35.26354 459
35.28366 497
35.30377 496
35.32389 486
35.344 528
35.36411 563
35.38423 526
35.40434 511
35.42445 524
35.44457 542
35.46468 521
35.4848 542
35.50491 537
35.52502 550
35.54514 538
35.56525 561
35.58536 580
35.60548 527
35.62559 564
35.64571 609
35.66582 588
35.68593 532
35.70605 546
35.72616 574
35.74627 580
35.76639 612
35.7865 596
35.80661 634
35.82673 610
35.84684 573
35.86696 588
35.88707 579
35.90718 604
35.9273 562
35.94741 566
35.96752 557
35.98764 543
36.00775 554
36.02787 550
36.04798 512
36.06809 486
36.08821 499
36.10832 494
36.12843 463
36.14855 503
36.16866 463
36.18878 510
36.20889 513
36.229 481
36.24912 501
36.26923 554
36.28934 547
36.30946 589
36.32957 616
36.34968 695
36.3698 850
36.38991 907
36.41003 1038
36.43014 1170
36.45025 1397
36.47037 1516
36.49048 1560
36.51059 1514
36.53071 1355
36.55082 1268
36.57094 1148
36.59105 1014
36.61116 953
36.63128 839
36.65139 657
36.6715 583
36.69162 485
36.71173 504
36.73184 464
36.75196 510
36.77207 444
36.79219 409
36.8123 509
36.83241 455
36.85253 420
36.87264 477
36.89275 424
36.91287 441
36.93298 455
36.9531 427
36.97321 456
36.99332 474
37.01344 469
37.03355 470
37.05366 462
37.07378 481
37.09389 441
37.11401 492
37.13412 492
37.15423 470
37.17435 504
37.19446 498
37.21457 495
37.23469 498
37.2548 506
37.27491 482
37.29503 499
37.31514 492
37.33526 505
37.35537 451
37.37548 489
37.3956 509
37.41571 483
37.43582 489
37.45594 524
37.47605 535
37.49617 495
37.51628 500
37.53639 514
37.55651 535
37.57662 551
37.59673 512
37.61685 561
37.63696 488
37.65708 509
37.67719 527
37.6973 528
37.71742 511
37.73753 494
37.75764 519
37.77776 484
37.79787 458
37.81798 506
37.8381 542
37.85821 480
37.87833 503
37.89844 455
37.91855 505
37.93867 455
37.95878 462
37.97889 468
37.99901 452
38.01912 453
38.03924 464
38.05935 446
38.07946 457
38.09958 483
38.11969 518
38.1398 494
38.15992 484
38.18003 502
38.20015 541
38.22026 580
38.24037 591
38.26049 610
38.2806 588
38.30071 575
38.32083 604
38.34094 604
38.36105 605
38.38117 642
38.40128 630
38.4214 629
38.44151 598
38.46162 614
38.48174 607
38.50185 558
38.52196 580
38.54208 499
38.56219 527
38.58231 531
38.60242 548
38.62253 508
38.64265 540
38.66276 483
38.68287 496
38.70299 457
38.7231 456
38.74321 468
38.76333 464
38.78344 497
38.80356 508
38.82367 492
38.84378 490
38.8639 508
38.88401 476
38.90412 458
38.92424 450
38.94435 454
38.96447 490
38.98458 493
39.00469 478
39.02481 462
39.04492 486
39.06503 496
39.08515 520
39.10526 537
39.12538 551
39.14549 549
39.1656 526
39.18572 577
39.20583 568
39.22594 644
39.24606 637
39.26617 722
39.28628 784
39.3064 871
39.32651 991
39.34663 1125
39.36674 1305
39.38685 1345
39.40697 1416
39.42708 1420
39.44719 1351
39.46731 1228
39.48742 1062
39.50754 997
39.52765 880
39.54776 797
39.56788 689
39.58799 554
39.6081 512
39.62822 430
39.64833 437
39.66845 403
39.68856 371
39.70867 421
39.72879 350
39.7489 345
39.76901 399
39.78913 366
39.80924 375
39.82935 399
39.84947 380
39.86958 368
39.8897 360
39.90981 394
39.92992 379
39.95004 401
39.97015 415
39.99026 382
40.01038 390
40.03049 434
40.05061 439
40.07072 472
40.09083 513
40.11095 522
40.13106 565
40.15117 649
40.17129 709
40.1914 760
40.21152 855
40.23163 866
40.25174 825
40.27186 786
40.29197 710
40.31208 693
40.3322 627
40.35231 613
40.37242 546
40.39254 510
40.41265 456
40.43277 413
40.45288 393
40.47299 392
40.49311 400
40.51322 396
40.53333 373
40.55345 402
40.57356 366
40.59368 361
40.61379 392
40.6339 367
40.65402 407
40.67413 400
40.69424 403
40.71436 384
40.73447 412
40.75458 405
40.7747 344
40.79481 367
40.81493 366
40.83504 369
40.85515 370
40.87527 388
40.89538 347
40.91549 371
40.93561 402
40.95572 385
40.97584 369
40.99595 391
41.01606 350
41.03618 370
41.05629 362
41.0764 368
41.09652 363
41.11663 373
41.13675 405
41.15686 359
41.17697 366
41.19709 349
41.2172 367
41.23731 374
41.25743 338
41.27754 346
41.29765 364
41.31777 345
41.33788 359
41.358 348
41.37811 320
41.39822 346
41.41834 383
41.43845 360
41.45856 361
41.47868 346
41.49879 370
41.51891 378
41.53902 377
41.55913 382
41.57925 370
41.59936 372
41.61947 378
41.63959 366
41.6597 378
41.67982 336
41.69993 380
41.72004 333
41.74016 334
41.76027 370
41.78038 362
41.8005 344
41.82061 370
41.84072 363
41.86084 363
41.88095 359
41.90107 346
41.92118 373
41.94129 359
41.96141 352
41.98152 353
42.00163 372
42.02175 339
42.04186 361
42.06198 330
42.08209 362
42.1022 379
42.12232 370
42.14243 349
42.16254 410
42.18266 353
42.20277 432
42.22289 480
42.243 453
42.26311 553
42.28323 546
42.30334 687
42.32345 788
42.34357 837
42.36368 973
42.38379 1016
42.40391 969
42.42402 979
42.44414 948
42.46425 796
42.48436 707
42.50448 673
42.52459 631
42.5447 505
42.56482 462
42.58493 439
42.60505 367
42.62516 350
42.64527 347
42.66539 325
42.6855 315
42.70561 309
42.72573 344
42.74584 330
42.76595 279
42.78607 297
42.80618 324
42.8263 312
42.84641 297
42.86652 284
42.88664 325
42.90675 310
42.92686 282
42.94698 308
42.96709 265
42.98721 317
43.00732 323
43.02743 323
43.04755 282
43.06766 295
43.08777 314
43.10789 310
43.128 277
43.14812 293
43.16823 288
43.18834 275
43.20846 290
43.22857 327
43.24868 303
43.2688 286
43.28891 264
43.30902 316
43.32914 274
43.34925 306
43.36937 265
43.38948 331
43.40959 284
43.42971 273
43.44982 309
43.46993 289
43.49005 293
43.51016 306
43.53028 277
43.55039 310
43.5705 279
43.59062 333
43.61073 329
43.63084 325
43.65096 313
43.67107 310
43.69119 306
43.7113 297
43.73141 316
43.75153 311
43.77164 279
43.79175 309
43.81187 322
43.83198 333
43.85209 276
43.87221 337
43.89232 278
43.91244 324
43.93255 321
43.95266 313
43.97278 302
43.99289 329
44.013 315
44.03312 306
44.05323 318
44.07335 334
44.09346 366
44.11357 334
44.13369 340
44.1538 338
44.17391 346
44.19403 320
44.21414 340
44.23426 352
44.25437 359
44.27448 336
44.2946 330
44.31471 335
44.33482 328
44.35494 333
44.37505 342
44.39516 303
44.41528 317
44.43539 317
44.45551 286
44.47562 292
44.49573 319
44.51585 320
44.53596 297
44.55607 286
44.57619 332
44.5963 318
44.61642 291
44.63653 290
44.65664 314
44.67676 316
44.69687 316
44.71698 298
44.7371 312
44.75721 333
44.77732 326
44.79744 321
44.81755 283
44.83767 282
44.85778 302
44.87789 317
44.89801 285
44.91812 306
44.93823 330
44.95835 350
44.97846 325
44.99858 294
45.01869 336
45.0388 318
45.05892 333
45.07903 355
45.09914 321
45.11926 319
45.13937 346
45.15949 319
45.1796 393
45.19971 354
45.21983 392
45.23994 375
45.26005 360
45.28017 364
45.30028 364
45.32039 408
45.34051 381
45.36062 365
45.38074 409
45.40085 398
45.42096 421
45.44108 446
45.46119 425
45.4813 398
45.50142 430
45.52153 453
45.54165 456
45.56176 484
45.58187 509
45.60199 493
45.6221 560
45.64221 601
45.66233 640
45.68244 739
45.70256 808
45.72267 855
45.74278 807
45.7629 847
45.78301 770
45.80312 660
45.82324 592
45.84335 561
45.86346 590
45.88358 534
45.90369 494
45.92381 453
45.94392 357
45.96403 365
45.98415 362
46.00426 308
46.02437 351
46.04449 360
46.0646 354
46.08472 333
46.10483 365
46.12494 339
46.14506 359
46.16517 354
46.18528 321
46.2054 318
46.22551 355
46.24563 290
46.26574 341
46.28585 324
46.30597 330
46.32608 297
46.34619 327
46.36631 324
46.38642 329
46.40653 345
46.42665 315
46.44676 322
46.46688 345
46.48699 356
46.5071 356
46.52722 342
46.54733 316
46.56744 346
46.58756 290
46.60767 330
46.62779 351
46.6479 328
46.66801 313
46.68813 323
46.70824 331
46.72835 327
46.74847 309
46.76858 341
46.78869 313
46.80881 327
46.82892 307
46.84904 323
46.86915 306
46.88926 331
46.90938 331
46.92949 333
46.9496 283
46.96972 337
46.98983 341
47.00995 325
47.03006 305
47.05017 307
47.07029 317
47.0904 324
47.11051 322
47.13063 331
47.15074 325
47.17086 369
47.19097 327
47.21108 312
47.2312 373
47.25131 354
47.27142 332
47.29154 337
47.31165 333
47.33176 332
47.35188 330
47.37199 335
47.39211 337
47.41222 307
47.43233 345
47.45245 306
47.47256 344
47.49267 313
47.51279 336
47.5329 320
47.55302 349
47.57313 301
47.59324 326
47.61336 327
47.63347 303
47.65358 334
47.6737 358
47.69381 340
47.71393 359
47.73404 340
47.75415 315
47.77427 354
47.79438 367
47.81449 316
47.83461 346
47.85472 355
47.87483 391
47.89495 364
47.91506 342
47.93518 353
47.95529 345
47.9754 336
47.99552 352
48.01563 363
48.03574 354
48.05586 336
48.07597 325
48.09609 350
48.1162 320
48.13631 347
48.15643 341
48.17654 310
48.19665 340
48.21677 335
48.23688 290
48.257 326
48.27711 298
48.29722 283
48.31734 307
48.33745 341
48.35756 333
48.37768 345
48.39779 337
48.4179 346
48.43802 326
48.45813 290
48.47825 298
48.49836 304
48.51847 349
48.53859 295
48.5587 283
48.57881 297
48.59893 308
48.61904 322
48.63916 315
48.65927 306
48.67938 310
48.6995 290
48.71961 325
48.73972 298
48.75984 296
48.77995 313
48.80006 302
48.82018 306
48.84029 334
48.86041 318
48.88052 321
48.90063 288
48.92075 289
48.94086 307
48.96097 316
48.98109 319
49.0012 292
49.02132 329
49.04143 339
49.06154 306
49.08166 330
49.10177 314
49.12188 319
49.142 311
49.16211 347
49.18223 328
49.20234 349
49.22245 326
49.24257 352
49.26268 337
49.28279 328
49.30291 345
49.32302 308
49.34313 316
49.36325 343
49.38336 291
49.40348 313
49.42359 321
49.4437 327
49.46382 357
49.48393 327
49.50404 332
49.52416 342
49.54427 364
49.56439 346
49.5845 335
49.60461 327
49.62473 360
49.64484 361
49.66495 393
49.68507 402
49.70518 385
49.7253 353
49.74541 389
49.76552 388
49.78564 430
49.80575 453
49.82586 484
49.84598 527
49.86609 564
49.8862 585
49.90632 692
49.92643 756
49.94655 928
49.96666 1015
49.98677 1194
50.00689 1467
50.027 1732
50.04711 1961
50.06723 2005
50.08734 2109
50.10746 1910
50.12757 1728
50.14768 1561
50.1678 1377
50.18791 1228
50.20802 1211
50.22814 1158
50.24825 991
50.26837 845
50.28848 649
50.30859 532
50.32871 469
50.34882 442
50.36893 373
50.38905 374
50.40916 453
50.42927 402
50.44939 358
50.4695 400
50.48962 385
50.50973 375
50.52984 391
50.54996 387
50.57007 412
50.59018 390
50.6103 356
50.63041 409
50.65053 349
50.67064 363
50.69075 349
50.71087 369
50.73098 379
50.75109 411
50.77121 358
50.79132 339
50.81143 338
50.83155 345
50.85166 290
50.87178 322
50.89189 329
50.912 310
50.93212 330
50.95223 330
50.97234 334
50.99246 319
51.01257 319
51.03269 337
51.0528 319
51.07291 359
51.09303 347
51.11314 366
51.13325 302
51.15337 315
51.17348 303
51.1936 316
51.21371 296
51.23382 287
51.25394 319
51.27405 301
51.29416 272
51.31428 295
51.33439 284
51.3545 310
51.37462 332
51.39473 285
51.41485 316
51.43496 267
51.45507 339
51.47519 291
51.4953 295
51.51541 299
51.53553 267
51.55564 309
51.57576 275
51.59587 286
51.61598 286
51.6361 271
51.65621 282
51.67632 241
51.69644 261
51.71655 274
51.73667 296
51.75678 311
51.77689 285
51.79701 273
51.81712 311
51.83723 275
51.85735 290
51.87746 316
51.89757 287
51.91769 323
51.9378 308
51.95792 270
51.97803 311
51.99814 289
52.01826 318
52.03837 353
52.05848 339
52.0786 328
52.09871 313
52.11883 323
52.13894 340
52.15905 341
52.17917 325
52.19928 289
52.21939 336
52.23951 338
52.25962 301
52.27974 324
52.29985 305
52.31996 322
52.34008 330
52.36019 297
52.3803 280
52.40042 326
52.42053 284
52.44064 306
52.46076 266
52.48087 285
52.50099 287
52.5211 326
52.54121 289
52.56133 298
52.58144 263
52.60155 284
52.62167 302
52.64178 283
52.6619 288
52.68201 281
52.70212 288
52.72224 271
52.74235 289
52.76246 301
52.78258 289
52.80269 307
52.8228 297
52.84292 288
52.86303 296
52.88315 293
52.90326 275
52.92337 278
52.94349 323
52.9636 304
52.98371 320
53.00383 295
53.02394 255
53.04406 311
53.06417 277
53.08428 276
53.1044 296
53.12451 320
53.14462 318
53.16474 304
53.18485 309
53.20497 286
53.22508 289
53.24519 306
53.26531 301
53.28542 316
53.30553 338
53.32565 333
53.34576 288
53.36587 308
53.38599 314
53.4061 316
53.42622 353
53.44633 310
53.46644 330
53.48656 309
53.50667 342
53.52678 319
53.5469 331
53.56701 325
53.58713 310
53.60724 328
53.62735 315
53.64747 346
53.66758 365
53.68769 342
53.70781 373
53.72792 346
53.74804 369
53.76815 380
53.78826 375
53.80838 356
53.82849 394
53.8486 363
53.86872 359
53.88883 384
53.90894 361
53.92906 416
53.94917 407
53.96929 413
53.9894 407
54.00951 428
54.02963 412
54.04974 423
54.06985 431
54.08997 459
54.11008 417
54.1302 446
54.15031 440
54.17042 421
54.19054 423
54.21065 457
54.23076 502
54.25088 444
54.27099 483
54.29111 452
54.31122 434
54.33133 479
54.35145 417
54.37156 466
54.39167 451
54.41179 449
54.4319 469
54.45201 416
54.47213 466
54.49224 479
54.51236 475
54.53247 420
54.55258 468
54.5727 426
54.59281 530
54.61292 508
54.63304 521
54.65315 527
54.67327 596
54.69338 596
54.71349 665
54.73361 738
54.75372 777
54.77383 837
54.79395 937
54.81406 920
54.83417 982
54.85429 845
54.8744 834
54.89452 758
54.91463 713
54.93474 678
54.95486 687
54.97497 670
54.99508 634
55.0152 586
55.03531 528
55.05543 507
55.07554 487
55.09565 506
55.11577 509
55.13588 475
55.15599 560
55.17611 513
55.19622 585
55.21634 604
55.23645 605
55.25656 640
55.27668 678
55.29679 596
55.3169 577
55.33702 532
55.35713 501
55.37724 523
55.39736 514
55.41747 481
55.43759 453
55.4577 441
55.47781 420
55.49793 367
55.51804 382
55.53815 393
55.55827 402
55.57838 375
55.5985 390
55.61861 349
55.63872 338
55.65884 367
55.67895 357
55.69906 381
55.71918 384
55.73929 395
55.75941 353
55.77952 349
55.79963 341
55.81975 333
55.83986 357
55.85997 339
55.88009 362
55.9002 328
55.92031 375
55.94043 371
55.96054 332
55.98066 293
56.00077 339
56.02088 369
56.041 312
56.06111 351
56.08122 334
56.10134 330
56.12145 332
56.14157 354
56.16168 355
56.18179 326
56.20191 335
56.22202 354
56.24213 316
56.26225 336
56.28236 338
56.30248 337
56.32259 316
56.3427 346
56.36282 310
56.38293 316
56.40304 334
56.42316 337
56.44327 344
56.46338 327
56.4835 351
56.50361 356
56.52373 360
56.54384 343
56.56395 330
56.58407 308
56.60418 341
56.62429 353
56.64441 310
56.66452 341
56.68464 331
56.70475 320
56.72486 322
56.74498 339
56.76509 323
56.7852 346
56.80532 340
56.82543 314
56.84554 335
56.86566 315
56.88577 306
56.90589 310
56.926 314
56.94611 284
56.96623 327
56.98634 305
57.00645 308
57.02657 318
57.04668 346
57.0668 295
57.08691 320
57.10702 304
57.12714 353
57.14725 307
57.16736 337
57.18748 329
57.20759 338
57.22771 336
57.24782 362
57.26793 299
57.28805 334
57.30816 332
57.32827 296
57.34839 313
57.3685 320
57.38861 301
57.40873 317
57.42884 324
57.44896 279
57.46907 328
57.48918 298
57.5093 312
57.52941 284
57.54952 327
57.56964 298
57.58975 312
57.60987 299
57.62998 336
57.65009 292
57.67021 310
57.69032 327
57.71043 315
57.73055 315
57.75066 295
57.77078 313
57.79089 306
57.811 258
57.83112 282
57.85123 321
57.87134 307
57.89146 301
57.91157 327
57.93168 299
57.9518 352
57.97191 303
57.99203 339
58.01214 310
58.03225 324
58.05237 313
58.07248 311
58.09259 321
58.11271 297
58.13282 296
58.15294 276
58.17305 326
58.19316 322
58.21328 311
58.23339 315
58.2535 305
58.27362 294
58.29373 317
58.31385 334
58.33396 312
58.35407 308
58.37419 286
58.3943 289
58.41441 306
58.43453 326
58.45464 314
58.47475 316
58.49487 296
58.51498 343
58.5351 288
58.55521 297
58.57532 309
58.59544 315
58.61555 280
58.63566 282
58.65578 305
58.67589 302
58.69601 297
58.71612 302
58.73623 278
58.75635 300
58.77646 292
58.79657 291
58.81669 296
58.8368 290
58.85691 319
58.87703 315
58.89714 290
58.91726 320
58.93737 324
58.95748 260
58.9776 286
58.99771 292
59.01782 280
59.03794 299
59.05805 291
59.07817 299
59.09828 295
59.11839 307
59.13851 294
59.15862 279
59.17873 324
59.19885 327
59.21896 304
59.23908 325
59.25919 310
59.2793 341
59.29942 311
59.31953 312
59.33964 318
59.35976 318
59.37987 308
59.39998 340
59.4201 361
59.44021 349
59.46033 325
59.48044 349
59.50055 367
59.52067 350
59.54078 384
59.56089 395
59.58101 376
59.60112 358
59.62124 435
59.64135 466
59.66146 461
59.68158 471
59.70169 532
59.7218 631
59.74192 689
59.76203 792
59.78215 923
59.80226 982
59.82237 1164
59.84249 1322
59.8626 1372
59.88271 1467
59.90283 1412
59.92294 1358
59.94305 1226
59.96317 1028
59.98328 942
60.0034 909
60.02351 936
60.04362 912
60.06374 829
60.08385 844
60.10396 699
60.12408 622
60.14419 487
60.16431 403
60.18442 380
60.20453 408
60.22465 374
60.24476 348
60.26487 354
60.28499 358
60.3051 328
60.32522 319
60.34533 323
60.36544 346
60.38556 314
60.40567 328
60.42578 295
60.4459 322
60.46601 307
60.48612 312
60.50624 326
60.52635 312
60.54647 305
60.56658 323
60.58669 300
60.60681 305
60.62692 311
60.64703 324
60.66715 296
60.68726 299
60.70738 286
60.72749 290
60.7476 307
60.76772 277
60.78783 291
60.80794 284
60.82806 289
60.84817 285
60.86828 290
60.8884 315
60.90851 309
60.92863 295
60.94874 317
60.96885 301
60.98897 279
61.00908 271
61.02919 315
61.04931 279
61.06942 285
61.08954 266
61.10965 318
61.12976 306
61.14988 287
61.16999 297
61.1901 304
61.21022 320
61.23033 280
61.25045 309
61.27056 277
61.29067 291
61.31079 290
61.3309 306
61.35101 295
61.37113 297
61.39124 284
61.41135 266
61.43147 278
61.45158 322
61.4717 285
61.49181 276
61.51192 326
61.53204 291
61.55215 306
61.57226 324
61.59238 312
61.61249 307
61.63261 324
61.65272 293
61.67283 311
61.69295 295
61.71306 329
61.73317 314
61.75329 346
61.7734 339
61.79352 333
61.81363 358
61.83374 319
61.85386 364
61.87397 326
61.89408 381
61.9142 383
61.93431 341
61.95442 359
61.97454 400
61.99465 426
62.01477 418
62.03488 445
62.05499 422
62.07511 465
62.09522 427
62.11533 450
62.13545 502
62.15556 505
62.17568 524
62.19579 500
62.2159 512
62.23602 536
62.25613 469
62.27624 505
62.29636 513
62.31647 466
62.33659 494
62.3567 482
62.37681 482
62.39693 496
62.41704 454
62.43715 410
62.45727 446
62.47738 444
62.49749 374
62.51761 409
62.53772 374
62.55784 397
62.57795 430
62.59806 374
62.61818 369
62.63829 359
62.6584 372
62.67852 338
62.69863 380
62.71875 317
62.73886 356
62.75897 370
62.77909 340
62.7992 310
62.81931 333
62.83943 330
62.85954 355
62.87965 311
62.89977 330
62.91988 337
62.94 318
62.96011 324
62.98022 279
63.00034 323
63.02045 315
63.04056 339
63.06068 323
63.08079 295
63.10091 287
63.12102 314
63.14113 328
63.16125 315
63.18136 340
63.20147 287
63.22159 321
63.2417 316
63.26182 306
63.28193 309
63.30204 364
63.32216 312
63.34227 303
63.36238 316
63.3825 315
63.40261 329
63.42272 327
63.44284 298
63.46295 351
63.48307 329
63.50318 311
63.52329 336
63.54341 340
63.56352 320
63.58363 347
63.60375 318
63.62386 356
63.64398 372
63.66409 356
63.6842 360
63.70432 351
63.72443 384
63.74454 387
63.76466 363
63.78477 409
63.80489 387
63.825 424
63.84511 450
63.86523 455
63.88534 499
63.90545 476
63.92557 487
63.94568 531
63.96579 539
63.98591 511
64.00602 475
64.02614 449
64.04625 472
64.06636 430
64.08648 419
64.10659 405
64.1267 421
64.14682 415
64.16693 432
64.18705 391
64.20716 390
64.22727 364
64.24739 351
64.2675 309
64.28761 320
64.30773 332
64.32784 365
64.34796 310
64.36807 332
64.38818 311
64.4083 299
64.42841 341
64.44852 325
64.46864 340
64.48875 322
64.50886 309
64.52898 308
64.54909 314
64.56921 306
64.58932 346
64.60943 310
64.62955 331
64.64966 309
64.66977 287
64.68989 302
64.71 301
64.73012 282
64.75023 292
64.77034 307
64.79046 274
64.81057 284
64.83068 313
64.8508 287
64.87091 285
64.89102 296
64.91114 271
64.93125 296
64.95137 296
64.97148 272
64.99159 279
65.01171 313
65.03182 287
65.05193 294
65.07205 303
65.09216 269
65.11228 265
65.13239 295
65.1525 285
65.17262 296
65.19273 261
65.21284 283
65.23296 261
65.25307 275
65.27319 310
65.2933 282
65.31341 299
65.33353 267
65.35364 264
65.37375 285
65.39387 266
65.41398 271
65.43409 310
65.45421 302
65.47432 271
65.49444 295
65.51455 298
65.53466 261
65.55478 299
65.57489 281
65.595 288
65.61512 307
65.63523 384
65.65535 279
65.67546 304
65.69557 340
65.71569 295
65.7358 325
65.75591 305
65.77603 325
65.79614 285
65.81626 303
65.83637 330
65.85648 297
65.8766 306
65.89671 329
65.91682 310
65.93694 319
65.95705 324
65.97716 314
65.99728 281
66.01739 290
66.03751 295
66.05762 290
66.07773 326
66.09785 284
66.11796 271
66.13807 310
66.15819 293
66.1783 318
66.19842 355
66.21853 296
66.23864 288
66.25876 317
66.27887 273
66.29898 301
66.3191 310
66.33921 302
66.35933 275
66.37944 304
66.39955 301
66.41967 289
66.43978 302
66.45989 276
66.48001 296
66.50012 273
66.52023 313
66.54035 311
66.56046 313
66.58058 279
66.60069 303
66.6208 289
66.64092 281
66.66103 294
66.68114 274
66.70126 315
66.72137 303
66.74149 279
66.7616 288
66.78171 289
66.80183 290
66.82194 303
66.84205 299
66.86217 302
66.88228 286
66.90239 300
66.92251 289
66.94262 269
66.96274 275
66.98285 303
67.00296 315
67.02308 303
67.04319 335
67.0633 328
67.08342 289
67.10353 306
67.12365 271
67.14376 285
67.16387 278
67.18399 316
67.2041 336
67.22421 316
67.24433 282
67.26444 342
67.28456 325
67.30467 329
67.32478 360
67.3449 356
67.36501 356
67.38512 338
67.40524 374
67.42535 381
67.44546 417
67.46558 428
67.48569 464
67.50581 485
67.52592 520
67.54603 589
67.56615 670
67.58626 735
67.60637 788
67.62649 875
67.6466 935
67.66672 941
67.68683 953
67.70694 832
67.72706 777
67.74717 732
67.76728 708
67.7874 653
67.80751 650
67.82763 744
67.84774 742
67.86785 753
67.88797 698
67.90808 756
67.92819 766
67.94831 777
67.96842 835
67.98853 889
68.00865 990
68.02876 1105
68.04888 1131
68.06899 1213
68.0891 1239
68.10922 1191
68.12933 1083
68.14944 968
68.16956 975
68.18967 1013
68.20979 1096
68.2299 1157
68.25001 1185
68.27013 1085
68.29024 1073
68.31035 850
68.33047 780
68.35058 654
68.3707 603
68.39081 591
68.41092 567
68.43104 604
68.45115 537
68.47126 496
68.49138 507
68.51149 424
68.5316 384
68.55172 360
68.57183 341
68.59195 322
68.61206 313
68.63217 285
68.65229 298
68.6724 297
68.69251 281
68.71263 357
68.73274 335
68.75286 300
68.77297 340
68.79308 288
68.8132 280
68.83331 276
68.85342 301
68.87354 277
68.89365 291
68.91376 332
68.93388 264
68.95399 269
68.97411 303
68.99422 266
69.01433 271
69.03445 289
69.05456 320
69.07467 276
69.09479 315
69.1149 271
69.13502 290
69.15513 271
69.17524 272
69.19536 255
69.21547 253
69.23558 290
69.2557 295
69.27581 277
69.29593 290
69.31604 279
69.33615 244
69.35627 283
69.37638 316
69.39649 315
69.41661 308
69.43672 287
69.45683 266
69.47695 267
69.49706 298
69.51718 275
69.53729 244
69.5574 269
69.57752 278
69.59763 266
69.61774 281
69.63786 281
69.65797 300
69.67809 281
69.6982 273
69.71831 288
69.73843 281
69.75854 279
69.77865 293
69.79877 287
69.81888 304
69.839 276
69.85911 283
69.87922 263
69.89934 282
69.91945 315
69.93956 268
69.95968 280
69.97979 278
69.9999 258
70.02002 276
70.04013 279
70.06025 303
70.08036 273
70.10047 258
70.12059 295
70.1407 278
70.16081 279
70.18093 270
70.20104 258
70.22116 256
70.24127 274
70.26138 281
70.2815 267
70.30161 271
70.32172 274
70.34184 285
70.36195 284
70.38207 274
70.40218 280
70.42229 290
70.44241 260
70.46252 283
70.48263 275
70.50275 282
70.52286 270
70.54297 267
70.56309 279
70.5832 282
70.60332 298
70.62343 330
70.64354 294
70.66366 266
70.68377 255
70.70388 261
70.724 283
70.74411 278
70.76423 259
70.78434 263
70.80445 261
70.82457 288
70.84468 256
70.86479 274
70.88491 276
70.90502 283
70.92513 268
70.94525 279
70.96536 231
70.98548 278
71.00559 259
71.0257 256
71.04582 260
71.06593 280
71.08604 265
71.10616 293
71.12627 282
71.14639 289
71.1665 271
71.18661 268
71.20673 252
71.22684 276
71.24695 260
71.26707 282
71.28718 281
71.3073 249
71.32741 290
71.34752 278
71.36764 272
71.38775 262
71.40786 286
71.42798 267
71.44809 256
71.4682 274
71.48832 264
71.50843 269
71.52855 306
71.54866 279
71.56877 278
71.58889 280
71.609 265
71.62911 256
71.64923 284
71.66934 279
71.68946 277
71.70957 307
71.72968 283
71.7498 282
71.76991 270
71.79002 255
71.81014 272
71.83025 305
71.85037 295
71.87048 271
71.89059 274
71.91071 298
71.93082 305
71.95093 309
71.97105 292
71.99116 288
72.01127 272
72.03139 300
72.0515 250
72.07162 307
72.09173 252
72.11184 282
72.13196 293
72.15207 304
72.17218 262
72.1923 266
72.21241 278
72.23253 272
72.25264 297
72.27275 278
72.29287 275
72.31298 283
72.33309 267
72.35321 314
72.37332 277
72.39344 258
72.41355 270
72.43366 272
72.45378 282
72.47389 264
72.494 254
72.51412 315
72.53423 290
72.55434 280
72.57446 293
72.59457 270
72.61469 279
72.6348 241
72.65491 291
72.67503 269
72.69514 268
72.71525 278
72.73537 291
72.75548 294
72.7756 257
72.79571 270
72.81582 272
72.83594 282
72.85605 280
72.87616 269
72.89628 292
72.91639 278
72.9365 290
72.95662 254
72.97673 265
72.99685 288
73.01696 302
73.03707 296
73.05719 273
73.0773 318
73.09741 293
73.11753 306
73.13764 344
73.15776 305
73.17787 291
73.19798 332
73.2181 362
73.23821 358
73.25832 333
73.27844 368
73.29855 435
73.31867 474
73.33878 485
73.35889 513
73.37901 506
73.39912 551
73.41923 493
73.43935 493
73.45946 462
73.47957 438
73.49969 364
73.5198 410
73.53992 402
73.56003 359
73.58014 410
73.60026 387
73.62037 389
73.64048 389
73.6606 384
73.68071 350
73.70083 344
73.72094 291
73.74105 307
73.76117 321
73.78128 285
73.80139 278
73.82151 306
73.84162 275
73.86174 266
73.88185 304
73.90196 268
73.92208 265
73.94219 290
73.9623 247
73.98242 274
74.00253 254
74.02264 280
74.04276 265
74.06287 277
74.08299 259
74.1031 287
74.12321 285
74.14333 291
74.16344 263
74.18355 280
74.20367 251
74.22378 277
74.2439 287
74.26401 287
74.28412 254
74.30424 283
74.32435 252
74.34446 247
74.36458 272
74.38469 258
74.40481 287
74.42492 268
74.44503 257
74.46515 256
74.48526 264
74.50537 263
74.52549 248
74.5456 262
74.56571 257
74.58583 274
74.60594 302
74.62606 281
74.64617 285
74.66628 226
74.6864 271
74.70651 282
74.72662 268
74.74674 264
74.76685 273
74.78697 287
74.80708 265
74.82719 315
74.84731 277
74.86742 270
74.88753 312
74.90765 258
74.92776 247
74.94787 300
74.96799 291
74.9881 264
75.00822 285
