3.00117 21495
3.02128 20837
3.0414 20671
3.06151 19759
3.08162 19573
3.10174 18794
3.12185 18415
3.14197 18012
3.16208 17051
3.18219 17336
3.20231 16176
3.22242 16026
3.24253 15582
3.26265 15050
3.28276 14662
3.30288 14001
3.32299 13480
3.3431 13270
3.36322 12926
3.38333 12435
3.40344 11881
3.42356 11629
3.44367 11231
3.46379 10801
3.4839 10630
3.50401 10135
3.52413 9936
3.54424 9640
3.56435 8942
3.58447 8964
3.60458 8487
3.62469 8577
3.64481 8243
3.66492 7617
3.68504 7409
3.70515 6883
3.72526 6808
3.74538 6686
3.76549 6259
3.7856 6069
3.80572 5746
3.82583 5716
3.84595 5484
3.86606 5189
3.88617 5078
3.90629 4831
3.9264 4526
3.94651 4676
3.96663 4138
3.98674 4182
4.00686 3837
4.02697 3680
4.04708 3716
4.0672 3328
4.08731 3352
4.10742 3269
4.12754 3027
4.14765 2954
4.16776 2659
4.18788 2728
4.20799 2625
4.22811 2480
4.24822 2572
4.26833 2251
4.28845 2312
4.30856 2154
4.32867 2069
4.34879 2137
4.3689 1917
4.38902 1932
4.40913 1837
4.42924 1859
4.44936 1857
4.46947 1662
4.48958 1747
4.5097 1699
4.52981 1645
4.54992 1676
4.57004 1402
4.59015 1607
4.61027 1517
4.63038 1400
4.65049 1477
4.67061 1325
4.69072 1320
4.71083 1329
4.73095 1365
4.75106 1313
4.77118 1273
4.79129 1269
4.8114 1213
4.83152 1202
4.85163 1249
4.87174 1091
4.89186 1113
4.91197 1119
4.93209 1061
4.9522 1130
4.97231 1060
4.99243 1041
5.01254 1032
5.03265 1044
5.05277 1010
5.07288 1021
5.09299 1013
5.11311 922
5.13322 943
5.15334 906
5.17345 849
5.19356 848
5.21368 893
5.23379 831
5.2539 836
5.27402 779
5.29413 779
5.31425 790
5.33436 799
5.35447 818
5.37459 751
5.3947 733
5.41481 712
5.43493 686
5.45504 654
5.47516 688
5.49527 664
5.51538 691
5.5355 663
5.55561 630
5.57572 676
5.59584 644
5.61595 656
5.63606 604
5.65618 578
5.67629 640
5.69641 608
5.71652 602
5.73663 637
5.75675 554
5.77686 575
5.79697 590
5.81709 591
5.8372 581
5.85732 526
5.87743 549
5.89754 508
5.91766 545
5.93777 607
5.95788 535
5.978 517
5.99811 535
6.01823 521
6.03834 547
6.05845 498
6.07857 499
6.09868 528
6.11879 518
6.13891 503
6.15902 508
6.17913 473
6.19925 525
6.21936 483
6.23948 460
6.25959 477
6.2797 448
6.29982 447
6.31993 478
6.34004 461
6.36016 465
6.38027 465
6.40039 456
6.4205 378
6.44061 440
6.46073 502
6.48084 469
6.50095 464
6.52107 425
6.54118 400
6.56129 458
6.58141 448
6.60152 429
6.62164 435
6.64175 431
6.66186 454
6.68198 436
6.70209 443
6.7222 411
6.74232 378
6.76243 428
6.78255 435
6.80266 452
6.82277 416
6.84289 375
6.863 417
6.88311 439
6.90323 373
6.92334 351
6.94346 438
6.96357 384
6.98368 376
7.0038 423
7.02391 423
7.04402 378
7.06414 391
7.08425 413
7.10436 372
7.12448 361
7.14459 375
7.16471 407
7.18482 383
7.20493 367
7.22505 351
7.24516 374
7.26527 410
7.28539 402
7.3055 407
7.32562 430
7.34573 377
7.36584 370
7.38596 392
7.40607 399
7.42618 394
7.4463 394
7.46641 386
7.48653 394
7.50664 361
7.52675 369
7.54687 375
7.56698 389
7.58709 362
7.60721 370
7.62732 364
7.64743 400
7.66755 417
7.68766 388
7.70778 393
7.72789 372
7.748 397
7.76812 372
7.78823 337
7.80834 346
7.82846 398
7.84857 371
7.86869 391
7.8888 430
7.90891 344
7.92903 360
7.94914 361
7.96925 333
7.98937 413
8.00948 351
8.0296 336
8.04971 383
8.06982 385
8.08994 359
8.11005 351
8.13016 350
8.15028 380
8.17039 375
8.1905 336
8.21062 321
8.23073 345
8.25085 351
8.27096 335
8.29107 359
8.31119 357
8.3313 348
8.35141 369
8.37153 343
8.39164 366
8.41176 365
8.43187 337
8.45198 365
8.4721 320
8.49221 405
8.51232 341
8.53244 352
8.55255 333
8.57266 349
8.59278 372
8.61289 335
8.63301 340
8.65312 355
8.67323 349
8.69335 348
8.71346 335
8.73357 318
8.75369 325
8.7738 310
8.79392 346
8.81403 357
8.83414 350
8.85426 341
8.87437 330
8.89448 375
8.9146 317
8.93471 349
8.95483 332
8.97494 357
8.99505 325
9.01517 336
9.03528 307
9.05539 328
9.07551 292
9.09562 328
9.11573 288
9.13585 307
9.15596 315
9.17608 310
9.19619 331
9.2163 299
9.23642 337
9.25653 294
9.27664 356
9.29676 325
9.31687 289
9.33699 329
9.3571 289
9.37721 283
9.39733 321
9.41744 324
9.43755 320
9.45767 298
9.47778 360
9.4979 341
9.51801 301
9.53812 328
9.55824 313
9.57835 313
9.59846 318
9.61858 288
9.63869 303
9.6588 285
9.67892 292
9.69903 261
9.71915 330
9.73926 319
9.75937 300
9.77949 292
9.7996 286
9.81971 262
9.83983 267
9.85994 268
9.88006 285
9.90017 317
9.92028 272
9.9404 291
9.96051 297
9.98062 259
10.00074 266
10.02085 281
10.04097 283
10.06108 255
10.08119 291
10.10131 271
10.12142 263
10.14153 291
10.16165 302
10.18176 267
10.20187 277
10.22199 281
10.2421 274
10.26222 287
10.28233 291
10.30244 257
10.32256 275
10.34267 269
10.36278 272
10.3829 294
10.40301 275
10.42313 281
10.44324 254
10.46335 242
10.48347 266
10.50358 273
10.52369 275
10.54381 262
10.56392 279
10.58403 282
10.60415 278
10.62426 257
10.64438 255
10.66449 265
10.6846 266
10.70472 274
10.72483 262
10.74494 281
10.76506 257
10.78517 282
10.80529 303
10.8254 289
10.84551 276
10.86563 238
10.88574 272
10.90585 232
10.92597 285
10.94608 257
10.9662 292
10.98631 277
11.00642 261
11.02654 276
11.04665 301
11.06676 282
11.08688 265
11.10699 244
11.1271 266
11.14722 275
11.16733 264
11.18745 260
11.20756 263
11.22767 274
11.24779 242
11.2679 271
11.28801 250
11.30813 240
11.32824 264
11.34836 262
11.36847 291
11.38858 229
11.4087 277
11.42881 267
11.44892 239
11.46904 318
11.48915 275
11.50927 265
11.52938 285
11.54949 223
11.56961 273
11.58972 262
11.60983 258
11.62995 252
11.65006 259
11.67017 235
11.69029 251
11.7104 256
11.73052 279
11.75063 262
11.77074 253
11.79086 242
11.81097 256
11.83108 273
11.8512 249
11.87131 250
11.89143 293
11.91154 250
11.93165 267
11.95177 306
11.97188 257
11.99199 267
12.01211 264
12.03222 279
12.05234 274
12.07245 258
12.09256 271
12.11268 251
12.13279 253
12.1529 297
12.17302 261
12.19313 267
12.21324 260
12.23336 259
12.25347 253
12.27359 268
12.2937 266
12.31381 302
12.33393 258
12.35404 268
12.37415 264
12.39427 277
12.41438 247
12.4345 250
12.45461 279
12.47472 273
12.49484 270
12.51495 265
12.53506 266
12.55518 243
12.57529 247
12.5954 248
12.61552 230
12.63563 246
12.65575 242
12.67586 247
12.69597 269
12.71609 281
12.7362 233
12.75631 253
12.77643 254
12.79654 270
12.81666 260
12.83677 280
12.85688 255
12.877 256
12.89711 236
12.91722 262
12.93734 275
12.95745 252
12.97757 225
12.99768 278
13.01779 265
13.03791 213
13.05802 284
13.07813 243
13.09825 260
13.11836 257
13.13847 222
13.15859 241
13.1787 248
13.19882 263
13.21893 245
13.23904 253
13.25916 264
13.27927 245
13.29938 253
13.3195 258
13.33961 279
13.35973 236
13.37984 286
13.39995 270
13.42007 284
13.44018 226
13.46029 269
13.48041 215
13.50052 249
13.52064 266
13.54075 266
13.56086 297
13.58098 273
13.60109 289
13.6212 277
13.64132 297
13.66143 295
13.68154 296
13.70166 266
13.72177 283
13.74189 306
13.762 307
13.78211 322
13.80223 345
13.82234 356
13.84245 319
13.86257 328
13.88268 299
13.9028 326
13.92291 296
13.94302 291
13.96314 258
13.98325 264
14.00336 212
14.02348 255
14.04359 264
14.06371 283
14.08382 278
14.10393 236
14.12405 265
14.14416 221
14.16427 271
14.18439 236
14.2045 227
14.22461 224
14.24473 216
14.26484 220
14.28496 253
14.30507 253
14.32518 277
14.3453 238
14.36541 233
14.38552 244
14.40564 233
14.42575 244
14.44587 266
14.46598 272
14.48609 215
14.50621 249
14.52632 249
14.54643 220
14.56655 225
14.58666 230
14.60677 266
14.62689 233
14.647 227
14.66712 261
14.68723 234
14.70734 252
14.72746 242
14.74757 237
14.76768 236
14.7878 250
14.80791 243
14.82803 242
14.84814 258
14.86825 285
14.88837 272
14.90848 271
14.92859 278
14.94871 249
14.96882 287
14.98894 267
15.00905 281
15.02916 249
15.04928 288
15.06939 306
15.0895 265
15.10962 260
15.12973 251
15.14984 299
15.16996 247
15.19007 244
15.21019 234
15.2303 259
15.25041 230
15.27053 247
15.29064 231
15.31075 259
15.33087 258
15.35098 237
15.3711 253
15.39121 247
15.41132 220
15.43144 248
15.45155 233
15.47166 258
15.49178 250
15.51189 259
15.53201 260
15.55212 266
15.57223 225
15.59235 238
15.61246 226
15.63257 250
15.65269 236
15.6728 241
15.69291 245
15.71303 253
15.73314 261
15.75326 274
15.77337 253
15.79348 269
15.8136 243
15.83371 281
15.85382 230
15.87394 264
15.89405 219
15.91417 237
15.93428 275
15.95439 225
15.97451 263
15.99462 254
16.01473 249
16.03485 233
16.05496 228
16.07508 265
16.09519 247
16.1153 211
16.13542 218
16.15553 215
16.17564 236
16.19576 234
16.21587 252
16.23598 232
16.2561 239
16.27621 275
16.29633 239
16.31644 268
16.33655 241
16.35667 254
16.37678 221
16.39689 226
16.41701 239
16.43712 211
16.45724 227
16.47735 234
16.49746 259
16.51758 228
16.53769 254
16.5578 228
16.57792 213
16.59803 217
16.61814 210
16.63826 230
16.65837 231
16.67849 232
16.6986 216
16.71871 261
16.73883 260
16.75894 243
16.77905 230
16.79917 228
16.81928 253
16.8394 235
16.85951 253
16.87962 210
16.89974 229
16.91985 227
16.93996 251
16.96008 265
16.98019 235
17.00031 245
17.02042 262
17.04053 232
17.06065 238
17.08076 233
17.10087 249
17.12099 265
17.1411 240
17.16121 247
17.18133 229
17.20144 245
17.22156 213
17.24167 251
17.26178 233
17.2819 241
17.30201 263
17.32212 254
17.34224 223
17.36235 222
17.38247 250
17.40258 233
17.42269 239
17.44281 258
17.46292 241
17.48303 232
17.50315 252
17.52326 226
17.54338 252
17.56349 250
17.5836 239
17.60372 247
17.62383 260
17.64394 238
17.66406 282
17.68417 240
17.70428 278
17.7244 239
17.74451 240
17.76463 237
17.78474 252
17.80485 265
17.82497 264
17.84508 244
17.86519 259
17.88531 244
17.90542 237
17.92554 215
17.94565 260
17.96576 274
17.98588 235
18.00599 234
18.0261 275
18.04622 249
18.06633 228
18.08645 242
18.10656 253
18.12667 224
18.14679 238
18.1669 237
18.18701 232
18.20713 236
18.22724 235
18.24735 258
18.26747 227
18.28758 225
18.3077 254
18.32781 226
18.34792 266
18.36804 249
18.38815 254
18.40826 231
18.42838 248
18.44849 262
18.46861 219
18.48872 202
18.50883 243
18.52895 225
18.54906 289
18.56917 250
18.58929 259
18.6094 272
18.62951 236
18.64963 245
18.66974 267
18.68986 250
18.70997 253
18.73008 209
18.7502 251
18.77031 263
18.79042 260
18.81054 229
18.83065 259
18.85077 258
18.87088 265
18.89099 254
18.91111 287
18.93122 296
18.95133 234
18.97145 281
18.99156 272
19.01168 260
19.03179 260
19.0519 214
19.07202 257
19.09213 268
19.11224 261
19.13236 239
19.15247 252
19.17258 262
19.1927 287
19.21281 227
19.23293 281
19.25304 305
19.27315 266
19.29327 271
19.31338 317
19.33349 304
19.35361 284
19.37372 310
19.39384 291
19.41395 313
19.43406 310
19.45418 322
19.47429 343
19.4944 339
19.51452 358
19.53463 394
19.55475 372
19.57486 406
19.59497 405
19.61509 447
19.6352 488
19.65531 468
19.67543 511
19.69554 503
19.71565 463
19.73577 483
19.75588 501
19.776 512
19.79611 533
19.81622 524
19.83634 499
19.85645 578
19.87656 533
19.89668 471
19.91679 514
19.93691 487
19.95702 508
19.97713 509
19.99725 497
20.01736 498
20.03747 502
20.05759 455
20.0777 472
20.09782 408
20.11793 443
20.13804 446
20.15816 456
20.17827 447
20.19838 429
20.2185 380
20.23861 434
20.25872 365
20.27884 448
20.29895 424
20.31907 426
20.33918 408
20.35929 399
20.37941 402
20.39952 452
20.41963 395
20.43975 426
20.45986 461
20.47998 441
20.50009 420
20.5202 465
20.54032 475
20.56043 479
20.58054 508
20.60066 512
20.62077 496
20.64088 575
20.661 686
20.68111 737
20.70123 1048
20.72134 1356
20.74145 1938
20.76157 2572
20.78168 3309
20.80179 4226
20.82191 4798
20.84202 4667
20.86214 4322
20.88225 3483
20.90236 2441
20.92248 1775
20.94259 1247
20.9627 911
20.98282 705
21.00293 724
21.02305 671
21.04316 641
21.06327 538
21.08339 520
21.1035 453
21.12361 426
21.14373 401
21.16384 407
21.18395 408
21.20407 373
21.22418 348
21.2443 407
21.26441 384
21.28452 345
21.30464 327
21.32475 341
21.34486 344
21.36498 377
21.38509 360
21.40521 375
21.42532 317
21.44543 299
21.46555 341
21.48566 305
21.50577 320
21.52589 344
21.546 313
21.56612 338
21.58623 327
21.60634 336
21.62646 312
21.64657 344
21.66668 366
21.6868 322
21.70691 351
21.72702 328
21.74714 346
21.76725 342
21.78737 363
21.80748 427
21.82759 384
21.84771 445
21.86782 449
21.88793 518
21.90805 663
21.92816 712
21.94828 838
21.96839 912
21.9885 845
22.00862 863
22.02873 681
22.04884 595
22.06896 550
22.08907 412
22.10919 416
22.1293 353
22.14941 341
22.16953 351
22.18964 304
22.20975 370
22.22987 362
22.24998 364
22.27009 331
22.29021 363
22.31032 331
22.33044 341
22.35055 320
22.37066 337
22.39078 342
22.41089 346
22.431 345
22.45112 353
22.47123 362
22.49135 361
22.51146 360
22.53157 338
22.55169 356
22.5718 333
22.59191 325
22.61203 330
22.63214 312
22.65225 333
22.67237 279
22.69248 291
22.7126 345
22.73271 311
22.75282 323
22.77294 349
22.79305 367
22.81316 364
22.83328 344
22.85339 375
22.87351 383
22.89362 444
22.91373 387
22.93385 408
22.95396 367
22.97407 376
22.99419 342
23.0143 349
23.03442 376
23.05453 332
23.07464 336
23.09476 321
23.11487 341
23.13498 347
23.1551 335
23.17521 372
23.19532 307
23.21544 321
23.23555 326
23.25567 381
23.27578 326
23.29589 337
23.31601 285
23.33612 304
23.35623 354
23.37635 387
23.39646 382
23.41658 405
23.43669 413
23.4568 448
23.47692 489
23.49703 554
23.51714 573
23.53726 547
23.55737 561
23.57749 647
23.5976 668
23.61771 572
23.63783 526
23.65794 521
23.67805 510
23.69817 435
23.71828 422
23.73839 445
23.75851 450
23.77862 476
23.79874 491
23.81885 517
23.83896 542
23.85908 540
23.87919 552
23.8993 550
23.91942 550
23.93953 547
23.95965 513
23.97976 529
23.99987 519
24.01999 471
24.0401 420
24.06021 403
24.08033 429
24.10044 403
24.12056 391
24.14067 449
24.16078 420
24.1809 447
24.20101 466
24.22112 461
24.24124 546
24.26135 554
24.28146 533
24.30158 540
24.32169 503
24.34181 480
24.36192 465
24.38203 449
24.40215 454
24.42226 355
24.44237 365
24.46249 355
24.4826 371
24.50272 365
24.52283 341
24.54294 324
24.56306 347
24.58317 339
24.60328 334
24.6234 361
24.64351 323
24.66362 363
24.68374 340
24.70385 329
24.72397 323
24.74408 319
24.76419 278
24.78431 352
24.80442 321
24.82453 328
24.84465 304
24.86476 312
24.88488 313
24.90499 318
24.9251 322
24.94522 280
24.96533 325
24.98544 303
25.00556 356
25.02567 343
25.04579 323
25.0659 348
25.08601 312
25.10613 342
25.12624 335
25.14635 353
25.16647 313
25.18658 348
25.20669 342
25.22681 344
25.24692 359
25.26704 330
25.28715 354
25.30726 378
25.32738 371
25.34749 385
25.3676 352
25.38772 367
25.40783 370
25.42795 388
25.44806 423
25.46817 434
25.48829 489
25.5084 486
25.52851 512
25.54863 491
25.56874 562
25.58886 555
25.60897 491
25.62908 533
25.6492 475
25.66931 499
25.68942 527
25.70954 516
25.72965 473
25.74976 490
25.76988 476
25.78999 430
25.81011 466
25.83022 483
25.85033 465
25.87045 462
25.89056 481
25.91067 494
25.93079 470
25.9509 450
25.97102 457
25.99113 438
26.01124 481
26.03136 485
26.05147 499
26.07158 519
26.0917 529
26.11181 577
26.13193 590
26.15204 591
26.17215 608
26.19227 627
26.21238 694
26.23249 746
26.25261 786
26.27272 819
26.29283 970
26.31295 944
26.33306 1095
26.35318 1159
26.37329 1384
26.3934 1690
26.41352 2098
26.43363 2480
26.45374 3197
26.47386 4277
26.49397 5936
26.51409 8406
26.5342 11328
26.55431 14764
26.57443 18201
26.59454 20605
26.61465 21377
26.63477 19127
26.65488 15960
26.67499 12367
26.69511 9065
26.71522 6140
26.73534 3939
26.75545 2419
26.77556 1609
26.79568 1320
26.81579 1212
26.8359 1102
26.85602 1058
26.87613 1017
26.89625 959
26.91636 904
26.93647 846
26.95659 829
26.9767 754
26.99681 719
27.01693 760
27.03704 732
27.05716 694
27.07727 731
27.09738 687
27.1175 653
27.13761 633
27.15772 558
27.17784 571
27.19795 548
27.21806 495
27.23818 505
27.25829 511
27.27841 539
27.29852 580
27.31863 542
27.33875 584
27.35886 628
27.37897 637
27.39909 727
27.4192 763
27.43932 783
27.45943 815
27.47954 864
27.49966 794
27.51977 737
27.53988 701
27.56 682
27.58011 680
27.60023 689
27.62034 727
27.64045 828
27.66057 837
27.68068 983
27.70079 1059
27.72091 1265
27.74102 1423
27.76113 1376
27.78125 1446
27.80136 1424
27.82148 1321
27.84159 1296
27.8617 1241
27.88182 1260
27.90193 1276
27.92204 1207
27.94216 1271
27.96227 1311
27.98239 1218
28.0025 1132
28.02261 979
28.04273 852
28.06284 693
28.08295 592
28.10307 573
28.12318 510
28.1433 478
28.16341 492
28.18352 485
28.20364 539
28.22375 567
28.24386 601
28.26398 610
28.28409 592
28.3042 550
28.32432 576
28.34443 493
28.36455 461
28.38466 454
28.40477 397
28.42489 378
28.445 360
28.46511 373
28.48523 319
28.50534 348
28.52546 355
28.54557 348
28.56568 351
28.5858 365
28.60591 377
28.62602 342
28.64614 327
28.66625 334
28.68636 350
28.70648 330
28.72659 332
28.74671 348
28.76682 351
28.78693 325
28.80705 342
28.82716 330
28.84727 330
28.86739 301
28.8875 363
28.90762 317
28.92773 309
28.94784 294
28.96796 292
28.98807 305
29.00818 307
29.0283 329
29.04841 352
29.06853 302
29.08864 331
29.10875 350
29.12887 300
29.14898 297
29.16909 326
29.18921 345
29.20932 300
29.22943 312
29.24955 324
29.26966 304
29.28978 326
29.30989 309
29.33 306
29.35012 324
29.37023 344
29.39034 327
29.41046 336
29.43057 363
29.45069 359
29.4708 339
29.49091 367
29.51103 326
29.53114 341
29.55125 335
29.57137 346
29.59148 341
29.6116 393
29.63171 434
29.65182 419
29.67194 430
29.69205 469
29.71216 470
29.73228 444
29.75239 465
29.7725 523
29.79262 497
29.81273 510
29.83285 510
29.85296 527
29.87307 429
29.89319 431
29.9133 393
29.93341 391
29.95353 400
29.97364 373
29.99376 353
30.01387 355
30.03398 346
30.0541 345
30.07421 364
30.09432 332
30.11444 390
30.13455 373
30.15467 346
30.17478 372
30.19489 357
30.21501 378
30.23512 411
30.25523 423
30.27535 439
30.29546 475
30.31557 500
30.33569 536
30.3558 487
30.37592 533
30.39603 528
30.41614 546
30.43626 522
30.45637 508
30.47648 471
30.4966 441
30.51671 397
30.53683 388
30.55694 361
30.57705 355
30.59717 333
30.61728 333
30.63739 350
30.65751 364
30.67762 396
30.69773 429
30.71785 414
30.73796 439
30.75808 482
30.77819 434
30.7983 508
30.81842 451
30.83853 446
30.85864 454
30.87876 382
30.89887 369
30.91899 362
30.9391 363
30.95921 332
30.97933 352
30.99944 303
31.01955 316
31.03967 311
31.05978 317
31.0799 314
31.10001 285
31.12012 289
31.14024 304
31.16035 314
31.18046 297
31.20058 279
31.22069 330
31.2408 324
31.26092 355
31.28103 331
31.30115 374
31.32126 382
31.34137 366
31.36149 349
31.3816 372
31.40171 374
31.42183 384
31.44194 326
31.46206 347
31.48217 296
31.50228 282
31.5224 280
31.54251 324
31.56262 332
31.58274 298
31.60285 268
31.62297 304
31.64308 327
31.66319 291
31.68331 289
31.70342 280
31.72353 285
31.74365 294
31.76376 316
31.78387 250
31.80399 271
31.8241 284
31.84422 268
31.86433 269
31.88444 283
31.90456 292
31.92467 272
31.94478 263
31.9649 273
31.98501 274
32.00513 240
32.02524 257
32.04535 274
32.06547 291
32.08558 250
32.10569 305
32.12581 262
32.14592 289
32.16604 280
32.18615 308
32.20626 280
32.22638 306
32.24649 315
32.2666 300
32.28672 307
32.30683 323
32.32694 318
32.34706 320
32.36717 310
32.38729 340
32.4074 297
32.42751 302
32.44763 320
32.46774 345
32.48785 315
32.50797 347
32.52808 297
32.5482 329
32.56831 321
32.58842 306
32.60854 320
32.62865 305
32.64876 276
32.66888 280
32.68899 267
32.7091 247
32.72922 279
32.74933 272
32.76945 265
32.78956 258
32.80967 254
32.82979 282
32.8499 273
32.87001 291
32.89013 264
32.91024 266
32.93036 300
32.95047 271
32.97058 275
32.9907 299
33.01081 303
33.03092 327
33.05104 331
33.07115 316
33.09127 332
33.11138 310
33.13149 281
33.15161 303
33.17172 277
33.19183 278
33.21195 253
33.23206 270
33.25217 260
33.27229 269
33.2924 265
33.31252 248
33.33263 293
33.35274 293
33.37286 233
33.39297 254
33.41308 236
33.4332 234
33.45331 247
33.47343 264
33.49354 248
33.51365 296
33.53377 239
33.55388 255
33.57399 284
33.59411 274
33.61422 271
33.63434 293
33.65445 243
33.67456 293
33.69468 261
33.71479 314
33.7349 336
33.75502 350
33.77513 339
33.79524 346
33.81536 307
33.83547 332
33.85559 342
33.8757 300
33.89581 302
33.91593 319
33.93604 286
33.95615 321
33.97627 246
33.99638 282
34.0165 274
34.03661 261
34.05672 272
34.07684 251
34.09695 301
34.11706 326
34.13718 291
34.15729 315
34.17741 314
34.19752 297
34.21763 330
34.23775 351
34.25786 360
34.27797 331
34.29809 355
34.3182 346
34.33831 400
34.35843 337
34.37854 424
34.39866 376
34.41877 415
34.43888 427
34.459 483
34.47911 475
34.49922 482
34.51934 515
34.53945 515
34.55957 574
34.57968 610
34.59979 590
34.61991 529
34.64002 505
34.66013 490
34.68025 497
34.70036 517
34.72047 510
34.74059 454
34.7607 477
34.78082 461
34.80093 467
34.82104 507
34.84116 433
34.86127 444
34.88138 444
34.9015 398
34.92161 433
34.94173 405
34.96184 406
34.98195 422
35.00207 417
35.02218 408
35.04229 414
35.06241 442
35.08252 424
35.10264 450
35.12275 494
35.14286 447
35.16298 487
35.18309 465
35.2032 465
35.22332 429
35.24343 496
35.26354 487
35.28366 475
35.30377 499
35.32389 461
35.344 469
35.36411 465
35.38423 479
35.40434 470
35.42445 463
35.44457 464
35.46468 507
35.4848 477
35.50491 443
35.52502 453
35.54514 474
35.56525 452
35.58536 400
35.60548 387
35.62559 402
35.64571 405
35.66582 375
35.68593 377
35.70605 343
35.72616 346
35.74627 324
35.76639 354
35.7865 313
35.80661 378
35.82673 336
35.84684 313
35.86696 345
35.88707 378
35.90718 372
35.9273 355
35.94741 362
35.96752 348
35.98764 360
36.00775 366
36.02787 350
36.04798 352
36.06809 386
36.08821 373
36.10832 357
36.12843 353
36.14855 385
36.16866 362
36.18878 341
36.20889 405
36.229 435
36.24912 420
36.26923 414
36.28934 444
36.30946 462
36.32957 507
36.34968 555
36.3698 680
36.38991 735
36.41003 959
36.43014 1095
36.45025 1328
36.47037 1534
36.49048 1638
36.51059 1712
36.53071 1577
36.55082 1408
36.57094 1196
36.59105 1045
36.61116 995
36.63128 775
36.65139 585
36.6715 485
36.69162 405
36.71173 387
36.73184 361
36.75196 357
36.77207 358
36.79219 343
36.8123 350
36.83241 352
36.85253 365
36.87264 324
36.89275 362
36.91287 358
36.93298 330
36.9531 361
36.97321 370
36.99332 323
37.01344 311
37.03355 330
37.05366 333
37.07378 295
37.09389 332
37.11401 354
37.13412 366
37.15423 340
37.17435 329
37.19446 311
37.21457 291
37.23469 345
37.2548 295
37.27491 294
37.29503 309
37.31514 301
37.33526 303
37.35537 302
37.37548 302
37.3956 296
37.41571 338
37.43582 322
37.45594 328
37.47605 342
37.49617 280
37.51628 298
37.53639 301
37.55651 302
37.57662 312
37.59673 326
37.61685 337
37.63696 327
37.65708 328
37.67719 310
37.6973 297
37.71742 326
37.73753 315
37.75764 292
37.77776 343
37.79787 281
37.81798 306
37.8381 324
37.85821 291
37.87833 303
37.89844 313
37.91855 313
37.93867 278
37.95878 277
37.97889 289
37.99901 307
38.01912 321
38.03924 310
38.05935 310
38.07946 294
38.09958 326
38.11969 299
38.1398 274
38.15992 283
38.18003 293
38.20015 266
38.22026 269
38.24037 303
38.26049 278
38.2806 279
38.30071 302
38.32083 329
38.34094 285
38.36105 289
38.38117 264
38.40128 281
38.4214 297
38.44151 291
38.46162 276
38.48174 266
38.50185 271
38.52196 288
38.54208 272
38.56219 286
38.58231 284
38.60242 296
38.62253 282
38.64265 286
38.66276 263
38.68287 295
38.70299 295
38.7231 265
38.74321 254
38.76333 265
38.78344 245
38.80356 286
38.82367 277
38.84378 287
38.8639 253
38.88401 288
38.90412 274
38.92424 260
38.94435 273
38.96447 303
38.98458 276
39.00469 274
39.02481 231
39.04492 315
39.06503 330
39.08515 296
39.10526 321
39.12538 298
39.14549 325
39.1656 374
39.18572 370
39.20583 398
39.22594 416
39.24606 466
39.26617 519
39.28628 561
39.3064 623
39.32651 763
39.34663 988
39.36674 1127
39.38685 1384
39.40697 1452
39.42708 1479
39.44719 1402
39.46731 1248
39.48742 1138
39.50754 919
39.52765 869
39.54776 805
39.56788 692
39.58799 533
39.6081 475
39.62822 424
39.64833 367
39.66845 355
39.68856 323
39.70867 343
39.72879 337
39.7489 322
39.76901 297
39.78913 309
39.80924 268
39.82935 311
39.84947 310
39.86958 291
39.8897 299
39.90981 314
39.92992 284
39.95004 311
39.97015 311
39.99026 275
40.01038 303
40.03049 306
40.05061 324
40.07072 355
40.09083 363
40.11095 425
40.13106 456
40.15117 571
40.17129 640
40.1914 748
40.21152 810
40.23163 762
40.25174 851
40.27186 856
40.29197 715
40.31208 662
40.3322 616
40.35231 587
40.37242 515
40.39254 465
40.41265 389
40.43277 353
40.45288 337
40.47299 304
40.49311 298
40.51322 275
40.53333 294
40.55345 292
40.57356 273
40.59368 260
40.61379 287
40.6339 310
40.65402 303
40.67413 279
40.69424 292
40.71436 297
40.73447 307
40.75458 293
40.7747 250
40.79481 292
40.81493 279
40.83504 254
40.85515 275
40.87527 261
40.89538 276
40.91549 267
40.93561 265
40.95572 260
40.97584 267
40.99595 263
41.01606 284
41.03618 262
41.05629 255
41.0764 288
41.09652 262
41.11663 247
41.13675 297
41.15686 284
41.17697 288
41.19709 294
41.2172 290
41.23731 307
41.25743 257
41.27754 234
41.29765 262
41.31777 270
41.33788 243
41.358 269
41.37811 259
41.39822 261
41.41834 248
41.43845 263
41.45856 260
41.47868 288
41.49879 311
41.51891 254
41.53902 270
41.55913 299
41.57925 315
41.59936 271
41.61947 286
41.63959 281
41.6597 320
41.67982 341
41.69993 341
41.72004 337
41.74016 324
41.76027 310
41.78038 311
41.8005 290
41.82061 320
41.84072 287
41.86084 303
41.88095 298
41.90107 283
41.92118 296
41.94129 295
41.96141 284
41.98152 302
42.00163 247
42.02175 276
42.04186 296
42.06198 292
42.08209 265
42.1022 277
42.12232 329
42.14243 325
42.16254 342
42.18266 345
42.20277 383
42.22289 425
42.243 463
42.26311 487
42.28323 577
42.30334 670
42.32345 794
42.34357 857
42.36368 968
42.38379 1078
42.40391 1129
42.42402 1085
42.44414 995
42.46425 805
42.48436 807
42.50448 685
42.52459 677
42.5447 560
42.56482 484
42.58493 441
42.60505 365
42.62516 334
42.64527 347
42.66539 353
42.6855 299
42.70561 325
42.72573 325
42.74584 331
42.76595 328
42.78607 348
42.80618 330
42.8263 341
42.84641 338
42.86652 295
42.88664 302
42.90675 300
42.92686 329
42.94698 285
42.96709 282
42.98721 263
43.00732 287
43.02743 261
43.04755 296
43.06766 276
43.08777 270
43.10789 268
43.128 287
43.14812 273
43.16823 252
43.18834 249
43.20846 266
43.22857 277
43.24868 293
43.2688 264
43.28891 241
43.30902 240
43.32914 235
43.34925 243
43.36937 228
43.38948 237
43.40959 239
43.42971 262
43.44982 239
43.46993 231
43.49005 253
43.51016 273
43.53028 226
43.55039 236
43.5705 243
43.59062 244
43.61073 230
43.63084 254
43.65096 234
43.67107 274
43.69119 223
43.7113 220
43.73141 235
43.75153 241
43.77164 235
43.79175 228
43.81187 234
43.83198 264
43.85209 225
43.87221 235
43.89232 243
43.91244 257
43.93255 266
43.95266 251
43.97278 234
43.99289 225
44.013 237
44.03312 234
44.05323 232
44.07335 248
44.09346 237
44.11357 221
44.13369 259
44.1538 239
44.17391 230
44.19403 237
44.21414 226
44.23426 217
44.25437 250
44.27448 238
44.2946 235
44.31471 239
44.33482 272
44.35494 254
44.37505 228
44.39516 261
44.41528 243
44.43539 202
44.45551 240
44.47562 249
44.49573 227
44.51585 203
44.53596 226
44.55607 219
44.57619 246
44.5963 236
44.61642 225
44.63653 243
44.65664 231
44.67676 219
44.69687 237
44.71698 246
44.7371 251
44.75721 249
44.77732 266
44.79744 246
44.81755 242
44.83767 264
44.85778 248
44.87789 216
44.89801 246
44.91812 276
44.93823 263
44.95835 229
44.97846 287
44.99858 284
45.01869 272
45.0388 255
45.05892 240
45.07903 239
45.09914 261
45.11926 242
45.13937 266
45.15949 275
45.1796 248
45.19971 275
45.21983 254
45.23994 248
45.26005 275
45.28017 242
45.30028 277
45.32039 247
45.34051 286
45.36062 299
45.38074 261
45.40085 271
45.42096 271
45.44108 291
45.46119 254
45.4813 320
45.50142 333
45.52153 323
45.54165 349
45.56176 355
45.58187 370
45.60199 403
45.6221 474
45.64221 511
45.66233 590
45.68244 667
45.70256 754
45.72267 805
45.74278 873
45.7629 749
45.78301 737
45.80312 636
45.82324 566
45.84335 529
45.86346 538
45.88358 488
45.90369 430
45.92381 400
45.94392 313
45.96403 326
45.98415 280
46.00426 273
46.02437 266
46.04449 269
46.0646 225
46.08472 218
46.10483 251
46.12494 278
46.14506 248
46.16517 279
46.18528 280
46.2054 243
46.22551 243
46.24563 222
46.26574 239
46.28585 234
46.30597 227
46.32608 214
46.34619 223
46.36631 241
46.38642 208
46.40653 211
46.42665 232
46.44676 229
46.46688 236
46.48699 225
46.5071 228
46.52722 218
46.54733 222
46.56744 190
46.58756 238
46.60767 213
46.62779 250
46.6479 237
46.66801 227
46.68813 256
46.70824 236
46.72835 237
46.74847 274
46.76858 230
46.78869 238
46.80881 248
46.82892 239
46.84904 247
46.86915 255
46.88926 250
46.90938 225
46.92949 232
46.9496 254
46.96972 206
46.98983 194
47.00995 248
47.03006 239
47.05017 246
47.07029 237
47.0904 258
47.11051 226
47.13063 260
47.15074 198
47.17086 219
47.19097 222
47.21108 264
47.2312 254
47.25131 254
47.27142 258
47.29154 248
47.31165 277
47.33176 254
47.35188 255
47.37199 284
47.39211 270
47.41222 248
47.43233 244
47.45245 242
47.47256 265
47.49267 256
47.51279 260
47.5329 211
47.55302 282
47.57313 200
47.59324 267
47.61336 219
47.63347 216
47.65358 232
47.6737 230
47.69381 228
47.71393 208
47.73404 221
47.75415 211
47.77427 247
47.79438 262
47.81449 229
47.83461 237
47.85472 211
47.87483 250
47.89495 188
47.91506 230
47.93518 222
47.95529 222
47.9754 199
47.99552 221
48.01563 224
48.03574 218
48.05586 210
48.07597 259
48.09609 224
48.1162 218
48.13631 213
48.15643 226
48.17654 256
48.19665 256
48.21677 251
48.23688 274
48.257 263
48.27711 294
48.29722 280
48.31734 284
48.33745 274
48.35756 281
48.37768 290
48.39779 251
48.4179 285
48.43802 258
48.45813 262
48.47825 263
48.49836 260
48.51847 242
48.53859 247
48.5587 254
48.57881 255
48.59893 237
48.61904 270
48.63916 250
48.65927 242
48.67938 254
48.6995 253
48.71961 250
48.73972 253
48.75984 265
48.77995 220
48.80006 244
48.82018 260
48.84029 281
48.86041 256
48.88052 287
48.90063 220
48.92075 243
48.94086 262
48.96097 242
48.98109 280
49.0012 241
49.02132 276
49.04143 278
49.06154 276
49.08166 243
49.10177 302
49.12188 297
49.142 306
49.16211 275
49.18223 306
49.20234 271
49.22245 289
49.24257 243
49.26268 261
49.28279 317
49.30291 294
49.32302 247
49.34313 261
49.36325 253
49.38336 250
49.40348 224
49.42359 267
49.4437 241
49.46382 256
49.48393 231
49.50404 257
49.52416 267
49.54427 280
49.56439 273
49.5845 293
49.60461 268
49.62473 281
49.64484 308
49.66495 316
49.68507 354
49.70518 349
49.7253 355
49.74541 369
49.76552 408
49.78564 437
49.80575 505
49.82586 476
49.84598 504
49.86609 527
49.8862 543
49.90632 628
49.92643 747
49.94655 839
49.96666 931
49.98677 1170
50.00689 1433
50.027 1631
50.04711 1916
50.06723 2156
50.08734 2212
50.10746 2056
50.12757 1782
50.14768 1548
50.1678 1388
50.18791 1326
50.20802 1301
50.22814 1149
50.24825 1008
50.26837 814
50.28848 622
50.30859 466
50.32871 404
50.34882 338
50.36893 320
50.38905 337
50.40916 319
50.42927 307
50.44939 326
50.4695 313
50.48962 332
50.50973 328
50.52984 339
50.54996 329
50.57007 349
50.59018 345
50.6103 346
50.63041 359
50.65053 360
50.67064 364
50.69075 364
50.71087 320
50.73098 347
50.75109 319
50.77121 323
50.79132 312
50.81143 281
50.83155 276
50.85166 279
50.87178 245
50.89189 260
50.912 245
50.93212 241
50.95223 249
50.97234 243
50.99246 240
51.01257 230
51.03269 241
51.0528 238
51.07291 237
51.09303 245
51.11314 247
51.13325 268
51.15337 268
51.17348 279
51.1936 281
51.21371 285
51.23382 302
51.25394 310
51.27405 305
51.29416 290
51.31428 324
51.33439 270
51.3545 279
51.37462 257
51.39473 285
51.41485 250
51.43496 274
51.45507 251
51.47519 252
51.4953 235
51.51541 248
51.53553 259
51.55564 229
51.57576 221
51.59587 235
51.61598 208
51.6361 206
51.65621 205
51.67632 225
51.69644 231
51.71655 210
51.73667 188
51.75678 217
51.77689 202
51.79701 235
51.81712 235
51.83723 219
51.85735 201
51.87746 193
51.89757 207
51.91769 203
51.9378 218
51.95792 215
51.97803 232
51.99814 236
52.01826 218
52.03837 229
52.05848 214
52.0786 206
52.09871 205
52.11883 210
52.13894 232
52.15905 224
52.17917 217
52.19928 233
52.21939 251
52.23951 222
52.25962 229
52.27974 234
52.29985 213
52.31996 216
52.34008 228
52.36019 248
52.3803 240
52.40042 231
52.42053 219
52.44064 252
52.46076 250
52.48087 234
52.50099 238
52.5211 233
52.54121 235
52.56133 215
52.58144 253
52.60155 215
52.62167 264
52.64178 277
52.6619 213
52.68201 231
52.70212 236
52.72224 226
52.74235 251
52.76246 252
52.78258 235
52.80269 231
52.8228 236
52.84292 228
52.86303 230
52.88315 249
52.90326 251
52.92337 257
52.94349 238
52.9636 255
52.98371 246
53.00383 268
53.02394 239
53.04406 270
53.06417 267
53.08428 258
53.1044 297
53.12451 252
53.14462 277
53.16474 274
53.18485 257
53.20497 241
53.22508 250
53.24519 246
53.26531 269
53.28542 232
53.30553 273
53.32565 250
53.34576 270
53.36587 272
53.38599 266
53.4061 244
53.42622 259
53.44633 231
53.46644 233
53.48656 225
53.50667 247
53.52678 275
53.5469 238
53.56701 240
53.58713 266
53.60724 282
53.62735 237
53.64747 242
53.66758 276
53.68769 263
53.70781 292
53.72792 291
53.74804 261
53.76815 265
53.78826 259
53.80838 242
53.82849 246
53.8486 275
53.86872 281
53.88883 282
53.90894 255
53.92906 272
53.94917 274
53.96929 282
53.9894 275
54.00951 267
54.02963 271
54.04974 259
54.06985 262
54.08997 281
54.11008 277
54.1302 247
54.15031 260
54.17042 245
54.19054 247
54.21065 249
54.23076 282
54.25088 268
54.27099 321
54.29111 265
54.31122 276
54.33133 268
54.35145 288
54.37156 271
54.39167 282
54.41179 279
54.4319 263
54.45201 264
54.47213 279
54.49224 288
54.51236 277
54.53247 291
54.55258 327
54.5727 294
54.59281 338
54.61292 352
54.63304 333
54.65315 403
54.67327 432
54.69338 435
54.71349 486
54.73361 591
54.75372 663
54.77383 748
54.79395 788
54.81406 854
54.83417 839
54.85429 740
54.8744 651
54.89452 565
54.91463 521
54.93474 541
54.95486 561
54.97497 578
54.99508 507
55.0152 456
55.03531 371
55.05543 315
55.07554 349
55.09565 346
55.11577 311
55.13588 324
55.15599 352
55.17611 403
55.19622 411
55.21634 461
55.23645 457
55.25656 449
55.27668 501
55.29679 469
55.3169 419
55.33702 371
55.35713 373
55.37724 343
55.39736 372
55.41747 368
55.43759 364
55.4577 325
55.47781 310
55.49793 286
55.51804 259
55.53815 213
55.55827 250
55.57838 245
55.5985 236
55.61861 232
55.63872 227
55.65884 231
55.67895 232
55.69906 244
55.71918 221
55.73929 232
55.75941 227
55.77952 239
55.79963 219
55.81975 197
55.83986 239
55.85997 222
55.88009 203
55.9002 230
55.92031 198
55.94043 213
55.96054 241
55.98066 236
56.00077 220
56.02088 201
56.041 225
56.06111 233
56.08122 233
56.10134 253
56.12145 255
56.14157 231
56.16168 228
56.18179 227
56.20191 223
56.22202 229
56.24213 216
56.26225 211
56.28236 236
56.30248 203
56.32259 235
56.3427 219
56.36282 237
56.38293 244
56.40304 225
56.42316 227
56.44327 228
56.46338 218
56.4835 223
56.50361 225
56.52373 210
56.54384 245
56.56395 212
56.58407 238
56.60418 203
56.62429 255
56.64441 234
56.66452 232
56.68464 214
56.70475 218
56.72486 243
56.74498 179
56.76509 198
56.7852 221
56.80532 224
56.82543 221
56.84554 214
56.86566 194
56.88577 235
56.90589 235
56.926 228
56.94611 254
56.96623 235
56.98634 249
57.00645 230
57.02657 235
57.04668 242
57.0668 252
57.08691 208
57.10702 291
57.12714 279
57.14725 280
57.16736 271
57.18748 263
57.20759 273
57.22771 294
57.24782 262
57.26793 247
57.28805 264
57.30816 263
57.32827 286
57.34839 271
57.3685 267
57.38861 285
57.40873 251
57.42884 263
57.44896 271
57.46907 286
57.48918 229
57.5093 245
57.52941 253
57.54952 259
57.56964 260
57.58975 241
57.60987 226
57.62998 222
57.65009 242
57.67021 238
57.69032 236
57.71043 216
57.73055 223
57.75066 205
57.77078 219
57.79089 218
57.811 228
57.83112 250
57.85123 199
57.87134 211
57.89146 208
57.91157 215
57.93168 221
57.9518 212
57.97191 230
57.99203 217
58.01214 209
58.03225 215
58.05237 209
58.07248 214
58.09259 217
58.11271 225
58.13282 207
58.15294 229
58.17305 199
58.19316 202
58.21328 212
58.23339 210
58.2535 227
58.27362 255
58.29373 248
58.31385 237
58.33396 206
58.35407 240
58.37419 218
58.3943 224
58.41441 196
58.43453 230
58.45464 199
58.47475 247
58.49487 226
58.51498 231
58.5351 222
58.55521 229
58.57532 244
58.59544 258
58.61555 232
58.63566 221
58.65578 233
58.67589 208
58.69601 202
58.71612 247
58.73623 255
58.75635 239
58.77646 238
58.79657 230
58.81669 231
58.8368 246
58.85691 215
58.87703 226
58.89714 240
58.91726 206
58.93737 202
58.95748 212
58.9776 229
58.99771 230
59.01782 226
59.03794 225
59.05805 227
59.07817 213
59.09828 190
59.11839 226
59.13851 202
59.15862 202
59.17873 231
59.19885 243
59.21896 239
59.23908 199
59.25919 233
59.2793 239
59.29942 231
59.31953 222
59.33964 231
59.35976 243
59.37987 241
59.39998 238
59.4201 235
59.44021 244
59.46033 316
59.48044 269
59.50055 305
59.52067 287
59.54078 285
59.56089 335
59.58101 344
59.60112 336
59.62124 365
59.64135 388
59.66146 377
59.68158 451
59.70169 479
59.7218 510
59.74192 569
59.76203 602
59.78215 731
59.80226 864
59.82237 978
59.84249 1167
59.8626 1316
59.88271 1426
59.90283 1493
59.92294 1380
59.94305 1168
59.96317 982
59.98328 852
60.0034 846
60.02351 842
60.04362 846
60.06374 844
60.08385 766
60.10396 622
60.12408 565
60.14419 473
60.16431 370
60.18442 342
60.20453 275
60.22465 297
60.24476 293
60.26487 269
60.28499 260
60.3051 254
60.32522 244
60.34533 259
60.36544 241
60.38556 236
60.40567 238
60.42578 233
60.4459 228
60.46601 220
60.48612 226
60.50624 225
60.52635 228
60.54647 208
60.56658 207
60.58669 220
60.60681 239
60.62692 249
60.64703 212
60.66715 240
60.68726 171
60.70738 232
60.72749 246
60.7476 225
60.76772 230
60.78783 239
60.80794 236
60.82806 227
60.84817 200
60.86828 194
60.8884 205
60.90851 221
60.92863 220
60.94874 229
60.96885 210
60.98897 216
61.00908 228
61.02919 210
61.04931 251
61.06942 247
61.08954 230
61.10965 235
61.12976 252
61.14988 239
61.16999 256
61.1901 230
61.21022 229
61.23033 226
61.25045 236
61.27056 238
61.29067 235
61.31079 260
61.3309 266
61.35101 257
61.37113 265
61.39124 267
61.41135 277
61.43147 264
61.45158 266
61.4717 259
61.49181 265
61.51192 254
61.53204 315
61.55215 265
61.57226 275
61.59238 292
61.61249 298
61.63261 308
61.65272 256
61.67283 272
61.69295 287
61.71306 302
61.73317 315
61.75329 288
61.7734 285
61.79352 294
61.81363 303
61.83374 291
61.85386 275
61.87397 297
61.89408 302
61.9142 291
61.93431 282
61.95442 285
61.97454 285
61.99465 271
62.01477 290
62.03488 285
62.05499 260
62.07511 246
62.09522 263
62.11533 288
62.13545 267
62.15556 263
62.17568 281
62.19579 257
62.2159 255
62.23602 282
62.25613 256
62.27624 272
62.29636 258
62.31647 243
62.33659 249
62.3567 251
62.37681 252
62.39693 243
62.41704 211
62.43715 221
62.45727 211
62.47738 224
62.49749 251
62.51761 225
62.53772 258
62.55784 238
62.57795 232
62.59806 230
62.61818 221
62.63829 226
62.6584 230
62.67852 247
62.69863 239
62.71875 226
62.73886 242
62.75897 218
62.77909 220
62.7992 217
62.81931 225
62.83943 220
62.85954 234
62.87965 230
62.89977 224
62.91988 241
62.94 207
62.96011 213
62.98022 223
63.00034 219
63.02045 240
63.04056 222
63.06068 229
63.08079 225
63.10091 245
63.12102 219
63.14113 214
63.16125 221
63.18136 232
63.20147 232
63.22159 243
63.2417 258
63.26182 218
63.28193 206
63.30204 231
63.32216 217
63.34227 191
63.36238 253
63.3825 249
63.40261 250
63.42272 238
63.44284 203
63.46295 222
63.48307 234
63.50318 215
63.52329 226
63.54341 236
63.56352 223
63.58363 242
63.60375 253
63.62386 265
63.64398 280
63.66409 292
63.6842 271
63.70432 297
63.72443 287
63.74454 275
63.76466 278
63.78477 306
63.80489 294
63.825 304
63.84511 345
63.86523 373
63.88534 385
63.90545 386
63.92557 435
63.94568 419
63.96579 463
63.98591 439
64.00602 404
64.02614 390
64.04625 390
64.06636 327
64.08648 351
64.10659 347
64.1267 321
64.14682 347
64.16693 329
64.18705 316
64.20716 282
64.22727 260
64.24739 230
64.2675 237
64.28761 220
64.30773 227
64.32784 207
64.34796 219
64.36807 211
64.38818 213
64.4083 196
64.42841 181
64.44852 223
64.46864 209
64.48875 216
64.50886 201
64.52898 202
64.54909 190
64.56921 215
64.58932 188
64.60943 190
64.62955 198
64.64966 236
64.66977 201
64.68989 198
64.71 203
64.73012 215
64.75023 173
64.77034 236
64.79046 195
64.81057 201
64.83068 203
64.8508 207
64.87091 206
64.89102 219
64.91114 227
64.93125 183
64.95137 217
64.97148 210
64.99159 194
65.01171 228
65.03182 220
65.05193 223
65.07205 225
65.09216 177
65.11228 233
65.13239 204
65.1525 229
65.17262 193
65.19273 197
65.21284 218
65.23296 185
65.25307 206
65.27319 229
65.2933 201
65.31341 221
65.33353 227
65.35364 233
65.37375 216
65.39387 234
65.41398 212
65.43409 219
65.45421 222
65.47432 168
65.49444 249
65.51455 220
65.53466 193
65.55478 221
65.57489 207
65.595 240
65.61512 198
65.63523 223
65.65535 240
65.67546 246
65.69557 259
65.71569 235
65.7358 236
65.75591 247
65.77603 238
65.79614 192
65.81626 194
65.83637 230
65.85648 229
65.8766 218
65.89671 223
65.91682 186
65.93694 217
65.95705 200
65.97716 213
65.99728 228
66.01739 195
66.03751 196
66.05762 208
66.07773 229
66.09785 196
66.11796 208
66.13807 195
66.15819 188
66.1783 205
66.19842 223
66.21853 188
66.23864 187
66.25876 193
66.27887 217
66.29898 212
66.3191 226
66.33921 210
66.35933 212
66.37944 215
66.39955 210
66.41967 200
66.43978 191
66.45989 244
66.48001 215
66.50012 197
66.52023 213
66.54035 237
66.56046 227
66.58058 201
66.60069 180
66.6208 187
66.64092 216
66.66103 191
66.68114 206
66.70126 198
66.72137 216
66.74149 202
66.7616 222
66.78171 209
66.80183 202
66.82194 217
66.84205 221
66.86217 178
66.88228 184
66.90239 189
66.92251 222
66.94262 231
66.96274 221
66.98285 221
67.00296 219
67.02308 224
67.04319 215
67.0633 240
67.08342 183
67.10353 248
67.12365 224
67.14376 224
67.16387 222
67.18399 264
67.2041 246
67.22421 254
67.24433 228
67.26444 236
67.28456 212
67.30467 232
67.32478 269
67.3449 229
67.36501 284
67.38512 263
67.40524 257
67.42535 274
67.44546 297
67.46558 291
67.48569 364
67.50581 369
67.52592 389
67.54603 482
67.56615 573
67.58626 602
67.60637 645
67.62649 779
67.6466 772
67.66672 896
67.68683 907
67.70694 916
67.72706 750
67.74717 714
67.76728 601
67.7874 627
67.80751 611
67.82763 645
67.84774 684
67.86785 691
67.88797 692
67.90808 693
67.92819 698
67.94831 713
67.96842 686
67.98853 753
68.00865 853
68.02876 964
68.04888 1049
68.06899 1105
68.0891 1110
68.10922 1106
68.12933 1059
68.14944 967
68.16956 915
68.18967 906
68.20979 993
68.2299 1038
68.25001 1103
68.27013 1053
68.29024 1012
68.31035 789
68.33047 646
68.35058 629
68.3707 554
68.39081 492
68.41092 500
68.43104 482
68.45115 460
68.47126 459
68.49138 393
68.51149 354
68.5316 299
68.55172 280
68.57183 240
68.59195 241
68.61206 283
68.63217 247
68.65229 228
68.6724 212
68.69251 251
68.71263 239
68.73274 217
68.75286 198
68.77297 221
68.79308 218
68.8132 216
68.83331 227
68.85342 200
68.87354 183
68.89365 218
68.91376 198
68.93388 198
68.95399 206
68.97411 218
68.99422 186
69.01433 207
69.03445 194
69.05456 206
69.07467 209
69.09479 222
69.1149 218
69.13502 228
69.15513 218
69.17524 224
69.19536 221
69.21547 213
69.23558 236
69.2557 239
69.27581 237
69.29593 214
69.31604 215
69.33615 228
69.35627 223
69.37638 237
69.39649 201
69.41661 212
69.43672 198
69.45683 204
69.47695 230
69.49706 208
69.51718 206
69.53729 188
69.5574 192
69.57752 201
69.59763 188
69.61774 206
69.63786 220
69.65797 206
69.67809 210
69.6982 232
69.71831 222
69.73843 225
69.75854 226
69.77865 216
69.79877 207
69.81888 229
69.839 197
69.85911 221
69.87922 203
69.89934 215
69.91945 201
69.93956 208
69.95968 221
69.97979 210
69.9999 172
70.02002 210
70.04013 221
70.06025 229
70.08036 200
70.10047 186
70.12059 205
70.1407 222
70.16081 192
70.18093 211
70.20104 180
70.22116 176
70.24127 178
70.26138 185
70.2815 186
70.30161 204
70.32172 202
70.34184 199
70.36195 180
70.38207 166
70.40218 204
70.42229 206
70.44241 191
70.46252 169
70.48263 182
70.50275 179
70.52286 192
70.54297 165
70.56309 182
70.5832 180
70.60332 204
70.62343 176
70.64354 179
70.66366 175
70.68377 193
70.70388 185
70.724 172
70.74411 207
70.76423 185
70.78434 199
70.80445 167
70.82457 180
70.84468 185
70.86479 202
70.88491 182
70.90502 209
70.92513 181
70.94525 201
70.96536 178
70.98548 185
71.00559 205
71.0257 189
71.04582 204
71.06593 190
71.08604 205
71.10616 184
71.12627 194
71.14639 179
71.1665 206
71.18661 212
71.20673 220
71.22684 190
71.24695 213
71.26707 190
71.28718 188
71.3073 204
71.32741 204
71.34752 194
71.36764 177
71.38775 206
71.40786 214
71.42798 197
71.44809 198
71.4682 226
71.48832 186
71.50843 187
71.52855 185
71.54866 216
71.56877 204
71.58889 200
71.609 192
71.62911 203
71.64923 204
71.66934 172
71.68946 209
71.70957 192
71.72968 197
71.7498 188
71.76991 193
71.79002 203
71.81014 186
71.83025 181
71.85037 202
71.87048 178
71.89059 199
71.91071 200
71.93082 193
71.95093 180
71.97105 179
71.99116 186
72.01127 195
72.03139 192
72.0515 203
72.07162 200
72.09173 193
72.11184 206
72.13196 200
72.15207 197
72.17218 185
72.1923 213
72.21241 194
72.23253 198
72.25264 165
72.27275 200
72.29287 197
72.31298 181
72.33309 181
72.35321 199
72.37332 195
72.39344 215
72.41355 207
72.43366 202
72.45378 162
72.47389 209
72.494 183
72.51412 187
72.53423 196
72.55434 206
72.57446 196
72.59457 200
72.61469 187
72.6348 191
72.65491 217
72.67503 199
72.69514 205
72.71525 217
72.73537 195
72.75548 179
72.7756 182
72.79571 201
72.81582 200
72.83594 187
72.85605 204
72.87616 212
72.89628 203
72.91639 205
72.9365 198
72.95662 193
72.97673 268
72.99685 236
73.01696 227
73.03707 217
73.05719 201
73.0773 227
73.09741 204
73.11753 244
73.13764 257
73.15776 258
73.17787 273
73.19798 237
73.2181 266
73.23821 298
73.25832 294
73.27844 319
73.29855 351
73.31867 320
73.33878 409
73.35889 407
73.37901 420
73.39912 407
73.41923 454
73.43935 431
73.45946 384
73.47957 351
73.49969 333
73.5198 305
73.53992 286
73.56003 286
73.58014 297
73.60026 332
73.62037 323
73.64048 352
73.6606 298
73.68071 257
73.70083 241
73.72094 270
73.74105 267
73.76117 226
73.78128 224
73.80139 226
73.82151 222
73.84162 223
73.86174 215
73.88185 201
73.90196 202
73.92208 166
73.94219 197
73.9623 213
73.98242 215
74.00253 200
74.02264 225
74.04276 230
74.06287 199
74.08299 196
74.1031 195
74.12321 214
74.14333 182
74.16344 186
74.18355 219
74.20367 208
74.22378 212
74.2439 187
74.26401 187
74.28412 210
74.30424 189
74.32435 204
74.34446 195
74.36458 184
74.38469 195
74.40481 209
74.42492 201
74.44503 197
74.46515 184
74.48526 187
74.50537 176
74.52549 180
74.5456 187
74.56571 208
74.58583 188
74.60594 182
74.62606 180
74.64617 214
74.66628 205
74.6864 203
74.70651 210
74.72662 212
74.74674 220
74.76685 197
74.78697 213
74.80708 201
74.82719 196
74.84731 229
74.86742 220
74.88753 221
74.90765 193
74.92776 216
74.94787 186
74.96799 186
74.9881 217
75.00822 204
