3.00117 20129
3.02128 19001
3.0414 18830
3.06151 18172
3.08162 17977
3.10174 17335
3.12185 16823
3.14197 16355
3.16208 15775
3.18219 15570
3.20231 14979
3.22242 14343
3.24253 14295
3.26265 13561
3.28276 13162
3.30288 12767
3.32299 12388
3.3431 12312
3.36322 11575
3.38333 11512
3.40344 10925
3.42356 10443
3.44367 10277
3.46379 9865
3.4839 9820
3.50401 9127
3.52413 8903
3.54424 8537
3.56435 8148
3.58447 7839
3.60458 7529
3.62469 7186
3.64481 7164
3.66492 6694
3.68504 6561
3.70515 6021
3.72526 5877
3.74538 5945
3.76549 5307
3.7856 5386
3.80572 5065
3.82583 4759
3.84595 4796
3.86606 4463
3.88617 4166
3.90629 4064
3.9264 3847
3.94651 3880
3.96663 3742
3.98674 3506
4.00686 3145
4.02697 3190
4.04708 3127
4.0672 2843
4.08731 2782
4.10742 2552
4.12754 2494
4.14765 2581
4.16776 2382
4.18788 2381
4.20799 2139
4.22811 2143
4.24822 2171
4.26833 1997
4.28845 1924
4.30856 1826
4.32867 1755
4.34879 1780
4.3689 1812
4.38902 1647
4.40913 1596
4.42924 1605
4.44936 1620
4.46947 1527
4.48958 1514
4.5097 1405
4.52981 1390
4.54992 1396
4.57004 1348
4.59015 1276
4.61027 1224
4.63038 1246
4.65049 1230
4.67061 1241
4.69072 1197
4.71083 1146
4.73095 1074
4.75106 1128
4.77118 1091
4.79129 1105
4.8114 1038
4.83152 1011
4.85163 925
4.87174 989
4.89186 996
4.91197 905
4.93209 858
4.9522 886
4.97231 858
4.99243 822
5.01254 819
5.03265 772
5.05277 834
5.07288 814
5.09299 768
5.11311 798
5.13322 690
5.15334 735
5.17345 732
5.19356 646
5.21368 695
5.23379 670
5.2539 655
5.27402 633
5.29413 561
5.31425 606
5.33436 584
5.35447 591
5.37459 625
5.3947 512
5.41481 566
5.43493 534
5.45504 514
5.47516 484
5.49527 501
5.51538 467
5.5355 484
5.55561 504
5.57572 453
5.59584 435
5.61595 432
5.63606 487
5.65618 451
5.67629 422
5.69641 414
5.71652 466
5.73663 432
5.75675 469
5.77686 411
5.79697 380
5.81709 390
5.8372 365
5.85732 390
5.87743 408
5.89754 368
5.91766 377
5.93777 386
5.95788 411
5.978 375
5.99811 363
6.01823 359
6.03834 357
6.05845 361
6.07857 358
6.09868 365
6.11879 338
6.13891 357
6.15902 344
6.17913 348
6.19925 322
6.21936 357
6.23948 323
6.25959 341
6.2797 350
6.29982 319
6.31993 312
6.34004 317
6.36016 322
6.38027 319
6.40039 309
6.4205 318
6.44061 312
6.46073 343
6.48084 346
6.50095 324
6.52107 308
6.54118 315
6.56129 311
6.58141 340
6.60152 306
6.62164 306
6.64175 306
6.66186 313
6.68198 310
6.70209 308
6.7222 306
6.74232 336
6.76243 333
6.78255 305
6.80266 313
6.82277 281
6.84289 277
6.863 305
6.88311 297
6.90323 285
6.92334 292
6.94346 289
6.96357 298
6.98368 334
7.0038 279
7.02391 304
7.04402 297
7.06414 320
7.08425 285
7.10436 272
7.12448 301
7.14459 305
7.16471 300
7.18482 285
7.20493 292
7.22505 276
7.24516 293
7.26527 304
7.28539 318
7.3055 300
7.32562 314
7.34573 269
7.36584 308
7.38596 307
7.40607 273
7.42618 278
7.4463 283
7.46641 303
7.48653 292
7.50664 280
7.52675 293
7.54687 297
7.56698 261
7.58709 299
7.60721 309
7.62732 313
7.64743 302
7.66755 296
7.68766 275
7.70778 295
7.72789 301
7.748 297
7.76812 286
7.78823 302
7.80834 268
7.82846 291
7.84857 298
7.86869 268
7.8888 278
7.90891 259
7.92903 282
7.94914 324
7.96925 351
7.98937 300
8.00948 300
8.0296 338
8.04971 326
8.06982 307
8.08994 315
8.11005 317
8.13016 294
8.15028 291
8.17039 322
8.1905 258
8.21062 329
8.23073 312
8.25085 293
8.27096 342
8.29107 267
8.31119 301
8.3313 312
8.35141 330
8.37153 305
8.39164 333
8.41176 274
8.43187 300
8.45198 319
8.4721 304
8.49221 334
8.51232 300
8.53244 294
8.55255 321
8.57266 281
8.59278 288
8.61289 303
8.63301 270
8.65312 299
8.67323 291
8.69335 287
8.71346 308
8.73357 343
8.75369 291
8.7738 333
8.79392 330
8.81403 304
8.83414 336
8.85426 293
8.87437 291
8.89448 298
8.9146 299
8.93471 322
8.95483 288
8.97494 328
8.99505 322
9.01517 314
9.03528 288
9.05539 310
9.07551 297
9.09562 275
9.11573 323
9.13585 302
9.15596 283
9.17608 313
9.19619 282
9.2163 320
9.23642 287
9.25653 329
9.27664 309
9.29676 292
9.31687 300
9.33699 278
9.3571 297
9.37721 338
9.39733 292
9.41744 313
9.43755 326
9.45767 311
9.47778 279
9.4979 334
9.51801 282
9.53812 325
9.55824 265
9.57835 277
9.59846 283
9.61858 287
9.63869 298
9.6588 296
9.67892 291
9.69903 257
9.71915 259
9.73926 317
9.75937 301
9.77949 312
9.7996 297
9.81971 272
9.83983 300
9.85994 280
9.88006 273
9.90017 252
9.92028 310
9.9404 263
9.96051 259
9.98062 288
10.00074 282
10.02085 281
10.04097 304
10.06108 299
10.08119 309
10.10131 313
10.12142 264
10.14153 273
10.16165 320
10.18176 286
10.20187 285
10.22199 279
10.2421 261
10.26222 288
10.28233 266
10.30244 279
10.32256 318
10.34267 269
10.36278 306
10.3829 308
10.40301 313
10.42313 284
10.44324 256
10.46335 275
10.48347 289
10.50358 298
10.52369 289
10.54381 286
10.56392 274
10.58403 276
10.60415 282
10.62426 278
10.64438 251
10.66449 301
10.6846 269
10.70472 301
10.72483 296
10.74494 263
10.76506 286
10.78517 286
10.80529 293
10.8254 287
10.84551 289
10.86563 301
10.88574 280
10.90585 260
10.92597 317
10.94608 267
10.9662 260
10.98631 289
11.00642 273
11.02654 260
11.04665 292
11.06676 296
11.08688 292
11.10699 286
11.1271 298
11.14722 300
11.16733 265
11.18745 304
11.20756 304
11.22767 296
11.24779 315
11.2679 332
11.28801 309
11.30813 317
11.32824 312
11.34836 289
11.36847 296
11.38858 281
11.4087 283
11.42881 309
11.44892 316
11.46904 277
11.48915 314
11.50927 307
11.52938 306
11.54949 304
11.56961 299
11.58972 295
11.60983 286
11.62995 327
11.65006 329
11.67017 314
11.69029 299
11.7104 327
11.73052 330
11.75063 311
11.77074 343
11.79086 300
11.81097 289
11.83108 320
11.8512 332
11.87131 312
11.89143 345
11.91154 340
11.93165 388
11.95177 328
11.97188 348
11.99199 324
12.01211 312
12.03222 373
12.05234 363
12.07245 361
12.09256 400
12.11268 339
12.13279 398
12.1529 375
12.17302 404
12.19313 420
12.21324 405
12.23336 416
12.25347 415
12.27359 433
12.2937 436
12.31381 455
12.33393 462
12.35404 426
12.37415 400
12.39427 381
12.41438 378
12.4345 350
12.45461 375
12.47472 350
12.49484 340
12.51495 323
12.53506 304
12.55518 311
12.57529 312
12.5954 292
12.61552 294
12.63563 318
12.65575 304
12.67586 310
12.69597 272
12.71609 282
12.7362 294
12.75631 276
12.77643 286
12.79654 257
12.81666 301
12.83677 273
12.85688 271
12.877 304
12.89711 249
12.91722 246
12.93734 257
12.95745 250
12.97757 259
12.99768 276
13.01779 293
13.03791 314
13.05802 284
13.07813 323
13.09825 315
13.11836 308
13.13847 313
13.15859 313
13.1787 311
13.19882 280
13.21893 300
13.23904 283
13.25916 269
13.27927 249
13.29938 248
13.3195 281
13.33961 295
13.35973 265
13.37984 310
13.39995 248
13.42007 286
13.44018 298
13.46029 288
13.48041 297
13.50052 285
13.52064 302
13.54075 323
13.56086 311
13.58098 274
13.60109 351
13.6212 324
13.64132 340
13.66143 286
13.68154 294
13.70166 313
13.72177 296
13.74189 275
13.762 268
13.78211 256
13.80223 266
13.82234 288
13.84245 229
13.86257 265
13.88268 264
13.9028 259
13.92291 240
13.94302 269
13.96314 245
13.98325 275
14.00336 255
14.02348 272
14.04359 282
14.06371 257
14.08382 253
14.10393 217
14.12405 233
14.14416 275
14.16427 239
14.18439 229
14.2045 240
14.22461 272
14.24473 243
14.26484 265
14.28496 254
14.30507 261
14.32518 254
14.3453 220
14.36541 237
14.38552 245
14.40564 244
14.42575 223
14.44587 269
14.46598 230
14.48609 271
14.50621 246
14.52632 246
14.54643 251
14.56655 245
14.58666 256
14.60677 239
14.62689 237
14.647 236
14.66712 219
14.68723 257
14.70734 232
14.72746 249
14.74757 286
14.76768 266
14.7878 252
14.80791 278
14.82803 261
14.84814 276
14.86825 304
14.88837 296
14.90848 267
14.92859 316
14.94871 303
14.96882 258
14.98894 220
15.00905 227
15.02916 271
15.04928 237
15.06939 257
15.0895 250
15.10962 260
15.12973 253
15.14984 274
15.16996 286
15.19007 279
15.21019 223
15.2303 266
15.25041 257
15.27053 260
15.29064 266
15.31075 251
15.33087 234
15.35098 229
15.3711 241
15.39121 250
15.41132 233
15.43144 272
15.45155 251
15.47166 245
15.49178 232
15.51189 242
15.53201 254
15.55212 234
15.57223 201
15.59235 219
15.61246 234
15.63257 253
15.65269 220
15.6728 228
15.69291 237
15.71303 237
15.73314 240
15.75326 229
15.77337 239
15.79348 247
15.8136 234
15.83371 219
15.85382 230
15.87394 247
15.89405 234
15.91417 222
15.93428 251
15.95439 227
15.97451 243
15.99462 236
16.01473 253
16.03485 238
16.05496 254
16.07508 267
16.09519 229
16.1153 256
16.13542 202
16.15553 227
16.17564 244
16.19576 220
16.21587 221
16.23598 233
16.2561 251
16.27621 239
16.29633 243
16.31644 256
16.33655 247
16.35667 230
16.37678 216
16.39689 218
16.41701 220
16.43712 248
16.45724 224
16.47735 202
16.49746 221
16.51758 230
16.53769 229
16.5578 235
16.57792 247
16.59803 234
16.61814 237
16.63826 219
16.65837 233
16.67849 217
16.6986 227
16.71871 218
16.73883 238
16.75894 231
16.77905 227
16.79917 232
16.81928 222
16.8394 228
16.85951 244
16.87962 212
16.89974 241
16.91985 244
16.93996 241
16.96008 250
16.98019 225
17.00031 210
17.02042 228
17.04053 240
17.06065 243
17.08076 253
17.10087 238
17.12099 231
17.1411 221
17.16121 241
17.18133 246
17.20144 209
17.22156 216
17.24167 207
17.26178 222
17.2819 253
17.30201 228
17.32212 242
17.34224 236
17.36235 239
17.38247 235
17.40258 255
17.42269 233
17.44281 255
17.46292 229
17.48303 237
17.50315 206
17.52326 236
17.54338 252
17.56349 285
17.5836 271
17.60372 222
17.62383 235
17.64394 232
17.66406 197
17.68417 235
17.70428 237
17.7244 222
17.74451 266
17.76463 222
17.78474 244
17.80485 263
17.82497 245
17.84508 206
17.86519 229
17.88531 251
17.90542 220
17.92554 234
17.94565 201
17.96576 222
17.98588 252
18.00599 269
18.0261 229
18.04622 214
18.06633 222
18.08645 237
18.10656 250
18.12667 258
18.14679 245
18.1669 217
18.18701 231
18.20713 264
18.22724 252
18.24735 280
18.26747 241
18.28758 213
18.3077 251
18.32781 229
18.34792 242
18.36804 208
18.38815 222
18.40826 213
18.42838 216
18.44849 251
18.46861 250
18.48872 218
18.50883 220
18.52895 262
18.54906 251
18.56917 227
18.58929 219
18.6094 267
18.62951 261
18.64963 248
18.66974 271
18.68986 239
18.70997 238
18.73008 245
18.7502 261
18.77031 251
18.79042 240
18.81054 240
18.83065 248
18.85077 223
18.87088 248
18.89099 240
18.91111 249
18.93122 266
18.95133 245
18.97145 244
18.99156 239
19.01168 233
19.03179 274
19.0519 264
19.07202 233
19.09213 222
19.11224 243
19.13236 258
19.15247 283
19.17258 289
19.1927 299
19.21281 269
19.23293 277
19.25304 299
19.27315 273
19.29327 301
19.31338 286
19.33349 253
19.35361 261
19.37372 287
19.39384 288
19.41395 281
19.43406 281
19.45418 279
19.47429 269
19.4944 283
19.51452 284
19.53463 318
19.55475 328
19.57486 283
19.59497 324
19.61509 327
19.6352 358
19.65531 321
19.67543 379
19.69554 386
19.71565 378
19.73577 409
19.75588 464
19.776 423
19.79611 460
19.81622 468
19.83634 516
19.85645 490
19.87656 480
19.89668 464
19.91679 547
19.93691 456
19.95702 532
19.97713 434
19.99725 412
20.01736 421
20.03747 457
20.05759 440
20.0777 428
20.09782 447
20.11793 457
20.13804 446
20.15816 391
20.17827 434
20.19838 468
20.2185 487
20.23861 452
20.25872 468
20.27884 485
20.29895 457
20.31907 494
20.33918 509
20.35929 437
20.37941 476
20.39952 458
20.41963 498
20.43975 444
20.45986 499
20.47998 539
20.50009 460
20.5202 553
20.54032 496
20.56043 560
20.58054 565
20.60066 577
20.62077 644
20.64088 780
20.661 876
20.68111 1087
20.70123 1473
20.72134 1976
20.74145 2413
20.76157 3167
20.78168 4045
20.80179 4415
20.82191 4732
20.84202 4458
20.86214 4018
20.88225 3085
20.90236 2420
20.92248 1792
20.94259 1465
20.9627 1245
20.98282 1182
21.00293 1068
21.02305 1020
21.04316 921
21.06327 801
21.08339 666
21.1035 628
21.12361 556
21.14373 549
21.16384 600
21.18395 539
21.20407 471
21.22418 461
21.2443 494
21.26441 485
21.28452 439
21.30464 486
21.32475 484
21.34486 495
21.36498 461
21.38509 438
21.40521 448
21.42532 447
21.44543 447
21.46555 456
21.48566 422
21.50577 414
21.52589 418
21.546 408
21.56612 417
21.58623 376
21.60634 408
21.62646 357
21.64657 392
21.66668 367
21.6868 379
21.70691 356
21.72702 373
21.74714 400
21.76725 344
21.78737 381
21.80748 367
21.82759 364
21.84771 379
21.86782 393
21.88793 407
21.90805 419
21.92816 438
21.94828 442
21.96839 412
21.9885 455
22.00862 457
22.02873 409
22.04884 428
22.06896 362
22.08907 343
22.10919 365
22.1293 373
22.14941 423
22.16953 411
22.18964 419
22.20975 415
22.22987 417
22.24998 437
22.27009 424
22.29021 436
22.31032 431
22.33044 410
22.35055 415
22.37066 365
22.39078 372
22.41089 370
22.431 372
22.45112 388
22.47123 356
22.49135 363
22.51146 391
22.53157 335
22.55169 362
22.5718 371
22.59191 402
22.61203 358
22.63214 379
22.65225 358
22.67237 332
22.69248 351
22.7126 329
22.73271 345
22.75282 332
22.77294 309
22.79305 335
22.81316 337
22.83328 307
22.85339 335
22.87351 342
22.89362 355
22.91373 368
22.93385 371
22.95396 380
22.97407 390
22.99419 420
23.0143 387
23.03442 416
23.05453 464
23.07464 499
23.09476 502
23.11487 538
23.13498 565
23.1551 598
23.17521 602
23.19532 576
23.21544 467
23.23555 498
23.25567 428
23.27578 420
23.29589 452
23.31601 403
23.33612 411
23.35623 348
23.37635 353
23.39646 378
23.41658 369
23.43669 374
23.4568 324
23.47692 353
23.49703 356
23.51714 393
23.53726 376
23.55737 371
23.57749 411
23.5976 403
23.61771 387
23.63783 359
23.65794 365
23.67805 352
23.69817 360
23.71828 398
23.73839 388
23.75851 375
23.77862 419
23.79874 420
23.81885 400
23.83896 408
23.85908 473
23.87919 491
23.8993 527
23.91942 561
23.93953 564
23.95965 631
23.97976 579
23.99987 577
24.01999 524
24.0401 476
24.06021 417
24.08033 455
24.10044 392
24.12056 354
24.14067 358
24.16078 390
24.1809 367
24.20101 364
24.22112 434
24.24124 442
24.26135 454
24.28146 441
24.30158 444
24.32169 436
24.34181 425
24.36192 387
24.38203 358
24.40215 399
24.42226 377
24.44237 340
24.46249 356
24.4826 368
24.50272 399
24.52283 372
24.54294 384
24.56306 377
24.58317 376
24.60328 443
24.6234 402
24.64351 467
24.66362 477
24.68374 440
24.70385 461
24.72397 493
24.74408 436
24.76419 448
24.78431 499
24.80442 461
24.82453 490
24.84465 534
24.86476 483
24.88488 472
24.90499 483
24.9251 426
24.94522 469
24.96533 439
24.98544 430
25.00556 399
25.02567 396
25.04579 368
25.0659 403
25.08601 408
25.10613 345
25.12624 385
25.14635 422
25.16647 390
25.18658 398
25.20669 402
25.22681 386
25.24692 421
25.26704 416
25.28715 451
25.30726 427
25.32738 423
25.34749 402
25.3676 437
25.38772 495
25.40783 492
25.42795 505
25.44806 596
25.46817 640
25.48829 704
25.5084 709
25.52851 662
25.54863 690
25.56874 634
25.58886 728
25.60897 675
25.62908 628
25.6492 651
25.66931 638
25.68942 628
25.70954 559
25.72965 548
25.74976 476
25.76988 488
25.78999 479
25.81011 437
25.83022 522
25.85033 479
25.87045 478
25.89056 488
25.91067 488
25.93079 488
25.9509 531
25.97102 489
25.99113 484
26.01124 536
26.03136 503
26.05147 548
26.07158 579
26.0917 552
26.11181 622
26.13193 586
26.15204 666
26.17215 704
26.19227 762
26.21238 864
26.23249 863
26.25261 947
26.27272 1022
26.29283 1137
26.31295 1238
26.33306 1327
26.35318 1622
26.37329 1854
26.3934 2193
26.41352 2595
26.43363 3262
26.45374 4391
26.47386 5934
26.49397 7695
26.51409 10338
26.5342 13547
26.55431 16607
26.57443 19458
26.59454 20654
26.61465 19433
26.63477 17120
26.65488 13635
26.67499 10410
26.69511 7357
26.71522 4882
26.73534 3188
26.75545 2125
26.77556 1565
26.79568 1420
26.81579 1160
26.8359 1095
26.85602 1160
26.87613 990
26.89625 979
26.91636 982
26.93647 981
26.95659 963
26.9767 1048
26.99681 1056
27.01693 1153
27.03704 1119
27.05716 992
27.07727 973
27.09738 824
27.1175 797
27.13761 708
27.15772 694
27.17784 684
27.19795 621
27.21806 670
27.23818 752
27.25829 752
27.27841 853
27.29852 1008
27.31863 1076
27.33875 1223
27.35886 1292
27.37897 1425
27.39909 1451
27.4192 1489
27.43932 1398
27.45943 1260
27.47954 1220
27.49966 1074
27.51977 861
27.53988 770
27.56 704
27.58011 544
27.60023 527
27.62034 484
27.64045 509
27.66057 472
27.68068 482
27.70079 469
27.72091 498
27.74102 462
27.76113 489
27.78125 483
27.80136 446
27.82148 497
27.84159 533
27.8617 477
27.88182 459
27.90193 483
27.92204 483
27.94216 475
27.96227 449
27.98239 383
28.0025 402
28.02261 404
28.04273 375
28.06284 389
28.08295 361
28.10307 317
28.12318 372
28.1433 315
28.16341 359
28.18352 320
28.20364 344
28.22375 364
28.24386 368
28.26398 337
28.28409 333
28.3042 332
28.32432 372
28.34443 303
28.36455 292
28.38466 304
28.40477 275
28.42489 317
28.445 331
28.46511 332
28.48523 305
28.50534 310
28.52546 300
28.54557 300
28.56568 348
28.5858 327
28.60591 290
28.62602 291
28.64614 324
28.66625 308
28.68636 294
28.70648 305
28.72659 300
28.74671 318
28.76682 282
28.78693 310
28.80705 304
28.82716 277
28.84727 306
28.86739 312
28.8875 301
28.90762 309
28.92773 298
28.94784 291
28.96796 276
28.98807 291
29.00818 292
29.0283 274
29.04841 288
29.06853 294
29.08864 287
29.10875 303
29.12887 289
29.14898 300
29.16909 274
29.18921 325
29.20932 284
29.22943 309
29.24955 332
29.26966 353
29.28978 339
29.30989 382
29.33 350
29.35012 380
29.37023 426
29.39034 480
29.41046 421
29.43057 429
29.45069 404
29.4708 394
29.49091 350
29.51103 355
29.53114 341
29.55125 339
29.57137 356
29.59148 307
29.6116 314
29.63171 329
29.65182 295
29.67194 320
29.69205 303
29.71216 305
29.73228 351
29.75239 322
29.7725 355
29.79262 362
29.81273 311
29.83285 329
29.85296 356
29.87307 354
29.89319 371
29.9133 347
29.93341 325
29.95353 349
29.97364 349
29.99376 345
30.01387 383
30.03398 416
30.0541 378
30.07421 424
30.09432 454
30.11444 465
30.13455 495
30.15467 527
30.17478 516
30.19489 525
30.21501 427
30.23512 432
30.25523 418
30.27535 417
30.29546 364
30.31557 335
30.33569 357
30.3558 332
30.37592 326
30.39603 304
30.41614 315
30.43626 316
30.45637 316
30.47648 306
30.4966 336
30.51671 338
30.53683 308
30.55694 367
30.57705 350
30.59717 383
30.61728 395
30.63739 420
30.65751 460
30.67762 439
30.69773 484
30.71785 451
30.73796 445
30.75808 474
30.77819 436
30.7983 492
30.81842 435
30.83853 426
30.85864 375
30.87876 379
30.89887 346
30.91899 364
30.9391 332
30.95921 324
30.97933 284
30.99944 306
31.01955 295
31.03967 280
31.05978 291
31.0799 260
31.10001 259
31.12012 246
31.14024 247
31.16035 254
31.18046 220
31.20058 286
31.22069 276
31.2408 261
31.26092 260
31.28103 266
31.30115 288
31.32126 281
31.34137 274
31.36149 285
31.3816 285
31.40171 272
31.42183 269
31.44194 242
31.46206 272
31.48217 249
31.50228 270
31.5224 267
31.54251 275
31.56262 228
31.58274 248
31.60285 280
31.62297 239
31.64308 239
31.66319 264
31.68331 266
31.70342 279
31.72353 246
31.74365 273
31.76376 282
31.78387 243
31.80399 248
31.8241 271
31.84422 254
31.86433 298
31.88444 262
31.90456 267
31.92467 273
31.94478 283
31.9649 253
31.98501 289
32.00513 293
32.02524 293
32.04535 301
32.06547 302
32.08558 371
32.10569 289
32.12581 312
32.14592 286
32.16604 281
32.18615 298
32.20626 318
32.22638 281
32.24649 290
32.2666 318
32.28672 301
32.30683 304
32.32694 308
32.34706 279
32.36717 356
32.38729 368
32.4074 351
32.42751 390
32.44763 327
32.46774 300
32.48785 348
32.50797 332
32.52808 321
32.5482 266
32.56831 280
32.58842 263
32.60854 235
32.62865 249
32.64876 250
32.66888 284
32.68899 274
32.7091 240
32.72922 251
32.74933 266
32.76945 251
32.78956 283
32.80967 266
32.82979 270
32.8499 264
32.87001 269
32.89013 260
32.91024 267
32.93036 272
32.95047 277
32.97058 227
32.9907 245
33.01081 263
33.03092 276
33.05104 290
33.07115 279
33.09127 219
33.11138 272
33.13149 276
33.15161 304
33.17172 282
33.19183 286
33.21195 280
33.23206 278
33.25217 264
33.27229 252
33.2924 273
33.31252 269
33.33263 269
33.35274 294
33.37286 268
33.39297 283
33.41308 253
33.4332 280
33.45331 278
33.47343 270
33.49354 273
33.51365 266
33.53377 292
33.55388 272
33.57399 231
33.59411 269
33.61422 274
33.63434 281
33.65445 278
33.67456 268
33.69468 240
33.71479 287
33.7349 267
33.75502 298
33.77513 291
33.79524 280
33.81536 242
33.83547 236
33.85559 281
33.8757 240
33.89581 244
33.91593 285
33.93604 276
33.95615 242
33.97627 273
33.99638 299
34.0165 284
34.03661 335
34.05672 345
34.07684 320
34.09695 329
34.11706 382
34.13718 424
34.15729 398
34.17741 401
34.19752 394
34.21763 399
34.23775 416
34.25786 343
34.27797 336
34.29809 356
34.3182 330
34.33831 323
34.35843 293
34.37854 349
34.39866 311
34.41877 308
34.43888 328
34.459 309
34.47911 349
34.49922 324
34.51934 322
34.53945 341
34.55957 351
34.57968 350
34.59979 375
34.61991 424
34.64002 376
34.66013 385
34.68025 410
34.70036 371
34.72047 374
34.74059 375
34.7607 424
34.78082 391
34.80093 402
34.82104 372
34.84116 418
34.86127 417
34.88138 395
34.9015 420
34.92161 417
34.94173 430
34.96184 418
34.98195 401
35.00207 421
35.02218 429
35.04229 445
35.06241 397
35.08252 410
35.10264 377
35.12275 384
35.14286 372
35.16298 389
35.18309 374
35.2032 397
35.22332 375
35.24343 400
35.26354 403
35.28366 382
35.30377 409
35.32389 402
35.344 427
35.36411 412
35.38423 431
35.40434 442
35.42445 388
35.44457 452
35.46468 469
35.4848 441
35.50491 429
35.52502 463
35.54514 507
35.56525 391
35.58536 438
35.60548 417
35.62559 384
35.64571 399
35.66582 421
35.68593 386
35.70605 385
35.72616 343
35.74627 378
35.76639 334
35.7865 394
35.80661 389
35.82673 404
35.84684 380
35.86696 357
35.88707 358
35.90718 390
35.9273 387
35.94741 407
35.96752 336
35.98764 351
36.00775 348
36.02787 349
36.04798 350
36.06809 303
36.08821 360
36.10832 337
36.12843 372
36.14855 367
36.16866 329
36.18878 359
36.20889 360
36.229 381
36.24912 390
36.26923 429
36.28934 459
36.30946 403
36.32957 510
36.34968 599
36.3698 762
36.38991 846
36.41003 1016
36.43014 1233
36.45025 1396
36.47037 1520
36.49048 1536
36.51059 1511
36.53071 1417
36.55082 1255
36.57094 1023
36.59105 940
36.61116 806
36.63128 771
36.65139 540
36.6715 430
36.69162 430
36.71173 383
36.73184 384
36.75196 417
36.77207 399
36.79219 388
36.8123 396
36.83241 382
36.85253 418
36.87264 396
36.89275 434
36.91287 394
36.93298 449
36.9531 401
36.97321 418
36.99332 420
37.01344 420
37.03355 382
37.05366 393
37.07378 365
37.09389 389
37.11401 324
37.13412 342
37.15423 317
37.17435 330
37.19446 294
37.21457 325
37.23469 320
37.2548 296
37.27491 298
37.29503 301
37.31514 287
37.33526 283
37.35537 298
37.37548 307
37.3956 330
37.41571 296
37.43582 329
37.45594 272
37.47605 317
37.49617 319
37.51628 301
37.53639 315
37.55651 316
37.57662 290
37.59673 325
37.61685 343
37.63696 308
37.65708 291
37.67719 266
37.6973 293
37.71742 282
37.73753 322
37.75764 289
37.77776 322
37.79787 293
37.81798 271
37.8381 274
37.85821 285
37.87833 275
37.89844 305
37.91855 304
37.93867 297
37.95878 326
37.97889 267
37.99901 296
38.01912 325
38.03924 302
38.05935 303
38.07946 280
38.09958 308
38.11969 290
38.1398 292
38.15992 309
38.18003 293
38.20015 323
38.22026 314
38.24037 377
38.26049 344
38.2806 344
38.30071 316
38.32083 313
38.34094 324
38.36105 370
38.38117 339
38.40128 393
38.4214 346
38.44151 390
38.46162 393
38.48174 383
38.50185 375
38.52196 365
38.54208 406
38.56219 388
38.58231 377
38.60242 317
38.62253 348
38.64265 323
38.66276 322
38.68287 311
38.70299 308
38.7231 300
38.74321 293
38.76333 334
38.78344 307
38.80356 274
38.82367 308
38.84378 312
38.8639 316
38.88401 308
38.90412 280
38.92424 312
38.94435 316
38.96447 321
38.98458 325
39.00469 295
39.02481 311
39.04492 310
39.06503 331
39.08515 299
39.10526 306
39.12538 347
39.14549 344
39.1656 345
39.18572 380
39.20583 419
39.22594 460
39.24606 523
39.26617 595
39.28628 647
39.3064 763
39.32651 834
39.34663 1016
39.36674 1230
39.38685 1351
39.40697 1489
39.42708 1437
39.44719 1345
39.46731 1203
39.48742 1077
39.50754 893
39.52765 865
39.54776 720
39.56788 533
39.58799 468
39.6081 368
39.62822 367
39.64833 343
39.66845 276
39.68856 287
39.70867 280
39.72879 302
39.7489 292
39.76901 305
39.78913 280
39.80924 272
39.82935 296
39.84947 301
39.86958 286
39.8897 313
39.90981 297
39.92992 295
39.95004 288
39.97015 302
39.99026 303
40.01038 300
40.03049 328
40.05061 359
40.07072 372
40.09083 447
40.11095 433
40.13106 524
40.15117 572
40.17129 657
40.1914 703
40.21152 780
40.23163 843
40.25174 823
40.27186 760
40.29197 719
40.31208 636
40.3322 606
40.35231 533
40.37242 512
40.39254 460
40.41265 365
40.43277 323
40.45288 368
40.47299 342
40.49311 334
40.51322 306
40.53333 302
40.55345 309
40.57356 292
40.59368 280
40.61379 268
40.6339 235
40.65402 272
40.67413 256
40.69424 284
40.71436 278
40.73447 257
40.75458 231
40.7747 238
40.79481 234
40.81493 265
40.83504 256
40.85515 257
40.87527 252
40.89538 273
40.91549 272
40.93561 252
40.95572 261
40.97584 264
40.99595 247
41.01606 270
41.03618 274
41.05629 288
41.0764 310
41.09652 270
41.11663 310
41.13675 278
41.15686 297
41.17697 305
41.19709 291
41.2172 244
41.23731 295
41.25743 281
41.27754 261
41.29765 252
41.31777 249
41.33788 249
41.358 298
41.37811 270
41.39822 272
41.41834 289
41.43845 285
41.45856 286
41.47868 265
41.49879 304
41.51891 309
41.53902 301
41.55913 311
41.57925 329
41.59936 359
41.61947 340
41.63959 398
41.6597 374
41.67982 397
41.69993 411
41.72004 439
41.74016 463
41.76027 451
41.78038 438
41.8005 441
41.82061 395
41.84072 401
41.86084 354
41.88095 358
41.90107 350
41.92118 336
41.94129 314
41.96141 264
41.98152 267
42.00163 289
42.02175 304
42.04186 303
42.06198 294
42.08209 281
42.1022 292
42.12232 314
42.14243 341
42.16254 298
42.18266 377
42.20277 375
42.22289 401
42.243 470
42.26311 511
42.28323 642
42.30334 651
42.32345 739
42.34357 879
42.36368 1031
42.38379 1091
42.40391 1075
42.42402 1001
42.44414 947
42.46425 835
42.48436 782
42.50448 699
42.52459 612
42.5447 536
42.56482 467
42.58493 394
42.60505 338
42.62516 356
42.64527 286
42.66539 316
42.6855 293
42.70561 274
42.72573 302
42.74584 308
42.76595 278
42.78607 266
42.80618 245
42.8263 266
42.84641 259
42.86652 293
42.88664 258
42.90675 268
42.92686 251
42.94698 265
42.96709 242
42.98721 234
43.00732 233
43.02743 255
43.04755 248
43.06766 236
43.08777 253
43.10789 248
43.128 263
43.14812 259
43.16823 246
43.18834 250
43.20846 233
43.22857 252
43.24868 262
43.2688 257
43.28891 245
43.30902 252
43.32914 243
43.34925 250
43.36937 217
43.38948 238
43.40959 255
43.42971 240
43.44982 246
43.46993 246
43.49005 248
43.51016 260
43.53028 265
43.55039 261
43.5705 253
43.59062 233
43.61073 242
43.63084 257
43.65096 247
43.67107 246
43.69119 259
43.7113 247
43.73141 228
43.75153 235
43.77164 247
43.79175 244
43.81187 235
43.83198 236
43.85209 233
43.87221 233
43.89232 201
43.91244 239
43.93255 252
43.95266 245
43.97278 232
43.99289 260
44.013 245
44.03312 253
44.05323 223
44.07335 239
44.09346 237
44.11357 230
44.13369 265
44.1538 225
44.17391 281
44.19403 237
44.21414 240
44.23426 228
44.25437 231
44.27448 238
44.2946 253
44.31471 244
44.33482 235
44.35494 242
44.37505 221
44.39516 231
44.41528 257
44.43539 237
44.45551 245
44.47562 250
44.49573 257
44.51585 238
44.53596 262
44.55607 244
44.57619 248
44.5963 229
44.61642 227
44.63653 241
44.65664 223
44.67676 226
44.69687 243
44.71698 214
44.7371 241
44.75721 248
44.77732 241
44.79744 234
44.81755 250
44.83767 238
44.85778 210
44.87789 250
44.89801 228
44.91812 220
44.93823 213
44.95835 201
44.97846 215
44.99858 235
45.01869 267
45.0388 222
45.05892 223
45.07903 239
45.09914 241
45.11926 229
45.13937 238
45.15949 246
45.1796 273
45.19971 233
45.21983 226
45.23994 271
45.26005 269
45.28017 267
45.30028 303
45.32039 276
45.34051 287
45.36062 280
45.38074 279
45.40085 316
45.42096 344
45.44108 332
45.46119 337
45.4813 321
45.50142 367
45.52153 394
45.54165 360
45.56176 426
45.58187 425
45.60199 473
45.6221 542
45.64221 549
45.66233 669
45.68244 731
45.70256 797
45.72267 784
45.74278 839
45.7629 791
45.78301 689
45.80312 664
45.82324 615
45.84335 565
45.86346 539
45.88358 469
45.90369 426
45.92381 311
45.94392 292
45.96403 310
45.98415 268
46.00426 261
46.02437 280
46.04449 280
46.0646 272
46.08472 289
46.10483 271
46.12494 272
46.14506 302
46.16517 276
46.18528 271
46.2054 295
46.22551 277
46.24563 237
46.26574 259
46.28585 267
46.30597 265
46.32608 242
46.34619 234
46.36631 261
46.38642 221
46.40653 228
46.42665 196
46.44676 261
46.46688 229
46.48699 227
46.5071 243
46.52722 245
46.54733 230
46.56744 215
46.58756 208
46.60767 243
46.62779 228
46.6479 231
46.66801 220
46.68813 207
46.70824 257
46.72835 243
46.74847 233
46.76858 224
46.78869 246
46.80881 255
46.82892 248
46.84904 233
46.86915 240
46.88926 246
46.90938 244
46.92949 268
46.9496 243
46.96972 278
46.98983 232
47.00995 300
47.03006 263
47.05017 307
47.07029 264
47.0904 292
47.11051 286
47.13063 251
47.15074 260
47.17086 301
47.19097 260
47.21108 255
47.2312 271
47.25131 263
47.27142 264
47.29154 245
47.31165 277
47.33176 298
47.35188 281
47.37199 282
47.39211 269
47.41222 273
47.43233 262
47.45245 282
47.47256 251
47.49267 284
47.51279 281
47.5329 259
47.55302 254
47.57313 297
47.59324 247
47.61336 234
47.63347 255
47.65358 232
47.6737 254
47.69381 228
47.71393 239
47.73404 250
47.75415 236
47.77427 213
47.79438 237
47.81449 241
47.83461 243
47.85472 275
47.87483 225
47.89495 218
47.91506 247
47.93518 232
47.95529 242
47.9754 229
47.99552 208
48.01563 229
48.03574 235
48.05586 221
48.07597 252
48.09609 232
48.1162 217
48.13631 220
48.15643 217
48.17654 251
48.19665 268
48.21677 226
48.23688 274
48.257 250
48.27711 236
48.29722 232
48.31734 284
48.33745 245
48.35756 256
48.37768 221
48.39779 216
48.4179 232
48.43802 233
48.45813 216
48.47825 230
48.49836 226
48.51847 238
48.53859 235
48.5587 230
48.57881 251
48.59893 219
48.61904 246
48.63916 229
48.65927 269
48.67938 237
48.6995 259
48.71961 273
48.73972 232
48.75984 285
48.77995 270
48.80006 299
48.82018 300
48.84029 284
48.86041 313
48.88052 286
48.90063 264
48.92075 270
48.94086 270
48.96097 270
48.98109 294
49.0012 282
49.02132 276
49.04143 284
49.06154 289
49.08166 306
49.10177 299
49.12188 281
49.142 268
49.16211 290
49.18223 237
49.20234 274
49.22245 285
49.24257 280
49.26268 249
49.28279 265
49.30291 223
49.32302 238
49.34313 238
49.36325 255
49.38336 255
49.40348 241
49.42359 253
49.4437 240
49.46382 258
49.48393 269
49.50404 261
49.52416 248
49.54427 277
49.56439 270
49.5845 242
49.60461 287
49.62473 261
49.64484 289
49.66495 304
49.68507 322
49.70518 310
49.7253 315
49.74541 347
49.76552 351
49.78564 377
49.80575 397
49.82586 447
49.84598 443
49.86609 496
49.8862 576
49.90632 689
49.92643 749
49.94655 895
49.96666 1087
49.98677 1305
50.00689 1563
50.027 1833
50.04711 1949
50.06723 2106
50.08734 2133
50.10746 1981
50.12757 1825
50.14768 1604
50.1678 1384
50.18791 1273
50.20802 1284
50.22814 1159
50.24825 1002
50.26837 813
50.28848 631
50.30859 536
50.32871 476
50.34882 431
50.36893 425
50.38905 415
50.40916 454
50.42927 441
50.44939 464
50.4695 484
50.48962 520
50.50973 471
50.52984 467
50.54996 429
50.57007 439
50.59018 425
50.6103 411
50.63041 429
50.65053 432
50.67064 364
50.69075 308
50.71087 359
50.73098 321
50.75109 339
50.77121 325
50.79132 321
50.81143 327
50.83155 309
50.85166 315
50.87178 295
50.89189 306
50.912 314
50.93212 304
50.95223 292
50.97234 292
50.99246 276
51.01257 259
51.03269 261
51.0528 243
51.07291 267
51.09303 272
51.11314 257
51.13325 284
51.15337 212
51.17348 228
51.1936 245
51.21371 282
51.23382 261
51.25394 241
51.27405 244
51.29416 250
51.31428 232
51.33439 219
51.3545 213
51.37462 232
51.39473 232
51.41485 207
51.43496 217
51.45507 247
51.47519 247
51.4953 249
51.51541 201
51.53553 225
51.55564 242
51.57576 248
51.59587 255
51.61598 221
51.6361 217
51.65621 254
51.67632 224
51.69644 241
51.71655 211
51.73667 223
51.75678 188
51.77689 194
51.79701 221
51.81712 203
51.83723 220
51.85735 198
51.87746 221
51.89757 210
51.91769 193
51.9378 218
51.95792 196
51.97803 239
51.99814 219
52.01826 207
52.03837 250
52.05848 226
52.0786 191
52.09871 247
52.11883 232
52.13894 198
52.15905 219
52.17917 229
52.19928 205
52.21939 230
52.23951 219
52.25962 229
52.27974 220
52.29985 219
52.31996 206
52.34008 230
52.36019 218
52.3803 236
52.40042 214
52.42053 225
52.44064 202
52.46076 226
52.48087 214
52.50099 261
52.5211 228
52.54121 242
52.56133 243
52.58144 246
52.60155 242
52.62167 238
52.64178 260
52.6619 252
52.68201 262
52.70212 268
52.72224 249
52.74235 243
52.76246 251
52.78258 233
52.80269 240
52.8228 222
52.84292 251
52.86303 237
52.88315 248
52.90326 219
52.92337 232
52.94349 243
52.9636 234
52.98371 229
53.00383 227
53.02394 228
53.04406 245
53.06417 239
53.08428 244
53.1044 239
53.12451 249
53.14462 237
53.16474 263
53.18485 249
53.20497 221
53.22508 253
53.24519 261
53.26531 242
53.28542 252
53.30553 250
53.32565 279
53.34576 277
53.36587 253
53.38599 249
53.4061 263
53.42622 243
53.44633 269
53.46644 237
53.48656 249
53.50667 253
53.52678 276
53.5469 282
53.56701 267
53.58713 274
53.60724 271
53.62735 268
53.64747 264
53.66758 267
53.68769 260
53.70781 279
53.72792 282
53.74804 257
53.76815 288
53.78826 236
53.80838 238
53.82849 268
53.8486 264
53.86872 281
53.88883 262
53.90894 282
53.92906 302
53.94917 282
53.96929 267
53.9894 276
54.00951 288
54.02963 276
54.04974 305
54.06985 279
54.08997 281
54.11008 289
54.1302 270
54.15031 297
54.17042 297
54.19054 276
54.21065 284
54.23076 264
54.25088 307
54.27099 264
54.29111 294
54.31122 262
54.33133 278
54.35145 300
54.37156 296
54.39167 284
54.41179 303
54.4319 299
54.45201 267
54.47213 295
54.49224 315
54.51236 293
54.53247 298
54.55258 335
54.5727 310
54.59281 349
54.61292 350
54.63304 417
54.65315 420
54.67327 419
54.69338 506
54.71349 526
54.73361 601
54.75372 705
54.77383 750
54.79395 794
54.81406 833
54.83417 742
54.85429 746
54.8744 622
54.89452 631
54.91463 558
54.93474 547
54.95486 556
54.97497 501
54.99508 533
55.0152 459
55.03531 392
55.05543 382
55.07554 345
55.09565 379
55.11577 374
55.13588 365
55.15599 392
55.17611 386
55.19622 461
55.21634 466
55.23645 513
55.25656 485
55.27668 506
55.29679 508
55.3169 469
55.33702 460
55.35713 423
55.37724 407
55.39736 427
55.41747 415
55.43759 404
55.4577 399
55.47781 349
55.49793 342
55.51804 328
55.53815 316
55.55827 299
55.57838 319
55.5985 280
55.61861 290
55.63872 291
55.65884 256
55.67895 284
55.69906 275
55.71918 265
55.73929 276
55.75941 249
55.77952 226
55.79963 262
55.81975 267
55.83986 251
55.85997 234
55.88009 218
55.9002 245
55.92031 264
55.94043 235
55.96054 253
55.98066 266
56.00077 238
56.02088 267
56.041 263
56.06111 237
56.08122 237
56.10134 233
56.12145 246
56.14157 240
56.16168 250
56.18179 238
56.20191 236
56.22202 264
56.24213 267
56.26225 234
56.28236 251
56.30248 249
56.32259 218
56.3427 213
56.36282 230
56.38293 221
56.40304 230
56.42316 250
56.44327 268
56.46338 220
56.4835 228
56.50361 221
56.52373 240
56.54384 250
56.56395 227
56.58407 233
56.60418 260
56.62429 222
56.64441 232
56.66452 237
56.68464 221
56.70475 271
56.72486 243
56.74498 245
56.76509 246
56.7852 231
56.80532 244
56.82543 252
56.84554 263
56.86566 220
56.88577 241
56.90589 213
56.926 257
56.94611 229
56.96623 234
56.98634 267
57.00645 234
57.02657 232
57.04668 240
57.0668 227
57.08691 241
57.10702 249
57.12714 242
57.14725 261
57.16736 259
57.18748 271
57.20759 258
57.22771 280
57.24782 238
57.26793 269
57.28805 261
57.30816 253
57.32827 277
57.34839 264
57.3685 243
57.38861 252
57.40873 228
57.42884 237
57.44896 262
57.46907 236
57.48918 243
57.5093 239
57.52941 227
57.54952 237
57.56964 275
57.58975 185
57.60987 223
57.62998 249
57.65009 243
57.67021 231
57.69032 204
57.71043 197
57.73055 247
57.75066 236
57.77078 215
57.79089 237
57.811 215
57.83112 248
57.85123 204
57.87134 205
57.89146 213
57.91157 232
57.93168 248
57.9518 220
57.97191 219
57.99203 249
58.01214 252
58.03225 222
58.05237 222
58.07248 236
58.09259 250
58.11271 238
58.13282 244
58.15294 235
58.17305 240
58.19316 236
58.21328 232
58.23339 216
58.2535 258
58.27362 240
58.29373 231
58.31385 227
58.33396 234
58.35407 224
58.37419 221
58.3943 269
58.41441 242
58.43453 251
58.45464 267
58.47475 253
58.49487 247
58.51498 246
58.5351 246
58.55521 236
58.57532 265
58.59544 245
58.61555 229
58.63566 221
58.65578 274
58.67589 282
58.69601 225
58.71612 246
58.73623 256
58.75635 239
58.77646 249
58.79657 234
58.81669 244
58.8368 256
58.85691 244
58.87703 238
58.89714 227
58.91726 199
58.93737 226
58.95748 239
58.9776 223
58.99771 226
59.01782 208
59.03794 250
59.05805 227
59.07817 222
59.09828 248
59.11839 235
59.13851 219
59.15862 262
59.17873 256
59.19885 243
59.21896 224
59.23908 241
59.25919 238
59.2793 249
59.29942 270
59.31953 269
59.33964 267
59.35976 247
59.37987 263
59.39998 275
59.4201 257
59.44021 261
59.46033 295
59.48044 324
59.50055 260
59.52067 316
59.54078 327
59.56089 334
59.58101 361
59.60112 385
59.62124 363
59.64135 390
59.66146 386
59.68158 534
59.70169 526
59.7218 567
59.74192 662
59.76203 750
59.78215 896
59.80226 1039
59.82237 1075
59.84249 1271
59.8626 1383
59.88271 1518
59.90283 1479
59.92294 1434
59.94305 1190
59.96317 1021
59.98328 911
60.0034 896
60.02351 912
60.04362 930
60.06374 909
60.08385 766
60.10396 661
60.12408 549
60.14419 413
60.16431 378
60.18442 359
60.20453 325
60.22465 301
60.24476 286
60.26487 272
60.28499 271
60.3051 284
60.32522 286
60.34533 266
60.36544 257
60.38556 259
60.40567 257
60.42578 250
60.4459 245
60.46601 252
60.48612 231
60.50624 267
60.52635 240
60.54647 254
60.56658 233
60.58669 240
60.60681 240
60.62692 255
60.64703 243
60.66715 213
60.68726 266
60.70738 226
60.72749 201
60.7476 240
60.76772 216
60.78783 251
60.80794 252
60.82806 246
60.84817 252
60.86828 273
60.8884 238
60.90851 258
60.92863 251
60.94874 259
60.96885 257
60.98897 270
61.00908 256
61.02919 253
61.04931 266
61.06942 270
61.08954 282
61.10965 318
61.12976 281
61.14988 279
61.16999 278
61.1901 281
61.21022 280
61.23033 249
61.25045 272
61.27056 260
61.29067 262
61.31079 266
61.3309 262
61.35101 260
61.37113 223
61.39124 249
61.41135 235
61.43147 223
61.45158 268
61.4717 248
61.49181 224
61.51192 246
61.53204 251
61.55215 242
61.57226 250
61.59238 247
61.61249 247
61.63261 256
61.65272 271
61.67283 265
61.69295 239
61.71306 230
61.73317 274
61.75329 250
61.7734 257
61.79352 257
61.81363 272
61.83374 275
61.85386 256
61.87397 309
61.89408 261
61.9142 271
61.93431 280
61.95442 251
61.97454 288
61.99465 320
62.01477 298
62.03488 316
62.05499 290
62.07511 273
62.09522 288
62.11533 289
62.13545 308
62.15556 301
62.17568 311
62.19579 305
62.2159 284
62.23602 319
62.25613 325
62.27624 292
62.29636 294
62.31647 296
62.33659 283
62.3567 301
62.37681 293
62.39693 267
62.41704 260
62.43715 270
62.45727 283
62.47738 295
62.49749 260
62.51761 294
62.53772 252
62.55784 273
62.57795 253
62.59806 282
62.61818 267
62.63829 278
62.6584 284
62.67852 286
62.69863 253
62.71875 280
62.73886 218
62.75897 256
62.77909 231
62.7992 242
62.81931 235
62.83943 271
62.85954 271
62.87965 273
62.89977 273
62.91988 249
62.94 280
62.96011 280
62.98022 255
63.00034 278
63.02045 244
63.04056 297
63.06068 293
63.08079 280
63.10091 275
63.12102 297
63.14113 255
63.16125 280
63.18136 271
63.20147 281
63.22159 258
63.2417 237
63.26182 270
63.28193 255
63.30204 247
63.32216 242
63.34227 226
63.36238 236
63.3825 247
63.40261 243
63.42272 237
63.44284 250
63.46295 244
63.48307 245
63.50318 228
63.52329 266
63.54341 246
63.56352 268
63.58363 267
63.60375 251
63.62386 262
63.64398 293
63.66409 285
63.6842 268
63.70432 289
63.72443 307
63.74454 310
63.76466 325
63.78477 324
63.80489 351
63.825 329
63.84511 402
63.86523 382
63.88534 414
63.90545 488
63.92557 478
63.94568 512
63.96579 522
63.98591 500
64.00602 491
64.02614 410
64.04625 377
64.06636 394
64.08648 343
64.10659 361
64.1267 348
64.14682 343
64.16693 342
64.18705 311
64.20716 304
64.22727 276
64.24739 269
64.2675 249
64.28761 248
64.30773 266
64.32784 215
64.34796 241
64.36807 231
64.38818 249
64.4083 237
64.42841 243
64.44852 221
64.46864 240
64.48875 212
64.50886 236
64.52898 219
64.54909 226
64.56921 200
64.58932 236
64.60943 211
64.62955 217
64.64966 237
64.66977 229
64.68989 242
64.71 235
64.73012 243
64.75023 229
64.77034 234
64.79046 225
64.81057 233
64.83068 204
64.8508 224
64.87091 221
64.89102 242
64.91114 238
64.93125 226
64.95137 231
64.97148 232
64.99159 259
65.01171 241
65.03182 238
65.05193 268
65.07205 239
65.09216 284
65.11228 249
65.13239 217
65.1525 285
65.17262 277
65.19273 235
65.21284 259
65.23296 258
65.25307 254
65.27319 252
65.2933 271
65.31341 243
65.33353 227
65.35364 228
65.37375 254
65.39387 244
65.41398 239
65.43409 262
65.45421 257
65.47432 247
65.49444 240
65.51455 232
65.53466 239
65.55478 254
65.57489 230
65.595 254
65.61512 278
65.63523 246
65.65535 247
65.67546 253
65.69557 249
65.71569 301
65.7358 294
65.75591 271
65.77603 255
65.79614 284
65.81626 234
65.83637 243
65.85648 227
65.8766 225
65.89671 214
65.91682 242
65.93694 237
65.95705 245
65.97716 246
65.99728 218
66.01739 235
66.03751 223
66.05762 210
66.07773 261
66.09785 235
66.11796 218
66.13807 215
66.15819 214
66.1783 247
66.19842 231
66.21853 227
66.23864 246
66.25876 279
66.27887 263
66.29898 232
66.3191 244
66.33921 217
66.35933 226
66.37944 278
66.39955 256
66.41967 266
66.43978 252
66.45989 266
66.48001 238
66.50012 227
66.52023 232
66.54035 246
66.56046 218
66.58058 240
66.60069 253
66.6208 251
66.64092 238
66.66103 247
66.68114 210
66.70126 221
66.72137 231
66.74149 247
66.7616 236
66.78171 244
66.80183 255
66.82194 233
66.84205 231
66.86217 252
66.88228 236
66.90239 223
66.92251 240
66.94262 224
66.96274 233
66.98285 244
67.00296 230
67.02308 250
67.04319 261
67.0633 253
67.08342 237
67.10353 237
67.12365 263
67.14376 264
67.16387 263
67.18399 282
67.2041 269
67.22421 262
67.24433 263
67.26444 260
67.28456 281
67.30467 261
67.32478 300
67.3449 296
67.36501 317
67.38512 338
67.40524 308
67.42535 349
67.44546 350
67.46558 338
67.48569 410
67.50581 447
67.52592 479
67.54603 548
67.56615 588
67.58626 631
67.60637 763
67.62649 874
67.6466 933
67.66672 964
67.68683 995
67.70694 895
67.72706 824
67.74717 750
67.76728 710
67.7874 647
67.80751 685
67.82763 713
67.84774 779
67.86785 773
67.88797 805
67.90808 776
67.92819 756
67.94831 776
67.96842 774
67.98853 908
68.00865 1020
68.02876 1066
68.04888 1245
68.06899 1234
68.0891 1204
68.10922 1247
68.12933 1176
68.14944 1104
68.16956 1039
68.18967 1003
68.20979 1116
68.2299 1162
68.25001 1139
68.27013 1165
68.29024 1093
68.31035 934
68.33047 836
68.35058 652
68.3707 589
68.39081 587
68.41092 499
68.43104 541
68.45115 518
68.47126 493
68.49138 422
68.51149 353
68.5316 319
68.55172 295
68.57183 310
68.59195 280
68.61206 262
68.63217 269
68.65229 269
68.6724 251
68.69251 252
68.71263 305
68.73274 238
68.75286 254
68.77297 231
68.79308 257
68.8132 229
68.83331 228
68.85342 205
68.87354 248
68.89365 226
68.91376 261
68.93388 232
68.95399 231
68.97411 214
68.99422 278
69.01433 237
69.03445 227
69.05456 234
69.07467 238
69.09479 234
69.1149 238
69.13502 221
69.15513 220
69.17524 209
69.19536 226
69.21547 240
69.23558 223
69.2557 226
69.27581 234
69.29593 210
69.31604 217
69.33615 199
69.35627 213
69.37638 215
69.39649 202
69.41661 236
69.43672 234
69.45683 218
69.47695 213
69.49706 236
69.51718 236
69.53729 211
69.5574 218
69.57752 206
69.59763 199
69.61774 227
69.63786 207
69.65797 218
69.67809 199
69.6982 225
69.71831 249
69.73843 243
69.75854 214
69.77865 205
69.79877 197
69.81888 217
69.839 230
69.85911 225
69.87922 228
69.89934 255
69.91945 225
69.93956 210
69.95968 189
69.97979 231
69.9999 207
70.02002 218
70.04013 207
70.06025 230
70.08036 212
70.10047 220
70.12059 236
70.1407 198
70.16081 218
70.18093 237
70.20104 222
70.22116 202
70.24127 212
70.26138 235
70.2815 219
70.30161 218
70.32172 195
70.34184 223
70.36195 209
70.38207 213
70.40218 229
70.42229 234
70.44241 240
70.46252 200
70.48263 209
70.50275 208
70.52286 239
70.54297 210
70.56309 253
70.5832 220
70.60332 223
70.62343 199
70.64354 217
70.66366 222
70.68377 215
70.70388 233
70.724 223
70.74411 226
70.76423 212
70.78434 202
70.80445 251
70.82457 213
70.84468 227
70.86479 219
70.88491 210
70.90502 234
70.92513 208
70.94525 207
70.96536 209
70.98548 202
71.00559 227
71.0257 194
71.04582 187
71.06593 223
71.08604 212
71.10616 208
71.12627 203
71.14639 212
71.1665 205
71.18661 217
71.20673 207
71.22684 210
71.24695 249
71.26707 233
71.28718 217
71.3073 205
71.32741 234
71.34752 196
71.36764 235
71.38775 251
71.40786 245
71.42798 230
71.44809 245
71.4682 276
71.48832 231
71.50843 229
71.52855 242
71.54866 218
71.56877 248
71.58889 238
71.609 214
71.62911 250
71.64923 233
71.66934 223
71.68946 231
71.70957 245
71.72968 231
71.7498 229
71.76991 204
71.79002 218
71.81014 216
71.83025 227
71.85037 209
71.87048 222
71.89059 249
71.91071 215
71.93082 239
71.95093 207
71.97105 245
71.99116 233
72.01127 255
72.03139 213
72.0515 233
72.07162 241
72.09173 231
72.11184 226
72.13196 226
72.15207 242
72.17218 233
72.1923 241
72.21241 240
72.23253 228
72.25264 236
72.27275 240
72.29287 260
72.31298 233
72.33309 229
72.35321 233
72.37332 240
72.39344 214
72.41355 220
72.43366 215
72.45378 230
72.47389 250
72.494 235
72.51412 224
72.53423 232
72.55434 225
72.57446 244
72.59457 203
72.61469 217
72.6348 229
72.65491 234
72.67503 227
72.69514 260
72.71525 244
72.73537 227
72.75548 243
72.7756 225
72.79571 213
72.81582 244
72.83594 232
72.85605 222
72.87616 219
72.89628 234
72.91639 257
72.9365 218
72.95662 252
72.97673 271
72.99685 264
73.01696 249
73.03707 294
73.05719 263
73.0773 246
73.09741 261
73.11753 248
73.13764 283
73.15776 254
73.17787 303
73.19798 273
73.2181 289
73.23821 350
73.25832 331
73.27844 374
73.29855 337
73.31867 420
73.33878 431
73.35889 484
73.37901 498
73.39912 513
73.41923 496
73.43935 463
73.45946 428
73.47957 389
73.49969 347
73.5198 344
73.53992 338
73.56003 371
73.58014 400
73.60026 365
73.62037 379
73.64048 338
73.6606 333
73.68071 328
73.70083 275
73.72094 277
73.74105 284
73.76117 249
73.78128 272
73.80139 221
73.82151 233
73.84162 245
73.86174 224
73.88185 251
73.90196 237
73.92208 197
73.94219 232
73.9623 237
73.98242 226
74.00253 219
74.02264 227
74.04276 225
74.06287 222
74.08299 221
74.1031 203
74.12321 204
74.14333 226
74.16344 202
74.18355 208
74.20367 230
74.22378 216
74.2439 227
74.26401 235
74.28412 213
74.30424 216
74.32435 217
74.34446 247
74.36458 208
74.38469 213
74.40481 227
74.42492 214
74.44503 206
74.46515 228
74.48526 214
74.50537 227
74.52549 236
74.5456 224
74.56571 231
74.58583 224
74.60594 211
74.62606 232
74.64617 252
74.66628 221
74.6864 244
74.70651 222
74.72662 253
74.74674 249
74.76685 205
74.78697 229
74.80708 227
74.82719 222
74.84731 229
74.86742 236
74.88753 246
74.90765 226
74.92776 222
74.94787 231
74.96799 263
74.9881 218
75.00822 235
