3.00117 18686.0538366137
3.02128 18074.4190473992
3.0414 17704
3.06151 17014.7303717779
3.08162 16674.6367243756
3.10174 16175.9805760215
3.12185 15706.2154128041
3.14197 15213.6238284478
3.16208 14810.5223789561
3.18219 14241.1977408809
3.20231 13929.7383375882
3.22242 13348.8257384041
3.24253 13422.5629786324
3.26265 12635.0262361639
3.28276 12206.3529277208
3.30288 12002.3926690925
3.32299 11455.2468215387
3.3431 11062
3.36322 10559.5776097785
3.38333 10259.6027699123
3.40344 9946.30328396309
3.42356 9648.32955304937
3.44367 9499.48833331491
3.46379 9024.19701939088
3.4839 8789
3.50401 8466.80107277159
3.52413 8110.67828983986
3.54424 7881.01968654297
3.56435 7289.68209173384
3.58447 7289.27531801423
3.60458 6813.41227553507
3.62469 6678.99446999183
3.64481 6564.81355509123
3.66492 6109.78174765695
3.68504 6062.49644533007
3.70515 5564.99619835702
3.72526 5408.18763598306
3.74538 5192.33574929217
3.76549 4886.06041984759
3.7856 4873
3.80572 4539.62265866127
3.82583 4339.07487089565
3.84595 4448.76728895737
3.86606 4111.7107909799
3.88617 3863.3468355811
3.90629 3623.08821497481
3.9264 3533
3.94651 3429.89664232585
3.96663 3165.66928089849
3.98674 3079.08374788148
4.00686 3105.25667557516
4.02697 2867.24152802262
4.04708 2822.07316332356
4.0672 2681
4.08731 2606.91822474153
4.10742 2380.859748428
4.12754 2363.99963600959
4.14765 2306.2052555447
4.16776 2219.20709363036
4.18788 2120.05879298639
4.20799 2064.0620678228
4.22811 1947.01963644631
4.24822 2086.03308134145
4.26833 1941.71879368702
4.28845 1818.80013499423
4.30856 1767.02845446435
4.32867 1767.0264224993
4.34879 1707.04709995841
4.3689 1612
4.38902 1591.02055731352
4.40913 1611.9789281448
4.42924 1571.95731954959
4.44936 1588.93879207182
4.46947 1574.14254358055
4.48958 1461.03204690104
4.5097 1475
4.52981 1340.9825815668
4.54992 1414.03042272063
4.57004 1349.87915354336
4.59015 1326.12682030157
4.61027 1257.02019517907
4.63038 1316.92278685332
4.65049 1345.01635363193
4.67061 1248.92539476256
4.69072 1118.95501725861
4.71083 1145.02870563758
4.73095 1116.90544229955
4.75106 1111.93271423268
4.77118 1122.0816548083
4.79129 1008.008517771
4.8114 1088
4.83152 1042.92937659705
4.85163 1020.04762013356
4.87174 1048.923385332
4.89186 957.131444122599
4.91197 936.052826109122
4.93209 887.001092211024
4.9522 930
4.97231 888.952156157366
4.99243 813.011531211992
5.01254 885.10729876266
5.03265 854.248467222413
5.05277 792.895805685735
5.07288 912.006227419006
5.09299 765.063683880914
5.11311 758.027971501284
5.13322 791.984038414618
5.15334 752.985687651111
5.17345 770.955667208516
5.19356 708.111460192619
5.21368 689.003596853376
5.23379 678.009760542547
5.2539 660
5.27402 649.955321523074
5.29413 587.9527630128
5.31425 615.166537799206
5.33436 666.004979935748
5.35447 608.11700997755
5.37459 557.005395216924
5.3947 574
5.41481 580.000612719313
5.43493 579.990174667126
5.45504 566.972219422773
5.47516 543.095819805088
5.49527 506.959898477127
5.51538 569.978911447962
5.5355 519
5.55561 478.002140357908
5.57572 513.04002036717
5.59584 531.993467002578
5.61595 510.089126534714
5.63606 489.95861976554
5.65618 512.04151177176
5.67629 428.019701700618
5.69641 460.021872952245
5.71652 458.956758663127
5.73663 435.081924089982
5.75675 505.913234584495
5.77686 401.034261480533
5.79697 482.947311682908
5.81709 430.018102152705
5.8372 452
5.85732 436.988277978138
5.87743 444.008894316919
5.89754 444.017721532842
5.91766 444.082375010725
5.93777 391.003333300905
5.95788 432.983192617303
5.978 407
5.99811 426.015273035917
6.01823 419.900267022835
6.03834 350.016699144837
6.05845 418.925566972644
6.07857 392.998904640958
6.09868 420.029878021311
6.11879 353.000155929762
6.13891 418.012442606371
6.15902 382.99006049418
6.17913 418.022665823463
6.19925 376.827985636243
6.21936 339.944984216857
6.23948 398.975194838214
6.25959 376.009545234229
6.2797 377
6.29982 348.995030472259
6.31993 372.028894657503
6.34004 377.022805997146
6.36016 394.992773673215
6.38027 371.065783675389
6.40039 342.991652975578
6.4205 373
6.44061 328.003433409056
6.46073 382.024833221782
6.48084 349.984235438286
6.50095 373.029694123344
6.52107 330.006183557063
6.54118 377.957043694968
6.56129 374.018133939875
6.58141 335.988426892103
6.60152 338.021473936387
6.62164 361.023802328167
6.64175 356.968658150007
6.66186 348.001010938892
6.68198 349.009209332631
6.70209 334.002200267612
6.7222 348
6.74232 353.968852954851
6.76243 310.985355786966
6.78255 345.109199027408
6.80266 359.043599937091
6.82277 322.038003964865
6.84289 319.996707639733
6.863 326
6.88311 344.010744212532
6.90323 352.975541224873
6.92334 318.937856026515
6.94346 309.975319175063
6.96357 329.977963161488
6.98368 333.002382585812
7.0038 340
7.02391 353.98308716214
7.04402 298.98813918399
7.06414 336.055573304918
7.08425 332.994857121334
7.10436 356.947172647053
7.12448 355.041957639726
7.14459 306.005312227662
7.16471 336.013801400319
7.18482 338.998605842913
7.20493 341.993846067334
7.22505 329.977194203687
7.24516 329.990381631544
7.26527 330.015089351999
7.28539 321.994189632103
7.3055 344
7.32562 318.958134610506
7.34573 280.961149210454
7.36584 283.076413846246
7.38596 335.926557791395
7.40607 343.009824354879
7.42618 345.980619834276
7.4463 353
7.46641 285.983202819931
7.48653 305.048682565723
7.50664 314.980403797243
7.52675 308.953584751248
7.54687 332.02065985293
7.56698 295.004998879931
7.58709 336.975759156717
7.60721 347.98461918888
7.62732 298.961094796044
7.64743 298.055969798051
7.66755 339.022893806213
7.68766 314.052294473977
7.70778 320.958224908796
7.72789 361.000411535777
7.748 315
7.76812 293.023020082281
7.78823 328.004658492635
7.80834 312.042130585434
7.82846 364.954714312905
7.84857 346.015837981821
7.86869 357.002214444903
7.8888 322
7.90891 313.0232758284
7.92903 362.969205594085
7.94914 286.914755920615
7.96925 313.888549530173
7.98937 327.024370445225
8.00948 307.997303910891
8.0296 329
8.04971 317.990976003865
8.06982 313.013179552844
8.08994 332.0143183159
8.11005 332.036956581692
8.13016 351.019219115925
8.15028 320.012232068043
8.17039 324.011068290967
8.1905 287
8.21062 341.063489272066
8.23073 361.951028113308
8.25085 312.958259913102
8.27096 332.974059885937
8.29107 324.003522394349
8.31119 339.991391659734
8.3313 341
8.35141 323.999109698186
8.37153 325.967188382032
8.39164 296.011123308876
8.41176 329.977265099313
8.43187 318.973933674664
8.45198 360.9885824593
8.4721 329
8.49221 333.018501581954
8.51232 365.995398619373
8.53244 331.956513793236
8.55255 343.935430712802
8.57266 359.001943696139
8.59278 335.048598104595
8.61289 301.987343666385
8.63301 360.010874400111
8.65312 324.956129811294
8.67323 313.020344484992
8.69335 333.034008385758
8.71346 325.06409973627
8.73357 296.98922139228
8.75369 337.97910620789
8.7738 353
8.79392 341.999022424721
8.81403 343.976433732703
8.83414 323.014041443303
8.85426 358.935865313871
8.87437 359.04214355258
8.89448 322.029938500344
8.9146 312
8.93471 329.010409431254
8.95483 329.944306236149
8.97494 288.010337782342
8.99505 325.988984227833
9.01517 290.02522324884
9.03528 314.970169016189
9.05539 323.001995217736
9.07551 312.990094711945
9.09562 299.011609493749
9.11573 318.987037594257
9.13585 295.027205711609
9.15596 343.921103906663
9.17608 343.025729910093
9.19619 322.001034390721
9.2163 334
9.23642 323.97968636453
9.25653 320.048674672817
9.27664 364.020187791516
9.29676 330.085346424941
9.31687 306.018408535615
9.33699 299.000428159679
9.3571 314
9.37721 344.989944524716
9.39733 292.967225420792
9.41744 323.084564971275
9.43755 342.995581152505
9.45767 337.011773564441
9.47778 328.015126176725
9.4979 329
9.51801 365.975220052593
9.53812 271.983446799117
9.55824 335.047255053514
9.57835 294.974883066461
9.59846 333.973016986739
9.61858 293.049902148465
9.63869 282.98304574228
9.6588 333
9.67892 331.978168750899
9.69903 315.000102650506
9.71915 330.039300583066
9.73926 339.977021393983
9.75937 340.047933669947
9.77949 304.993948110614
9.7996 343
9.81971 295.995756339843
9.83983 334.02219159925
9.85994 310.987469114259
9.88006 331.991639871049
9.90017 312.01129907338
9.92028 323.00104396485
9.9404 305
9.96051 315.006781577048
9.98062 319.999588705231
10.00074 311.958151822604
10.02085 293.983521164301
10.04097 313.99908790928
10.06108 298.99395951365
10.08119 325.994537088781
10.10131 317.002029011128
10.12142 332.993799296312
10.14153 301.963737856378
10.16165 308.071200341353
10.18176 334.982877961456
10.20187 316.058625400095
10.22199 288.994712397951
10.2421 320
10.26222 302.996766222375
10.28233 327.038080480893
10.30244 336.000199294004
10.32256 340.968283310118
10.34267 346.050564541254
10.36278 298.009104753782
10.3829 339
10.40301 357.996115667757
10.42313 328.928275726329
10.44324 298.039970310845
10.46335 332.057823212283
10.48347 270.016442396208
10.50358 323.957337841285
10.52369 317.009632364921
10.54381 311.999304486739
10.56392 310.003919100996
10.58403 318.005478021232
10.60415 320.028276917851
10.62426 330.026104481374
10.64438 304.006878631866
10.66449 325.98573974165
10.6846 339
10.70472 323.976494417175
10.72483 305.997420808062
10.74494 314.001277644883
10.76506 301.031235040109
10.78517 299.969821715477
10.80529 321.002655641037
10.8254 304
10.84551 332.994293238788
10.86563 292.999483218977
10.88574 337.050322053661
10.90585 313.100912532841
10.92597 300.956692513357
10.94608 337.003752097624
10.9662 299
10.98631 315.008214997123
11.00642 319.013514532008
11.02654 334.978421707306
11.04665 312.970678591495
11.06676 349.982719773854
11.08688 322.019022753909
11.10699 320.011062975452
11.1271 291
11.14722 338.015594664692
11.16733 311.977468675418
11.18745 331.059540995925
11.20756 335.023300464302
11.22767 323.001820638035
11.24779 324.008209801129
11.2679 306
11.28801 353.019116546979
11.30813 351.952098406804
11.32824 313.945965747551
11.34836 315.93500952586
11.36847 349.993222879558
11.38858 325.023439112047
11.4087 332
11.42881 361.995973131507
11.44892 337.011621569706
11.46904 373.995008835749
11.48915 330.055778414521
11.50927 357.933946947965
11.52938 374.022540992853
11.54949 349.988788869273
11.56961 398.002149829374
11.58972 345.948224639339
11.60983 331.004450280149
11.62995 340.05524147801
11.65006 357.027566074818
11.67017 329.995437822676
11.69029 374.972482559196
11.7104 397
11.73052 357.987287883252
11.75063 365.972578592534
11.77074 333.022087367358
11.79086 384.939173483637
11.81097 376.007094247994
11.83108 391.990686705474
11.8512 386
11.87131 410.027453723113
11.89143 446.947429721234
11.91154 373.954721248006
11.93165 424.85115473596
11.95177 442.01906503631
11.97188 440.960767571549
11.99199 506.975204748271
12.01211 499.969273492749
12.03222 452.032112364822
12.05234 546.14131671278
12.07245 561.0250909542
12.09256 587.971463111635
12.11268 580.010571483212
12.13279 598.969579166821
12.1529 670
12.17302 660.981285670967
12.19313 684.121685026118
12.21324 772.051553025984
12.23336 738.045936816254
12.25347 758.958988079838
12.27359 751.023772818179
12.2937 697
12.31381 700.993341499278
12.33393 656.933832972044
12.35404 634.985818636477
12.37415 617.116202978254
12.39427 554.072496087343
12.41438 553.948462438344
12.4345 586
12.45461 460.960601348524
12.47472 460.001884956677
12.49484 429.957212672377
12.51495 432.992047742988
12.53506 414.07776832213
12.55518 377.014647540769
12.57529 382.997592055201
12.5954 369
12.61552 351.013697883589
12.63563 371.974112221827
12.65575 317.891313029091
12.67586 307.005040113689
12.69597 301.990837869336
12.71609 320.990115599532
12.7362 343
12.75631 373.99482401708
12.77643 333.965943663743
12.79654 342.011836897692
12.81666 330.02554617751
12.83677 326.999305965928
12.85688 318.024891018077
12.877 295
12.89711 313.999126905615
12.91722 285.976368267883
12.93734 289.043554300908
12.95745 299.061525265803
12.97757 262.005838914708
12.99768 295.969055527058
13.01779 306.992757037705
13.03791 326.000316545927
13.05802 300.96498161717
13.07813 277.994294103514
13.09825 290.043867525909
13.11836 302.98384705209
13.13847 298.039176029431
13.15859 271.99799460355
13.1787 301
13.19882 299.000763967515
13.21893 299.962547627198
13.23904 268.012906208978
13.25916 301.990076381372
13.27927 284.963692025031
13.29938 337.994651251999
13.3195 274
13.33961 249.020772486479
13.35973 310.029085599451
13.37984 272.90407339873
13.39995 252.993704915646
13.42007 261.991964610453
13.44018 264.988104499315
13.46029 283.993658844146
13.48041 286.000041917424
13.50052 280.978021731724
13.52064 264.04438196514
13.54075 305.012961018209
13.56086 277.008334704128
13.58098 305.985515528247
13.60109 284.016398014105
13.6212 266
13.64132 276.019598163394
13.66143 287.984883279421
13.68154 264.9754701029
13.70166 270.983247378746
13.72177 271.004970740008
13.74189 272.994570366706
13.762 284
13.78211 262.982328793579
13.80223 239.012669648888
13.82234 266.021446123524
13.84245 255.008941525483
13.86257 263.008149138279
13.88268 237.028300667311
13.9028 235
13.92291 283.012687656467
13.94302 274.9827534581
13.96314 258.943897166481
13.98325 238.944908482162
14.00336 286.952989836519
14.02348 273.014197544183
14.04359 272.005736355987
14.06371 253.000220576052
14.08382 279.030696559816
14.10393 283.953802939874
14.12405 251.022091774406
14.14416 291.961544276054
14.16427 274.025981897104
14.18439 264.016788820558
14.2045 229
14.22461 285.013411619502
14.24473 265.978535480383
14.26484 277.013494504505
14.28496 271.989553931375
14.30507 280.028033119449
14.32518 248.998929259927
14.3453 284
14.36541 279.99344387851
14.38552 264.969599918005
14.40564 244.054624482755
14.42575 294.973911751862
14.44587 260.032201734639
14.46598 269.002295262795
14.48609 250.998071492034
14.50621 278.006821621558
14.52632 268.995204400419
14.54643 266.959083287235
14.56655 231.000968671736
14.58666 264.960604241023
14.60677 257.002619835367
14.62689 274.991483691078
14.647 273
14.66712 256.000854965269
14.68723 260.969177037697
14.70734 229.001197827792
14.72746 259.970047605412
14.74757 251.988078914366
14.76768 278.990200898643
14.7878 255
14.80791 244.019023962021
14.82803 292.99891706548
14.84814 247.952668398134
14.86825 272.911312935542
14.88837 286.007267799394
14.90848 273.015950348035
14.92859 259.005969956815
14.94871 247.994538364022
14.96882 247.01984074698
14.98894 271.000481732993
15.00905 255.007085515275
15.02916 281.957813917091
15.04928 275.02765276931
15.06939 251.001457385235
15.0895 255
15.10962 221.998211561455
15.12973 248.010362831278
15.14984 239.049498096604
15.16996 287.97377680376
15.19007 248.075980417621
15.21019 236.981380726971
15.2303 289
15.25041 266.978287024304
15.27053 240.005367501021
15.29064 261.022790179552
15.31075 252.033189253317
15.33087 249.986710532354
15.35098 249.031159227461
15.3711 213
15.39121 265.028446390831
15.41132 284.981728773744
15.43144 251.954562333376
15.45155 252.965825592377
15.47166 270.950433393663
15.49178 280.032219638349
15.51189 231.007551658935
15.53201 255.008940087782
15.55212 252.006165109898
15.57223 262.972062700686
15.59235 226.983885152078
15.61246 257.941230355541
15.63257 262.010159554233
15.65269 253.008577228139
15.6728 235
15.69291 246.008499076719
15.71303 249.972869207643
15.73314 233.032975462181
15.75326 266.000557304288
15.77337 239.992083079587
15.79348 269.012134398969
15.8136 223
15.83371 268.019006170605
15.85382 268.992351119931
15.87394 272.009108985611
15.89405 268.033679258034
15.91417 256.993085197909
15.93428 265.014020682655
15.95439 239.99957935223
15.97451 269.011249363054
15.99462 261.974716466154
16.01473 243.00153700767
16.03485 255.000993087701
16.05496 244.993373966424
16.07508 261.992766773998
16.09519 247.013108769972
16.1153 234
16.13542 256.999659525912
16.15553 237.998613240088
16.17564 261.03234936269
16.19576 253.037827493398
16.21587 241.995840862241
16.23598 251.995265682014
16.2561 237
16.27621 214.014136150518
16.29633 271.037556011475
16.31644 252.975202236631
16.33655 262.005769505481
16.35667 247.989774596837
16.37678 268.007190782627
16.39689 239.002382856231
16.41701 261.002628170701
16.43712 231.962708201417
16.45724 218.031324786694
16.47735 247.049101686359
16.49746 248.009575079945
16.51758 250.988673452205
16.53769 252.014301912963
16.5578 228
16.57792 289.00084935052
16.59803 231.960429075222
16.61814 256.013113060067
16.63826 239.952014907381
16.65837 291.992677778302
16.67849 246.012565614254
16.6986 267
16.71871 259.99140970445
16.73883 243.968572906942
16.75894 231.028896106655
16.77905 251.039820499456
16.79917 210.02004328692
16.81928 239.963713551523
16.8394 252
16.85951 244.000665068608
16.87962 256.013060494391
16.89974 266.024181752087
16.91985 271.041547037346
16.93996 247.004625800281
16.96008 262.99827593321
16.98019 247.002259231689
17.00031 252.993220167389
17.02042 229.004974778701
17.04053 256.004135483085
17.06065 232.989358686963
17.08076 249.013054563239
17.10087 223.994749635123
17.12099 254.994924276278
17.1411 240
17.16121 269.008465333571
17.18133 262.995800623453
17.20144 262.95281563613
17.22156 227.019986069554
17.24167 254.940077533807
17.26178 269.024421605187
17.2819 238
17.30201 275.006743869247
17.32212 247.968565005133
17.34224 236.997807994637
17.36235 238.977686154149
17.38247 257.958025125012
17.40258 270.028332956786
17.42269 218.016919519051
17.44281 231.023614268874
17.46292 276.018022473814
17.48303 259.950585147925
17.50315 244.045760701988
17.52326 274.991146222402
17.54338 249.021263373195
17.56349 244.005961728716
17.5836 235
17.60372 268.977699516291
17.62383 218.016534311085
17.64394 284.046991938157
17.66406 248.030615513313
17.68417 270.005946309885
17.70428 234.01037680551
17.7244 261
17.74451 245.986241360737
17.76463 235.02117111116
17.78474 262.037938203008
17.80485 271.94949790164
17.82497 293.011251565857
17.84508 261.022804935543
17.86519 257.00440526044
17.88531 232.987242631058
17.90542 231.033341907251
17.92554 275.035177347202
17.94565 257.941255532985
17.96576 246.019980417668
17.98588 235.00495719633
18.00599 238.995556404903
18.0261 247
18.04622 254.015044041406
18.06633 271.00941048554
18.08645 260.951567430114
18.10656 251.970968452127
18.12667 273.004155904422
18.14679 253.998622078135
18.1669 278
18.18701 255.98832956202
18.20713 256.031704461138
18.22724 268.955206104155
18.24735 233.992693247466
18.26747 263.010648508798
18.28758 228.989200884225
18.3077 285
18.32781 261.985289211559
18.34792 256.001930708236
18.36804 245.947772154064
18.38815 225.967368410898
18.40826 257.980381030341
18.42838 240.010189618469
18.44849 256.986039972584
18.46861 265.988032628398
18.48872 233.999141033385
18.50883 252.983049294539
18.52895 221.017726500987
18.54906 264.962704963236
18.56917 248.001999156057
18.58929 275.99034194165
18.6094 269
18.62951 263.998947737048
18.64963 257.983230285495
18.66974 245.986147155731
18.68986 241.023467492131
18.70997 233.972828722963
18.73008 268.977340600652
18.7502 269
18.77031 278.010483704109
18.79042 293.994920910729
18.81054 269.950722702716
18.83065 259.001707836516
18.85077 259.007926069638
18.87088 253.993078742296
18.89099 270.993324156727
18.91111 267.990733183388
18.93122 254.01005880065
18.95133 280.021339004891
18.97145 277.003923222011
18.99156 280.040760113932
19.01168 243.021424493996
19.03179 257.979846477107
19.0519 289
19.07202 261.981931722816
19.09213 262.996031424144
19.11224 248.979533873432
19.13236 258.937078553208
19.15247 287.998936129968
19.17258 262.025095060349
19.1927 260
19.21281 272.99682788508
19.23293 263.027440580636
19.25304 313.105724045606
19.27315 325.111628944078
19.29327 261.044219536768
19.31338 278.975052957693
19.33349 283.002318494347
19.35361 285.00577162445
19.37372 291.985314195093
19.39384 273.022719685532
19.41395 312.073268518364
19.43406 308.048281558865
19.45418 289.998483500051
19.47429 309.988033012312
19.4944 327
19.51452 331.988985867326
19.53463 320.014924731786
19.55475 335.958052710825
19.57486 318.892269429714
19.59497 409.966810963521
19.61509 358.012629656232
19.6352 407
19.65531 452.012967403107
19.67543 482.075312258443
19.69554 539.066079732385
19.71565 552.927157604985
19.73577 590.992221211994
19.75588 569.998886064812
19.776 604
19.79611 610.001121875697
19.81622 630.039693807727
19.83634 658.970385716769
19.85645 605.13647495549
19.87656 600.879315556096
19.89668 672.984385938426
19.91679 648.989621958046
19.93691 708.002817114188
19.95702 641.935534401893
19.97713 612.953211240796
19.99725 580.01045368885
20.01736 602.036373424872
20.03747 549.035935300273
20.05759 581.973017956976
20.0777 602
20.09782 562.02166685404
20.11793 622.010698215976
20.13804 565.922425016902
20.15816 578.960763966573
20.17827 584.974362281034
20.19838 616.974662993821
20.2185 615
20.23861 578.988298312191
20.25872 588.041943852299
20.27884 624.985853674273
20.29895 583.070799052187
20.31907 592.962507701527
20.33918 606.003087273916
20.35929 594.004787871945
20.37941 595.004274807599
20.39952 604.005222498018
20.41963 608.014032787855
20.43975 611.953003961741
20.45986 600.910559842338
20.47998 665.998985613652
20.50009 617.99886229036
20.5202 698
20.54032 738.01482802666
20.56043 751.020440810777
20.58054 794.196006981613
20.60066 915.828950872752
20.62077 992.771513356286
20.64088 1263.6568187587
20.661 1617
20.68111 2045.31959416527
20.70123 2812.00554520481
20.72134 3342.093436868
20.74145 4010.20491963636
20.76157 4656.24952452434
20.78168 4910.03711122604
20.80179 4703.10650626837
20.82191 4421.71610629147
20.84202 3533.99657796129
20.86214 2659.65060899297
20.88225 2065.30393877778
20.90236 1350.03802271403
20.92248 1078.18895096902
20.94259 862.089722691698
20.9627 763
20.98282 750.98271034516
21.00293 708.912242127719
21.02305 651.889401539784
21.04316 635.964373570227
21.06327 641.089246479414
21.08339 555.010536830445
21.1035 607
21.12361 592.982888804257
21.14373 571.98543707151
21.16384 576.044835928067
21.18395 590.065447686585
21.20407 539.042089312562
21.22418 554.9662916013
21.2443 575
21.26441 555.983405618697
21.28452 529.997831214351
21.30464 540.994323748129
21.32475 536.914493400204
21.34486 587.987738819499
21.36498 542.043205997503
21.38509 526.009190451443
21.40521 493.986732699473
21.42532 486.005187784237
21.44543 480.950427524826
21.46555 456.093689370682
21.48566 533.918135455676
21.50577 515.038526146197
21.52589 511.003445315562
21.546 482
21.56612 459.0328688461
21.58623 505.978388655334
21.60634 446.976986501061
21.62646 493.951335866669
21.64657 464.052881371858
21.66668 457.990833006768
21.6868 462
21.70691 431.97150739794
21.72702 384.002585129117
21.74714 427.063887832876
21.76725 419.0646703342
21.78737 412.955545377896
21.80748 443.021250990819
21.82759 388.009490193359
21.84771 424.020163274354
21.86782 434.997832725819
21.88793 425.96139412509
21.90805 392.949166407166
21.92816 394.970765114745
21.94828 408.990326144204
21.96839 419.989335148919
21.9885 433
22.00862 388.97971774931
22.02873 394.9868941887
22.04884 383.074515049357
22.06896 455.917740075625
22.08907 428.102029136526
22.10919 378.999340215896
22.1293 410
22.14941 375.977115047165
22.16953 367.069002125862
22.18964 423.004550975123
22.20975 372.099615456456
22.22987 379.956629005296
22.24998 398.995344799416
22.27009 391.00730818079
22.29021 383.003039783308
22.31032 391.993292144688
22.33044 370.969713476962
22.35055 372.019356538381
22.37066 377.989965247423
22.39078 379.006999872513
22.41089 380.984020117415
22.431 412
22.45112 360.998123479782
22.47123 411.040948482259
22.49135 391.962253625349
22.51146 395.028964669319
22.53157 366.006647432081
22.55169 385.997451100253
22.5718 374
22.59191 397.999490936443
22.61203 369.976215051868
22.63214 380.02187190627
22.65225 379.002578696019
22.67237 376.028196145432
22.69248 348.016200470354
22.7126 359
22.73271 366.970878611467
22.75282 298.018081795057
22.77294 385.0800066908
22.79305 354.027609572091
22.81316 382.009967898746
22.83328 339.013333906351
22.85339 370.98733187829
22.87351 366.997802339825
22.89362 372.998275089834
22.91373 367.016896583904
22.93385 379.94397154029
22.95396 335.033860004204
22.97407 359.953904788287
22.99419 370.999251667996
23.0143 365
23.03442 345.00793779395
23.05453 372.01654659007
23.07464 357.973095119801
23.09476 357.003904472667
23.11487 344.030621851208
23.13498 340.964158046819
23.1551 387
23.17521 349.985154029148
23.19532 356.021166066757
23.21544 364.979517696381
23.23555 346.02479958426
23.25567 352.97869835552
23.27578 356.017056637761
23.29589 332.004280576737
23.31601 346.010700494948
23.33612 360.006498337743
23.35623 362.000503317121
23.37635 354.942934030729
23.39646 337.961341636979
23.41658 375.991733159376
23.43669 341.021638771611
23.4568 327
23.47692 343.977744300253
23.49703 309.024838439538
23.51714 375.098007808815
23.53726 378.013550368237
23.55737 369.06001659738
23.57749 326.992585618704
23.5976 379
23.61771 347.001620783567
23.63783 389.009807318146
23.65794 348.952275774093
23.67805 366.942199175738
23.69817 375.982012867893
23.71828 390.999455744448
23.73839 377.005548651965
23.75851 389.018940327537
23.77862 416.978937816705
23.79874 372.996970090822
23.81885 410.016863586283
23.83896 386.967647947929
23.85908 439.982015765177
23.87919 402.021575577696
23.8993 403
23.91942 467.060378752102
23.93953 482.929316163008
23.95965 413.924085406867
23.97976 417.055841156305
23.99987 362.019288469032
24.01999 392.996355504563
24.0401 355
24.06021 358.018500249382
24.08033 395.012824376673
24.10044 372.94659457921
24.12056 365.976518023225
24.14067 379.998845831176
24.16078 371.99680368733
24.1809 389
24.20101 392.001779937798
24.22112 397.999403362725
24.24124 391.997600319537
24.26135 395.00883009556
24.28146 379.046804358388
24.30158 364.992381261761
24.32169 378.005080502117
24.34181 352.998651362786
24.36192 373.006117904259
24.38203 369.03888142262
24.40215 412.016905798384
24.42226 386.998737078471
24.44237 424.955746528695
24.46249 416.015956420867
24.4826 397
24.50272 440.044885897349
24.52283 451.954703048514
24.54294 423.050083682646
24.56306 473.015014143794
24.58317 422.993032119717
24.60328 496.939963051857
24.6234 511
24.64351 550.013021549696
24.66362 567.044914069221
24.68374 616.988613962446
24.70385 577.973338269643
24.72397 644.930319088737
24.74408 645.99330422604
24.76419 678.985904591738
24.78431 676.986541215713
24.80442 658.016834361492
24.82453 684.975338634827
24.84465 628.905088149852
24.86476 633.967491581504
24.88488 621.050714412627
24.90499 565.009589950146
24.9251 576
24.94522 542.98153759145
24.96533 539.960271233141
24.98544 500.997777660985
25.00556 525.027668183239
25.02567 468.06307580094
25.04579 472.986708746052
25.0659 496
25.08601 500.990087393433
25.10613 483.032004264216
25.12624 519.982848291706
25.14635 471.056398871485
25.16647 494.963531863496
25.18658 500.98512997416
25.20669 524.997146681373
25.22681 509.994618895347
25.24692 504.977680602079
25.26704 478.009008729085
25.28715 502.996610875081
25.30726 473.027820026814
25.32738 471.03835802838
25.34749 405.017734483961
25.3676 415
25.38772 408.995469536406
25.40783 418.021269633887
25.42795 427.003806002608
25.44806 423.010684946365
25.46817 430.952354568009
25.48829 460.005718195352
25.5084 408
25.52851 386.004439966451
25.54863 414.05552785315
25.56874 441.014354550892
25.58886 441.964653154254
25.60897 472.973719276411
25.62908 468.009996658157
25.6492 468
25.66931 480.007801615409
25.68942 489.995690997403
25.70954 481.00918272603
25.72965 480.109057773646
25.74976 430.958333745274
25.76988 509.95099333076
25.78999 494.014321165914
25.81011 489.001455031202
25.83022 500.034916885161
25.85033 531.978704028904
25.87045 483.93452818553
25.89056 503.929296574478
25.91067 530.962481637581
25.93079 536.01992107941
25.9509 494
25.97102 572.051073079147
25.99113 564.974862676156
26.01124 589.133838982543
26.03136 653.971645348563
26.05147 629.007384819429
26.07158 656.985746291483
26.0917 661
26.11181 727.010249426877
26.13193 712.039967008259
26.15204 806.218645388796
26.17215 864.02695149789
26.19227 840.943643672017
26.21238 942.904191895187
26.23249 992.983488825032
26.25261 1067.0711748674
26.27272 1224.08716628894
26.29283 1268.16303139705
26.31295 1486.6525084399
26.33306 1789.1982864785
26.35318 2249.58870246569
26.37329 2696.66925272986
26.3934 3657
26.41352 4926.42094267444
26.43363 6534.63585678074
26.45374 8560.78183491261
26.47386 11232.6214148345
26.49397 14021.2881450228
26.51409 17350.50329311
26.5342 19688
26.55431 21007.3841201293
26.57443 20931.2796120202
26.59454 18777.3436574687
26.61465 15634.3457274545
26.63477 12230.022649257
26.65488 9014.014844335
26.67499 6271.18477938024
26.69511 4207.07737239206
26.71522 2639.91838446997
26.73534 1972.00523114207
26.75545 1495.13457436616
26.77556 1272.41196661782
26.79568 1080.06775198242
26.81579 1090.03345734729
26.8359 936
26.85602 933.978067991897
26.87613 843.860315595428
26.89625 789.911991137437
26.91636 750.091948292071
26.93647 714.010838973428
26.95659 714.016406603139
26.9767 642
26.99681 578.967671747226
27.01693 537.032527326462
27.03704 583.986380826061
27.05716 526.053770262175
27.07727 550.975687952597
27.09738 534.0139156497
27.1175 517
27.13761 444.998319811269
27.15772 498.018983214104
27.17784 464.973783319728
27.19795 508.835463186025
27.21806 540.053038422315
27.23818 479.048680100345
27.25829 466.998369852316
27.27841 474.010339993778
27.29852 489.982665427442
27.31863 445.947362170552
27.33875 456.14132049305
27.35886 518.947169233177
27.37897 512.989063547659
27.39909 538.998021731675
27.4192 506
27.43932 484.007837994252
27.45943 483.920432443514
27.47954 419.020168714855
27.49966 476.02264370685
27.51977 392.068394944922
27.53988 409.006705222998
27.56 374
27.58011 427.993920909347
27.60023 360.986269402424
27.62034 416.027176452217
27.64045 361.111964809728
27.66057 368.96194200672
27.68068 386.979215158176
27.70079 396.013954822484
27.72091 348.988782279217
27.74102 362.016295357815
27.76113 367.016409407303
27.78125 377.969255875233
27.80136 354.001021068697
27.82148 375.991514398723
27.84159 361.006235052454
27.8617 363
27.88182 369.026047229991
27.90193 391.96972887788
27.92204 340.941565136451
27.94216 353.952875544616
27.96227 363.994540798359
27.98239 363.005605423807
28.0025 348
28.02261 356.008216636871
28.04273 368.000709591656
28.06284 354.957147801728
28.08295 339.002990380772
28.10307 348.987350396115
28.12318 349.002662932813
28.1433 345
28.16341 332.996878335706
28.18352 332.998883877052
28.20364 322.961622248143
28.22375 313.045504868534
28.24386 342.988060446802
28.26398 327.997511696046
28.28409 343.007995162532
28.3042 301
28.32432 323.032432594335
28.34443 339.003960604449
28.36455 344.049199870657
28.38466 360.037324080802
28.40477 322.016182336287
28.42489 332.011016282921
28.445 277
28.46511 287.01457280975
28.48523 311.030365975841
28.50534 311.928765999851
28.52546 270.993838770792
28.54557 314.951147864899
28.56568 304.034648647675
28.5858 287
28.60591 326.005034823051
28.62602 304.990805730836
28.64614 324.041737290224
28.66625 325.036459057274
28.68636 311.996833034998
28.70648 326.985955695406
28.72659 329.003503061139
28.74671 319.996557268431
28.76682 310.980813437003
28.78693 290.995569079916
28.80705 303.018123431253
28.82716 311.927328103954
28.84727 347.032153127588
28.86739 286.013850334343
28.8875 322
28.90762 339.958492342429
28.92773 280.978878224688
28.94784 310.017339778597
28.96796 289.987373257318
28.98807 320.00606936871
29.00818 280.019669867623
29.0283 301
29.04841 307.999902792058
29.06853 312.011676550577
29.08864 310.955937716156
29.10875 282.022479327892
29.12887 285.029093519581
29.14898 261.973005825709
29.16909 325.983235622841
29.18921 304.983677251006
29.20932 301.022560198771
29.22943 327.012196194847
29.24955 308.921470960211
29.26966 296.944080905877
29.28978 342.978871143268
29.30989 326.012885233602
29.33 309
29.35012 282.975463686019
29.37023 276.028857930685
29.39034 320.116508536143
29.41046 347.080891774476
29.43057 276.042105898532
29.45069 303.988041394162
29.4708 300
29.49091 320.003931792305
29.51103 295.928757343675
29.53114 263.024008964603
29.55125 300.964448416636
29.57137 286.000555421303
29.59148 306.994943541706
29.6116 292
29.63171 308.002623524542
29.65182 293.986745960777
29.67194 295.018057763146
29.69205 306.032498663383
29.71216 317.985035548603
29.73228 314.019177951531
29.75239 290.007136794265
29.7725 294
29.79262 301.983874860635
29.81273 275.991216053484
29.83285 293.032159549127
29.85296 292.989954747934
29.87307 304.000331603977
29.89319 294.999030116627
29.9133 306
29.93341 288.993245522232
29.95353 285.993918811766
29.97364 286.041560445085
29.99376 316.973611827844
30.01387 304.03013927342
30.03398 294.998484839844
30.0541 302
30.07421 313.01009629515
30.09432 319.964916167072
30.11444 270.989390615956
30.13455 314.89727706061
30.15467 316.037334075336
30.17478 304.971242716495
30.19489 337.013817817421
30.21501 269.988774317439
30.23512 310.0370907804
30.25523 299.945138541394
30.27535 267.959488171252
30.29546 268.982068416957
30.31557 273.006990037218
30.33569 266.998115007383
30.3558 286
30.37592 301.987200281894
30.39603 274.984838221529
30.41614 279.975399358922
30.43626 260.96487010845
30.45637 299.001725041402
30.47648 269.985783708015
30.4966 324
30.51671 296.995944042095
30.53683 320.002938144521
30.55694 292.976121371631
30.57705 304.997439373574
30.59717 285.023873997886
30.61728 287.98816415332
30.63739 292.005279876809
30.65751 289.016732053971
30.67762 331.996144803619
30.69773 285.959116011432
30.71785 306.088990657674
30.73796 321.021547494073
30.75808 298.016576679072
30.77819 298.994315266457
30.7983 307
30.81842 296.990934287746
30.83853 292.994856023888
30.85864 293.021729569764
30.87876 306.996685811355
30.89887 293.026391728008
30.91899 283.999967542741
30.9391 282
30.95921 269.008655522461
30.97933 297.991065026707
30.99944 260.964635888633
31.01955 272.994781033109
31.03967 259.990294525199
31.05978 282.001240759688
31.0799 258
31.10001 277.007804705753
31.12012 275.998556334818
31.14024 289.052111298325
31.16035 295.114732855685
31.18046 241.965449202141
31.20058 306.988198428138
31.22069 252.017183881189
31.2408 267
31.26092 243.985657495478
31.28103 254.018769898335
31.30115 254.99266494842
31.32126 262.948179541801
31.34137 287.0079262863
31.36149 257.011208410197
31.3816 259
31.40171 270.007853725857
31.42183 281.991637548902
31.44194 268.001030249702
31.46206 282.987191866105
31.48217 265.052689301231
31.50228 239.994185252244
31.5224 268
31.54251 267.99759309315
31.56262 270.004611800515
31.58274 267.972665311781
31.60285 242.082961637051
31.62297 219.994857277971
31.64308 244.971787885005
31.66319 263.992467350931
31.68331 282.010994268757
31.70342 290.977537891609
31.72353 261.007639872672
31.74365 288.990792135975
31.76376 250.046122143245
31.78387 259.98563358974
31.80399 255.000133173589
31.8241 273
31.84422 294.998433667475
31.86433 274.97272798974
31.88444 274.023425784265
31.90456 282.015562831738
31.92467 258.042568146554
31.94478 255.956367340818
31.9649 307
31.98501 256.979965729773
32.00513 262.039347128855
32.02524 283.025504178313
32.04535 287.006742869195
32.06547 279.020928109067
32.08558 270.989235580494
32.10569 288.999674708545
32.12581 273.997829145774
32.14592 285.004842360189
32.16604 275.981756374815
32.18615 282.05703801752
32.20626 303.997368970736
32.22638 288.010355438183
32.24649 291.997870595897
32.2666 289
32.28672 285.992610237968
32.30683 281.014062956605
32.32694 302.03552268655
32.34706 300.047283676828
32.36717 274.010158122125
32.38729 283.998605201067
32.4074 285
32.42751 331.011845278383
32.44763 322.98520856149
32.46774 318.959984878558
32.48785 292.998731606912
32.50797 320.963969701125
32.52808 319.018904567989
32.5482 303
32.56831 310.000117162629
32.58842 306.010054989878
32.60854 326.014709395359
32.62865 317.016571164469
32.64876 318.009446538285
32.66888 298.031087830471
32.68899 282.98768378335
32.7091 321
32.72922 285.979969815376
32.74933 296.006895075586
32.76945 286.003897547398
32.78956 306.95629586414
32.80967 311.021717224738
32.82979 299.992355484469
32.8499 325
32.87001 295.99630130489
32.89013 320.029540658878
32.91024 330.060021640307
32.93036 354.076552765725
32.95047 284.021503843509
32.97058 337.952674812464
32.9907 330
33.01081 309.008192492341
33.03092 334.986955909246
33.05104 304.04157588902
33.07115 366.937386720543
33.09127 343.007191946481
33.11138 373.985133966706
33.13149 354.010855042055
33.15161 343.991206989207
33.17172 316.981563217584
33.19183 326.056605569483
33.21195 357.974722106195
33.23206 318.042109851569
33.25217 323.014795764137
33.27229 294.005479442925
33.2924 323
33.31252 352.972266167151
33.33263 293.955697445647
33.35274 317.077622885262
33.37286 331.030664275057
33.39297 307.011315412337
33.41308 318.990470020697
33.4332 316
33.45331 304.981691811464
33.47343 278.055193257234
33.49354 347.030419394596
33.51365 293.13118344696
33.53377 290.958483335433
33.55388 312.001713285153
33.57399 286.017806355258
33.59411 270.009422414321
33.61422 305.016995277639
33.63434 293.969347132409
33.65445 291.006544001191
33.67456 295.978467644489
33.69468 304.00695388583
33.71479 290.998902436092
33.7349 308
33.75502 287.948524857118
33.77513 243.002698780694
33.79524 274.005599766223
33.81536 236.067107297693
33.83547 233.981603692317
33.85559 242.997342408215
33.8757 261
33.89581 309.001659840225
33.91593 265.931667002314
33.93604 250.00599100253
33.95615 258.968435917117
33.97627 267.004276180202
33.99638 264.983250784713
34.0165 298
34.03661 302.991777236604
34.05672 281.989736852502
34.07684 276.959816457346
34.09695 251.996932690603
34.11706 276.969425902136
34.13718 269.011445193274
34.15729 272.99071638671
34.17741 289.999901563722
34.19752 275.991127597187
34.21763 281.013335612086
34.23775 287.015356132734
34.25786 295.977626834113
34.27797 299.02273411732
34.29809 270.014008667869
34.3182 265
34.33831 303.01175975894
34.35843 288.927538130548
34.37854 252.034919047373
34.39866 305.942341840218
34.41877 298.989386628295
34.43888 325.997572936127
34.459 293
34.47911 292.017116033291
34.49922 329.00505843883
34.51934 303.962388856601
34.53945 318.899727013098
34.55957 351.997730025276
34.57968 332.007113899904
34.59979 348.991053061188
34.61991 356.003591472193
34.64002 367.007127895747
34.66013 366.995655523477
34.68025 375.071022298667
34.70036 403.006835960998
34.72047 377.013510292182
34.74059 409.969939138593
34.7607 447
34.78082 404.012628140173
34.80093 472.070688036903
34.82104 470.997043275111
34.84116 485.00504021972
34.86127 469.987227255577
34.88138 495.998896583678
34.9015 463
34.92161 450.999610825609
34.94173 447.987960188894
34.96184 450.059887609886
34.98195 475.077830187569
35.00207 415.014750753567
35.02218 453.992609256791
35.04229 415.00975965831
35.06241 425.993503909224
35.08252 383.978822529074
35.10264 411.106348220051
35.12275 446.991235269587
35.14286 416.048282340309
35.16298 424.965432742979
35.18309 457.994443437922
35.2032 438
35.22332 406.997311108623
35.24343 427.027324901128
35.26354 422.954892232632
35.28366 406.975295073223
35.30377 424.035525517626
35.32389 379.998928311224
35.344 423
35.36411 399.00322157482
35.38423 448.055376105872
35.40434 439.935847923963
35.42445 416.009916133715
35.44457 430.968082714769
35.46468 444.994610714998
35.4848 442
35.50491 440.009759317546
35.52502 473.024454087663
35.54514 457.872357502623
35.56525 409.89282698604
35.58536 500.958296196068
35.60548 445.020863661136
35.62559 491.982213595022
35.64571 462.966165385021
35.66582 418.014321632027
35.68593 481.09662842579
35.70605 516.050921125291
35.72616 507.136070036871
35.74627 426.025042915811
35.76639 474.980662877363
35.7865 460
35.80661 440.00155022642
35.82673 455.013868189001
35.84684 451.991268024786
35.86696 452.001462901976
35.88707 447.011393838007
35.90718 448.977853163985
35.9273 475
35.94741 447.982482648513
35.96752 432.009368012779
35.98764 457.049054971703
36.00775 464.030064084033
36.02787 441.036349531569
36.04798 420.022377357616
36.06809 412.984927990042
36.08821 459.009036534072
36.10832 443.989973144454
36.12843 447.983902981022
36.14855 424.990360336008
36.16866 445.959780304666
36.18878 444.019961741448
36.20889 438.980543673582
36.229 492
36.24912 482.05971036495
36.26923 610.159589080803
36.28934 647.013555953727
36.30946 692.773498457793
36.32957 862.723871795634
36.34968 1009.90330039444
36.3698 1120
36.38991 1362.08387953479
36.41003 1461.2252837025
36.43014 1663.26108809307
36.45025 1678.06306872296
36.47037 1663.04552703289
36.49048 1574.16356647061
36.51059 1378.08287302584
36.53071 1237.91171398184
36.55082 1027.82711651137
36.57094 907.76660213424
36.59105 779.748153024795
36.61116 684.294290664388
36.63128 508.120852029762
36.65139 468.007266140618
36.6715 439
36.69162 418.976521949241
36.71173 402.015815828098
36.73184 418.96284513023
36.75196 370.062636061475
36.77207 376.971684387497
36.79219 396.98182577174
36.8123 434
36.83241 409.989557067224
36.85253 394.941920881014
36.87264 349.99306809697
36.89275 376.010281991762
36.91287 344.992383091993
36.93298 397.950840020835
36.9531 395
36.97321 351.010114503754
36.99332 403.998440285823
37.01344 348.959561704341
37.03355 381.958223295847
37.05366 352.075108035274
37.07378 344.977007195811
37.09389 373.994451923282
37.11401 364.996194206165
37.13412 360.980575699003
37.15423 335.998041178653
37.17435 362.0696349173
37.19446 359.082709916955
37.21457 313.01304521222
37.23469 335.996430758258
37.2548 321
37.27491 347.004787901329
37.29503 334.999120980756
37.31514 350.00375415011
37.33526 336.007718322376
37.35537 344.006418119206
37.37548 333.984905925886
37.3956 366
37.41571 347.994518503671
37.43582 356.004651535353
37.45594 353.014513913241
37.47605 369.980034146336
37.49617 358.036494398322
37.51628 346.979277064058
37.53639 374.005475993673
37.55651 330.987735373855
37.57662 350.037597624928
37.59673 378.021632288281
37.61685 376.962937807923
37.63696 366.975946031884
37.65708 388.000394333299
37.67719 366.006663285359
37.6973 367
37.71742 346.992673010592
37.73753 360.026325935276
37.75764 369.005517110756
37.77776 368.009419708752
37.79787 365.989318913732
37.81798 381.982062676622
37.8381 382
37.85821 340.992080710832
37.87833 349.998495482617
37.89844 337.015559410482
37.91855 367.941642636998
37.93867 370.999769267329
37.95878 374.00602067534
37.97889 365.995476607928
37.99901 387.004285283893
38.01912 374.983457465639
38.03924 374.037736540018
38.05935 389.964767192932
38.07946 361.996562242134
38.09958 391.986694739596
38.11969 377.0050417543
38.1398 394
38.15992 422.012429863908
38.18003 416.978773918024
38.20015 398.93865482888
38.22026 394.907033535974
38.24037 461.960083030125
38.26049 439.010585995119
38.2806 451
38.30071 459.991336108172
38.32083 427.963009816864
38.34094 432.065193245861
38.36105 462.010968548923
38.38117 431.027257674432
38.40128 434.006613954986
38.4214 411
38.44151 419.010921390117
38.46162 438.008207732397
38.48174 427.944171887292
38.50185 408.957659296945
38.52196 441.001858221258
38.54208 396.051569998989
38.56219 378.988923424915
38.58231 406.997820866034
38.60242 381.001164076154
38.62253 402.981842442499
38.64265 356.938373218256
38.66276 373.951626899597
38.68287 381.996189902522
38.70299 382.005217730692
38.7231 367
38.74321 367.995411703352
38.76333 355.009661603758
38.78344 371.990972897932
38.80356 361.935234442443
38.82367 410.01741511334
38.84378 340.051086208712
38.8639 347
38.88401 367.010362448287
38.90412 389.014759923887
38.92424 382.935755110746
38.94435 350.998744380728
38.96447 391.914375125134
38.98458 428.996067997409
39.00469 402.021383635083
39.02481 371.998527807961
39.04492 388.012810661367
39.06503 397.039459935855
39.08515 425.988571243293
39.10526 403.974513740523
39.12538 453.962860543778
39.14549 463.99107109128
39.1656 512
39.18572 568.0343752812
39.20583 600.090900634292
39.22594 682.127465830228
39.24606 754.708555627521
39.26617 945.789924234375
39.28628 1028.88754359916
39.3064 1209
39.32651 1377.07321761602
39.34663 1496.11387378547
39.36674 1543.09025893139
39.38685 1569.09660936208
39.40697 1444.27871562385
39.42708 1263.13114312267
39.44719 1155.07627913934
39.46731 970.934968517429
39.48742 902.920814427992
39.50754 784.782841014583
39.52765 692.717117563479
39.54776 556.241315486054
39.56788 467.077114823976
39.58799 395.025782715398
39.6081 370
39.62822 373.010825640994
39.64833 374.966738046022
39.66845 337.933132298287
39.68856 329.015745428708
39.70867 313.024201232028
39.72879 305.998133706438
39.7489 316
39.76901 315.992804776677
39.78913 295.981596196202
39.80924 289.971850056768
39.82935 274.985092647253
39.84947 306.938579248667
39.86958 325.020504596304
39.8897 297
39.90981 339.008262012482
39.92992 322.999972621876
39.95004 354.057012068928
39.97015 359.016627142679
39.99026 358.974322948062
40.01038 386.96128081944
40.03049 420.99134573202
40.05061 441.026660984172
40.07072 516.053063393075
40.09083 553.102971674973
40.11095 662.271198554256
40.13106 740.885189470264
40.15117 799.891148045524
40.17129 868.982845445146
40.1914 887
40.21152 940.980553376166
40.23163 846.861873615738
40.25174 795.910398184837
40.27186 733.136130062936
40.29197 664.114140252211
40.31208 589.057371623062
40.3322 546
40.35231 472.949065130296
40.37242 382.967717597241
40.39254 392.984859743165
40.41265 353.066675576161
40.43277 356.989537203294
40.45288 345.025101310445
40.47299 323.004004184776
40.49311 326.000184426818
40.51322 313.979618309756
40.53333 301.009827652332
40.55345 316.000585794751
40.57356 303.997146428938
40.59368 325.976105862956
40.61379 329.011186726624
40.6339 295
40.65402 296.031361126782
40.67413 322.977518196821
40.69424 279.961076320756
40.71436 292.993406826829
40.73447 282.977133216691
40.75458 314.99880314453
40.7747 278
40.79481 281.018185880964
40.81493 325.044337178593
40.83504 322.941047245581
40.85515 294.010012111903
40.87527 311.980727569943
40.89538 306.011505174778
40.91549 300.001315995777
40.93561 306.011017436506
40.95572 325.992097548172
40.97584 308.030993308647
40.99595 343.999937346382
41.01606 307.036566917807
41.03618 320.995346846074
41.05629 299.012082468008
41.0764 290
41.09652 294.011334699897
41.11663 306.004438902363
41.13675 307.039027431928
41.15686 321.041148599252
41.17697 290.971746325172
41.19709 331.012673347156
41.2172 246
41.23731 280.039864679916
41.25743 329.974986313158
41.27754 276.955203618037
41.29765 306.906513795916
41.31777 313.029633753367
41.33788 294.99402570492
41.358 311
41.37811 267.977226793838
41.39822 263.049287475648
41.41834 324.031285289677
41.43845 299.011152887169
41.45856 323.001724531943
41.47868 290.018597539988
41.49879 295.004195021056
41.51891 267.993274273633
41.53902 285.032460812658
41.55913 312.022424389991
41.57925 301.89570963142
41.59936 262.988330352919
41.61947 293.012171075467
41.63959 257.993968799302
41.6597 316
41.67982 284.954782061388
41.69993 269.018456143857
41.72004 288.010160941719
41.74016 281.987725203204
41.76027 297.004173507709
41.78038 276.012758627326
41.8005 282
41.82061 291.010816643056
41.84072 312.997035009419
41.86084 287.962305971416
41.88095 284.02011589865
41.90107 279.959041796984
41.92118 317.002871900076
41.94129 274.016745446959
41.96141 284.019153391608
41.98152 306.97869616374
42.00163 275.029894394414
42.02175 327.003915566066
42.04186 277.040374703993
42.06198 305.98334547837
42.08209 302.98439461549
42.1022 368
42.12232 370.997861282805
42.14243 391.050798359778
42.16254 424.049841842333
42.18266 445.939540485662
42.20277 494.901504994268
42.22289 570.959939974107
42.243 658
42.26311 765.048681342119
42.28323 854.142809009813
42.30334 967.249866308374
42.32345 1085.76003329302
42.34357 1147.95514861496
42.36368 1148.030218441
42.38379 1068.0738120131
42.40391 911.958257569426
42.42402 887.944471324964
42.44414 771.774812118035
42.46425 713.967461844086
42.48436 686.182251370377
42.50448 555.096383055703
42.52459 501.037870560074
42.5447 394
42.56482 354.964662711851
42.58493 308.953079140944
42.60505 293.94624113681
42.62516 270.991988538328
42.64527 293.991504301205
42.66539 281.996821376474
42.6855 304
42.70561 269.981444382213
42.72573 258.018732908504
42.74584 269.974427194237
42.76595 250.955660503677
42.78607 289.997782329161
42.80618 244.044220409421
42.8263 239
42.84641 264.005714381233
42.86652 261.999794349273
42.88664 266.996731700434
42.90675 258.012849114563
42.92686 265.961576615179
42.94698 276.018041594715
42.96709 244.006287836238
42.98721 263.014737806445
43.00732 267.966215857115
43.02743 220.970257672172
43.04755 240.074545604268
43.06766 251.019988951969
43.08777 235.00741605504
43.10789 256.976226166541
43.128 288
43.14812 227.974485754981
43.16823 242.992707639086
43.18834 212.999952102763
43.20846 249.948889277276
43.22857 241.028261578077
43.24868 244.965125656119
43.2688 279
43.28891 241.992885874637
43.30902 260.007693400427
43.32914 245.99060523089
43.34925 254.01690340225
43.36937 233.010433983995
43.38948 252.96854234073
43.40959 269.005720254832
43.42971 239.987796591333
43.44982 239.019604958157
43.46993 259.004103248823
43.49005 246.983017912585
43.51016 262.927647471907
43.53028 292.003754350858
43.55039 258.017951095722
43.5705 245
43.59062 260.013565929442
43.61073 256.96160271671
43.63084 234.022327111826
43.65096 267.972893191971
43.67107 247.040186555475
43.69119 238.996485941531
43.7113 252
43.73141 258.999235317761
43.75153 250.984348859998
43.77164 238.96710619934
43.79175 234.929074739258
43.81187 273.988991815257
43.83198 246.0246223563
43.85209 243.999224976339
43.87221 237.997267640104
43.89232 238.002422425237
43.91244 238.99751164231
43.93255 240.021328570278
43.95266 250.00018750007
43.97278 245.990329469399
43.99289 263.998430095221
44.013 250
44.03312 247.990075159122
44.05323 226.971822289143
44.07335 232.093681826152
44.09346 279.946554901775
44.11357 288.962113739379
44.13369 310.019170746269
44.1538 236
44.17391 262.007435126776
44.19403 236.960027777389
44.21414 237.034576016611
44.23426 253.983795693491
44.25437 247.030021496666
44.27448 230.996635811083
44.2946 249
44.31471 247.998862701298
44.33482 251.002677324988
44.35494 254.01896580019
44.37505 261.026870943674
44.39516 235.046323979942
44.41528 231.983271702346
44.43539 250.998045868243
44.45551 239.995786960413
44.47562 246.014929681385
44.49573 260.012626601393
44.51585 257.96784016264
44.53596 240.032967067773
44.55607 233.988978927718
44.57619 244.000532626092
44.5963 237
44.61642 252.001347347835
44.63653 241.000849172403
44.65664 260.040825333029
44.67676 264.027150785694
44.69687 248.998545916251
44.71698 258.008331367317
44.7371 232
44.75721 245.021331444649
44.77732 284.002831129858
44.79744 252.939411750278
44.81755 251.942929453673
44.83767 272.006362574626
44.85778 261.975858501192
44.87789 307.992523323579
44.89801 270.971504262059
44.91812 240.010146939022
44.93823 273.033805062988
44.95835 263.927812866676
44.97846 243.987000946521
44.99858 267.985002469853
45.01869 260.009337993481
45.0388 247
45.05892 254.012558770297
45.07903 260.991720581749
45.09914 258.042875624939
45.11926 292.970026931867
45.13937 279.028491492905
45.15949 276.993392125385
45.1796 285
45.19971 263.004535907902
45.21983 296.018901002838
45.23994 286.017906802944
45.26005 313.987135257399
45.28017 295.999626958332
45.30028 319.988377509247
45.32039 300.017348162961
45.34051 281.005405365615
45.36062 306.009404960493
45.38074 295.992502911326
45.40085 310.044279027315
45.42096 324.961525550231
45.44108 344.990443108921
45.46119 351.988411665936
45.4813 377
45.50142 348.99507559956
45.52153 397.129736863732
45.54165 468.035391118843
45.56176 464.881622829262
45.58187 584.853180078163
45.60199 629.97893012377
45.6221 703
45.64221 783.035555997137
45.66233 829.008564637403
45.68244 816.008661564119
45.70256 834.016334009504
45.72267 800.029206118671
45.74278 794.033479111728
45.7629 707
45.78301 604.982778030321
45.80312 607.966398358308
45.82324 523.853631901618
45.84335 488.077918629591
45.86346 446.068437503801
45.88358 423.026103562333
45.90369 371.042603845972
45.92381 293.991006814094
45.94392 325.020006217258
45.96403 303.951419230409
45.98415 289.005395110453
46.00426 295.006094055808
46.02437 283.011832581235
46.04449 284.997653036632
46.0646 289
46.08472 297.003092058395
46.10483 283.948426066566
46.12494 248.98217639628
46.14506 268.949780976552
46.16517 270.043386301716
46.18528 243.983870012149
46.2054 281
46.22551 250.006936779429
46.24563 296.992990387209
46.26574 246.990764839315
46.28585 294.957635741253
46.30597 261.032047442669
46.32608 283.964472006231
46.34619 291.015604340979
46.36631 252.998460592591
46.38642 277.001837281583
46.40653 248.975435093292
46.42665 259.02529121693
46.44676 259.98273427003
46.46688 267.020865529107
46.48699 238.99386714525
46.5071 278
46.52722 247.996568607851
46.54733 278.014164272886
46.56744 258.996530996048
46.58756 274.028883168618
46.60767 238.004782954305
46.62779 274.985079968069
46.6479 273
46.66801 263.992103753205
46.68813 241.973506807553
46.70824 245.059737307876
46.72835 278.979030892094
46.74847 258.037218104209
46.76858 249.995706434705
46.78869 256.997703053665
46.80881 256.999116996484
46.82892 259.008455177778
46.84904 265.989605324461
46.86915 250.970805084088
46.88926 256.950100530041
46.90938 282.99266983872
46.92949 269.009172404449
46.9496 253
46.96972 235.010857707591
46.98983 274.064383883103
47.00995 283.908766030085
47.03006 229.061836283448
47.05017 247.920280447953
47.07029 292.995416670648
47.0904 270
47.11051 264.000236252381
47.13063 256.974980417906
47.15074 236.971207500096
47.17086 238.959025140174
47.19097 266.967053047186
47.21108 270.015716825658
47.2312 255
47.25131 267.99450079431
47.27142 244.005935325901
47.29154 281.05244031659
47.31165 277.030913662789
47.33176 267.037241275724
47.35188 245.00858005215
47.37199 258.985511582454
47.39211 270.985103366909
47.41222 232.009568410857
47.43233 281.032427292949
47.45245 250.900756481648
47.47256 236.987947682469
47.49267 250.976235135211
47.51279 264.992910806786
47.5329 269
47.55302 245.00147098082
47.57313 268.015159904451
47.59324 253.969573151839
47.61336 256.964323784832
47.63347 270.012536241732
47.65358 254.990231512267
47.6737 275
47.69381 237.000161705753
47.71393 283.057975999988
47.73404 280.952208944438
47.75415 262.014062899904
47.77427 263.010698142947
47.79438 253.989683646928
47.81449 279.991748314851
47.83461 275.994686690079
47.85472 264.981243110554
47.87483 250.012071540175
47.89495 268.996536254916
47.91506 257.957600896017
47.93518 296.00290228942
47.95529 252.013646987465
47.9754 258
47.99552 244.009050593167
48.01563 275.024155589416
48.03574 272.019916987959
48.05586 289.028407506891
48.07597 243.059598740248
48.09609 238.988126473116
48.1162 270
48.13631 266.97942692301
48.15643 218.980690505679
48.17654 250.08456197462
48.19665 271.003075231965
48.21677 253.042957049691
48.23688 234.991637151528
48.257 265
48.27711 267.983344170891
48.29722 227.991931342754
48.31734 255.053933976708
48.33745 260.996292761831
48.35756 257.030011607724
48.37768 243.989152752671
48.39779 265.002307205557
48.4179 237
48.43802 254.024629975945
48.45813 264.997292752089
48.47825 256.978680581343
48.49836 249.02340706734
48.51847 248.952690799384
48.53859 293.990192739035
48.5587 277
48.57881 263.998165457079
48.59893 262.998887142581
48.61904 260.995344556074
48.63916 266.956287561952
48.65927 278.051583906232
48.67938 230.991454076575
48.6995 287
48.71961 259.985560282637
48.73972 264.020258441362
48.75984 268.949289628523
48.77995 238.983368775503
48.80006 277.94860462757
48.82018 258.052434692063
48.84029 228.981044045224
48.86041 304.018923150734
48.88052 275.950750396945
48.90063 253.010499221313
48.92075 275.046084855655
48.94086 280.994624249197
48.96097 282.012637292835
48.98109 270.000872788641
49.0012 278
49.02132 276.005885348328
49.04143 282.981947465216
49.06154 258.982762009916
49.08166 271.972818571823
49.10177 272.010478433952
49.12188 269.991591595899
49.142 282
49.16211 273.995479486036
49.18223 276.022730644853
49.20234 295.022339541186
49.22245 290.044944300565
49.24257 266.038616304241
49.26268 252.989515359903
49.28279 271.000692494992
49.30291 257.003540184293
49.32302 278.997011307892
49.34313 263.034034514567
49.36325 314.042357826726
49.38336 284.055543860209
49.40348 276.019190285556
49.42359 258.985035960055
49.4437 311
49.46382 276.005628848295
49.48393 329.041595498538
49.50404 309.969178179746
49.52416 311.039406330172
49.54427 279.992782172957
49.56439 320.98502134365
49.5845 312
49.60461 299.010467327379
49.62473 334.016607257751
49.64484 332.066224404539
49.66495 391.927251866062
49.68507 377.023301563662
49.70518 386.981916412931
49.7253 389
49.74541 379.021058183642
49.76552 446.022763521334
49.78564 440.097586286582
49.80575 546.203238425977
49.82586 584.884245392283
49.84598 686.892955426459
49.86609 780.950512979732
49.8862 916
49.90632 1102.13662200632
49.92643 1230.31508689118
49.94655 1512.61906929186
49.96666 1723.45960899669
49.98677 2056.5579287226
50.00689 2231.96605071568
50.027 2247
50.04711 2269.01882086916
50.06723 2230.70012574291
50.08734 1935.53388937538
50.10746 1798.31563381737
50.12757 1576.31133926182
50.14768 1416.15246775487
50.1678 1279
50.18791 1227.93387308365
50.20802 1011.80088538273
50.22814 861.672766285211
50.24825 666.441598916034
50.26837 543.119541511538
50.28848 469.092948282827
50.30859 379.018991662345
50.32871 381.992493905524
50.34882 337.975508406404
50.36893 348.017503697516
50.38905 335.92926157159
50.40916 317.97592465336
50.42927 347.975804713316
50.44939 330.020279827308
50.4695 301
50.48962 341.049787198101
50.50973 370.001220582074
50.52984 348.941250282904
50.54996 321.058396087667
50.57007 299.99957336917
50.59018 311.99896662271
50.6103 288
50.63041 255.996241053751
50.65053 285.092093537927
50.67064 330.971599027571
50.69075 276.077824138208
50.71087 282.010920665523
50.73098 257.993394317968
50.75109 292.99324262857
50.77121 264.980151685614
50.79132 254.028974916539
50.81143 297.029161254895
50.83155 280.933962528323
50.85166 266.012253402203
50.87178 270.978710469547
50.89189 283.014173608736
50.912 232
50.93212 255.041583866524
50.95223 274.979171387152
50.97234 254.021662498689
50.99246 284.005419458815
51.01257 250.018147665285
51.03269 273.989502599465
51.0528 260
51.07291 234.013950954785
51.09303 291.034539774918
51.11314 261.926236603156
51.13325 249.994386904812
51.15337 241.051740507029
51.17348 205.995461936784
51.1936 241
51.21371 231.002846937969
51.23382 252.997007654177
51.25394 224.976489457008
51.27405 240.964656815123
51.29416 239.005999888972
51.31428 242.996194736654
51.33439 241.003124240824
51.3545 233
51.37462 224.993087542043
51.39473 227.027645012129
51.41485 250.01969472509
51.43496 234.057879470419
51.45507 226.941084146015
51.47519 277.000086649768
51.4953 231
51.51541 248.009880593335
51.53553 237.952427468673
51.55564 216.023177956718
51.57576 251.946300047519
51.59587 248.035622220766
51.61598 229.997428415094
51.6361 246
51.65621 242.001884095773
51.67632 254.001467398609
51.69644 243.992554774891
51.71655 252.974072082126
51.73667 249.034258589268
51.75678 225.002476445854
51.77689 236.003088529128
51.79701 212.995718741854
51.81712 233.03158061285
51.83723 248.984475091831
51.85735 227.986932620716
51.87746 238.002996414537
51.89757 226.987651729586
51.91769 253.991929715452
51.9378 242
51.95792 227.015369644315
51.97803 249.985739553574
51.99814 208.937286684675
52.01826 218.915512277219
52.03837 253.00942899228
52.05848 221.010813897812
52.0786 241
52.09871 238.003637556924
52.11883 252.989738387247
52.13894 227.980094641077
52.15905 237.002699253715
52.17917 216.032133521261
52.19928 210.990869519202
52.21939 232.982217756246
52.23951 259.997405928828
52.25962 231.982127991105
52.27974 240.034203105105
52.29985 245.97798363317
52.31996 228.035110516179
52.34008 226.977527106509
52.36019 253.99742040657
52.3803 240
52.40042 248.996857420452
52.42053 240.025118778372
52.44064 273.015947497122
52.46076 237.114351657563
52.48087 198.999776216558
52.50099 226.986798118845
52.5211 239
52.54121 247.990906810826
52.56133 208.954302876744
52.58144 211.059681965692
52.60155 242.969136499834
52.62167 236.007284678731
52.64178 240.998911554474
52.6619 241
52.68201 264.002856438582
52.70212 244.973552229501
52.72224 236.033159610595
52.74235 266.936219967657
52.76246 265.064529154671
52.78258 230.006634653365
52.80269 247.996044738832
52.8228 237
52.84292 246.00244361419
52.86303 239.000314405602
52.88315 249.014359570844
52.90326 247.992781181562
52.92337 260.976648294171
52.94349 266.006072578
52.9636 258
52.98371 291.996640422258
53.00383 246.954774602228
53.02394 255.034377747667
53.04406 262.981887274037
53.06417 277.977411452404
53.08428 283.00956168359
53.1044 264
53.12451 255.000039890302
53.14462 248.973405990768
53.16474 225.033528451963
53.18485 280.86367238132
53.20497 293.048457535696
53.22508 253.008586299562
53.24519 277.989157837711
53.26531 273.992273248205
53.28542 259.986422706533
53.30553 257.028596547021
53.32565 291.074999924865
53.34576 295.051372157521
53.36587 267.994033212308
53.38599 296.992269655647
53.4061 282
53.42622 281.032931506242
53.44633 313.981792124226
53.46644 271.976891579277
53.48656 305.931611260952
53.50667 302.053737332136
53.52678 269.99817925554
53.5469 298
53.56701 291.999126307956
53.58713 302.003846083917
53.60724 296.006686266394
53.62735 312.958191399898
53.64747 309.047263052151
53.66758 277.994996987096
53.68769 309.992859473502
53.70781 300.00181121404
53.72792 320.001159452978
53.74804 297.971314429674
53.76815 296.969287914114
53.78826 283.956714001062
53.80838 323.993709515431
53.82849 290.014359503026
53.8486 290
53.86872 294.012343312495
53.88883 315.027350960754
53.90894 317.972527193945
53.92906 306.974338886084
53.94917 334.98016937291
53.96929 328.999940142976
53.9894 338
54.00951 323.000468038596
54.02963 342.019462712568
54.04974 338.989581432415
54.06985 344.958267971391
54.08997 349.047610840795
54.11008 310.990996762002
54.1302 364
54.15031 356.983715437066
54.17042 335.003546690789
54.19054 358.042962087418
54.21065 358.051975791209
54.23076 337.996101603896
54.25088 355.99323011689
54.27099 348.998071894613
54.29111 374.015750201999
54.31122 387.986490038816
54.33133 354.948543223715
54.35145 332.966552526824
54.37156 328.9794458998
54.39167 344.987794320835
54.41179 348.991525094163
54.4319 371
54.45201 359.003160700828
54.47213 385.022343871503
54.49224 375.969282180296
54.51236 366.020092576048
54.53247 370.938918346577
54.55258 435.944167936444
54.5727 460
54.59281 469.017963149617
54.61292 523.04270428598
54.63304 543.028078000476
54.65315 576.845664546094
54.67327 659.868551664104
54.69338 753.883970781762
54.71349 856.981885007407
54.73361 829.983069406474
54.75372 841.05164657551
54.77383 899.049999422788
54.79395 887.887427847093
54.81406 833.099313325159
54.83417 772.152714189819
54.85429 662.026612557447
54.8744 670
54.89452 653.988921067376
54.91463 651.970841283509
54.93474 609.914613247112
54.95486 577.066325441772
54.97497 534.076425158538
54.99508 487.03165730947
55.0152 461
55.03531 413.987722618748
55.05543 420.024513125614
55.07554 432.025794415544
55.09565 447.961429221454
55.11577 461.977902007842
55.13588 475.990774729554
55.15599 496.973575897576
55.17611 557.010517848119
55.19622 544.003180003049
55.21634 584.094036743112
55.23645 601.954157092932
55.25656 551.143323797279
55.27668 488.03468396079
55.29679 480.000851424704
55.3169 468
55.33702 450.988050457413
55.35713 436.960228072099
55.37724 405.967232455393
55.39736 406.994849499249
55.41747 394.044426860842
55.43759 363.007663788449
55.4577 366
55.47781 356.984075821485
55.49793 313.947261740296
55.51804 295.981069353726
55.53815 299.922233956648
55.55827 332.01146212202
55.57838 288.036038266614
55.5985 281
55.61861 271.995175617619
55.63872 289.063085400934
55.65884 343.944373267471
55.67895 262.079985364237
55.69906 299.950431093603
55.71918 282.007121901089
55.73929 298.001151160536
55.75941 273.996266051544
55.77952 294.020344949291
55.79963 292.974064410912
55.81975 284.047476063871
55.83986 310.015887929264
55.85997 275.021341664151
55.88009 287.00201583749
55.9002 260
55.92031 265.999493888675
55.94043 259.023218314067
55.96054 285.997900630937
55.98066 262.004449837318
56.00077 283.993859192569
56.02088 265.005020336485
56.041 277
56.06111 248.988654414841
56.08122 254.027211501343
56.10134 282.024746153054
56.12145 275.03500983202
56.14157 265.010636533246
56.16168 261.996469812385
56.18179 274.988611105919
56.20191 292.998924532393
56.22202 273.982785700963
56.24213 271.008104111829
56.26225 266.936651117037
56.28236 243.969217521097
56.30248 288.970456345751
56.32259 285.005548054359
56.3427 279
56.36282 265.011389332209
56.38293 295.025987006096
56.40304 285.963608298435
56.42316 264.073485439177
56.44327 243.939912229965
56.46338 310.983630413894
56.4835 270
56.50361 284.006714793926
56.52373 264.938239598783
56.54384 239.033964978143
56.56395 281.940743220915
56.58407 271.02473088192
56.60418 269.99355629707
56.62429 269.007639939352
56.64441 245.991543194888
56.66452 247.017326671818
56.68464 265.008673242137
56.70475 254.972581868775
56.72486 254.980657997147
56.74498 271.976969919465
56.76509 287.003144196462
56.7852 261
56.80532 238.985624002845
56.82543 236.020375014591
56.84554 259.039698162713
56.86566 258.054487888699
56.88577 237.960413224258
56.90589 284.000549705864
56.926 234
56.94611 245.010034761126
56.96623 252.010885706739
56.98634 270.051212882823
57.00645 288.005927388964
57.02657 281.970717014726
57.04668 312.0042421189
57.0668 275
57.08691 278.999332899055
57.10702 269.010618527174
57.12714 298.031333652675
57.14725 284.070968262831
57.16736 267.983251995207
57.18748 290.984473952283
57.20759 288.005367056272
57.22771 279.997299430763
57.24782 268.975604232734
57.26793 244.997733179948
57.28805 260.009301651427
57.30816 241.050354046547
57.32827 241.935014243417
57.34839 290.999591999216
57.3685 250
57.38861 268.010466682583
57.40873 265.979828705622
57.42884 247.946223161561
57.44896 226.99047125988
57.46907 255.952168021353
57.48918 271.997958421845
57.5093 271
57.52941 276.996849878971
57.54952 255.975585496952
57.56964 243.00504297678
57.58975 253.979263197639
57.60987 259.977561672335
57.62998 276.999526358535
57.65009 263.003901523873
57.67021 260.99147058737
57.69032 243.016320988598
57.71043 274.990529954921
57.73055 237.984390683835
57.75066 267.979171581744
57.77078 244.017543739913
57.79089 256.986555991968
57.811 271
57.83112 251.996038637062
57.85123 265.011254166753
57.87134 258.98949808366
57.89146 253.044330326602
57.91157 232.975389017011
57.93168 270.990013556028
57.9518 256
57.97191 295.005835694827
57.99203 260.933416299692
58.01214 238.997727757534
58.03225 247.974734120468
58.05237 258.969507921719
58.07248 278.998932236385
58.09259 255.018208891618
58.11271 222.988741802118
58.13282 220.022064153794
58.15294 259.083659007067
58.17305 280.981392157291
58.19316 257.035881013636
58.21328 251.010151209497
58.23339 237.999081026937
58.2535 253
58.27362 243.981152631478
58.29373 242.050852370152
58.31385 285.014370838842
58.33396 257.02432382555
58.35407 273.98478535999
58.37419 256.015635330626
58.3943 231
58.41441 233.008025108378
58.43453 246.995343773615
58.45464 238.0223992242
58.47475 268.940769751314
58.49487 263.047263687382
58.51498 231.010918274865
58.5351 243
58.55521 238.986682112177
58.57532 218.016588381887
58.59544 256.022285397555
58.61555 235.025966000407
58.63566 251.963177448889
58.65578 258.991569669941
58.67589 265.006658767274
58.69601 241.997086431374
58.71612 260.021789596375
58.73623 274.021242526191
58.75635 280.960472526051
58.77646 249.050611484337
58.79657 237.020985823964
58.81669 230.986222843302
58.8368 272
58.85691 241.986317896069
58.87703 251.058096128676
58.89714 279.971765298655
58.91726 251.958546168493
58.93737 303.000004597046
58.95748 251.0232421172
58.9776 281
58.99771 267.982811967263
59.01782 241.994048012242
59.03794 253.027015007148
59.05805 261.971343891636
59.07817 269.017627114903
59.09828 250.997167245058
59.11839 274.990896765073
59.13851 274.998002605316
59.15862 272.991824637543
59.17873 254.965412880074
59.19885 241.012346521837
59.21896 263.940046151614
59.23908 278.01461650163
59.25919 261.988674760826
59.2793 307
59.29942 280.992232795799
59.31953 302.00881628398
59.33964 282.980068771149
59.35976 293.979947693934
59.37987 298.973650390033
59.39998 320.002765038789
59.4201 301
59.44021 320.002154785049
59.46033 308.006018143719
59.48044 340.07916286087
59.50055 365.973779019666
59.52067 366.006378026977
59.54078 367.987495095706
59.56089 386.991568840928
59.58101 403.012269286697
59.60112 428.007377714903
59.62124 439.106886686141
59.64135 528.19456557487
59.66146 578.895543464785
59.68158 656.902664479493
59.70169 748.967101330883
59.7218 801
59.74192 943.235835100104
59.76203 1198.25879242219
59.78215 1273.14582940919
59.80226 1389.66895348771
59.82237 1546.85605887069
59.84249 1579.9908184722
59.8626 1603
59.88271 1550.95181708297
59.90283 1401.68113103725
59.92294 1171.63014080519
59.94305 1062.15214080669
59.96317 1026.00867912139
59.98328 1001.09822146451
60.0034 884
60.02351 936.001621680045
60.04362 837.874164862648
60.06374 729.770391079418
60.08385 603.286747963795
60.10396 511.156978182573
60.12408 436.069963931259
60.14419 385.008912856109
60.16431 384.994454889751
60.18442 344.942674658581
60.20453 300.984519712183
60.22465 316.030686128397
60.24476 307.041602264784
60.26487 286.02784654246
60.28499 274.001738701471
60.3051 277
60.32522 287.019971135657
60.34533 295.956826263908
60.36544 243.933101768813
60.38556 251.937622950127
60.40567 275.993625329607
60.42578 263.015183351495
60.4459 257
60.46601 254.996113356155
60.48612 255.025381527848
60.50624 288.00958901965
60.52635 261.066189549482
60.54647 253.004862332736
60.56658 252.984492281145
60.58669 264.013008099932
60.60681 222.999581146491
60.62692 263.026537894496
60.64703 246.949176864176
60.66715 224.98896762295
60.68726 239.938967600317
60.70738 268.986480413875
60.72749 261.010906598572
60.7476 247
60.76772 265.001302248308
60.78783 248.988807388109
60.80794 252.985634909564
60.82806 236.999048000697
60.84817 255.978517797687
60.86828 254.006939517707
60.8884 254
60.90851 265.004918630981
60.92863 266.987917826144
60.94874 260.014871566869
60.96885 265.068783290691
60.98897 225.998080720098
61.00908 271.957050457066
61.02919 273.016351926717
61.04931 246.005194317189
61.06942 271.988223255319
61.08954 221.929767029334
61.10965 227.045810635549
61.12976 246.927689095783
61.14988 279.00806893621
61.16999 235.019741993396
61.1901 226
61.21022 239.020279563956
61.23033 252.987515224508
61.25045 241.047318830728
61.27056 281.962060865227
61.29067 270.012818495421
61.31079 276.001388455229
61.3309 260
61.35101 258.996397859889
61.37113 252.022723440253
61.39124 280.018895365389
61.41135 267.020330712469
61.43147 266.028065236126
61.45158 239.997512661359
61.4717 276
61.49181 291.999492148195
61.51192 279.977549748501
61.53204 262.002571767005
61.55215 287.897801831725
61.57226 309.049416477782
61.59238 263.016198617045
61.61249 300.967277746424
61.63261 338.990580614694
61.65272 285.965032491649
61.67283 291.023446048949
61.69295 290.968259412045
61.71306 283.971572134554
61.73317 316.949826448442
61.75329 326.011293367972
61.7734 292
61.79352 303.024452291148
61.81363 328.040919991912
61.83374 349.007420443245
61.85386 342.994771547124
61.87397 340.061461034396
61.89408 285.011584458512
61.9142 329
61.93431 350.995877075133
61.95442 326.972783631938
61.97454 330.109182072801
61.99465 391.993748421638
62.01477 350.007830249668
62.03488 398.961042127416
62.05499 395.008087426228
62.07511 391.000948534196
62.09522 394.005595557895
62.11533 402.012856511296
62.13545 408.00473755182
62.15556 409.984702918485
62.17568 413.017604201501
62.19579 378.016320877374
62.2159 370
62.23602 394.00111713576
62.25613 370.967829791856
62.27624 366.002381473374
62.29636 376.931229002388
62.31647 407.024742044045
62.33659 360.009371460518
62.3567 380
62.37681 358.986203017044
62.39693 339.97024620232
62.41704 329.034852625891
62.43715 346.079609093072
62.45727 287.022905770535
62.47738 322.976094910918
62.49749 307.010267708203
62.51761 307.00524465511
62.53772 303.96956756398
62.55784 271.007526651015
62.57795 297.99456396072
62.59806 277.94868378052
62.61818 331.002043309242
62.63829 275.013084198245
62.6584 306
62.67852 292.951811719747
62.69863 251.999347619876
62.71875 284.058377926153
62.73886 283.001204894745
62.75897 293.98687352321
62.77909 295.99777819545
62.7992 287
62.81931 221.982187017798
62.83943 238.065717386712
62.85954 273.025221056713
62.87965 268.011927814002
62.89977 281.950163348987
62.91988 305.017772129428
62.94 261
62.96011 277.016267569246
62.98022 284.965997403795
63.00034 243.003864487531
63.02045 287.912646313691
63.04056 278.074738481739
63.06068 252.989764642727
63.08079 284.991430551687
63.10091 268.984507822945
63.12102 252.008358409178
63.14113 271.005408832871
63.16125 263.02490627471
63.18136 290.967826887326
63.20147 285.01325334877
63.22159 289.99187457006
63.2417 300
63.26182 270.972782878246
63.28193 263.014941575453
63.30204 273.992775080119
63.32216 262.990977981321
63.34227 285.967884057557
63.36238 290.009495658841
63.3825 278
63.40261 281.005798920323
63.42272 280.969767989052
63.44284 246.009656643464
63.46295 282.958198284077
63.48307 270.000264238899
63.50318 288.998203239092
63.52329 268.006435220716
63.54341 282.014383449167
63.56352 301.999249673112
63.58363 291.001535327124
63.60375 305.014273942973
63.62386 284.089000568274
63.64398 255.9737685157
63.66409 315.982592596122
63.6842 302
63.70432 296.017962193105
63.72443 320.015056415424
63.74454 323.044801730375
63.76466 352.0086347185
63.78477 330.972273095768
63.80489 389.978289333069
63.825 403
63.84511 445.014878291279
63.86523 454.015612549568
63.88534 484.090339436627
63.90545 526.934174076493
63.92557 535.993615993833
63.94568 539.007486774931
63.96579 522.008019467509
63.98591 503.983574177249
64.00602 452.941416373688
64.02614 406.955392946485
64.04625 400.98199928838
64.06636 386.022829398606
64.08648 398.953022921451
64.10659 431.021151197759
64.1267 352
64.14682 401.024079447102
64.16693 346.859206270142
64.18705 278.968173648634
64.20716 306.949065513438
64.22727 304.021888225775
64.24739 283.019333461446
64.2675 243
64.28761 247.99264606631
64.30773 229.044785994158
64.32784 286.018091556918
64.34796 246.03021751189
64.36807 264.021119240245
64.38818 220.00590535542
64.4083 271
64.42841 284.983259602252
64.44852 231.959126243824
64.46864 234.089935850477
64.48875 274.034484346163
64.50886 232.986048369894
64.52898 283.984868393936
64.54909 245.015751059059
64.56921 251.006167601586
64.58932 245.985060626554
64.60943 241.026401898958
64.62955 263.995844443454
64.64966 244.998120620292
64.66977 261.016457364824
64.68989 230.000785265867
64.71 257
64.73012 237.00145396335
64.75023 259.99706424534
64.77034 228.964494801073
64.79046 239.973581643687
64.81057 238.012306412174
64.83068 233.001260176604
64.8508 247
64.87091 280.992066986221
64.89102 226.963559641275
64.91114 230.019156258082
64.93125 231.967639454003
64.95137 263.940130215957
64.97148 284.017376251146
64.99159 243.016446404401
65.01171 239.007299800237
65.03182 262.031216040833
65.05193 270.933957155039
65.07205 210.981167368086
65.09216 257.929436972832
65.11228 246.029297060705
65.13239 236.99034722549
65.1525 271
65.17262 270.975677699214
65.19273 244.989546567121
65.21284 259.033116946039
65.23296 264.999278258714
65.25307 264.004785310795
65.27319 251.014680187831
65.2933 227
65.31341 262.010621954097
65.33353 249.960024022276
65.35364 236.015609065506
65.37375 253.981797624549
65.39387 243.024142732944
65.41398 237.990648511978
65.43409 255.991290881422
65.45421 256.988839224163
65.47432 230.997235209073
65.49444 254.049127710608
65.51455 266.022188769506
65.53466 271.018713138284
65.55478 259.989388434177
65.57489 282.00017752112
65.595 260
65.61512 275.015965144225
65.63523 290.052184993617
65.65535 321.962926099139
65.67546 271.063930344854
65.69557 281.964560003195
65.71569 294.995471007795
65.7358 294
65.75591 262.99575692336
65.77603 283.037803374055
65.79614 284.946400872274
65.81626 260.967205270372
65.83637 297.00415213007
65.85648 261.004995847485
65.8766 290
65.89671 255.99175884312
65.91682 263.986767028192
65.93694 234.007355582966
65.95705 266.981576898105
65.97716 245.994819891231
65.99728 274.994177729223
66.01739 243.017356130539
66.03751 236.008313519226
66.05762 259.015968151346
66.07773 258.982112852686
66.09785 254.042073801973
66.11796 280.979731375266
66.13807 264.041556089014
66.15819 244.004859222567
66.1783 240
66.19842 230.991298617092
66.21853 238.051010278324
66.23864 268.972337378369
66.25876 224.040328692332
66.27887 240.983145539989
66.29898 233.994841813705
66.3191 246
66.33921 215.003144220201
66.35933 255.028222548368
66.37944 241.997504745786
66.39955 260.990049292867
66.41967 241.026437890452
66.43978 238.999186469235
66.45989 236.998788745651
66.48001 237.993242230504
66.50012 227.021790732689
66.52023 266.015089774813
66.54035 242.963682602761
66.56046 252.981439342376
66.58058 253.989733423889
66.60069 270.998327011492
66.6208 259
66.64092 251.974654469911
66.66103 227.021762080328
66.68114 270.042662261672
66.70126 256.026452272738
66.72137 263.979548026157
66.74149 260.01468496822
66.7616 232
66.78171 257.994879116115
66.80183 227.026452361885
66.82194 281.017527537544
66.84205 240.034334748488
66.86217 268.984529719307
66.88228 248.003486801772
66.90239 267.001223991903
66.92251 237.991758618213
66.94262 250.017750049151
66.96274 255.998337878403
66.98285 262.053559272018
67.00296 280.026512855869
67.02308 248.010282531933
67.04319 264.99524884827
67.0633 253
67.08342 248.993860835676
67.10353 251.047083392072
67.12365 292.022623947856
67.14376 268.033728268705
67.16387 281.957109588585
67.18399 296.006996235517
67.2041 280
67.22421 323.004302367045
67.24433 293.978704628667
67.26444 307.001344318637
67.28456 298.947310706654
67.30467 349.966677134463
67.32478 330.022372155064
67.3449 335
67.36501 361.012492483427
67.38512 385.026839291896
67.40524 404.997914563921
67.42535 404.908108888247
67.44546 463.940268539148
67.46558 461.985680246339
67.48569 531.94213790155
67.50581 652.044889416696
67.52592 715.07132981065
67.54603 813.158443701896
67.56615 905.183116855134
67.58626 958.927381118342
67.60637 1011.85001309915
67.62649 1108.9944342028
67.6466 1041
67.66672 1031.98998761275
67.68683 984.895606590489
67.70694 902.806360862841
67.72706 804.164190221665
67.74717 761.991673362629
67.76728 784.000142311778
67.7874 769
67.80751 821.023168323817
67.82763 844.03360369233
67.84774 865.996801081101
67.86785 861.906325617956
67.88797 915.998949138392
67.90808 869.018960406161
67.92819 926.946131118477
67.94831 1023.02375995352
67.96842 1062.10512983816
67.98853 1226.20743503367
68.00865 1297.10682562372
68.02876 1363.79690966452
68.04888 1451.98718911183
68.06899 1382.04931131061
68.0891 1290
68.10922 1207.98658699412
68.12933 1247.04118906548
68.14944 1244.02164480907
68.16956 1274.97490494296
68.18967 1253.05150497302
68.20979 1246.97938024236
68.2299 1273
68.25001 1120.93346420859
68.27013 1057.94264051129
68.29024 965.64608082032
68.31035 749.434455557635
68.33047 665.036127238858
68.35058 652.019878965228
68.3707 625
68.39081 617.990690324015
68.41092 574.940897821668
68.43104 514.895091642415
68.45115 473.918874993044
68.47126 438.093942769195
68.49138 392.023880696572
68.51149 384.009406021006
68.5316 344
68.55172 311.980406597511
68.57183 298.982314269118
68.59195 288.995300220703
68.61206 291.009004943122
68.63217 277.023825077874
68.65229 273.991361667018
68.6724 295
68.69251 274.991964630539
68.71263 277.015239797105
68.73274 282.998594623375
68.75286 276.020519339323
68.77297 268.999968601835
68.79308 270.007779135248
68.8132 252
68.83331 244.004283878835
68.85342 261.01221245288
68.87354 260.986532747611
68.89365 258.978202839875
68.91376 274.972765722279
68.93388 275.015356644184
68.95399 256.004413517515
68.97411 259.00143375057
68.99422 253.991351665076
69.01433 247.998344810935
69.03445 255.040287444399
69.05456 269.995595736813
69.07467 261.01073984789
69.09479 260.001723952131
69.1149 247
69.13502 234.009235646557
69.15513 254.007314762364
69.17524 249.031861305164
69.19536 268.053618519261
69.21547 218.001962129821
69.23558 260.989274918595
69.2557 232
69.27581 264.999735972849
69.29593 224.97103306967
69.31604 251.072724746849
69.33615 260.054157112395
69.35627 234.996358657258
69.37638 262.979314399624
69.39649 266.994795225781
69.41661 272.983735832786
69.43672 224.994270369071
69.45683 251.989453753369
69.47695 211.987001041127
69.49706 245.98011451364
69.51718 220.010749341816
69.53729 239.992463253795
69.5574 232
69.57752 227.000980717019
69.59763 232.014711129374
69.61774 238.991215933593
69.63786 229.996357135578
69.65797 243.981892673173
69.67809 244.004135846006
69.6982 239
69.71831 244.993375219112
69.73843 219.98521802961
69.75854 237.058022522078
69.77865 253.019451761394
69.79877 238.98809787371
69.81888 259.006197232679
69.839 230
69.85911 253.013830651834
69.87922 256.979711640866
69.89934 233.993497071301
69.91945 247.009161251658
69.93956 235.016755990739
69.95968 239.991018697503
69.97979 242.003335196732
69.9999 238
70.02002 254.99841575515
70.04013 236.987221243428
70.06025 244.007334985806
70.08036 237.006424101767
70.10047 246.971716044848
70.12059 260.001802068541
70.1407 242
70.16081 236.004627661029
70.18093 246.995818686504
70.20104 234.997611220295
70.22116 246.985042132408
70.24127 244.002888754776
70.26138 251.984886074083
70.2815 256
70.30161 224.997648187437
70.32172 251.02672589508
70.34184 254.974492828022
70.36195 248.954391389887
70.38207 267.036618307886
70.40218 215.021773427412
70.42229 237.987631112752
70.44241 239.998725261124
70.46252 240.994446314109
70.48263 240.037162197189
70.50275 269.982725185842
70.52286 229.059587315551
70.54297 232.976152773836
70.56309 252.981112210908
70.5832 285
70.60332 244.985706889797
70.62343 253.964964590669
70.64354 206.988103390805
70.66366 241.977665447447
70.68377 217.013529005105
70.70388 239.98125010978
70.724 240
70.74411 253.004573347985
70.76423 248.981253970209
70.78434 240.004082541246
70.80445 239.06335343769
70.82457 210.980635531547
70.84468 258.966920583911
70.86479 253.009865028004
70.88491 245.002048465566
70.90502 246.985419924982
70.92513 232.023086562347
70.94525 260.987344408905
70.96536 230.002267391354
70.98548 262.984360371692
71.00559 234.024691553826
71.0257 208
71.04582 250.0259876444
71.06593 239.960370861555
71.08604 229.034093470657
71.10616 255.988356707347
71.12627 229.060760029127
71.14639 212.986056821279
71.1665 261
71.18661 248.991078155093
71.20673 244.998951725084
71.22684 237.975526967064
71.24695 228.002538534626
71.26707 237.975462988108
71.28718 243.019652479996
71.3073 215
71.32741 245.025344905267
71.34752 275.985527766132
71.36764 230.930459182524
71.38775 227.973983594522
71.40786 231.01332563711
71.42798 215.022449789682
71.44809 211.980124149935
71.4682 266
71.48832 252.017493438585
71.50843 290.983929539696
71.52855 226.875775572771
71.54866 235.90929092457
71.56877 267.018289551684
71.58889 234.001096621819
71.609 267
71.62911 251.986124251028
71.64923 235.996402165748
71.66934 245.033106590247
71.68946 258.990599706564
71.70957 256.004024820279
71.72968 253.011878641349
71.7498 243
71.76991 266.002440998602
71.79002 247.983880177973
71.81014 248.011877449012
71.83025 249.011589060242
71.85037 248.976664031549
71.87048 264.012905419076
71.89059 234.00428087938
71.91071 257.013090483214
71.93082 261.98732705353
71.95093 246.991935436571
71.97105 249.99606837672
71.99116 239.024238959668
72.01127 237.97855101163
72.03139 250.006174647853
72.0515 228
72.07162 257.011971110427
72.09173 238.969175832242
72.11184 239.033220361974
72.13196 254.996476063365
72.15207 243.017802414501
72.17218 239.002074031322
72.1923 239
72.21241 255.008478958777
72.23253 258.975396539802
72.25264 234.977694224776
72.27275 239.98919183246
72.29287 239.986754918855
72.31298 246.021768655891
72.33309 219.990663248986
72.35321 264.000308781185
72.37332 216.969713079562
72.39344 239.092319524004
72.41355 277.061896553566
72.43366 276.069488513782
72.45378 230.026035264942
72.47389 235.99031656917
72.494 251
72.51412 251.983514684139
72.53423 225.970050009642
72.55434 227.043735810204
72.57446 253.968351547966
72.59457 251.020695782709
72.61469 247.989247306948
72.6348 270
72.65491 228.992057515595
72.67503 247.015809575641
72.69514 236.994850071687
72.71525 254.94142450764
72.73537 263.0204641217
72.75548 240.013474163906
72.7756 241
72.79571 235.997159072129
72.81582 236.006021402681
72.83594 248.034910316895
72.85605 265.966279773231
72.87616 275.976102873478
72.89628 276.031418375202
72.91639 236.002764251242
72.9365 262
72.95662 245.988821971559
72.97673 255.018457056415
72.99685 264.039222021526
73.01696 280.995153382605
73.03707 269.015903708959
73.05719 271.993462169367
73.0773 288
73.09741 289.99036350994
73.11753 275.035035459269
73.13764 325.061218499212
73.15776 314.058615644087
73.17787 302.968645737249
73.19798 336.985875580869
73.2181 342
73.23821 402.01163979574
73.25832 385.99894991824
73.27844 435.15935877165
73.29855 502.922910441687
73.31867 512.956432594675
73.33878 553.99489576876
73.35889 526.005223357892
73.37901 540.998897483736
73.39912 508.968398323639
73.41923 484.942223839687
73.43935 437.934156213634
73.45946 440.974624937018
73.47957 430.072165878493
73.49969 376.006996999726
73.5198 397
73.53992 377.998036862916
73.56003 399.012746106564
73.58014 387.995342137602
73.60026 393.034052551802
73.62037 357.033031702133
73.64048 349.026356892292
73.6606 315
73.68071 339.995330785755
73.70083 287.931672662197
73.72094 277.007510803855
73.74105 277.005595606841
73.76117 275.996703145445
73.78128 277.00656848993
73.80139 267.999883544081
73.82151 273.998321024906
73.84162 257.983300285702
73.86174 249.997110235877
73.88185 248.989101601437
73.90196 244.992083133724
73.92208 259.978645080733
73.94219 274.999926371057
73.9623 265
73.98242 261.988936062265
74.00253 244.987223642688
74.02264 244.988927871088
74.04276 237.980447634159
74.06287 253.014468969184
74.08299 225.004885030766
74.1031 249
74.12321 268.997016745921
74.14333 251.9940718946
74.16344 265.01998275344
74.18355 263.007961867943
74.20367 254.045145211974
74.22378 227.980796677117
74.2439 278
74.26401 251.976903665925
74.28412 225.001981789952
74.30424 238.99907201644
74.32435 225.000258698459
74.34446 241.980363818961
74.36458 237.003219702325
74.38469 240.999963754322
74.40481 230.992515485109
74.42492 215.985184367794
74.44503 211.021861449705
74.46515 241.078221676466
74.48526 253.028970563579
74.50537 230.009531416355
74.52549 237.004009389767
74.5456 220
74.56571 251.007696842625
74.58583 238.979703784266
74.60594 240.012004318144
74.62606 242.997118709417
74.64617 245.990871782486
74.66628 249.007881374489
74.6864 233
74.70651 224.994723798028
74.72662 219.013730897575
74.74674 247.04275946666
74.76685 247.039222423604
74.78697 237.978330352077
74.80708 264.988537273743
74.82719 244.021134783361
74.84731 225.019160805133
74.86742 282.002476211272
74.88753 236.980952498421
74.90765 262.979685707213
74.92776 223.987257660719
74.94787 274.97213307996
74.96799 239.017762491721
74.9881 238
75.00822 247.006869199656
