3.00117 20590
3.02128 20190
3.0414 19543
3.06151 19159
3.08162 18754
3.10174 18106
3.12185 17903
3.14197 16755
3.16208 16420
3.18219 16249
3.20231 15482
3.22242 15304
3.24253 14755
3.26265 14415
3.28276 14105
3.30288 13469
3.32299 13221
3.3431 12535
3.36322 12330
3.38333 11745
3.40344 11514
3.42356 11278
3.44367 10705
3.46379 10448
3.4839 10259
3.50401 9867
3.52413 9521
3.54424 8970
3.56435 8842
3.58447 8681
3.60458 8079
3.62469 7877
3.64481 7513
3.66492 7323
3.68504 7133
3.70515 6661
3.72526 6421
3.74538 6038
3.76549 6074
3.7856 5780
3.80572 5287
3.82583 5298
3.84595 5046
3.86606 4897
3.88617 4765
3.90629 4381
3.9264 4530
3.94651 4135
3.96663 3987
3.98674 3989
4.00686 3639
4.02697 3574
4.04708 3250
4.0672 3299
4.08731 3305
4.10742 2820
4.12754 2948
4.14765 2659
4.16776 2703
4.18788 2673
4.20799 2399
4.22811 2273
4.24822 2267
4.26833 2170
4.28845 2247
4.30856 1996
4.32867 2045
4.34879 1871
4.3689 1846
4.38902 2008
4.40913 1659
4.42924 1688
4.44936 1714
4.46947 1708
4.48958 1718
4.5097 1516
4.52981 1524
4.54992 1506
4.57004 1560
4.59015 1513
4.61027 1340
4.63038 1425
4.65049 1336
4.67061 1266
4.69072 1322
4.71083 1179
4.73095 1280
4.75106 1299
4.77118 1207
4.79129 1223
4.8114 1178
4.83152 1115
4.85163 1053
4.87174 1067
4.89186 1073
4.91197 985
4.93209 1053
4.9522 1000
4.97231 962
4.99243 945
5.01254 930
5.03265 953
5.05277 946
5.07288 833
5.09299 876
5.11311 826
5.13322 859
5.15334 806
5.17345 815
5.19356 799
5.21368 784
5.23379 740
5.2539 806
5.27402 783
5.29413 774
5.31425 704
5.33436 671
5.35447 694
5.37459 695
5.3947 691
5.41481 674
5.43493 626
5.45504 631
5.47516 656
5.49527 655
5.51538 557
5.5355 602
5.55561 653
5.57572 600
5.59584 589
5.61595 550
5.63606 567
5.65618 565
5.67629 570
5.69641 582
5.71652 596
5.73663 572
5.75675 542
5.77686 511
5.79697 532
5.81709 536
5.8372 514
5.85732 504
5.87743 554
5.89754 537
5.91766 547
5.93777 523
5.95788 534
5.978 482
5.99811 531
6.01823 500
6.03834 536
6.05845 531
6.07857 497
6.09868 520
6.11879 546
6.13891 496
6.15902 531
6.17913 505
6.19925 524
6.21936 496
6.23948 497
6.25959 496
6.2797 496
6.29982 498
6.31993 502
6.34004 480
6.36016 464
6.38027 450
6.40039 505
6.4205 521
6.44061 494
6.46073 472
6.48084 475
6.50095 458
6.52107 468
6.54118 443
6.56129 465
6.58141 476
6.60152 440
6.62164 435
6.64175 437
6.66186 451
6.68198 411
6.70209 419
6.7222 477
6.74232 416
6.76243 441
6.78255 449
6.80266 404
6.82277 431
6.84289 419
6.863 415
6.88311 475
6.90323 439
6.92334 458
6.94346 425
6.96357 401
6.98368 451
7.0038 404
7.02391 429
7.04402 415
7.06414 429
7.08425 437
7.10436 404
7.12448 448
7.14459 455
7.16471 449
7.18482 410
7.20493 449
7.22505 421
7.24516 427
7.26527 484
7.28539 400
7.3055 396
7.32562 399
7.34573 452
7.36584 416
7.38596 406
7.40607 456
7.42618 419
7.4463 413
7.46641 405
7.48653 460
7.50664 414
7.52675 399
7.54687 406
7.56698 429
7.58709 397
7.60721 395
7.62732 418
7.64743 400
7.66755 444
7.68766 420
7.70778 422
7.72789 408
7.748 389
7.76812 420
7.78823 427
7.80834 391
7.82846 422
7.84857 384
7.86869 359
7.8888 378
7.90891 415
7.92903 430
7.94914 402
7.96925 389
7.98937 401
8.00948 420
8.0296 401
8.04971 433
8.06982 410
8.08994 401
8.11005 404
8.13016 389
8.15028 420
8.17039 398
8.1905 380
8.21062 454
8.23073 399
8.25085 396
8.27096 411
8.29107 433
8.31119 383
8.3313 405
8.35141 360
8.37153 445
8.39164 384
8.41176 411
8.43187 402
8.45198 431
8.4721 418
8.49221 399
8.51232 430
8.53244 397
8.55255 393
8.57266 415
8.59278 452
8.61289 410
8.63301 419
8.65312 384
8.67323 428
8.69335 427
8.71346 464
8.73357 419
8.75369 461
8.7738 424
8.79392 421
8.81403 443
8.83414 414
8.85426 470
8.87437 401
8.89448 435
8.9146 448
8.93471 450
8.95483 429
8.97494 403
8.99505 405
9.01517 393
9.03528 449
9.05539 372
9.07551 416
9.09562 366
9.11573 397
9.13585 412
9.15596 382
9.17608 341
9.19619 409
9.2163 427
9.23642 388
9.25653 379
9.27664 410
9.29676 432
9.31687 438
9.33699 373
9.3571 393
9.37721 382
9.39733 390
9.41744 379
9.43755 394
9.45767 427
9.47778 390
9.4979 394
9.51801 365
9.53812 399
9.55824 388
9.57835 349
9.59846 389
9.61858 372
9.63869 379
9.6588 395
9.67892 358
9.69903 390
9.71915 368
9.73926 339
9.75937 377
9.77949 385
9.7996 382
9.81971 408
9.83983 401
9.85994 390
9.88006 390
9.90017 355
9.92028 381
9.9404 434
9.96051 408
9.98062 359
10.00074 428
10.02085 406
10.04097 380
10.06108 399
10.08119 346
10.10131 384
10.12142 399
10.14153 388
10.16165 428
10.18176 382
10.20187 368
10.22199 338
10.2421 365
10.26222 383
10.28233 349
10.30244 341
10.32256 377
10.34267 383
10.36278 355
10.3829 415
10.40301 393
10.42313 386
10.44324 410
10.46335 383
10.48347 367
10.50358 409
10.52369 380
10.54381 373
10.56392 403
10.58403 388
10.60415 422
10.62426 396
10.64438 404
10.66449 362
10.6846 360
10.70472 417
10.72483 439
10.74494 364
10.76506 430
10.78517 403
10.80529 411
10.8254 406
10.84551 423
10.86563 393
10.88574 388
10.90585 383
10.92597 410
10.94608 385
10.9662 413
10.98631 397
11.00642 372
11.02654 399
11.04665 389
11.06676 384
11.08688 366
11.10699 383
11.1271 398
11.14722 401
11.16733 415
11.18745 409
11.20756 422
11.22767 410
11.24779 400
11.2679 359
11.28801 417
11.30813 381
11.32824 429
11.34836 420
11.36847 415
11.38858 414
11.4087 414
11.42881 395
11.44892 421
11.46904 412
11.48915 411
11.50927 424
11.52938 452
11.54949 424
11.56961 434
11.58972 422
11.60983 434
11.62995 462
11.65006 390
11.67017 474
11.69029 469
11.7104 447
11.73052 476
11.75063 468
11.77074 457
11.79086 410
11.81097 465
11.83108 511
11.8512 502
11.87131 428
11.89143 476
11.91154 448
11.93165 482
11.95177 501
11.97188 506
11.99199 509
12.01211 552
12.03222 574
12.05234 559
12.07245 572
12.09256 553
12.11268 598
12.13279 543
12.1529 592
12.17302 656
12.19313 605
12.21324 689
12.23336 707
12.25347 679
12.27359 687
12.2937 713
12.31381 793
12.33393 746
12.35404 776
12.37415 769
12.39427 699
12.41438 669
12.4345 670
12.45461 640
12.47472 594
12.49484 586
12.51495 509
12.53506 584
12.55518 492
12.57529 478
12.5954 497
12.61552 535
12.63563 471
12.65575 448
12.67586 407
12.69597 435
12.71609 409
12.7362 413
12.75631 433
12.77643 394
12.79654 459
12.81666 358
12.83677 408
12.85688 407
12.877 386
12.89711 377
12.91722 446
12.93734 406
12.95745 369
12.97757 430
12.99768 383
13.01779 374
13.03791 351
13.05802 376
13.07813 398
13.09825 355
13.11836 352
13.13847 367
13.15859 344
13.1787 361
13.19882 377
13.21893 346
13.23904 387
13.25916 371
13.27927 337
13.29938 356
13.3195 345
13.33961 356
13.35973 375
13.37984 349
13.39995 362
13.42007 382
13.44018 346
13.46029 356
13.48041 367
13.50052 359
13.52064 352
13.54075 395
13.56086 349
13.58098 366
13.60109 388
13.6212 348
13.64132 293
13.66143 359
13.68154 357
13.70166 364
13.72177 326
13.74189 358
13.762 357
13.78211 367
13.80223 362
13.82234 356
13.84245 345
13.86257 298
13.88268 360
13.9028 350
13.92291 365
13.94302 346
13.96314 351
13.98325 330
14.00336 324
14.02348 366
14.04359 367
14.06371 360
14.08382 325
14.10393 351
14.12405 362
14.14416 335
14.16427 299
14.18439 330
14.2045 309
14.22461 339
14.24473 331
14.26484 306
14.28496 317
14.30507 337
14.32518 311
14.3453 291
14.36541 309
14.38552 345
14.40564 325
14.42575 319
14.44587 316
14.46598 357
14.48609 354
14.50621 330
14.52632 341
14.54643 349
14.56655 382
14.58666 320
14.60677 322
14.62689 326
14.647 304
14.66712 315
14.68723 300
14.70734 364
14.72746 350
14.74757 346
14.76768 312
14.7878 354
14.80791 340
14.82803 349
14.84814 310
14.86825 293
14.88837 339
14.90848 312
14.92859 369
14.94871 344
14.96882 334
14.98894 326
15.00905 334
15.02916 347
15.04928 343
15.06939 309
15.0895 330
15.10962 323
15.12973 331
15.14984 337
15.16996 305
15.19007 345
15.21019 338
15.2303 350
15.25041 315
15.27053 312
15.29064 311
15.31075 341
15.33087 360
15.35098 320
15.3711 342
15.39121 310
15.41132 302
15.43144 329
15.45155 311
15.47166 309
15.49178 358
15.51189 342
15.53201 355
15.55212 328
15.57223 343
15.59235 358
15.61246 325
15.63257 310
15.65269 321
15.6728 344
15.69291 360
15.71303 332
15.73314 361
15.75326 350
15.77337 342
15.79348 317
15.8136 325
15.83371 361
15.85382 356
15.87394 401
15.89405 387
15.91417 366
15.93428 382
15.95439 431
15.97451 383
15.99462 363
16.01473 387
16.03485 374
16.05496 310
16.07508 334
16.09519 357
16.1153 326
16.13542 352
16.15553 350
16.17564 311
16.19576 356
16.21587 313
16.23598 313
16.2561 323
16.27621 342
16.29633 332
16.31644 351
16.33655 310
16.35667 356
16.37678 299
16.39689 349
16.41701 331
16.43712 361
16.45724 338
16.47735 326
16.49746 338
16.51758 338
16.53769 340
16.5578 340
16.57792 309
16.59803 323
16.61814 322
16.63826 328
16.65837 326
16.67849 290
16.6986 321
16.71871 340
16.73883 356
16.75894 337
16.77905 323
16.79917 355
16.81928 334
16.8394 350
16.85951 322
16.87962 299
16.89974 358
16.91985 350
16.93996 358
16.96008 330
16.98019 317
17.00031 330
17.02042 318
17.04053 325
17.06065 322
17.08076 333
17.10087 358
17.12099 312
17.1411 335
17.16121 351
17.18133 350
17.20144 286
17.22156 351
17.24167 316
17.26178 274
17.2819 347
17.30201 307
17.32212 352
17.34224 309
17.36235 353
17.38247 282
17.40258 348
17.42269 353
17.44281 339
17.46292 347
17.48303 353
17.50315 349
17.52326 389
17.54338 328
17.56349 313
17.5836 375
17.60372 337
17.62383 355
17.64394 307
17.66406 366
17.68417 396
17.70428 383
17.7244 402
17.74451 351
17.76463 350
17.78474 401
17.80485 364
17.82497 393
17.84508 372
17.86519 397
17.88531 408
17.90542 378
17.92554 383
17.94565 404
17.96576 374
17.98588 382
18.00599 377
18.0261 371
18.04622 416
18.06633 382
18.08645 412
18.10656 381
18.12667 434
18.14679 438
18.1669 462
18.18701 432
18.20713 509
18.22724 501
18.24735 598
18.26747 585
18.28758 625
18.3077 627
18.32781 603
18.34792 517
18.36804 475
18.38815 459
18.40826 408
18.42838 434
18.44849 332
18.46861 380
18.48872 351
18.50883 380
18.52895 351
18.54906 385
18.56917 396
18.58929 340
18.6094 395
18.62951 376
18.64963 355
18.66974 351
18.68986 349
18.70997 359
18.73008 375
18.7502 359
18.77031 360
18.79042 352
18.81054 354
18.83065 340
18.85077 332
18.87088 334
18.89099 385
18.91111 356
18.93122 336
18.95133 373
18.97145 363
18.99156 360
19.01168 313
19.03179 385
19.0519 344
19.07202 382
19.09213 351
19.11224 349
19.13236 358
19.15247 365
19.17258 347
19.1927 347
19.21281 402
19.23293 382
19.25304 374
19.27315 400
19.29327 373
19.31338 399
19.33349 405
19.35361 367
19.37372 433
19.39384 399
19.41395 413
19.43406 418
19.45418 461
19.47429 478
19.4944 503
19.51452 474
19.53463 520
19.55475 489
19.57486 573
19.59497 563
19.61509 596
19.6352 598
19.65531 614
19.67543 634
19.69554 611
19.71565 675
19.73577 709
19.75588 712
19.776 818
19.79611 805
19.81622 798
19.83634 847
19.85645 847
19.87656 851
19.89668 889
19.91679 844
19.93691 855
19.95702 852
19.97713 805
19.99725 777
20.01736 809
20.03747 746
20.05759 764
20.0777 733
20.09782 747
20.11793 729
20.13804 712
20.15816 754
20.17827 725
20.19838 691
20.2185 785
20.23861 826
20.25872 764
20.27884 828
20.29895 806
20.31907 803
20.33918 757
20.35929 797
20.37941 724
20.39952 723
20.41963 733
20.43975 780
20.45986 758
20.47998 711
20.50009 780
20.5202 773
20.54032 761
20.56043 820
20.58054 840
20.60066 783
20.62077 808
20.64088 781
20.661 866
20.68111 1056
20.70123 1179
20.72134 1306
20.74145 1592
20.76157 2017
20.78168 2410
20.80179 2958
20.82191 3423
20.84202 3637
20.86214 3355
20.88225 3055
20.90236 2386
20.92248 1961
20.94259 1473
20.9627 1106
20.98282 914
21.00293 853
21.02305 762
21.04316 789
21.06327 746
21.08339 747
21.1035 804
21.12361 718
21.14373 762
21.16384 788
21.18395 733
21.20407 775
21.22418 784
21.2443 785
21.26441 759
21.28452 748
21.30464 774
21.32475 816
21.34486 686
21.36498 811
21.38509 713
21.40521 754
21.42532 779
21.44543 690
21.46555 735
21.48566 657
21.50577 738
21.52589 706
21.546 728
21.56612 656
21.58623 642
21.60634 643
21.62646 623
21.64657 641
21.66668 625
21.6868 610
21.70691 590
21.72702 596
21.74714 598
21.76725 584
21.78737 600
21.80748 570
21.82759 563
21.84771 561
21.86782 576
21.88793 540
21.90805 606
21.92816 539
21.94828 559
21.96839 553
21.9885 566
22.00862 512
22.02873 548
22.04884 538
22.06896 571
22.08907 499
22.10919 520
22.1293 504
22.14941 549
22.16953 558
22.18964 488
22.20975 552
22.22987 529
22.24998 537
22.27009 540
22.29021 501
22.31032 518
22.33044 515
22.35055 509
22.37066 508
22.39078 541
22.41089 510
22.431 502
22.45112 469
22.47123 423
22.49135 537
22.51146 457
22.53157 514
22.55169 525
22.5718 499
22.59191 521
22.61203 521
22.63214 509
22.65225 533
22.67237 484
22.69248 484
22.7126 497
22.73271 508
22.75282 517
22.77294 458
22.79305 462
22.81316 501
22.83328 463
22.85339 552
22.87351 520
22.89362 500
22.91373 493
22.93385 518
22.95396 504
22.97407 454
22.99419 496
23.0143 498
23.03442 489
23.05453 451
23.07464 487
23.09476 462
23.11487 455
23.13498 477
23.1551 459
23.17521 463
23.19532 503
23.21544 477
23.23555 472
23.25567 497
23.27578 497
23.29589 458
23.31601 486
23.33612 496
23.35623 464
23.37635 472
23.39646 503
23.41658 430
23.43669 461
23.4568 467
23.47692 454
23.49703 454
23.51714 433
23.53726 467
23.55737 484
23.57749 476
23.5976 438
23.61771 483
23.63783 466
23.65794 498
23.67805 505
23.69817 488
23.71828 464
23.73839 470
23.75851 528
23.77862 487
23.79874 499
23.81885 478
23.83896 520
23.85908 492
23.87919 497
23.8993 496
23.91942 512
23.93953 506
23.95965 504
23.97976 519
23.99987 474
24.01999 545
24.0401 494
24.06021 519
24.08033 487
24.10044 531
24.12056 487
24.14067 451
24.16078 483
24.1809 514
24.20101 471
24.22112 504
24.24124 491
24.26135 479
24.28146 434
24.30158 517
24.32169 490
24.34181 501
24.36192 502
24.38203 500
24.40215 488
24.42226 506
24.44237 494
24.46249 526
24.4826 501
24.50272 499
24.52283 522
24.54294 507
24.56306 541
24.58317 543
24.60328 557
24.6234 568
24.64351 567
24.66362 587
24.68374 590
24.70385 619
24.72397 630
24.74408 643
24.76419 682
24.78431 698
24.80442 664
24.82453 711
24.84465 724
24.86476 771
24.88488 749
24.90499 717
24.9251 714
24.94522 736
24.96533 649
24.98544 696
25.00556 682
25.02567 693
25.04579 625
25.0659 647
25.08601 633
25.10613 607
25.12624 575
25.14635 625
25.16647 618
25.18658 637
25.20669 689
25.22681 660
25.24692 643
25.26704 670
25.28715 616
25.30726 567
25.32738 566
25.34749 600
25.3676 610
25.38772 560
25.40783 552
25.42795 538
25.44806 504
25.46817 548
25.48829 557
25.5084 564
25.52851 572
25.54863 512
25.56874 569
25.58886 497
25.60897 505
25.62908 536
25.6492 575
25.66931 551
25.68942 529
25.70954 549
25.72965 534
25.74976 569
25.76988 522
25.78999 576
25.81011 515
25.83022 588
25.85033 556
25.87045 587
25.89056 536
25.91067 529
25.93079 550
25.9509 551
25.97102 546
25.99113 530
26.01124 553
26.03136 648
26.05147 605
26.07158 619
26.0917 598
26.11181 641
26.13193 647
26.15204 678
26.17215 711
26.19227 706
26.21238 717
26.23249 745
26.25261 815
26.27272 814
26.29283 872
26.31295 972
26.33306 1023
26.35318 1119
26.37329 1211
26.3934 1349
26.41352 1687
26.43363 2037
26.45374 2598
26.47386 3280
26.49397 4386
26.51409 5727
26.5342 7605
26.55431 9666
26.57443 11693
26.59454 13380
26.61465 14187
26.63477 13928
26.65488 12383
26.67499 9758
26.69511 7634
26.71522 5782
26.73534 3914
26.75545 2595
26.77556 1825
26.79568 1480
26.81579 1204
26.8359 1100
26.85602 1053
26.87613 917
26.89625 869
26.91636 809
26.93647 840
26.95659 700
26.9767 704
26.99681 612
27.01693 632
27.03704 591
27.05716 572
27.07727 609
27.09738 562
27.1175 515
27.13761 559
27.15772 506
27.17784 536
27.19795 545
27.21806 474
27.23818 489
27.25829 547
27.27841 550
27.29852 562
27.31863 549
27.33875 530
27.35886 563
27.37897 564
27.39909 533
27.4192 540
27.43932 539
27.45943 518
27.47954 549
27.49966 518
27.51977 538
27.53988 526
27.56 501
27.58011 458
27.60023 495
27.62034 485
27.64045 469
27.66057 453
27.68068 488
27.70079 495
27.72091 465
27.74102 434
27.76113 458
27.78125 473
27.80136 490
27.82148 487
27.84159 482
27.8617 482
27.88182 514
27.90193 481
27.92204 497
27.94216 463
27.96227 425
27.98239 452
28.0025 475
28.02261 484
28.04273 428
28.06284 440
28.08295 468
28.10307 424
28.12318 454
28.1433 407
28.16341 419
28.18352 434
28.20364 460
28.22375 405
28.24386 422
28.26398 435
28.28409 418
28.3042 422
28.32432 482
28.34443 405
28.36455 425
28.38466 464
28.40477 386
28.42489 402
28.445 413
28.46511 414
28.48523 455
28.50534 428
28.52546 401
28.54557 432
28.56568 419
28.5858 385
28.60591 394
28.62602 435
28.64614 452
28.66625 421
28.68636 436
28.70648 449
28.72659 395
28.74671 393
28.76682 420
28.78693 400
28.80705 445
28.82716 426
28.84727 412
28.86739 403
28.8875 413
28.90762 404
28.92773 430
28.94784 368
28.96796 392
28.98807 398
29.00818 400
29.0283 365
29.04841 370
29.06853 373
29.08864 365
29.10875 391
29.12887 383
29.14898 420
29.16909 397
29.18921 376
29.20932 379
29.22943 383
29.24955 405
29.26966 405
29.28978 393
29.30989 360
29.33 356
29.35012 404
29.37023 410
29.39034 431
29.41046 379
29.43057 402
29.45069 386
29.4708 376
29.49091 449
29.51103 396
29.53114 412
29.55125 390
29.57137 379
29.59148 356
29.6116 425
29.63171 423
29.65182 420
29.67194 413
29.69205 377
29.71216 401
29.73228 383
29.75239 434
29.7725 390
29.79262 450
29.81273 423
29.83285 404
29.85296 450
29.87307 396
29.89319 400
29.9133 405
29.93341 395
29.95353 402
29.97364 401
29.99376 425
30.01387 419
30.03398 386
30.0541 392
30.07421 408
30.09432 367
30.11444 419
30.13455 390
30.15467 417
30.17478 394
30.19489 377
30.21501 396
30.23512 379
30.25523 439
30.27535 394
30.29546 371
30.31557 377
30.33569 369
30.3558 387
30.37592 408
30.39603 360
30.41614 406
30.43626 390
30.45637 373
30.47648 402
30.4966 373
30.51671 354
30.53683 394
30.55694 408
30.57705 382
30.59717 374
30.61728 341
30.63739 383
30.65751 396
30.67762 412
30.69773 382
30.71785 398
30.73796 381
30.75808 364
30.77819 379
30.7983 364
30.81842 357
30.83853 377
30.85864 378
30.87876 380
30.89887 349
30.91899 382
30.9391 399
30.95921 375
30.97933 356
30.99944 408
31.01955 380
31.03967 375
31.05978 399
31.0799 376
31.10001 383
31.12012 384
31.14024 393
31.16035 389
31.18046 402
31.20058 391
31.22069 422
31.2408 407
31.26092 373
31.28103 395
31.30115 392
31.32126 366
31.34137 383
31.36149 421
31.3816 392
31.40171 407
31.42183 393
31.44194 377
31.46206 356
31.48217 359
31.50228 401
31.5224 360
31.54251 366
31.56262 378
31.58274 392
31.60285 375
31.62297 364
31.64308 375
31.66319 352
31.68331 359
31.70342 393
31.72353 394
31.74365 372
31.76376 386
31.78387 407
31.80399 358
31.8241 378
31.84422 371
31.86433 355
31.88444 409
31.90456 372
31.92467 395
31.94478 392
31.9649 396
31.98501 373
32.00513 365
32.02524 393
32.04535 404
32.06547 387
32.08558 400
32.10569 383
32.12581 385
32.14592 414
32.16604 405
32.18615 397
32.20626 461
32.22638 406
32.24649 439
32.2666 400
32.28672 397
32.30683 383
32.32694 376
32.34706 392
32.36717 360
32.38729 419
32.4074 445
32.42751 407
32.44763 446
32.46774 429
32.48785 412
32.50797 444
32.52808 450
32.5482 449
32.56831 450
32.58842 468
32.60854 464
32.62865 453
32.64876 436
32.66888 451
32.68899 443
32.7091 401
32.72922 417
32.74933 419
32.76945 389
32.78956 417
32.80967 418
32.82979 391
32.8499 411
32.87001 367
32.89013 368
32.91024 400
32.93036 424
32.95047 381
32.97058 384
32.9907 384
33.01081 405
33.03092 389
33.05104 398
33.07115 404
33.09127 400
33.11138 413
33.13149 380
33.15161 412
33.17172 403
33.19183 385
33.21195 407
33.23206 391
33.25217 419
33.27229 371
33.2924 425
33.31252 397
33.33263 383
33.35274 417
33.37286 449
33.39297 409
33.41308 418
33.4332 408
33.45331 396
33.47343 413
33.49354 410
33.51365 402
33.53377 384
33.55388 393
33.57399 396
33.59411 404
33.61422 402
33.63434 385
33.65445 392
33.67456 385
33.69468 407
33.71479 405
33.7349 403
33.75502 430
33.77513 404
33.79524 382
33.81536 391
33.83547 416
33.85559 407
33.8757 399
33.89581 394
33.91593 391
33.93604 391
33.95615 387
33.97627 372
33.99638 401
34.0165 368
34.03661 412
34.05672 382
34.07684 382
34.09695 398
34.11706 391
34.13718 377
34.15729 384
34.17741 374
34.19752 381
34.21763 360
34.23775 386
34.25786 360
34.27797 380
34.29809 365
34.3182 367
34.33831 385
34.35843 396
34.37854 365
34.39866 381
34.41877 437
34.43888 438
34.459 439
34.47911 457
34.49922 392
34.51934 430
34.53945 453
34.55957 482
34.57968 480
34.59979 468
34.61991 504
34.64002 510
34.66013 495
34.68025 508
34.70036 488
34.72047 521
34.74059 574
34.7607 585
34.78082 585
34.80093 621
34.82104 631
34.84116 644
34.86127 617
34.88138 659
34.9015 621
34.92161 652
34.94173 634
34.96184 663
34.98195 662
35.00207 685
35.02218 653
35.04229 666
35.06241 645
35.08252 637
35.10264 632
35.12275 616
35.14286 623
35.16298 566
35.18309 591
35.2032 610
35.22332 597
35.24343 585
35.26354 573
35.28366 618
35.30377 579
35.32389 593
35.344 612
35.36411 565
35.38423 561
35.40434 599
35.42445 569
35.44457 602
35.46468 566
35.4848 565
35.50491 479
35.52502 544
35.54514 500
35.56525 561
35.58536 587
35.60548 560
35.62559 607
35.64571 582
35.66582 538
35.68593 557
35.70605 592
35.72616 590
35.74627 561
35.76639 557
35.7865 595
35.80661 541
35.82673 588
35.84684 619
35.86696 628
35.88707 620
35.90718 574
35.9273 576
35.94741 608
35.96752 575
35.98764 594
36.00775 585
36.02787 634
36.04798 596
36.06809 603
36.08821 561
36.10832 612
36.12843 579
36.14855 530
36.16866 553
36.18878 561
36.20889 495
36.229 550
36.24912 600
36.26923 576
36.28934 609
36.30946 575
36.32957 661
36.34968 690
36.3698 813
36.38991 836
36.41003 934
36.43014 986
36.45025 1138
36.47037 1257
36.49048 1298
36.51059 1410
36.53071 1354
36.55082 1192
36.57094 1175
36.59105 1050
36.61116 941
36.63128 852
36.65139 780
36.6715 698
36.69162 583
36.71173 578
36.73184 551
36.75196 510
36.77207 554
36.79219 536
36.8123 517
36.83241 549
36.85253 555
36.87264 534
36.89275 540
36.91287 564
36.93298 539
36.9531 553
36.97321 579
36.99332 541
37.01344 555
37.03355 500
37.05366 536
37.07378 512
37.09389 537
37.11401 507
37.13412 511
37.15423 511
37.17435 515
37.19446 567
37.21457 505
37.23469 488
37.2548 545
37.27491 503
37.29503 481
37.31514 539
37.33526 508
37.35537 491
37.37548 466
37.3956 505
37.41571 493
37.43582 491
37.45594 475
37.47605 499
37.49617 534
37.51628 510
37.53639 477
37.55651 487
37.57662 543
37.59673 554
37.61685 516
37.63696 570
37.65708 571
37.67719 539
37.6973 546
37.71742 557
37.73753 544
37.75764 505
37.77776 474
37.79787 535
37.81798 543
37.8381 495
37.85821 531
37.87833 443
37.89844 508
37.91855 505
37.93867 539
37.95878 499
37.97889 487
37.99901 489
38.01912 521
38.03924 490
38.05935 433
38.07946 522
38.09958 487
38.11969 523
38.1398 549
38.15992 549
38.18003 521
38.20015 504
38.22026 561
38.24037 548
38.26049 581
38.2806 540
38.30071 592
38.32083 600
38.34094 506
38.36105 535
38.38117 578
38.40128 504
38.4214 585
38.44151 578
38.46162 570
38.48174 573
38.50185 539
38.52196 564
38.54208 486
38.56219 496
38.58231 516
38.60242 554
38.62253 520
38.64265 553
38.66276 511
38.68287 453
38.70299 508
38.7231 509
38.74321 468
38.76333 467
38.78344 492
38.80356 440
38.82367 451
38.84378 456
38.8639 491
38.88401 487
38.90412 453
38.92424 466
38.94435 472
38.96447 454
38.98458 460
39.00469 473
39.02481 445
39.04492 479
39.06503 521
39.08515 462
39.10526 491
39.12538 486
39.14549 480
39.1656 509
39.18572 478
39.20583 528
39.22594 528
39.24606 617
39.26617 572
39.28628 674
39.3064 750
39.32651 855
39.34663 894
39.36674 1073
39.38685 1159
39.40697 1202
39.42708 1253
39.44719 1273
39.46731 1068
39.48742 1055
39.50754 912
39.52765 872
39.54776 857
39.56788 665
39.58799 635
39.6081 551
39.62822 536
39.64833 474
39.66845 438
39.68856 463
39.70867 471
39.72879 437
39.7489 432
39.76901 398
39.78913 409
39.80924 438
39.82935 453
39.84947 406
39.86958 430
39.8897 425
39.90981 447
39.92992 451
39.95004 443
39.97015 422
39.99026 447
40.01038 455
40.03049 496
40.05061 475
40.07072 489
40.09083 523
40.11095 548
40.13106 583
40.15117 608
40.17129 666
40.1914 763
40.21152 759
40.23163 797
40.25174 797
40.27186 787
40.29197 746
40.31208 724
40.3322 635
40.35231 635
40.37242 542
40.39254 551
40.41265 543
40.43277 482
40.45288 481
40.47299 460
40.49311 398
40.51322 402
40.53333 465
40.55345 431
40.57356 428
40.59368 456
40.61379 440
40.6339 421
40.65402 409
40.67413 430
40.69424 438
40.71436 458
40.73447 423
40.75458 417
40.7747 418
40.79481 417
40.81493 406
40.83504 451
40.85515 383
40.87527 400
40.89538 412
40.91549 401
40.93561 411
40.95572 424
40.97584 428
40.99595 441
41.01606 416
41.03618 432
41.05629 416
41.0764 421
41.09652 422
41.11663 437
41.13675 413
41.15686 432
41.17697 440
41.19709 441
41.2172 428
41.23731 424
41.25743 428
41.27754 444
41.29765 447
41.31777 453
41.33788 427
41.358 468
41.37811 406
41.39822 453
41.41834 443
41.43845 418
41.45856 405
41.47868 428
41.49879 390
41.51891 457
41.53902 447
41.55913 406
41.57925 435
41.59936 441
41.61947 404
41.63959 439
41.6597 415
41.67982 444
41.69993 394
41.72004 396
41.74016 406
41.76027 431
41.78038 393
41.8005 375
41.82061 436
41.84072 418
41.86084 405
41.88095 395
41.90107 398
41.92118 421
41.94129 395
41.96141 404
41.98152 365
42.00163 394
42.02175 419
42.04186 388
42.06198 410
42.08209 415
42.1022 393
42.12232 384
42.14243 408
42.16254 421
42.18266 425
42.20277 450
42.22289 493
42.243 539
42.26311 535
42.28323 565
42.30334 645
42.32345 666
42.34357 784
42.36368 799
42.38379 867
42.40391 953
42.42402 893
42.44414 833
42.46425 807
42.48436 735
42.50448 658
42.52459 613
42.5447 648
42.56482 543
42.58493 432
42.60505 433
42.62516 431
42.64527 375
42.66539 387
42.6855 371
42.70561 386
42.72573 375
42.74584 401
42.76595 342
42.78607 357
42.80618 366
42.8263 347
42.84641 345
42.86652 306
42.88664 354
42.90675 347
42.92686 327
42.94698 347
42.96709 352
42.98721 335
43.00732 337
43.02743 350
43.04755 324
43.06766 353
43.08777 318
43.10789 347
43.128 344
43.14812 353
43.16823 327
43.18834 328
43.20846 339
43.22857 337
43.24868 331
43.2688 316
43.28891 335
43.30902 379
43.32914 351
43.34925 337
43.36937 323
43.38948 328
43.40959 356
43.42971 342
43.44982 346
43.46993 355
43.49005 351
43.51016 352
43.53028 327
43.55039 346
43.5705 325
43.59062 318
43.61073 340
43.63084 334
43.65096 357
43.67107 306
43.69119 355
43.7113 320
43.73141 298
43.75153 308
43.77164 337
43.79175 353
43.81187 377
43.83198 366
43.85209 359
43.87221 380
43.89232 348
43.91244 327
43.93255 325
43.95266 354
43.97278 387
43.99289 340
44.013 344
44.03312 323
44.05323 381
44.07335 348
44.09346 364
44.11357 357
44.13369 374
44.1538 362
44.17391 350
44.19403 367
44.21414 364
44.23426 360
44.25437 354
44.27448 351
44.2946 319
44.31471 348
44.33482 337
44.35494 363
44.37505 344
44.39516 341
44.41528 372
44.43539 361
44.45551 320
44.47562 328
44.49573 328
44.51585 366
44.53596 332
44.55607 361
44.57619 345
44.5963 349
44.61642 368
44.63653 374
44.65664 305
44.67676 338
44.69687 338
44.71698 360
44.7371 308
44.75721 333
44.77732 347
44.79744 351
44.81755 371
44.83767 388
44.85778 346
44.87789 340
44.89801 347
44.91812 342
44.93823 339
44.95835 353
44.97846 323
44.99858 346
45.01869 402
45.0388 373
45.05892 389
45.07903 373
45.09914 363
45.11926 376
45.13937 388
45.15949 388
45.1796 409
45.19971 370
45.21983 408
45.23994 412
45.26005 422
45.28017 434
45.30028 410
45.32039 386
45.34051 423
45.36062 460
45.38074 402
45.40085 442
45.42096 450
45.44108 406
45.46119 457
45.4813 421
45.50142 423
45.52153 468
45.54165 440
45.56176 463
45.58187 476
45.60199 502
45.6221 530
45.64221 545
45.66233 602
45.68244 700
45.70256 663
45.72267 730
45.74278 711
45.7629 772
45.78301 699
45.80312 638
45.82324 602
45.84335 548
45.86346 579
45.88358 558
45.90369 491
45.92381 484
45.94392 436
45.96403 439
45.98415 388
46.00426 391
46.02437 419
46.04449 386
46.0646 405
46.08472 347
46.10483 366
46.12494 360
46.14506 346
46.16517 402
46.18528 401
46.2054 377
46.22551 376
46.24563 382
46.26574 381
46.28585 337
46.30597 335
46.32608 350
46.34619 355
46.36631 367
46.38642 329
46.40653 356
46.42665 331
46.44676 338
46.46688 360
46.48699 354
46.5071 353
46.52722 364
46.54733 349
46.56744 350
46.58756 338
46.60767 372
46.62779 350
46.6479 398
46.66801 349
46.68813 348
46.70824 333
46.72835 359
46.74847 362
46.76858 356
46.78869 342
46.80881 329
46.82892 343
46.84904 322
46.86915 327
46.88926 351
46.90938 349
46.92949 344
46.9496 336
46.96972 359
46.98983 349
47.00995 345
47.03006 364
47.05017 327
47.07029 349
47.0904 355
47.11051 344
47.13063 341
47.15074 377
47.17086 316
47.19097 304
47.21108 332
47.2312 368
47.25131 325
47.27142 344
47.29154 373
47.31165 359
47.33176 312
47.35188 361
47.37199 345
47.39211 337
47.41222 338
47.43233 357
47.45245 359
47.47256 351
47.49267 328
47.51279 355
47.5329 333
47.55302 351
47.57313 356
47.59324 331
47.61336 354
47.63347 353
47.65358 348
47.6737 321
47.69381 369
47.71393 410
47.73404 370
47.75415 363
47.77427 353
47.79438 338
47.81449 360
47.83461 344
47.85472 366
47.87483 370
47.89495 356
47.91506 366
47.93518 343
47.95529 377
47.9754 369
47.99552 352
48.01563 354
48.03574 370
48.05586 341
48.07597 380
48.09609 354
48.1162 331
48.13631 351
48.15643 327
48.17654 342
48.19665 342
48.21677 375
48.23688 323
48.257 359
48.27711 336
48.29722 363
48.31734 312
48.33745 340
48.35756 335
48.37768 345
48.39779 311
48.4179 370
48.43802 383
48.45813 372
48.47825 366
48.49836 312
48.51847 351
48.53859 343
48.5587 362
48.57881 353
48.59893 332
48.61904 327
48.63916 337
48.65927 370
48.67938 365
48.6995 335
48.71961 348
48.73972 372
48.75984 342
48.77995 383
48.80006 345
48.82018 357
48.84029 349
48.86041 322
48.88052 357
48.90063 344
48.92075 335
48.94086 327
48.96097 355
48.98109 375
49.0012 359
49.02132 327
49.04143 360
49.06154 339
49.08166 344
49.10177 347
49.12188 340
49.142 349
49.16211 359
49.18223 376
49.20234 374
49.22245 323
49.24257 347
49.26268 356
49.28279 357
49.30291 369
49.32302 355
49.34313 330
49.36325 348
49.38336 351
49.40348 337
49.42359 356
49.4437 366
49.46382 381
49.48393 382
49.50404 360
49.52416 370
49.54427 329
49.56439 337
49.5845 362
49.60461 352
49.62473 400
49.64484 325
49.66495 380
49.68507 371
49.70518 366
49.7253 399
49.74541 408
49.76552 365
49.78564 414
49.80575 457
49.82586 490
49.84598 449
49.86609 488
49.8862 546
49.90632 590
49.92643 644
49.94655 723
49.96666 787
49.98677 933
50.00689 1143
50.027 1230
50.04711 1462
50.06723 1556
50.08734 1588
50.10746 1588
50.12757 1448
50.14768 1334
50.1678 1173
50.18791 1089
50.20802 1006
50.22814 962
50.24825 888
50.26837 775
50.28848 638
50.30859 545
50.32871 474
50.34882 447
50.36893 398
50.38905 400
50.40916 437
50.42927 391
50.44939 377
50.4695 420
50.48962 383
50.50973 428
50.52984 374
50.54996 392
50.57007 382
50.59018 396
50.6103 368
50.63041 372
50.65053 380
50.67064 380
50.69075 362
50.71087 371
50.73098 380
50.75109 324
50.77121 352
50.79132 370
50.81143 351
50.83155 370
50.85166 356
50.87178 326
50.89189 334
50.912 331
50.93212 361
50.95223 357
50.97234 319
50.99246 354
51.01257 364
51.03269 326
51.0528 325
51.07291 311
51.09303 333
51.11314 365
51.13325 337
51.15337 354
51.17348 348
51.1936 321
51.21371 357
51.23382 305
51.25394 350
51.27405 346
51.29416 348
51.31428 319
51.33439 362
51.3545 339
51.37462 331
51.39473 318
51.41485 293
51.43496 332
51.45507 308
51.47519 345
51.4953 317
51.51541 335
51.53553 310
51.55564 304
51.57576 323
51.59587 302
51.61598 343
51.6361 294
51.65621 323
51.67632 329
51.69644 313
51.71655 280
51.73667 340
51.75678 280
51.77689 320
51.79701 333
51.81712 320
51.83723 340
51.85735 334
51.87746 322
51.89757 330
51.91769 319
51.9378 330
51.95792 333
51.97803 303
51.99814 323
52.01826 354
52.03837 335
52.05848 348
52.0786 338
52.09871 326
52.11883 362
52.13894 313
52.15905 331
52.17917 356
52.19928 320
52.21939 333
52.23951 328
52.25962 354
52.27974 343
52.29985 324
52.31996 336
52.34008 327
52.36019 330
52.3803 323
52.40042 311
52.42053 300
52.44064 327
52.46076 318
52.48087 295
52.50099 311
52.5211 312
52.54121 321
52.56133 360
52.58144 322
52.60155 314
52.62167 315
52.64178 310
52.6619 314
52.68201 313
52.70212 344
52.72224 315
52.74235 315
52.76246 312
52.78258 351
52.80269 376
52.8228 343
52.84292 328
52.86303 350
52.88315 354
52.90326 363
52.92337 332
52.94349 391
52.9636 366
52.98371 394
53.00383 356
53.02394 355
53.04406 342
53.06417 356
53.08428 367
53.1044 391
53.12451 357
53.14462 378
53.16474 390
53.18485 353
53.20497 384
53.22508 402
53.24519 367
53.26531 363
53.28542 359
53.30553 386
53.32565 363
53.34576 376
53.36587 396
53.38599 378
53.4061 378
53.42622 386
53.44633 401
53.46644 381
53.48656 360
53.50667 400
53.52678 414
53.5469 371
53.56701 392
53.58713 428
53.60724 404
53.62735 408
53.64747 384
53.66758 402
53.68769 400
53.70781 400
53.72792 435
53.74804 371
53.76815 414
53.78826 416
53.80838 406
53.82849 423
53.8486 422
53.86872 443
53.88883 421
53.90894 381
53.92906 463
53.94917 414
53.96929 402
53.9894 426
54.00951 420
54.02963 440
54.04974 458
54.06985 409
54.08997 393
54.11008 400
54.1302 405
54.15031 445
54.17042 459
54.19054 448
54.21065 420
54.23076 477
54.25088 453
54.27099 438
54.29111 447
54.31122 455
54.33133 450
54.35145 466
54.37156 455
54.39167 465
54.41179 441
54.4319 474
54.45201 488
54.47213 453
54.49224 461
54.51236 457
54.53247 431
54.55258 456
54.5727 483
54.59281 455
54.61292 473
54.63304 490
54.65315 503
54.67327 549
54.69338 557
54.71349 565
54.73361 633
54.75372 713
54.77383 732
54.79395 726
54.81406 799
54.83417 785
54.85429 727
54.8744 715
54.89452 720
54.91463 643
54.93474 637
54.95486 653
54.97497 610
54.99508 596
55.0152 565
55.03531 526
55.05543 502
55.07554 489
55.09565 502
55.11577 493
55.13588 442
55.15599 505
55.17611 545
55.19622 537
55.21634 580
55.23645 565
55.25656 574
55.27668 573
55.29679 505
55.3169 550
55.33702 537
55.35713 501
55.37724 472
55.39736 494
55.41747 509
55.43759 505
55.4577 465
55.47781 464
55.49793 424
55.51804 454
55.53815 404
55.55827 407
55.57838 451
55.5985 391
55.61861 409
55.63872 403
55.65884 400
55.67895 366
55.69906 362
55.71918 398
55.73929 426
55.75941 377
55.77952 400
55.79963 373
55.81975 377
55.83986 367
55.85997 345
55.88009 373
55.9002 420
55.92031 389
55.94043 373
55.96054 397
55.98066 418
56.00077 401
56.02088 370
56.041 363
56.06111 334
56.08122 411
56.10134 355
56.12145 353
56.14157 350
56.16168 351
56.18179 368
56.20191 398
56.22202 355
56.24213 393
56.26225 400
56.28236 387
56.30248 385
56.32259 353
56.3427 327
56.36282 377
56.38293 378
56.40304 348
56.42316 398
56.44327 341
56.46338 334
56.4835 374
56.50361 406
56.52373 346
56.54384 356
56.56395 350
56.58407 387
56.60418 383
56.62429 343
56.64441 347
56.66452 362
56.68464 334
56.70475 357
56.72486 348
56.74498 377
56.76509 356
56.7852 332
56.80532 331
56.82543 359
56.84554 315
56.86566 366
56.88577 356
56.90589 316
56.926 337
56.94611 354
56.96623 338
56.98634 311
57.00645 351
57.02657 347
57.04668 320
57.0668 355
57.08691 351
57.10702 346
57.12714 348
57.14725 348
57.16736 332
57.18748 312
57.20759 340
57.22771 385
57.24782 376
57.26793 367
57.28805 382
57.30816 345
57.32827 344
57.34839 360
57.3685 356
57.38861 349
57.40873 328
57.42884 340
57.44896 305
57.46907 347
57.48918 348
57.5093 359
57.52941 339
57.54952 323
57.56964 340
57.58975 371
57.60987 336
57.62998 343
57.65009 326
57.67021 351
57.69032 333
57.71043 332
57.73055 366
57.75066 349
57.77078 371
57.79089 356
57.811 336
57.83112 336
57.85123 337
57.87134 356
57.89146 325
57.91157 382
57.93168 346
57.9518 296
57.97191 323
57.99203 349
58.01214 346
58.03225 347
58.05237 329
58.07248 348
58.09259 333
58.11271 315
58.13282 310
58.15294 345
58.17305 309
58.19316 351
58.21328 343
58.23339 312
58.2535 335
58.27362 336
58.29373 347
58.31385 337
58.33396 332
58.35407 330
58.37419 346
58.3943 331
58.41441 318
58.43453 326
58.45464 327
58.47475 336
58.49487 355
58.51498 310
58.5351 335
58.55521 356
58.57532 320
58.59544 336
58.61555 343
58.63566 349
58.65578 276
58.67589 322
58.69601 288
58.71612 339
58.73623 287
58.75635 347
58.77646 306
58.79657 350
58.81669 343
58.8368 301
58.85691 325
58.87703 319
58.89714 328
58.91726 317
58.93737 351
58.95748 322
58.9776 329
58.99771 329
59.01782 329
59.03794 316
59.05805 357
59.07817 354
59.09828 328
59.11839 343
59.13851 362
59.15862 351
59.17873 386
59.19885 352
59.21896 340
59.23908 340
59.25919 352
59.2793 344
59.29942 329
59.31953 336
59.33964 336
59.35976 360
59.37987 326
59.39998 372
59.4201 365
59.44021 372
59.46033 415
59.48044 367
59.50055 363
59.52067 365
59.54078 389
59.56089 430
59.58101 419
59.60112 377
59.62124 430
59.64135 446
59.66146 452
59.68158 481
59.70169 513
59.7218 526
59.74192 568
59.76203 674
59.78215 694
59.80226 862
59.82237 845
59.84249 997
59.8626 1111
59.88271 1092
59.90283 1163
59.92294 1171
59.94305 1017
59.96317 920
59.98328 838
60.0034 775
60.02351 771
60.04362 728
60.06374 750
60.08385 708
60.10396 631
60.12408 617
60.14419 516
60.16431 473
60.18442 410
60.20453 410
60.22465 391
60.24476 374
60.26487 380
60.28499 369
60.3051 372
60.32522 353
60.34533 373
60.36544 375
60.38556 355
60.40567 336
60.42578 365
60.4459 357
60.46601 348
60.48612 366
60.50624 338
60.52635 325
60.54647 354
60.56658 321
60.58669 351
60.60681 354
60.62692 339
60.64703 348
60.66715 356
60.68726 324
60.70738 346
60.72749 343
60.7476 345
60.76772 331
60.78783 317
60.80794 336
60.82806 276
60.84817 308
60.86828 326
60.8884 343
60.90851 318
60.92863 327
60.94874 314
60.96885 328
60.98897 333
61.00908 344
61.02919 329
61.04931 332
61.06942 330
61.08954 330
61.10965 311
61.12976 332
61.14988 331
61.16999 341
61.1901 340
61.21022 334
61.23033 386
61.25045 332
61.27056 327
61.29067 290
61.31079 339
61.3309 308
61.35101 324
61.37113 321
61.39124 346
61.41135 354
61.43147 377
61.45158 353
61.4717 375
61.49181 397
61.51192 397
61.53204 406
61.55215 361
61.57226 372
61.59238 338
61.61249 372
61.63261 389
61.65272 413
61.67283 385
61.69295 384
61.71306 439
61.73317 417
61.75329 391
61.7734 416
61.79352 405
61.81363 413
61.83374 405
61.85386 427
61.87397 436
61.89408 396
61.9142 434
61.93431 441
61.95442 442
61.97454 412
61.99465 491
62.01477 410
62.03488 440
62.05499 424
62.07511 454
62.09522 483
62.11533 460
62.13545 462
62.15556 484
62.17568 491
62.19579 539
62.2159 458
62.23602 499
62.25613 502
62.27624 505
62.29636 557
62.31647 476
62.33659 474
62.3567 437
62.37681 458
62.39693 442
62.41704 459
62.43715 413
62.45727 418
62.47738 404
62.49749 419
62.51761 397
62.53772 414
62.55784 423
62.57795 390
62.59806 385
62.61818 384
62.63829 361
62.6584 365
62.67852 390
62.69863 379
62.71875 365
62.73886 358
62.75897 387
62.77909 358
62.7992 326
62.81931 380
62.83943 389
62.85954 376
62.87965 365
62.89977 313
62.91988 360
62.94 348
62.96011 355
62.98022 372
63.00034 292
63.02045 357
63.04056 391
63.06068 356
63.08079 326
63.10091 356
63.12102 323
63.14113 336
63.16125 341
63.18136 341
63.20147 341
63.22159 355
63.2417 358
63.26182 335
63.28193 354
63.30204 342
63.32216 339
63.34227 350
63.36238 383
63.3825 359
63.40261 326
63.42272 367
63.44284 344
63.46295 336
63.48307 327
63.50318 358
63.52329 346
63.54341 366
63.56352 343
63.58363 352
63.60375 331
63.62386 339
63.64398 369
63.66409 339
63.6842 394
63.70432 402
63.72443 361
63.74454 417
63.76466 376
63.78477 402
63.80489 350
63.825 390
63.84511 419
63.86523 399
63.88534 391
63.90545 430
63.92557 466
63.94568 491
63.96579 474
63.98591 498
64.00602 449
64.02614 461
64.04625 426
64.06636 428
64.08648 454
64.10659 409
64.1267 410
64.14682 425
64.16693 384
64.18705 415
64.20716 379
64.22727 403
64.24739 348
64.2675 335
64.28761 358
64.30773 339
64.32784 327
64.34796 336
64.36807 313
64.38818 328
64.4083 338
64.42841 323
64.44852 344
64.46864 332
64.48875 334
64.50886 348
64.52898 336
64.54909 343
64.56921 349
64.58932 327
64.60943 327
64.62955 293
64.64966 336
64.66977 316
64.68989 335
64.71 311
64.73012 309
64.75023 290
64.77034 305
64.79046 330
64.81057 335
64.83068 317
64.8508 290
64.87091 321
64.89102 338
64.91114 283
64.93125 315
64.95137 342
64.97148 329
64.99159 326
65.01171 288
65.03182 316
65.05193 299
65.07205 298
65.09216 332
65.11228 327
65.13239 314
65.1525 291
65.17262 321
65.19273 322
65.21284 276
65.23296 359
65.25307 325
65.27319 307
65.2933 346
65.31341 311
65.33353 299
65.35364 339
65.37375 332
65.39387 284
65.41398 330
65.43409 324
65.45421 333
65.47432 320
65.49444 303
65.51455 339
65.53466 299
65.55478 325
65.57489 326
65.595 332
65.61512 335
65.63523 326
65.65535 346
65.67546 327
65.69557 361
65.71569 350
65.7358 330
65.75591 340
65.77603 350
65.79614 333
65.81626 345
65.83637 354
65.85648 296
65.8766 322
65.89671 300
65.91682 306
65.93694 327
65.95705 318
65.97716 297
65.99728 347
66.01739 307
66.03751 295
66.05762 309
66.07773 333
66.09785 309
66.11796 310
66.13807 320
66.15819 310
66.1783 296
66.19842 355
66.21853 292
66.23864 299
66.25876 316
66.27887 319
66.29898 302
66.3191 295
66.33921 335
66.35933 279
66.37944 311
66.39955 325
66.41967 315
66.43978 303
66.45989 314
66.48001 301
66.50012 284
66.52023 334
66.54035 326
66.56046 295
66.58058 308
66.60069 309
66.6208 306
66.64092 314
66.66103 295
66.68114 308
66.70126 312
66.72137 327
66.74149 292
66.7616 309
66.78171 297
66.80183 293
66.82194 304
66.84205 274
66.86217 330
66.88228 308
66.90239 295
66.92251 310
66.94262 281
66.96274 310
66.98285 321
67.00296 335
67.02308 296
67.04319 354
67.0633 336
67.08342 307
67.10353 293
67.12365 314
67.14376 312
67.16387 335
67.18399 364
67.2041 328
67.22421 321
67.24433 350
67.26444 369
67.28456 365
67.30467 355
67.32478 353
67.3449 359
67.36501 383
67.38512 377
67.40524 361
67.42535 384
67.44546 388
67.46558 409
67.48569 432
67.50581 484
67.52592 503
67.54603 488
67.56615 545
67.58626 558
67.60637 653
67.62649 695
67.6466 751
67.66672 759
67.68683 779
67.70694 716
67.72706 761
67.74717 685
67.76728 583
67.7874 549
67.80751 630
67.82763 648
67.84774 639
67.86785 645
67.88797 694
67.90808 670
67.92819 677
67.94831 672
67.96842 705
67.98853 739
68.00865 766
68.02876 886
68.04888 898
68.06899 905
68.0891 955
68.10922 925
68.12933 923
68.14944 882
68.16956 834
68.18967 824
68.20979 895
68.2299 837
68.25001 880
68.27013 877
68.29024 876
68.31035 771
68.33047 702
68.35058 618
68.3707 545
68.39081 581
68.41092 482
68.43104 514
68.45115 505
68.47126 473
68.49138 490
68.51149 445
68.5316 377
68.55172 382
68.57183 345
68.59195 323
68.61206 328
68.63217 338
68.65229 343
68.6724 339
68.69251 328
68.71263 307
68.73274 334
68.75286 304
68.77297 305
68.79308 317
68.8132 331
68.83331 326
68.85342 306
68.87354 332
68.89365 297
68.91376 335
68.93388 334
68.95399 307
68.97411 332
68.99422 334
69.01433 301
69.03445 305
69.05456 282
69.07467 316
69.09479 292
69.1149 312
69.13502 316
69.15513 290
69.17524 319
69.19536 302
69.21547 315
69.23558 287
69.2557 304
69.27581 299
69.29593 324
69.31604 296
69.33615 289
69.35627 319
69.37638 291
69.39649 302
69.41661 307
69.43672 276
69.45683 320
69.47695 305
69.49706 290
69.51718 324
69.53729 275
69.5574 300
69.57752 252
69.59763 296
69.61774 321
69.63786 309
69.65797 297
69.67809 321
69.6982 283
69.71831 307
69.73843 315
69.75854 309
69.77865 286
69.79877 288
69.81888 306
69.839 326
69.85911 325
69.87922 300
69.89934 301
69.91945 310
69.93956 289
69.95968 301
69.97979 302
69.9999 358
70.02002 320
70.04013 300
70.06025 317
70.08036 323
70.10047 331
70.12059 316
70.1407 316
70.16081 312
70.18093 297
70.20104 313
70.22116 298
70.24127 310
70.26138 346
70.2815 308
70.30161 295
70.32172 303
70.34184 306
70.36195 335
70.38207 296
70.40218 322
70.42229 315
70.44241 290
70.46252 325
70.48263 275
70.50275 274
70.52286 275
70.54297 305
70.56309 285
70.5832 304
70.60332 310
70.62343 308
70.64354 303
70.66366 316
70.68377 320
70.70388 286
70.724 287
70.74411 304
70.76423 325
70.78434 297
70.80445 278
70.82457 306
70.84468 267
70.86479 290
70.88491 275
70.90502 290
70.92513 275
70.94525 290
70.96536 260
70.98548 284
71.00559 286
71.0257 303
71.04582 275
71.06593 267
71.08604 289
71.10616 281
71.12627 266
71.14639 313
71.1665 300
71.18661 288
71.20673 296
71.22684 305
71.24695 271
71.26707 311
71.28718 272
71.3073 297
71.32741 287
71.34752 301
71.36764 288
71.38775 283
71.40786 282
71.42798 277
71.44809 296
71.4682 317
71.48832 288
71.50843 262
71.52855 292
71.54866 298
71.56877 304
71.58889 330
71.609 280
71.62911 311
71.64923 265
71.66934 321
71.68946 295
71.70957 318
71.72968 307
71.7498 303
71.76991 298
71.79002 276
71.81014 310
71.83025 295
71.85037 328
71.87048 296
71.89059 308
71.91071 308
71.93082 315
71.95093 299
71.97105 313
71.99116 302
72.01127 301
72.03139 273
72.0515 304
72.07162 316
72.09173 275
72.11184 295
72.13196 337
72.15207 294
72.17218 308
72.1923 328
72.21241 279
72.23253 293
72.25264 285
72.27275 319
72.29287 312
72.31298 290
72.33309 296
72.35321 302
72.37332 303
72.39344 306
72.41355 310
72.43366 309
72.45378 277
72.47389 281
72.494 287
72.51412 289
72.53423 306
72.55434 271
72.57446 344
72.59457 298
72.61469 303
72.6348 323
72.65491 317
72.67503 265
72.69514 297
72.71525 328
72.73537 306
72.75548 318
72.7756 289
72.79571 315
72.81582 325
72.83594 320
72.85605 321
72.87616 334
72.89628 307
72.91639 326
72.9365 306
72.95662 325
72.97673 322
72.99685 316
73.01696 332
73.03707 292
73.05719 320
73.0773 291
73.09741 330
73.11753 335
73.13764 311
73.15776 366
73.17787 301
73.19798 346
73.2181 343
73.23821 349
73.25832 386
73.27844 392
73.29855 391
73.31867 392
73.33878 399
73.35889 430
73.37901 459
73.39912 484
73.41923 443
73.43935 467
73.45946 382
73.47957 438
73.49969 401
73.5198 425
73.53992 354
73.56003 380
73.58014 371
73.60026 436
73.62037 396
73.64048 401
73.6606 382
73.68071 363
73.70083 325
73.72094 346
73.74105 327
73.76117 320
73.78128 283
73.80139 306
73.82151 323
73.84162 323
73.86174 302
73.88185 283
73.90196 325
73.92208 289
73.94219 313
73.9623 300
73.98242 323
74.00253 295
74.02264 315
74.04276 301
74.06287 338
74.08299 300
74.1031 303
74.12321 300
74.14333 309
74.16344 295
74.18355 295
74.20367 304
74.22378 291
74.2439 274
74.26401 305
74.28412 299
74.30424 288
74.32435 292
74.34446 286
74.36458 257
74.38469 304
74.40481 285
74.42492 288
74.44503 265
74.46515 286
74.48526 302
74.50537 286
74.52549 278
74.5456 312
74.56571 300
74.58583 282
74.60594 290
74.62606 273
74.64617 304
74.66628 274
74.6864 288
74.70651 314
74.72662 272
74.74674 324
74.76685 292
74.78697 283
74.80708 285
74.82719 278
74.84731 282
74.86742 284
74.88753 264
74.90765 299
74.92776 301
74.94787 287
74.96799 314
74.9881 276
75.00822 263
