3.00117 19750
3.02128 19371
3.0414 18557
3.06151 18240
3.08162 17334
3.10174 17268
3.12185 16972
3.14197 16140
3.16208 16042
3.18219 15302
3.20231 15052
3.22242 14658
3.24253 13910
3.26265 13848
3.28276 13346
3.30288 12752
3.32299 12583
3.3431 11966
3.36322 11851
3.38333 11183
3.40344 10870
3.42356 10852
3.44367 10437
3.46379 10141
3.4839 9332
3.50401 9294
3.52413 8938
3.54424 8495
3.56435 8318
3.58447 7722
3.60458 7758
3.62469 7460
3.64481 6893
3.66492 6724
3.68504 6497
3.70515 6389
3.72526 6078
3.74538 5821
3.76549 5634
3.7856 5139
3.80572 5053
3.82583 5086
3.84595 4622
3.86606 4497
3.88617 4299
3.90629 4133
3.9264 3947
3.94651 3756
3.96663 3531
3.98674 3334
4.00686 3412
4.02697 3363
4.04708 3100
4.0672 2890
4.08731 2771
4.10742 2668
4.12754 2659
4.14765 2330
4.16776 2360
4.18788 2170
4.20799 2278
4.22811 2163
4.24822 2034
4.26833 1953
4.28845 1864
4.30856 1869
4.32867 1802
4.34879 1657
4.3689 1677
4.38902 1609
4.40913 1640
4.42924 1613
4.44936 1475
4.46947 1479
4.48958 1336
4.5097 1330
4.52981 1396
4.54992 1288
4.57004 1275
4.59015 1230
4.61027 1194
4.63038 1300
4.65049 1079
4.67061 1109
4.69072 1077
4.71083 1114
4.73095 1095
4.75106 978
4.77118 966
4.79129 967
4.8114 958
4.83152 941
4.85163 899
4.87174 880
4.89186 970
4.91197 869
4.93209 889
4.9522 787
4.97231 833
4.99243 812
5.01254 729
5.03265 777
5.05277 743
5.07288 698
5.09299 747
5.11311 733
5.13322 698
5.15334 667
5.17345 644
5.19356 664
5.21368 618
5.23379 639
5.2539 584
5.27402 622
5.29413 577
5.31425 558
5.33436 543
5.35447 547
5.37459 463
5.3947 525
5.41481 514
5.43493 487
5.45504 477
5.47516 482
5.49527 480
5.51538 476
5.5355 464
5.55561 465
5.57572 441
5.59584 444
5.61595 434
5.63606 365
5.65618 410
5.67629 415
5.69641 424
5.71652 378
5.73663 374
5.75675 417
5.77686 399
5.79697 374
5.81709 359
5.8372 317
5.85732 361
5.87743 327
5.89754 369
5.91766 348
5.93777 371
5.95788 366
5.978 372
5.99811 353
6.01823 378
6.03834 363
6.05845 356
6.07857 317
6.09868 357
6.11879 341
6.13891 332
6.15902 307
6.17913 334
6.19925 292
6.21936 323
6.23948 290
6.25959 278
6.2797 300
6.29982 295
6.31993 322
6.34004 322
6.36016 309
6.38027 326
6.40039 325
6.4205 304
6.44061 328
6.46073 320
6.48084 271
6.50095 302
6.52107 319
6.54118 269
6.56129 310
6.58141 289
6.60152 294
6.62164 287
6.64175 268
6.66186 297
6.68198 288
6.70209 278
6.7222 285
6.74232 311
6.76243 289
6.78255 292
6.80266 313
6.82277 300
6.84289 262
6.863 284
6.88311 279
6.90323 292
6.92334 282
6.94346 286
6.96357 273
6.98368 289
7.0038 288
7.02391 264
7.04402 296
7.06414 258
7.08425 286
7.10436 301
7.12448 274
7.14459 280
7.16471 270
7.18482 258
7.20493 276
7.22505 263
7.24516 296
7.26527 281
7.28539 272
7.3055 318
7.32562 275
7.34573 255
7.36584 283
7.38596 261
7.40607 268
7.42618 255
7.4463 287
7.46641 316
7.48653 272
7.50664 285
7.52675 287
7.54687 265
7.56698 287
7.58709 307
7.60721 308
7.62732 274
7.64743 267
7.66755 280
7.68766 319
7.70778 260
7.72789 265
7.748 274
7.76812 268
7.78823 278
7.80834 270
7.82846 282
7.84857 273
7.86869 307
7.8888 331
7.90891 289
7.92903 290
7.94914 281
7.96925 253
7.98937 302
8.00948 290
8.0296 287
8.04971 267
8.06982 248
8.08994 263
8.11005 267
8.13016 270
8.15028 318
8.17039 294
8.1905 311
8.21062 286
8.23073 289
8.25085 292
8.27096 294
8.29107 279
8.31119 287
8.3313 279
8.35141 267
8.37153 306
8.39164 283
8.41176 277
8.43187 268
8.45198 286
8.4721 278
8.49221 285
8.51232 292
8.53244 301
8.55255 291
8.57266 280
8.59278 274
8.61289 289
8.63301 299
8.65312 287
8.67323 298
8.69335 271
8.71346 312
8.73357 274
8.75369 286
8.7738 310
8.79392 281
8.81403 264
8.83414 281
8.85426 282
8.87437 266
8.89448 275
8.9146 304
8.93471 301
8.95483 299
8.97494 309
8.99505 301
9.01517 282
9.03528 290
9.05539 291
9.07551 298
9.09562 311
9.11573 273
9.13585 298
9.15596 271
9.17608 266
9.19619 278
9.2163 317
9.23642 295
9.25653 278
9.27664 290
9.29676 309
9.31687 303
9.33699 286
9.3571 262
9.37721 270
9.39733 277
9.41744 284
9.43755 292
9.45767 316
9.47778 325
9.4979 291
9.51801 326
9.53812 285
9.55824 309
9.57835 320
9.59846 271
9.61858 268
9.63869 287
9.6588 269
9.67892 290
9.69903 253
9.71915 305
9.73926 292
9.75937 287
9.77949 288
9.7996 295
9.81971 272
9.83983 309
9.85994 306
9.88006 282
9.90017 292
9.92028 291
9.9404 294
9.96051 280
9.98062 295
10.00074 326
10.02085 278
10.04097 346
10.06108 289
10.08119 313
10.10131 284
10.12142 311
10.14153 280
10.16165 304
10.18176 280
10.20187 279
10.22199 275
10.2421 294
10.26222 291
10.28233 285
10.30244 280
10.32256 291
10.34267 324
10.36278 292
10.3829 338
10.40301 319
10.42313 280
10.44324 274
10.46335 280
10.48347 283
10.50358 286
10.52369 281
10.54381 304
10.56392 272
10.58403 305
10.60415 263
10.62426 298
10.64438 315
10.66449 285
10.6846 263
10.70472 286
10.72483 272
10.74494 257
10.76506 301
10.78517 286
10.80529 280
10.8254 320
10.84551 309
10.86563 272
10.88574 311
10.90585 271
10.92597 295
10.94608 299
10.9662 296
10.98631 333
11.00642 332
11.02654 283
11.04665 271
11.06676 286
11.08688 297
11.10699 299
11.1271 283
11.14722 283
11.16733 294
11.18745 278
11.20756 265
11.22767 309
11.24779 270
11.2679 316
11.28801 304
11.30813 272
11.32824 270
11.34836 303
11.36847 293
11.38858 310
11.4087 309
11.42881 290
11.44892 316
11.46904 318
11.48915 327
11.50927 274
11.52938 346
11.54949 325
11.56961 307
11.58972 323
11.60983 285
11.62995 332
11.65006 350
11.67017 307
11.69029 336
11.7104 332
11.73052 336
11.75063 324
11.77074 313
11.79086 315
11.81097 346
11.83108 367
11.8512 380
11.87131 332
11.89143 353
11.91154 345
11.93165 362
11.95177 414
11.97188 401
11.99199 440
12.01211 422
12.03222 413
12.05234 435
12.07245 490
12.09256 478
12.11268 541
12.13279 508
12.1529 571
12.17302 583
12.19313 631
12.21324 597
12.23336 723
12.25347 740
12.27359 746
12.2937 714
12.31381 768
12.33393 800
12.35404 742
12.37415 731
12.39427 693
12.41438 570
12.4345 588
12.45461 614
12.47472 491
12.49484 441
12.51495 427
12.53506 408
12.55518 382
12.57529 416
12.5954 360
12.61552 360
12.63563 353
12.65575 368
12.67586 297
12.69597 330
12.71609 323
12.7362 331
12.75631 273
12.77643 309
12.79654 333
12.81666 312
12.83677 311
12.85688 292
12.877 303
12.89711 287
12.91722 280
12.93734 291
12.95745 266
12.97757 292
12.99768 282
13.01779 276
13.03791 254
13.05802 271
13.07813 275
13.09825 273
13.11836 282
13.13847 266
13.15859 257
13.1787 258
13.19882 279
13.21893 284
13.23904 292
13.25916 267
13.27927 265
13.29938 254
13.3195 245
13.33961 266
13.35973 266
13.37984 261
13.39995 273
13.42007 261
13.44018 276
13.46029 273
13.48041 259
13.50052 284
13.52064 260
13.54075 266
13.56086 280
13.58098 287
13.60109 279
13.6212 233
13.64132 275
13.66143 295
13.68154 266
13.70166 284
13.72177 279
13.74189 241
13.762 290
13.78211 260
13.80223 299
13.82234 270
13.84245 249
13.86257 250
13.88268 261
13.9028 241
13.92291 259
13.94302 241
13.96314 237
13.98325 251
14.00336 266
14.02348 261
14.04359 252
14.06371 250
14.08382 249
14.10393 269
14.12405 256
14.14416 264
14.16427 253
14.18439 239
14.2045 243
14.22461 260
14.24473 259
14.26484 235
14.28496 246
14.30507 231
14.32518 248
14.3453 222
14.36541 246
14.38552 251
14.40564 244
14.42575 244
14.44587 246
14.46598 243
14.48609 223
14.50621 228
14.52632 267
14.54643 241
14.56655 250
14.58666 258
14.60677 215
14.62689 240
14.647 232
14.66712 261
14.68723 240
14.70734 240
14.72746 225
14.74757 243
14.76768 229
14.7878 223
14.80791 233
14.82803 227
14.84814 249
14.86825 233
14.88837 252
14.90848 218
14.92859 268
14.94871 238
14.96882 248
14.98894 248
15.00905 220
15.02916 224
15.04928 250
15.06939 228
15.0895 231
15.10962 220
15.12973 236
15.14984 235
15.16996 235
15.19007 244
15.21019 248
15.2303 230
15.25041 225
15.27053 219
15.29064 275
15.31075 234
15.33087 250
15.35098 250
15.3711 241
15.39121 221
15.41132 226
15.43144 217
15.45155 221
15.47166 229
15.49178 237
15.51189 250
15.53201 214
15.55212 223
15.57223 251
15.59235 226
15.61246 225
15.63257 230
15.65269 248
15.6728 236
15.69291 230
15.71303 236
15.73314 245
15.75326 240
15.77337 250
15.79348 194
15.8136 252
15.83371 229
15.85382 234
15.87394 233
15.89405 204
15.91417 235
15.93428 221
15.95439 234
15.97451 245
15.99462 216
16.01473 240
16.03485 254
16.05496 252
16.07508 232
16.09519 246
16.1153 243
16.13542 232
16.15553 250
16.17564 216
16.19576 267
16.21587 235
16.23598 221
16.2561 222
16.27621 241
16.29633 236
16.31644 226
16.33655 218
16.35667 222
16.37678 222
16.39689 242
16.41701 243
16.43712 217
16.45724 265
16.47735 208
16.49746 218
16.51758 223
16.53769 239
16.5578 223
16.57792 230
16.59803 241
16.61814 235
16.63826 198
16.65837 217
16.67849 224
16.6986 210
16.71871 234
16.73883 202
16.75894 223
16.77905 215
16.79917 214
16.81928 224
16.8394 231
16.85951 229
16.87962 239
16.89974 237
16.91985 237
16.93996 246
16.96008 228
16.98019 251
17.00031 232
17.02042 247
17.04053 236
17.06065 218
17.08076 221
17.10087 226
17.12099 240
17.1411 252
17.16121 246
17.18133 239
17.20144 262
17.22156 219
17.24167 249
17.26178 235
17.2819 199
17.30201 255
17.32212 224
17.34224 261
17.36235 217
17.38247 231
17.40258 257
17.42269 202
17.44281 244
17.46292 211
17.48303 223
17.50315 221
17.52326 235
17.54338 249
17.56349 249
17.5836 219
17.60372 234
17.62383 245
17.64394 229
17.66406 244
17.68417 218
17.70428 266
17.7244 254
17.74451 237
17.76463 261
17.78474 225
17.80485 239
17.82497 254
17.84508 249
17.86519 253
17.88531 265
17.90542 252
17.92554 244
17.94565 224
17.96576 243
17.98588 251
18.00599 255
18.0261 245
18.04622 233
18.06633 241
18.08645 239
18.10656 217
18.12667 214
18.14679 260
18.1669 217
18.18701 226
18.20713 229
18.22724 236
18.24735 241
18.26747 230
18.28758 210
18.3077 232
18.32781 238
18.34792 198
18.36804 241
18.38815 201
18.40826 209
18.42838 262
18.44849 233
18.46861 229
18.48872 253
18.50883 243
18.52895 255
18.54906 226
18.56917 222
18.58929 224
18.6094 264
18.62951 231
18.64963 222
18.66974 244
18.68986 229
18.70997 225
18.73008 227
18.7502 227
18.77031 265
18.79042 242
18.81054 259
18.83065 272
18.85077 234
18.87088 214
18.89099 204
18.91111 220
18.93122 236
18.95133 212
18.97145 221
18.99156 214
19.01168 234
19.03179 223
19.0519 251
19.07202 226
19.09213 221
19.11224 238
19.13236 281
19.15247 234
19.17258 236
19.1927 241
19.21281 207
19.23293 234
19.25304 225
19.27315 230
19.29327 246
19.31338 261
19.33349 236
19.35361 254
19.37372 236
19.39384 257
19.41395 243
19.43406 232
19.45418 273
19.47429 260
19.4944 264
19.51452 280
19.53463 272
19.55475 295
19.57486 298
19.59497 295
19.61509 354
19.6352 340
19.65531 310
19.67543 345
19.69554 358
19.71565 410
19.73577 450
19.75588 534
19.776 507
19.79611 541
19.81622 614
19.83634 640
19.85645 671
19.87656 583
19.89668 606
19.91679 640
19.93691 645
19.95702 587
19.97713 647
19.99725 553
20.01736 564
20.03747 590
20.05759 579
20.0777 543
20.09782 561
20.11793 563
20.13804 554
20.15816 579
20.17827 585
20.19838 573
20.2185 574
20.23861 536
20.25872 543
20.27884 592
20.29895 549
20.31907 583
20.33918 578
20.35929 546
20.37941 565
20.39952 600
20.41963 642
20.43975 563
20.45986 610
20.47998 582
20.50009 612
20.5202 624
20.54032 626
20.56043 664
20.58054 674
20.60066 739
20.62077 682
20.64088 853
20.661 896
20.68111 1151
20.70123 1438
20.72134 2016
20.74145 2670
20.76157 3574
20.78168 4650
20.80179 5352
20.82191 6039
20.84202 5968
20.86214 5417
20.88225 4425
20.90236 3213
20.92248 2300
20.94259 1528
20.9627 1149
20.98282 862
21.00293 763
21.02305 655
21.04316 706
21.06327 661
21.08339 649
21.1035 572
21.12361 628
21.14373 644
21.16384 644
21.18395 609
21.20407 577
21.22418 524
21.2443 607
21.26441 620
21.28452 594
21.30464 596
21.32475 583
21.34486 580
21.36498 517
21.38509 535
21.40521 572
21.42532 542
21.44543 487
21.46555 519
21.48566 492
21.50577 458
21.52589 489
21.546 439
21.56612 494
21.58623 472
21.60634 482
21.62646 449
21.64657 430
21.66668 430
21.6868 450
21.70691 429
21.72702 392
21.74714 404
21.76725 398
21.78737 396
21.80748 420
21.82759 394
21.84771 371
21.86782 414
21.88793 377
21.90805 406
21.92816 398
21.94828 357
21.96839 385
21.9885 422
22.00862 386
22.02873 324
22.04884 363
22.06896 393
22.08907 362
22.10919 375
22.1293 378
22.14941 374
22.16953 388
22.18964 391
22.20975 347
22.22987 391
22.24998 361
22.27009 367
22.29021 382
22.31032 373
22.33044 348
22.35055 366
22.37066 381
22.39078 369
22.41089 354
22.431 364
22.45112 345
22.47123 325
22.49135 358
22.51146 345
22.53157 334
22.55169 334
22.5718 334
22.59191 320
22.61203 335
22.63214 346
22.65225 350
22.67237 315
22.69248 336
22.7126 348
22.73271 302
22.75282 329
22.77294 307
22.79305 328
22.81316 328
22.83328 354
22.85339 316
22.87351 325
22.89362 357
22.91373 312
22.93385 329
22.95396 371
22.97407 327
22.99419 356
23.0143 299
23.03442 324
23.05453 319
23.07464 332
23.09476 319
23.11487 353
23.13498 343
23.1551 338
23.17521 321
23.19532 335
23.21544 324
23.23555 277
23.25567 341
23.27578 327
23.29589 329
23.31601 322
23.33612 315
23.35623 311
23.37635 328
23.39646 351
23.41658 341
23.43669 305
23.4568 334
23.47692 328
23.49703 320
23.51714 302
23.53726 314
23.55737 318
23.57749 326
23.5976 317
23.61771 338
23.63783 350
23.65794 321
23.67805 342
23.69817 313
23.71828 316
23.73839 323
23.75851 320
23.77862 319
23.79874 327
23.81885 324
23.83896 363
23.85908 335
23.87919 399
23.8993 348
23.91942 354
23.93953 371
23.95965 394
23.97976 343
23.99987 365
24.01999 382
24.0401 385
24.06021 341
24.08033 348
24.10044 323
24.12056 345
24.14067 351
24.16078 338
24.1809 370
24.20101 347
24.22112 336
24.24124 331
24.26135 353
24.28146 318
24.30158 346
24.32169 386
24.34181 354
24.36192 342
24.38203 337
24.40215 360
24.42226 325
24.44237 335
24.46249 391
24.4826 417
24.50272 387
24.52283 352
24.54294 401
24.56306 426
24.58317 398
24.60328 411
24.6234 452
24.64351 481
24.66362 514
24.68374 501
24.70385 546
24.72397 595
24.74408 620
24.76419 652
24.78431 716
24.80442 647
24.82453 641
24.84465 730
24.86476 645
24.88488 584
24.90499 640
24.9251 591
24.94522 584
24.96533 557
24.98544 529
25.00556 508
25.02567 485
25.04579 446
25.0659 475
25.08601 492
25.10613 446
25.12624 443
25.14635 402
25.16647 447
25.18658 454
25.20669 442
25.22681 492
25.24692 509
25.26704 478
25.28715 476
25.30726 449
25.32738 444
25.34749 399
25.3676 400
25.38772 419
25.40783 372
25.42795 349
25.44806 361
25.46817 363
25.48829 328
25.5084 389
25.52851 381
25.54863 384
25.56874 354
25.58886 401
25.60897 414
25.62908 398
25.6492 411
25.66931 392
25.68942 435
25.70954 438
25.72965 440
25.74976 460
25.76988 488
25.78999 446
25.81011 469
25.83022 475
25.85033 464
25.87045 505
25.89056 505
25.91067 500
25.93079 471
25.9509 501
25.97102 546
25.99113 476
26.01124 505
26.03136 533
26.05147 517
26.07158 541
26.0917 571
26.11181 553
26.13193 614
26.15204 621
26.17215 697
26.19227 750
26.21238 773
26.23249 800
26.25261 922
26.27272 850
26.29283 977
26.31295 1058
26.33306 1235
26.35318 1344
26.37329 1482
26.3934 1889
26.41352 2286
26.43363 2907
26.45374 3958
26.47386 5740
26.49397 7963
26.51409 11313
26.5342 15420
26.55431 19650
26.57443 24275
26.59454 26683
26.61465 25997
26.63477 23958
26.65488 19670
26.67499 15734
26.69511 11256
26.71522 7601
26.73534 4961
26.75545 3119
26.77556 2165
26.79568 1576
26.81579 1297
26.8359 1185
26.85602 1080
26.87613 991
26.89625 864
26.91636 834
26.93647 771
26.95659 721
26.9767 667
26.99681 650
27.01693 629
27.03704 522
27.05716 540
27.07727 569
27.09738 505
27.1175 468
27.13761 448
27.15772 487
27.17784 459
27.19795 428
27.21806 418
27.23818 442
27.25829 400
27.27841 452
27.29852 455
27.31863 451
27.33875 415
27.35886 423
27.37897 460
27.39909 444
27.4192 436
27.43932 431
27.45943 398
27.47954 404
27.49966 437
27.51977 410
27.53988 439
27.56 376
27.58011 376
27.60023 366
27.62034 383
27.64045 365
27.66057 363
27.68068 357
27.70079 345
27.72091 332
27.74102 387
27.76113 379
27.78125 358
27.80136 379
27.82148 351
27.84159 374
27.8617 337
27.88182 342
27.90193 342
27.92204 327
27.94216 346
27.96227 362
27.98239 295
28.0025 329
28.02261 327
28.04273 341
28.06284 338
28.08295 316
28.10307 294
28.12318 322
28.1433 310
28.16341 321
28.18352 320
28.20364 323
28.22375 308
28.24386 340
28.26398 329
28.28409 336
28.3042 309
28.32432 316
28.34443 329
28.36455 304
28.38466 315
28.40477 311
28.42489 342
28.445 293
28.46511 282
28.48523 294
28.50534 309
28.52546 323
28.54557 305
28.56568 278
28.5858 305
28.60591 289
28.62602 292
28.64614 277
28.66625 283
28.68636 336
28.70648 295
28.72659 303
28.74671 322
28.76682 321
28.78693 267
28.80705 320
28.82716 302
28.84727 279
28.86739 302
28.8875 300
28.90762 285
28.92773 301
28.94784 293
28.96796 287
28.98807 290
29.00818 276
29.0283 292
29.04841 276
29.06853 291
29.08864 282
29.10875 302
29.12887 273
29.14898 266
29.16909 269
29.18921 307
29.20932 274
29.22943 322
29.24955 294
29.26966 265
29.28978 270
29.30989 239
29.33 287
29.35012 293
29.37023 331
29.39034 303
29.41046 273
29.43057 312
29.45069 282
29.4708 279
29.49091 281
29.51103 264
29.53114 307
29.55125 292
29.57137 274
29.59148 284
29.6116 273
29.63171 253
29.65182 297
29.67194 259
29.69205 289
29.71216 288
29.73228 268
29.75239 264
29.7725 279
29.79262 280
29.81273 299
29.83285 286
29.85296 279
29.87307 284
29.89319 287
29.9133 280
29.93341 285
29.95353 275
29.97364 270
29.99376 259
30.01387 254
30.03398 293
30.0541 254
30.07421 233
30.09432 293
30.11444 289
30.13455 289
30.15467 314
30.17478 294
30.19489 302
30.21501 300
30.23512 279
30.25523 297
30.27535 305
30.29546 276
30.31557 255
30.33569 281
30.3558 276
30.37592 255
30.39603 286
30.41614 271
30.43626 306
30.45637 307
30.47648 255
30.4966 284
30.51671 306
30.53683 264
30.55694 265
30.57705 267
30.59717 277
30.61728 285
30.63739 264
30.65751 272
30.67762 303
30.69773 279
30.71785 262
30.73796 269
30.75808 259
30.77819 276
30.7983 262
30.81842 292
30.83853 270
30.85864 269
30.87876 240
30.89887 256
30.91899 249
30.9391 241
30.95921 247
30.97933 269
30.99944 281
31.01955 252
31.03967 252
31.05978 250
31.0799 254
31.10001 248
31.12012 280
31.14024 256
31.16035 235
31.18046 252
31.20058 244
31.22069 228
31.2408 259
31.26092 283
31.28103 238
31.30115 256
31.32126 240
31.34137 261
31.36149 251
31.3816 241
31.40171 234
31.42183 246
31.44194 254
31.46206 267
31.48217 254
31.50228 226
31.5224 234
31.54251 249
31.56262 280
31.58274 272
31.60285 247
31.62297 244
31.64308 238
31.66319 255
31.68331 243
31.70342 246
31.72353 248
31.74365 257
31.76376 229
31.78387 248
31.80399 246
31.8241 243
31.84422 260
31.86433 281
31.88444 233
31.90456 234
31.92467 260
31.94478 254
31.9649 254
31.98501 259
32.00513 250
32.02524 234
32.04535 225
32.06547 230
32.08558 249
32.10569 242
32.12581 274
32.14592 270
32.16604 235
32.18615 240
32.20626 236
32.22638 258
32.24649 249
32.2666 271
32.28672 229
32.30683 268
32.32694 241
32.34706 251
32.36717 232
32.38729 252
32.4074 225
32.42751 246
32.44763 257
32.46774 242
32.48785 226
32.50797 233
32.52808 231
32.5482 257
32.56831 232
32.58842 243
32.60854 251
32.62865 238
32.64876 254
32.66888 264
32.68899 274
32.7091 268
32.72922 281
32.74933 277
32.76945 238
32.78956 275
32.80967 246
32.82979 262
32.8499 231
32.87001 265
32.89013 245
32.91024 273
32.93036 290
32.95047 294
32.97058 285
32.9907 250
33.01081 268
33.03092 270
33.05104 256
33.07115 300
33.09127 311
33.11138 283
33.13149 275
33.15161 296
33.17172 286
33.19183 293
33.21195 300
33.23206 272
33.25217 297
33.27229 311
33.2924 278
33.31252 266
33.33263 302
33.35274 318
33.37286 291
33.39297 313
33.41308 281
33.4332 275
33.45331 299
33.47343 285
33.49354 263
33.51365 272
33.53377 293
33.55388 284
33.57399 274
33.59411 267
33.61422 265
33.63434 280
33.65445 254
33.67456 268
33.69468 240
33.71479 251
33.7349 260
33.75502 262
33.77513 257
33.79524 258
33.81536 245
33.83547 273
33.85559 212
33.8757 254
33.89581 225
33.91593 260
33.93604 284
33.95615 267
33.97627 268
33.99638 258
34.0165 247
34.03661 225
34.05672 230
34.07684 245
34.09695 224
34.11706 240
34.13718 262
34.15729 228
34.17741 230
34.19752 252
34.21763 251
34.23775 266
34.25786 256
34.27797 238
34.29809 218
34.3182 218
34.33831 262
34.35843 261
34.37854 242
34.39866 255
34.41877 250
34.43888 266
34.459 254
34.47911 259
34.49922 252
34.51934 232
34.53945 266
34.55957 286
34.57968 256
34.59979 290
34.61991 319
34.64002 358
34.66013 342
34.68025 309
34.70036 316
34.72047 327
34.74059 358
34.7607 356
34.78082 416
34.80093 381
34.82104 433
34.84116 414
34.86127 437
34.88138 464
34.9015 435
34.92161 438
34.94173 455
34.96184 438
34.98195 450
35.00207 407
35.02218 395
35.04229 437
35.06241 383
35.08252 391
35.10264 378
35.12275 334
35.14286 400
35.16298 357
35.18309 332
35.2032 311
35.22332 365
35.24343 348
35.26354 358
35.28366 358
35.30377 334
35.32389 366
35.344 347
35.36411 344
35.38423 376
35.40434 387
35.42445 353
35.44457 361
35.46468 370
35.4848 370
35.50491 390
35.52502 392
35.54514 430
35.56525 372
35.58536 458
35.60548 435
35.62559 471
35.64571 397
35.66582 480
35.68593 438
35.70605 409
35.72616 433
35.74627 409
35.76639 410
35.7865 427
35.80661 413
35.82673 412
35.84684 430
35.86696 458
35.88707 403
35.90718 412
35.9273 409
35.94741 399
35.96752 424
35.98764 398
36.00775 393
36.02787 384
36.04798 415
36.06809 372
36.08821 362
36.10832 383
36.12843 353
36.14855 414
36.16866 365
36.18878 395
36.20889 414
36.229 411
36.24912 411
36.26923 427
36.28934 466
36.30946 513
36.32957 556
36.34968 650
36.3698 745
36.38991 959
36.41003 1113
36.43014 1328
36.45025 1612
36.47037 1854
36.49048 2022
36.51059 1933
36.53071 1845
36.55082 1552
36.57094 1405
36.59105 1212
36.61116 1087
36.63128 956
36.65139 721
36.6715 547
36.69162 452
36.71173 438
36.73184 404
36.75196 383
36.77207 397
36.79219 381
36.8123 416
36.83241 419
36.85253 388
36.87264 406
36.89275 387
36.91287 376
36.93298 378
36.9531 361
36.97321 416
36.99332 376
37.01344 364
37.03355 347
37.05366 357
37.07378 358
37.09389 348
37.11401 311
37.13412 316
37.15423 343
37.17435 313
37.19446 323
37.21457 324
37.23469 309
37.2548 324
37.27491 319
37.29503 325
37.31514 314
37.33526 329
37.35537 356
37.37548 313
37.3956 310
37.41571 342
37.43582 328
37.45594 332
37.47605 316
37.49617 333
37.51628 344
37.53639 317
37.55651 322
37.57662 352
37.59673 333
37.61685 332
37.63696 350
37.65708 362
37.67719 301
37.6973 326
37.71742 339
37.73753 381
37.75764 319
37.77776 334
37.79787 356
37.81798 347
37.8381 332
37.85821 334
37.87833 351
37.89844 316
37.91855 348
37.93867 366
37.95878 313
37.97889 318
37.99901 341
38.01912 355
38.03924 314
38.05935 335
38.07946 325
38.09958 333
38.11969 331
38.1398 371
38.15992 339
38.18003 364
38.20015 367
38.22026 338
38.24037 397
38.26049 370
38.2806 422
38.30071 404
38.32083 397
38.34094 442
38.36105 428
38.38117 392
38.40128 415
38.4214 431
38.44151 402
38.46162 394
38.48174 408
38.50185 384
38.52196 396
38.54208 363
38.56219 410
38.58231 424
38.60242 446
38.62253 381
38.64265 403
38.66276 372
38.68287 358
38.70299 361
38.7231 367
38.74321 313
38.76333 363
38.78344 374
38.80356 370
38.82367 359
38.84378 371
38.8639 347
38.88401 348
38.90412 375
38.92424 324
38.94435 372
38.96447 332
38.98458 327
39.00469 341
39.02481 380
39.04492 382
39.06503 373
39.08515 337
39.10526 396
39.12538 370
39.14549 384
39.1656 424
39.18572 426
39.20583 453
39.22594 516
39.24606 537
39.26617 608
39.28628 695
39.3064 790
39.32651 958
39.34663 1233
39.36674 1474
39.38685 1659
39.40697 1887
39.42708 1832
39.44719 1719
39.46731 1556
39.48742 1385
39.50754 1161
39.52765 1090
39.54776 928
39.56788 758
39.58799 542
39.6081 520
39.62822 387
39.64833 295
39.66845 325
39.68856 300
39.70867 328
39.72879 313
39.7489 312
39.76901 292
39.78913 296
39.80924 292
39.82935 304
39.84947 288
39.86958 265
39.8897 291
39.90981 292
39.92992 287
39.95004 319
39.97015 321
39.99026 360
40.01038 333
40.03049 384
40.05061 350
40.07072 403
40.09083 474
40.11095 472
40.13106 516
40.15117 651
40.17129 749
40.1914 846
40.21152 958
40.23163 1023
40.25174 998
40.27186 1032
40.29197 824
40.31208 831
40.3322 674
40.35231 657
40.37242 573
40.39254 492
40.41265 431
40.43277 329
40.45288 338
40.47299 310
40.49311 285
40.51322 308
40.53333 256
40.55345 287
40.57356 298
40.59368 283
40.61379 263
40.6339 295
40.65402 277
40.67413 293
40.69424 276
40.71436 299
40.73447 283
40.75458 263
40.7747 285
40.79481 290
40.81493 250
40.83504 270
40.85515 276
40.87527 291
40.89538 261
40.91549 275
40.93561 281
40.95572 248
40.97584 306
40.99595 304
41.01606 267
41.03618 270
41.05629 289
41.0764 290
41.09652 301
41.11663 285
41.13675 302
41.15686 269
41.17697 265
41.19709 289
41.2172 279
41.23731 271
41.25743 279
41.27754 294
41.29765 293
41.31777 287
41.33788 311
41.358 280
41.37811 282
41.39822 262
41.41834 271
41.43845 261
41.45856 268
41.47868 274
41.49879 264
41.51891 266
41.53902 259
41.55913 246
41.57925 289
41.59936 253
41.61947 256
41.63959 271
41.6597 257
41.67982 254
41.69993 277
41.72004 268
41.74016 270
41.76027 264
41.78038 271
41.8005 240
41.82061 253
41.84072 243
41.86084 286
41.88095 252
41.90107 258
41.92118 267
41.94129 258
41.96141 252
41.98152 248
42.00163 250
42.02175 261
42.04186 280
42.06198 262
42.08209 284
42.1022 310
42.12232 289
42.14243 315
42.16254 279
42.18266 343
42.20277 354
42.22289 404
42.243 436
42.26311 489
42.28323 626
42.30334 694
42.32345 846
42.34357 1049
42.36368 1124
42.38379 1373
42.40391 1316
42.42402 1229
42.44414 1173
42.46425 985
42.48436 893
42.50448 845
42.52459 792
42.5447 661
42.56482 504
42.58493 408
42.60505 328
42.62516 310
42.64527 260
42.66539 243
42.6855 255
42.70561 267
42.72573 249
42.74584 251
42.76595 239
42.78607 236
42.80618 228
42.8263 276
42.84641 252
42.86652 221
42.88664 243
42.90675 232
42.92686 230
42.94698 254
42.96709 260
42.98721 215
43.00732 238
43.02743 229
43.04755 229
43.06766 235
43.08777 245
43.10789 236
43.128 204
43.14812 258
43.16823 209
43.18834 231
43.20846 208
43.22857 235
43.24868 256
43.2688 221
43.28891 230
43.30902 231
43.32914 232
43.34925 238
43.36937 222
43.38948 216
43.40959 215
43.42971 206
43.44982 236
43.46993 211
43.49005 227
43.51016 232
43.53028 242
43.55039 237
43.5705 224
43.59062 238
43.61073 212
43.63084 228
43.65096 215
43.67107 212
43.69119 251
43.7113 238
43.73141 235
43.75153 216
43.77164 235
43.79175 211
43.81187 216
43.83198 222
43.85209 212
43.87221 222
43.89232 229
43.91244 212
43.93255 243
43.95266 230
43.97278 227
43.99289 222
44.013 220
44.03312 192
44.05323 240
44.07335 211
44.09346 196
44.11357 197
44.13369 224
44.1538 227
44.17391 231
44.19403 231
44.21414 243
44.23426 224
44.25437 236
44.27448 244
44.2946 228
44.31471 226
44.33482 203
44.35494 231
44.37505 226
44.39516 233
44.41528 263
44.43539 209
44.45551 222
44.47562 257
44.49573 220
44.51585 227
44.53596 209
44.55607 217
44.57619 221
44.5963 225
44.61642 211
44.63653 245
44.65664 223
44.67676 234
44.69687 222
44.71698 247
44.7371 216
44.75721 224
44.77732 223
44.79744 225
44.81755 205
44.83767 241
44.85778 234
44.87789 231
44.89801 244
44.91812 250
44.93823 248
44.95835 251
44.97846 236
44.99858 236
45.01869 243
45.0388 240
45.05892 222
45.07903 247
45.09914 245
45.11926 248
45.13937 214
45.15949 227
45.1796 238
45.19971 243
45.21983 239
45.23994 265
45.26005 256
45.28017 282
45.30028 244
45.32039 275
45.34051 272
45.36062 263
45.38074 273
45.40085 258
45.42096 303
45.44108 284
45.46119 277
45.4813 270
45.50142 316
45.52153 341
45.54165 358
45.56176 373
45.58187 414
45.60199 463
45.6221 480
45.64221 561
45.66233 653
45.68244 790
45.70256 879
45.72267 952
45.74278 951
45.7629 949
45.78301 850
45.80312 773
45.82324 685
45.84335 665
45.86346 573
45.88358 582
45.90369 453
45.92381 389
45.94392 388
45.96403 361
45.98415 315
46.00426 268
46.02437 268
46.04449 286
46.0646 281
46.08472 247
46.10483 257
46.12494 273
46.14506 211
46.16517 250
46.18528 250
46.2054 294
46.22551 258
46.24563 262
46.26574 240
46.28585 242
46.30597 237
46.32608 256
46.34619 232
46.36631 251
46.38642 223
46.40653 247
46.42665 238
46.44676 238
46.46688 245
46.48699 249
46.5071 241
46.52722 226
46.54733 251
46.56744 269
46.58756 252
46.60767 223
46.62779 243
46.6479 253
46.66801 240
46.68813 254
46.70824 214
46.72835 254
46.74847 245
46.76858 254
46.78869 282
46.80881 237
46.82892 211
46.84904 240
46.86915 243
46.88926 209
46.90938 215
46.92949 225
46.9496 248
46.96972 235
46.98983 205
47.00995 243
47.03006 228
47.05017 225
47.07029 244
47.0904 238
47.11051 261
47.13063 227
47.15074 248
47.17086 266
47.19097 207
47.21108 215
47.2312 237
47.25131 236
47.27142 218
47.29154 253
47.31165 241
47.33176 227
47.35188 214
47.37199 244
47.39211 231
47.41222 228
47.43233 229
47.45245 246
47.47256 235
47.49267 242
47.51279 242
47.5329 218
47.55302 243
47.57313 235
47.59324 233
47.61336 244
47.63347 250
47.65358 242
47.6737 227
47.69381 215
47.71393 221
47.73404 217
47.75415 226
47.77427 231
47.79438 245
47.81449 247
47.83461 249
47.85472 279
47.87483 268
47.89495 252
47.91506 228
47.93518 252
47.95529 262
47.9754 266
47.99552 237
48.01563 250
48.03574 247
48.05586 236
48.07597 281
48.09609 231
48.1162 239
48.13631 248
48.15643 224
48.17654 229
48.19665 236
48.21677 233
48.23688 222
48.257 234
48.27711 243
48.29722 277
48.31734 248
48.33745 231
48.35756 231
48.37768 248
48.39779 268
48.4179 244
48.43802 223
48.45813 240
48.47825 229
48.49836 202
48.51847 226
48.53859 223
48.5587 222
48.57881 229
48.59893 241
48.61904 238
48.63916 224
48.65927 245
48.67938 231
48.6995 205
48.71961 224
48.73972 239
48.75984 236
48.77995 225
48.80006 231
48.82018 221
48.84029 229
48.86041 245
48.88052 200
48.90063 235
48.92075 213
48.94086 229
48.96097 222
48.98109 240
49.0012 237
49.02132 222
49.04143 234
49.06154 242
49.08166 249
49.10177 262
49.12188 229
49.142 228
49.16211 224
49.18223 284
49.20234 240
49.22245 287
49.24257 276
49.26268 222
49.28279 240
49.30291 249
49.32302 262
49.34313 245
49.36325 210
49.38336 256
49.40348 261
49.42359 276
49.4437 259
49.46382 263
49.48393 254
49.50404 249
49.52416 252
49.54427 271
49.56439 266
49.5845 264
49.60461 270
49.62473 292
49.64484 286
49.66495 295
49.68507 290
49.70518 315
49.7253 306
49.74541 314
49.76552 337
49.78564 335
49.80575 371
49.82586 419
49.84598 402
49.86609 534
49.8862 590
49.90632 628
49.92643 774
49.94655 953
49.96666 1157
49.98677 1407
50.00689 1830
50.027 2253
50.04711 2511
50.06723 2787
50.08734 2780
50.10746 2635
50.12757 2301
50.14768 1979
50.1678 1725
50.18791 1683
50.20802 1621
50.22814 1485
50.24825 1219
50.26837 991
50.28848 747
50.30859 547
50.32871 496
50.34882 396
50.36893 328
50.38905 361
50.40916 299
50.42927 295
50.44939 299
50.4695 329
50.48962 300
50.50973 304
50.52984 315
50.54996 326
50.57007 319
50.59018 311
50.6103 294
50.63041 307
50.65053 260
50.67064 273
50.69075 265
50.71087 304
50.73098 272
50.75109 272
50.77121 256
50.79132 241
50.81143 258
50.83155 254
50.85166 256
50.87178 264
50.89189 228
50.912 250
50.93212 273
50.95223 268
50.97234 235
50.99246 237
51.01257 269
51.03269 239
51.0528 250
51.07291 259
51.09303 235
51.11314 238
51.13325 222
51.15337 246
51.17348 256
51.1936 230
51.21371 210
51.23382 220
51.25394 213
51.27405 217
51.29416 188
51.31428 221
51.33439 231
51.3545 220
51.37462 254
51.39473 218
51.41485 206
51.43496 210
51.45507 190
51.47519 210
51.4953 225
51.51541 194
51.53553 216
51.55564 195
51.57576 210
51.59587 235
51.61598 245
51.6361 214
51.65621 213
51.67632 225
51.69644 209
51.71655 226
51.73667 231
51.75678 210
51.77689 216
51.79701 195
51.81712 221
51.83723 223
51.85735 232
51.87746 222
51.89757 211
51.91769 229
51.9378 220
51.95792 204
51.97803 210
51.99814 204
52.01826 220
52.03837 218
52.05848 214
52.0786 225
52.09871 205
52.11883 202
52.13894 222
52.15905 225
52.17917 209
52.19928 237
52.21939 230
52.23951 194
52.25962 242
52.27974 210
52.29985 206
52.31996 188
52.34008 216
52.36019 218
52.3803 237
52.40042 188
52.42053 206
52.44064 179
52.46076 198
52.48087 207
52.50099 173
52.5211 205
52.54121 207
52.56133 223
52.58144 207
52.60155 208
52.62167 222
52.64178 216
52.6619 215
52.68201 223
52.70212 190
52.72224 194
52.74235 198
52.76246 218
52.78258 215
52.80269 208
52.8228 238
52.84292 218
52.86303 236
52.88315 214
52.90326 211
52.92337 193
52.94349 203
52.9636 214
52.98371 219
53.00383 212
53.02394 234
53.04406 245
53.06417 232
53.08428 240
53.1044 231
53.12451 225
53.14462 234
53.16474 223
53.18485 207
53.20497 209
53.22508 241
53.24519 255
53.26531 204
53.28542 242
53.30553 221
53.32565 207
53.34576 266
53.36587 294
53.38599 264
53.4061 252
53.42622 279
53.44633 253
53.46644 265
53.48656 265
53.50667 267
53.52678 241
53.5469 261
53.56701 254
53.58713 237
53.60724 259
53.62735 287
53.64747 257
53.66758 265
53.68769 295
53.70781 252
53.72792 273
53.74804 256
53.76815 299
53.78826 291
53.80838 260
53.82849 250
53.8486 263
53.86872 253
53.88883 256
53.90894 278
53.92906 293
53.94917 292
53.96929 290
53.9894 269
54.00951 289
54.02963 269
54.04974 273
54.06985 270
54.08997 285
54.11008 308
54.1302 286
54.15031 281
54.17042 301
54.19054 313
54.21065 290
54.23076 281
54.25088 323
54.27099 286
54.29111 297
54.31122 294
54.33133 298
54.35145 294
54.37156 293
54.39167 294
54.41179 296
54.4319 314
54.45201 306
54.47213 318
54.49224 335
54.51236 300
54.53247 313
54.55258 334
54.5727 329
54.59281 364
54.61292 423
54.63304 400
54.65315 444
54.67327 449
54.69338 558
54.71349 591
54.73361 686
54.75372 838
54.77383 864
54.79395 981
54.81406 1031
54.83417 995
54.85429 895
54.8744 788
54.89452 737
54.91463 700
54.93474 671
54.95486 661
54.97497 642
54.99508 563
55.0152 503
55.03531 519
55.05543 473
55.07554 433
55.09565 400
55.11577 386
55.13588 401
55.15599 441
55.17611 446
55.19622 545
55.21634 594
55.23645 545
55.25656 609
55.27668 553
55.29679 556
55.3169 518
55.33702 489
55.35713 439
55.37724 433
55.39736 420
55.41747 433
55.43759 379
55.4577 395
55.47781 331
55.49793 319
55.51804 327
55.53815 311
55.55827 252
55.57838 278
55.5985 285
55.61861 262
55.63872 279
55.65884 258
55.67895 234
55.69906 278
55.71918 294
55.73929 277
55.75941 273
55.77952 246
55.79963 274
55.81975 267
55.83986 277
55.85997 260
55.88009 244
55.9002 252
55.92031 250
55.94043 261
55.96054 248
55.98066 255
56.00077 235
56.02088 240
56.041 240
56.06111 243
56.08122 237
56.10134 255
56.12145 256
56.14157 245
56.16168 221
56.18179 228
56.20191 241
56.22202 267
56.24213 263
56.26225 259
56.28236 249
56.30248 231
56.32259 226
56.3427 229
56.36282 236
56.38293 240
56.40304 240
56.42316 260
56.44327 242
56.46338 236
56.4835 239
56.50361 214
56.52373 240
56.54384 225
56.56395 238
56.58407 215
56.60418 244
56.62429 229
56.64441 257
56.66452 274
56.68464 240
56.70475 213
56.72486 247
56.74498 245
56.76509 224
56.7852 212
56.80532 203
56.82543 232
56.84554 238
56.86566 228
56.88577 223
56.90589 255
56.926 243
56.94611 231
56.96623 230
56.98634 220
57.00645 237
57.02657 257
57.04668 256
57.0668 236
57.08691 232
57.10702 265
57.12714 249
57.14725 276
57.16736 294
57.18748 249
57.20759 261
57.22771 284
57.24782 248
57.26793 238
57.28805 247
57.30816 256
57.32827 271
57.34839 225
57.3685 223
57.38861 238
57.40873 249
57.42884 263
57.44896 201
57.46907 214
57.48918 197
57.5093 232
57.52941 234
57.54952 212
57.56964 211
57.58975 232
57.60987 201
57.62998 216
57.65009 215
57.67021 223
57.69032 243
57.71043 233
57.73055 234
57.75066 205
57.77078 208
57.79089 223
57.811 232
57.83112 234
57.85123 215
57.87134 227
57.89146 230
57.91157 226
57.93168 244
57.9518 239
57.97191 220
57.99203 219
58.01214 203
58.03225 227
58.05237 245
58.07248 227
58.09259 228
58.11271 250
58.13282 219
58.15294 225
58.17305 239
58.19316 216
58.21328 241
58.23339 232
58.2535 228
58.27362 202
58.29373 200
58.31385 221
58.33396 223
58.35407 220
58.37419 229
58.3943 220
58.41441 216
58.43453 219
58.45464 235
58.47475 210
58.49487 218
58.51498 202
58.5351 205
58.55521 210
58.57532 255
58.59544 224
58.61555 242
58.63566 213
58.65578 231
58.67589 207
58.69601 238
58.71612 222
58.73623 231
58.75635 217
58.77646 253
58.79657 236
58.81669 216
58.8368 242
58.85691 225
58.87703 215
58.89714 250
58.91726 241
58.93737 226
58.95748 224
58.9776 243
58.99771 225
59.01782 242
59.03794 233
59.05805 244
59.07817 226
59.09828 235
59.11839 245
59.13851 227
59.15862 269
59.17873 271
59.19885 228
59.21896 253
59.23908 242
59.25919 250
59.2793 200
59.29942 275
59.31953 260
59.33964 254
59.35976 263
59.37987 260
59.39998 242
59.4201 270
59.44021 268
59.46033 287
59.48044 299
59.50055 294
59.52067 291
59.54078 271
59.56089 299
59.58101 343
59.60112 330
59.62124 359
59.64135 358
59.66146 414
59.68158 448
59.70169 517
59.7218 537
59.74192 679
59.76203 790
59.78215 925
59.80226 1096
59.82237 1256
59.84249 1500
59.8626 1720
59.88271 1771
59.90283 1769
59.92294 1637
59.94305 1427
59.96317 1230
59.98328 1091
60.0034 1052
60.02351 1028
60.04362 1070
60.06374 1035
60.08385 881
60.10396 807
60.12408 657
60.14419 511
60.16431 440
60.18442 354
60.20453 339
60.22465 289
60.24476 301
60.26487 284
60.28499 273
60.3051 264
60.32522 250
60.34533 261
60.36544 244
60.38556 253
60.40567 231
60.42578 221
60.4459 233
60.46601 248
60.48612 235
60.50624 251
60.52635 239
60.54647 214
60.56658 236
60.58669 244
60.60681 226
60.62692 214
60.64703 215
60.66715 219
60.68726 232
60.70738 222
60.72749 213
60.7476 237
60.76772 225
60.78783 222
60.80794 250
60.82806 220
60.84817 215
60.86828 201
60.8884 226
60.90851 207
60.92863 216
60.94874 217
60.96885 224
60.98897 217
61.00908 202
61.02919 254
61.04931 215
61.06942 228
61.08954 213
61.10965 231
61.12976 239
61.14988 219
61.16999 223
61.1901 225
61.21022 229
61.23033 229
61.25045 206
61.27056 230
61.29067 227
61.31079 223
61.3309 223
61.35101 203
61.37113 220
61.39124 248
61.41135 236
61.43147 251
61.45158 237
61.4717 262
61.49181 192
61.51192 245
61.53204 218
61.55215 263
61.57226 247
61.59238 236
61.61249 228
61.63261 239
61.65272 229
61.67283 235
61.69295 233
61.71306 217
61.73317 241
61.75329 245
61.7734 274
61.79352 274
61.81363 272
61.83374 276
61.85386 275
61.87397 296
61.89408 260
61.9142 253
61.93431 275
61.95442 263
61.97454 302
61.99465 297
62.01477 290
62.03488 328
62.05499 308
62.07511 330
62.09522 365
62.11533 338
62.13545 378
62.15556 358
62.17568 356
62.19579 367
62.2159 337
62.23602 367
62.25613 373
62.27624 365
62.29636 354
62.31647 354
62.33659 300
62.3567 334
62.37681 326
62.39693 350
62.41704 319
62.43715 288
62.45727 281
62.47738 274
62.49749 276
62.51761 262
62.53772 268
62.55784 266
62.57795 246
62.59806 247
62.61818 243
62.63829 248
62.6584 253
62.67852 258
62.69863 255
62.71875 233
62.73886 217
62.75897 260
62.77909 226
62.7992 227
62.81931 226
62.83943 225
62.85954 229
62.87965 215
62.89977 233
62.91988 225
62.94 217
62.96011 226
62.98022 221
63.00034 227
63.02045 229
63.04056 217
63.06068 218
63.08079 221
63.10091 211
63.12102 225
63.14113 204
63.16125 222
63.18136 196
63.20147 220
63.22159 227
63.2417 209
63.26182 242
63.28193 238
63.30204 248
63.32216 219
63.34227 210
63.36238 230
63.3825 225
63.40261 216
63.42272 239
63.44284 237
63.46295 227
63.48307 220
63.50318 216
63.52329 237
63.54341 232
63.56352 244
63.58363 227
63.60375 261
63.62386 267
63.64398 239
63.66409 248
63.6842 234
63.70432 266
63.72443 263
63.74454 282
63.76466 279
63.78477 272
63.80489 314
63.825 327
63.84511 343
63.86523 357
63.88534 381
63.90545 364
63.92557 472
63.94568 520
63.96579 510
63.98591 546
64.00602 446
64.02614 461
64.04625 422
64.06636 401
64.08648 346
64.10659 366
64.1267 365
64.14682 390
64.16693 356
64.18705 351
64.20716 313
64.22727 278
64.24739 268
64.2675 246
64.28761 236
64.30773 237
64.32784 237
64.34796 220
64.36807 234
64.38818 242
64.4083 208
64.42841 219
64.44852 201
64.46864 223
64.48875 202
64.50886 215
64.52898 219
64.54909 231
64.56921 203
64.58932 222
64.60943 227
64.62955 208
64.64966 220
64.66977 198
64.68989 190
64.71 209
64.73012 235
64.75023 215
64.77034 198
64.79046 185
64.81057 212
64.83068 225
64.8508 206
64.87091 202
64.89102 180
64.91114 204
64.93125 209
64.95137 189
64.97148 232
64.99159 216
65.01171 198
65.03182 209
65.05193 224
65.07205 203
65.09216 217
65.11228 221
65.13239 200
65.1525 226
65.17262 206
65.19273 211
65.21284 215
65.23296 223
65.25307 199
65.27319 187
65.2933 201
65.31341 214
65.33353 191
65.35364 200
65.37375 208
65.39387 202
65.41398 214
65.43409 212
65.45421 236
65.47432 205
65.49444 225
65.51455 232
65.53466 216
65.55478 221
65.57489 232
65.595 245
65.61512 236
65.63523 260
65.65535 274
65.67546 278
65.69557 274
65.71569 276
65.7358 289
65.75591 276
65.77603 276
65.79614 248
65.81626 260
65.83637 238
65.85648 255
65.8766 251
65.89671 247
65.91682 259
65.93694 197
65.95705 199
65.97716 234
65.99728 235
66.01739 187
66.03751 224
66.05762 215
66.07773 224
66.09785 200
66.11796 178
66.13807 210
66.15819 176
66.1783 202
66.19842 227
66.21853 187
66.23864 219
66.25876 220
66.27887 204
66.29898 216
66.3191 195
66.33921 193
66.35933 208
66.37944 197
66.39955 218
66.41967 190
66.43978 228
66.45989 227
66.48001 206
66.50012 224
66.52023 205
66.54035 187
66.56046 220
66.58058 198
66.60069 201
66.6208 218
66.64092 204
66.66103 211
66.68114 210
66.70126 201
66.72137 217
66.74149 206
66.7616 234
66.78171 229
66.80183 211
66.82194 184
66.84205 198
66.86217 209
66.88228 199
66.90239 212
66.92251 198
66.94262 217
66.96274 210
66.98285 227
67.00296 229
67.02308 250
67.04319 217
67.0633 194
67.08342 234
67.10353 227
67.12365 232
67.14376 233
67.16387 207
67.18399 216
67.2041 243
67.22421 229
67.24433 257
67.26444 245
67.28456 255
67.30467 250
67.32478 247
67.3449 281
67.36501 299
67.38512 269
67.40524 286
67.42535 301
67.44546 333
67.46558 320
67.48569 397
67.50581 439
67.52592 469
67.54603 550
67.56615 680
67.58626 736
67.60637 812
67.62649 926
67.6466 1058
67.66672 1096
67.68683 1150
67.70694 1039
67.72706 951
67.74717 838
67.76728 770
67.7874 739
67.80751 721
67.82763 785
67.84774 780
67.86785 870
67.88797 837
67.90808 813
67.92819 840
67.94831 829
67.96842 926
67.98853 953
68.00865 1037
68.02876 1185
68.04888 1362
68.06899 1412
68.0891 1433
68.10922 1385
68.12933 1316
68.14944 1214
68.16956 1220
68.18967 1244
68.20979 1275
68.2299 1310
68.25001 1313
68.27013 1309
68.29024 1224
68.31035 1090
68.33047 888
68.35058 758
68.3707 707
68.39081 570
68.41092 591
68.43104 600
68.45115 533
68.47126 491
68.49138 439
68.51149 409
68.5316 368
68.55172 338
68.57183 295
68.59195 287
68.61206 266
68.63217 280
68.65229 267
68.6724 240
68.69251 234
68.71263 254
68.73274 219
68.75286 248
68.77297 217
68.79308 228
68.8132 223
68.83331 237
68.85342 232
68.87354 219
68.89365 249
68.91376 241
68.93388 218
68.95399 218
68.97411 223
68.99422 205
69.01433 223
69.03445 233
69.05456 201
69.07467 221
69.09479 198
69.1149 220
69.13502 228
69.15513 230
69.17524 210
69.19536 187
69.21547 211
69.23558 217
69.2557 195
69.27581 187
69.29593 201
69.31604 228
69.33615 227
69.35627 191
69.37638 207
69.39649 211
69.41661 203
69.43672 193
69.45683 202
69.47695 218
69.49706 231
69.51718 210
69.53729 220
69.5574 200
69.57752 208
69.59763 200
69.61774 225
69.63786 210
69.65797 214
69.67809 202
69.6982 184
69.71831 230
69.73843 216
69.75854 195
69.77865 213
69.79877 186
69.81888 212
69.839 191
69.85911 209
69.87922 220
69.89934 187
69.91945 208
69.93956 206
69.95968 196
69.97979 204
69.9999 194
70.02002 215
70.04013 228
70.06025 205
70.08036 231
70.10047 210
70.12059 207
70.1407 169
70.16081 191
70.18093 195
70.20104 205
70.22116 213
70.24127 198
70.26138 234
70.2815 187
70.30161 184
70.32172 192
70.34184 204
70.36195 190
70.38207 183
70.40218 185
70.42229 206
70.44241 186
70.46252 196
70.48263 206
70.50275 201
70.52286 217
70.54297 188
70.56309 197
70.5832 201
70.60332 193
70.62343 182
70.64354 192
70.66366 167
70.68377 194
70.70388 192
70.724 202
70.74411 222
70.76423 169
70.78434 217
70.80445 205
70.82457 186
70.84468 170
70.86479 185
70.88491 228
70.90502 186
70.92513 188
70.94525 195
70.96536 191
70.98548 202
71.00559 162
71.0257 198
71.04582 193
71.06593 212
71.08604 171
71.10616 186
71.12627 183
71.14639 199
71.1665 185
71.18661 217
71.20673 193
71.22684 216
71.24695 191
71.26707 220
71.28718 192
71.3073 217
71.32741 190
71.34752 181
71.36764 183
71.38775 199
71.40786 173
71.42798 187
71.44809 202
71.4682 181
71.48832 197
71.50843 219
71.52855 197
71.54866 196
71.56877 180
71.58889 179
71.609 206
71.62911 237
71.64923 205
71.66934 212
71.68946 214
71.70957 197
71.72968 187
71.7498 208
71.76991 211
71.79002 204
71.81014 195
71.83025 202
71.85037 206
71.87048 197
71.89059 189
71.91071 193
71.93082 205
71.95093 198
71.97105 207
71.99116 181
72.01127 194
72.03139 207
72.0515 219
72.07162 195
72.09173 192
72.11184 206
72.13196 193
72.15207 203
72.17218 193
72.1923 200
72.21241 204
72.23253 195
72.25264 199
72.27275 190
72.29287 208
72.31298 185
72.33309 204
72.35321 219
72.37332 196
72.39344 228
72.41355 186
72.43366 208
72.45378 175
72.47389 176
72.494 205
72.51412 210
72.53423 189
72.55434 198
72.57446 198
72.59457 191
72.61469 198
72.6348 198
72.65491 226
72.67503 203
72.69514 213
72.71525 183
72.73537 215
72.75548 180
72.7756 218
72.79571 190
72.81582 213
72.83594 205
72.85605 190
72.87616 186
72.89628 188
72.91639 205
72.9365 216
72.95662 198
72.97673 206
72.99685 208
73.01696 219
73.03707 205
73.05719 221
73.0773 224
73.09741 216
73.11753 217
73.13764 244
73.15776 259
73.17787 255
73.19798 258
73.2181 259
73.23821 299
73.25832 299
73.27844 344
73.29855 381
73.31867 393
73.33878 450
73.35889 482
73.37901 485
73.39912 506
73.41923 512
73.43935 494
73.45946 422
73.47957 408
73.49969 370
73.5198 341
73.53992 335
73.56003 352
73.58014 335
73.60026 350
73.62037 371
73.64048 404
73.6606 354
73.68071 295
73.70083 279
73.72094 241
73.74105 248
73.76117 234
73.78128 217
73.80139 198
73.82151 207
73.84162 194
73.86174 217
73.88185 237
73.90196 203
73.92208 208
73.94219 192
73.9623 192
73.98242 204
74.00253 221
74.02264 215
74.04276 187
74.06287 218
74.08299 220
74.1031 198
74.12321 218
74.14333 190
74.16344 187
74.18355 222
74.20367 180
74.22378 201
74.2439 217
74.26401 202
74.28412 196
74.30424 200
74.32435 220
74.34446 198
74.36458 204
74.38469 173
74.40481 194
74.42492 184
74.44503 203
74.46515 205
74.48526 186
74.50537 172
74.52549 187
74.5456 194
74.56571 190
74.58583 216
74.60594 215
74.62606 200
74.64617 191
74.66628 194
74.6864 202
74.70651 231
74.72662 215
74.74674 178
74.76685 201
74.78697 198
74.80708 209
74.82719 193
74.84731 198
74.86742 200
74.88753 186
74.90765 185
74.92776 203
74.94787 198
74.96799 205
74.9881 191
75.00822 227
