3.00117 21249
3.02128 20973
3.0414 20095
3.06151 19881
3.08162 19180
3.10174 18749
3.12185 18184
3.14197 17317
3.16208 17040
3.18219 16487
3.20231 16117
3.22242 15734
3.24253 15013
3.26265 14788
3.28276 14481
3.30288 14055
3.32299 13832
3.3431 12805
3.36322 12696
3.38333 12353
3.40344 11905
3.42356 11919
3.44367 10908
3.46379 10675
3.4839 10473
3.50401 9998
3.52413 9947
3.54424 9350
3.56435 9330
3.58447 8824
3.60458 8585
3.62469 8334
3.64481 7906
3.66492 7770
3.68504 7508
3.70515 6923
3.72526 6967
3.74538 6393
3.76549 6282
3.7856 6068
3.80572 5778
3.82583 5818
3.84595 5178
3.86606 5272
3.88617 4986
3.90629 4711
3.9264 4635
3.94651 4250
3.96663 4263
3.98674 4031
4.00686 3824
4.02697 3918
4.04708 3511
4.0672 3461
4.08731 3322
4.10742 3182
4.12754 3182
4.14765 2773
4.16776 2844
4.18788 2738
4.20799 2679
4.22811 2639
4.24822 2522
4.26833 2347
4.28845 2302
4.30856 2309
4.32867 2296
4.34879 2033
4.3689 2140
4.38902 2045
4.40913 1990
4.42924 1966
4.44936 1842
4.46947 1894
4.48958 1848
4.5097 1794
4.52981 1793
4.54992 1603
4.57004 1658
4.59015 1582
4.61027 1647
4.63038 1624
4.65049 1539
4.67061 1411
4.69072 1488
4.71083 1475
4.73095 1486
4.75106 1443
4.77118 1443
4.79129 1351
4.8114 1286
4.83152 1334
4.85163 1248
4.87174 1338
4.89186 1251
4.91197 1231
4.93209 1227
4.9522 1133
4.97231 1228
4.99243 1180
5.01254 1090
5.03265 1167
5.05277 1065
5.07288 1164
5.09299 1052
5.11311 1095
5.13322 1002
5.15334 1054
5.17345 978
5.19356 1051
5.21368 961
5.23379 989
5.2539 982
5.27402 906
5.29413 937
5.31425 1006
5.33436 955
5.35447 958
5.37459 895
5.3947 929
5.41481 877
5.43493 852
5.45504 836
5.47516 815
5.49527 885
5.51538 843
5.5355 795
5.55561 809
5.57572 832
5.59584 707
5.61595 781
5.63606 759
5.65618 850
5.67629 765
5.69641 752
5.71652 804
5.73663 719
5.75675 765
5.77686 757
5.79697 731
5.81709 739
5.8372 733
5.85732 651
5.87743 719
5.89754 725
5.91766 739
5.93777 736
5.95788 672
5.978 693
5.99811 722
6.01823 656
6.03834 706
6.05845 739
6.07857 670
6.09868 669
6.11879 749
6.13891 740
6.15902 693
6.17913 650
6.19925 652
6.21936 710
6.23948 679
6.25959 678
6.2797 688
6.29982 706
6.31993 712
6.34004 677
6.36016 632
6.38027 704
6.40039 648
6.4205 664
6.44061 606
6.46073 693
6.48084 665
6.50095 696
6.52107 647
6.54118 627
6.56129 650
6.58141 669
6.60152 648
6.62164 640
6.64175 640
6.66186 673
6.68198 634
6.70209 608
6.7222 593
6.74232 621
6.76243 703
6.78255 642
6.80266 673
6.82277 631
6.84289 648
6.863 622
6.88311 630
6.90323 647
6.92334 636
6.94346 629
6.96357 620
6.98368 668
7.0038 625
7.02391 708
7.04402 633
7.06414 687
7.08425 645
7.10436 561
7.12448 629
7.14459 657
7.16471 617
7.18482 642
7.20493 611
7.22505 631
7.24516 633
7.26527 678
7.28539 666
7.3055 637
7.32562 633
7.34573 630
7.36584 607
7.38596 604
7.40607 634
7.42618 629
7.4463 681
7.46641 615
7.48653 653
7.50664 621
7.52675 641
7.54687 600
7.56698 629
7.58709 663
7.60721 649
7.62732 662
7.64743 603
7.66755 661
7.68766 642
7.70778 647
7.72789 595
7.748 616
7.76812 644
7.78823 568
7.80834 611
7.82846 587
7.84857 649
7.86869 542
7.8888 669
7.90891 618
7.92903 649
7.94914 580
7.96925 607
7.98937 601
8.00948 597
8.0296 629
8.04971 622
8.06982 620
8.08994 690
8.11005 665
8.13016 652
8.15028 664
8.17039 625
8.1905 627
8.21062 675
8.23073 653
8.25085 673
8.27096 588
8.29107 649
8.31119 597
8.3313 627
8.35141 650
8.37153 626
8.39164 608
8.41176 634
8.43187 666
8.45198 622
8.4721 656
8.49221 673
8.51232 641
8.53244 583
8.55255 643
8.57266 608
8.59278 651
8.61289 641
8.63301 632
8.65312 626
8.67323 629
8.69335 602
8.71346 618
8.73357 657
8.75369 657
8.7738 597
8.79392 674
8.81403 626
8.83414 652
8.85426 628
8.87437 606
8.89448 666
8.9146 600
8.93471 605
8.95483 613
8.97494 619
8.99505 588
9.01517 643
9.03528 599
9.05539 652
9.07551 661
9.09562 611
9.11573 626
9.13585 651
9.15596 621
9.17608 575
9.19619 666
9.2163 635
9.23642 633
9.25653 661
9.27664 624
9.29676 595
9.31687 608
9.33699 643
9.3571 571
9.37721 611
9.39733 621
9.41744 619
9.43755 614
9.45767 610
9.47778 687
9.4979 603
9.51801 630
9.53812 699
9.55824 654
9.57835 614
9.59846 650
9.61858 619
9.63869 623
9.6588 609
9.67892 612
9.69903 630
9.71915 648
9.73926 647
9.75937 671
9.77949 687
9.7996 604
9.81971 650
9.83983 624
9.85994 641
9.88006 652
9.90017 585
9.92028 631
9.9404 616
9.96051 639
9.98062 622
10.00074 624
10.02085 612
10.04097 621
10.06108 653
10.08119 628
10.10131 644
10.12142 619
10.14153 638
10.16165 631
10.18176 657
10.20187 616
10.22199 622
10.2421 612
10.26222 633
10.28233 646
10.30244 644
10.32256 666
10.34267 662
10.36278 662
10.3829 696
10.40301 681
10.42313 649
10.44324 642
10.46335 576
10.48347 609
10.50358 619
10.52369 684
10.54381 576
10.56392 634
10.58403 620
10.60415 678
10.62426 666
10.64438 655
10.66449 628
10.6846 605
10.70472 630
10.72483 684
10.74494 662
10.76506 674
10.78517 584
10.80529 669
10.8254 629
10.84551 703
10.86563 632
10.88574 621
10.90585 695
10.92597 677
10.94608 647
10.9662 669
10.98631 700
11.00642 601
11.02654 716
11.04665 688
11.06676 669
11.08688 643
11.10699 645
11.1271 700
11.14722 667
11.16733 658
11.18745 649
11.20756 652
11.22767 697
11.24779 645
11.2679 621
11.28801 707
11.30813 670
11.32824 657
11.34836 676
11.36847 691
11.38858 676
11.4087 677
11.42881 654
11.44892 707
11.46904 639
11.48915 756
11.50927 771
11.52938 702
11.54949 693
11.56961 691
11.58972 723
11.60983 718
11.62995 733
11.65006 748
11.67017 682
11.69029 731
11.7104 723
11.73052 711
11.75063 738
11.77074 688
11.79086 736
11.81097 788
11.83108 779
11.8512 737
11.87131 801
11.89143 790
11.91154 815
11.93165 857
11.95177 830
11.97188 814
11.99199 856
12.01211 834
12.03222 878
12.05234 840
12.07245 878
12.09256 921
12.11268 908
12.13279 943
12.1529 986
12.17302 918
12.19313 953
12.21324 960
12.23336 944
12.25347 922
12.27359 976
12.2937 1026
12.31381 963
12.33393 919
12.35404 955
12.37415 903
12.39427 934
12.41438 873
12.4345 859
12.45461 849
12.47472 805
12.49484 806
12.51495 769
12.53506 741
12.55518 786
12.57529 759
12.5954 703
12.61552 752
12.63563 725
12.65575 682
12.67586 701
12.69597 651
12.71609 653
12.7362 697
12.75631 718
12.77643 710
12.79654 664
12.81666 679
12.83677 706
12.85688 705
12.877 649
12.89711 693
12.91722 665
12.93734 651
12.95745 620
12.97757 631
12.99768 670
13.01779 639
13.03791 662
13.05802 649
13.07813 660
13.09825 628
13.11836 624
13.13847 653
13.15859 669
13.1787 666
13.19882 620
13.21893 654
13.23904 592
13.25916 676
13.27927 602
13.29938 578
13.3195 592
13.33961 645
13.35973 624
13.37984 629
13.39995 608
13.42007 609
13.44018 620
13.46029 659
13.48041 639
13.50052 613
13.52064 646
13.54075 581
13.56086 670
13.58098 642
13.60109 636
13.6212 608
13.64132 638
13.66143 615
13.68154 618
13.70166 608
13.72177 610
13.74189 593
13.762 605
13.78211 668
13.80223 552
13.82234 627
13.84245 585
13.86257 578
13.88268 635
13.9028 593
13.92291 609
13.94302 658
13.96314 633
13.98325 577
14.00336 631
14.02348 600
14.04359 599
14.06371 593
14.08382 620
14.10393 592
14.12405 573
14.14416 580
14.16427 588
14.18439 614
14.2045 633
14.22461 596
14.24473 607
14.26484 642
14.28496 675
14.30507 640
14.32518 612
14.3453 569
14.36541 577
14.38552 555
14.40564 619
14.42575 626
14.44587 629
14.46598 635
14.48609 571
14.50621 632
14.52632 600
14.54643 591
14.56655 605
14.58666 605
14.60677 606
14.62689 569
14.647 627
14.66712 608
14.68723 624
14.70734 566
14.72746 591
14.74757 664
14.76768 610
14.7878 610
14.80791 623
14.82803 640
14.84814 576
14.86825 582
14.88837 617
14.90848 616
14.92859 631
14.94871 572
14.96882 612
14.98894 616
15.00905 573
15.02916 584
15.04928 601
15.06939 602
15.0895 579
15.10962 619
15.12973 622
15.14984 591
15.16996 606
15.19007 584
15.21019 641
15.2303 621
15.25041 633
15.27053 596
15.29064 622
15.31075 613
15.33087 587
15.35098 574
15.3711 581
15.39121 624
15.41132 610
15.43144 678
15.45155 628
15.47166 609
15.49178 578
15.51189 669
15.53201 579
15.55212 640
15.57223 603
15.59235 634
15.61246 632
15.63257 577
15.65269 606
15.6728 562
15.69291 587
15.71303 628
15.73314 576
15.75326 618
15.77337 621
15.79348 598
15.8136 606
15.83371 616
15.85382 580
15.87394 625
15.89405 597
15.91417 595
15.93428 585
15.95439 605
15.97451 600
15.99462 593
16.01473 632
16.03485 610
16.05496 618
16.07508 553
16.09519 578
16.1153 581
16.13542 628
16.15553 599
16.17564 563
16.19576 643
16.21587 568
16.23598 567
16.2561 616
16.27621 569
16.29633 626
16.31644 578
16.33655 615
16.35667 604
16.37678 602
16.39689 647
16.41701 584
16.43712 595
16.45724 566
16.47735 614
16.49746 646
16.51758 595
16.53769 577
16.5578 607
16.57792 591
16.59803 614
16.61814 600
16.63826 611
16.65837 597
16.67849 566
16.6986 587
16.71871 612
16.73883 548
16.75894 659
16.77905 575
16.79917 618
16.81928 650
16.8394 661
16.85951 597
16.87962 595
16.89974 607
16.91985 595
16.93996 628
16.96008 597
16.98019 663
17.00031 598
17.02042 624
17.04053 578
17.06065 611
17.08076 591
17.10087 613
17.12099 650
17.1411 604
17.16121 609
17.18133 655
17.20144 556
17.22156 596
17.24167 620
17.26178 595
17.2819 597
17.30201 583
17.32212 637
17.34224 587
17.36235 621
17.38247 610
17.40258 666
17.42269 605
17.44281 697
17.46292 634
17.48303 661
17.50315 651
17.52326 621
17.54338 593
17.56349 625
17.5836 622
17.60372 637
17.62383 603
17.64394 617
17.66406 632
17.68417 624
17.70428 649
17.7244 647
17.74451 624
17.76463 647
17.78474 667
17.80485 628
17.82497 648
17.84508 655
17.86519 661
17.88531 654
17.90542 636
17.92554 644
17.94565 646
17.96576 665
17.98588 670
18.00599 649
18.0261 692
18.04622 722
18.06633 710
18.08645 736
18.10656 743
18.12667 848
18.14679 934
18.1669 925
18.18701 1043
18.20713 1157
18.22724 1196
18.24735 1234
18.26747 1229
18.28758 1210
18.3077 1109
18.32781 980
18.34792 991
18.36804 858
18.38815 836
18.40826 787
18.42838 739
18.44849 679
18.46861 719
18.48872 684
18.50883 657
18.52895 686
18.54906 690
18.56917 601
18.58929 645
18.6094 686
18.62951 624
18.64963 628
18.66974 642
18.68986 666
18.70997 599
18.73008 608
18.7502 578
18.77031 699
18.79042 672
18.81054 592
18.83065 638
18.85077 619
18.87088 635
18.89099 636
18.91111 596
18.93122 606
18.95133 582
18.97145 640
18.99156 640
19.01168 656
19.03179 626
19.0519 613
19.07202 661
19.09213 662
19.11224 619
19.13236 717
19.15247 650
19.17258 640
19.1927 616
19.21281 634
19.23293 634
19.25304 639
19.27315 656
19.29327 632
19.31338 642
19.33349 649
19.35361 638
19.37372 635
19.39384 597
19.41395 669
19.43406 674
19.45418 674
19.47429 658
19.4944 647
19.51452 675
19.53463 696
19.55475 690
19.57486 698
19.59497 694
19.61509 748
19.6352 733
19.65531 767
19.67543 806
19.69554 804
19.71565 821
19.73577 896
19.75588 868
19.776 905
19.79611 926
19.81622 995
19.83634 975
19.85645 999
19.87656 1018
19.89668 968
19.91679 962
19.93691 974
19.95702 958
19.97713 1004
19.99725 913
20.01736 904
20.03747 955
20.05759 992
20.0777 988
20.09782 963
20.11793 1010
20.13804 986
20.15816 1099
20.17827 1097
20.19838 1205
20.2185 1199
20.23861 1187
20.25872 1203
20.27884 1160
20.29895 1171
20.31907 1151
20.33918 1032
20.35929 1030
20.37941 1010
20.39952 1047
20.41963 1138
20.43975 1016
20.45986 1056
20.47998 1035
20.50009 1062
20.5202 1037
20.54032 987
20.56043 967
20.58054 985
20.60066 940
20.62077 968
20.64088 923
20.661 898
20.68111 932
20.70123 1032
20.72134 940
20.74145 1050
20.76157 956
20.78168 1026
20.80179 1006
20.82191 1092
20.84202 987
20.86214 998
20.88225 943
20.90236 946
20.92248 910
20.94259 935
20.9627 966
20.98282 942
21.00293 951
21.02305 974
21.04316 961
21.06327 981
21.08339 993
21.1035 968
21.12361 1016
21.14373 986
21.16384 989
21.18395 1055
21.20407 1030
21.22418 1024
21.2443 1026
21.26441 1055
21.28452 1004
21.30464 1052
21.32475 985
21.34486 941
21.36498 1059
21.38509 953
21.40521 976
21.42532 970
21.44543 1011
21.46555 947
21.48566 940
21.50577 928
21.52589 941
21.546 942
21.56612 905
21.58623 932
21.60634 907
21.62646 843
21.64657 917
21.66668 833
21.6868 876
21.70691 871
21.72702 839
21.74714 797
21.76725 836
21.78737 776
21.80748 867
21.82759 833
21.84771 805
21.86782 794
21.88793 828
21.90805 817
21.92816 774
21.94828 816
21.96839 766
21.9885 818
22.00862 785
22.02873 794
22.04884 754
22.06896 825
22.08907 818
22.10919 769
22.1293 837
22.14941 839
22.16953 764
22.18964 788
22.20975 814
22.22987 767
22.24998 740
22.27009 808
22.29021 754
22.31032 752
22.33044 786
22.35055 715
22.37066 763
22.39078 720
22.41089 780
22.431 821
22.45112 740
22.47123 730
22.49135 747
22.51146 749
22.53157 777
22.55169 713
22.5718 734
22.59191 737
22.61203 733
22.63214 783
22.65225 737
22.67237 760
22.69248 735
22.7126 711
22.73271 745
22.75282 703
22.77294 767
22.79305 743
22.81316 721
22.83328 740
22.85339 692
22.87351 721
22.89362 759
22.91373 727
22.93385 737
22.95396 719
22.97407 700
22.99419 737
23.0143 812
23.03442 741
23.05453 784
23.07464 785
23.09476 700
23.11487 746
23.13498 695
23.1551 731
23.17521 728
23.19532 699
23.21544 762
23.23555 733
23.25567 749
23.27578 708
23.29589 755
23.31601 676
23.33612 726
23.35623 725
23.37635 745
23.39646 758
23.41658 789
23.43669 676
23.4568 737
23.47692 758
23.49703 700
23.51714 699
23.53726 680
23.55737 727
23.57749 736
23.5976 704
23.61771 743
23.63783 758
23.65794 784
23.67805 793
23.69817 753
23.71828 742
23.73839 723
23.75851 751
23.77862 726
23.79874 740
23.81885 801
23.83896 814
23.85908 796
23.87919 781
23.8993 772
23.91942 792
23.93953 803
23.95965 810
23.97976 770
23.99987 836
24.01999 849
24.0401 809
24.06021 798
24.08033 865
24.10044 853
24.12056 800
24.14067 882
24.16078 826
24.1809 841
24.20101 808
24.22112 791
24.24124 763
24.26135 790
24.28146 835
24.30158 885
24.32169 815
24.34181 871
24.36192 818
24.38203 817
24.40215 853
24.42226 854
24.44237 818
24.46249 884
24.4826 837
24.50272 798
24.52283 898
24.54294 923
24.56306 849
24.58317 873
24.60328 932
24.6234 867
24.64351 949
24.66362 939
24.68374 913
24.70385 967
24.72397 988
24.74408 979
24.76419 1004
24.78431 942
24.80442 964
24.82453 1011
24.84465 1016
24.86476 1025
24.88488 1020
24.90499 920
24.9251 966
24.94522 933
24.96533 979
24.98544 958
25.00556 1000
25.02567 1000
25.04579 937
25.0659 1029
25.08601 985
25.10613 1036
25.12624 992
25.14635 1020
25.16647 1017
25.18658 1030
25.20669 996
25.22681 1013
25.24692 960
25.26704 955
25.28715 971
25.30726 942
25.32738 968
25.34749 911
25.3676 841
25.38772 838
25.40783 871
25.42795 831
25.44806 802
25.46817 822
25.48829 807
25.5084 785
25.52851 791
25.54863 786
25.56874 793
25.58886 741
25.60897 773
25.62908 717
25.6492 745
25.66931 757
25.68942 741
25.70954 756
25.72965 707
25.74976 701
25.76988 742
25.78999 650
25.81011 745
25.83022 680
25.85033 722
25.87045 704
25.89056 703
25.91067 674
25.93079 730
25.9509 702
25.97102 764
25.99113 776
26.01124 734
26.03136 689
26.05147 735
26.07158 758
26.0917 729
26.11181 704
26.13193 798
26.15204 726
26.17215 795
26.19227 696
26.21238 781
26.23249 733
26.25261 690
26.27272 747
26.29283 739
26.31295 726
26.33306 740
26.35318 739
26.37329 737
26.3934 730
26.41352 793
26.43363 823
26.45374 881
26.47386 897
26.49397 1032
26.51409 1075
26.5342 1129
26.55431 1196
26.57443 1179
26.59454 1240
26.61465 1176
26.63477 1100
26.65488 1084
26.67499 919
26.69511 906
26.71522 832
26.73534 790
26.75545 789
26.77556 692
26.79568 745
26.81579 761
26.8359 714
26.85602 745
26.87613 709
26.89625 707
26.91636 740
26.93647 770
26.95659 764
26.9767 700
26.99681 673
27.01693 690
27.03704 707
27.05716 685
27.07727 695
27.09738 683
27.1175 671
27.13761 689
27.15772 663
27.17784 665
27.19795 687
27.21806 665
27.23818 667
27.25829 635
27.27841 670
27.29852 640
27.31863 707
27.33875 695
27.35886 713
27.37897 688
27.39909 672
27.4192 713
27.43932 704
27.45943 683
27.47954 681
27.49966 642
27.51977 644
27.53988 649
27.56 671
27.58011 681
27.60023 637
27.62034 672
27.64045 677
27.66057 707
27.68068 685
27.70079 679
27.72091 660
27.74102 696
27.76113 659
27.78125 672
27.80136 676
27.82148 675
27.84159 669
27.8617 716
27.88182 684
27.90193 688
27.92204 687
27.94216 674
27.96227 699
27.98239 700
28.0025 711
28.02261 651
28.04273 669
28.06284 703
28.08295 702
28.10307 701
28.12318 675
28.1433 665
28.16341 685
28.18352 633
28.20364 634
28.22375 688
28.24386 634
28.26398 672
28.28409 602
28.3042 653
28.32432 642
28.34443 680
28.36455 626
28.38466 620
28.40477 654
28.42489 633
28.445 695
28.46511 619
28.48523 672
28.50534 683
28.52546 651
28.54557 695
28.56568 670
28.5858 670
28.60591 644
28.62602 679
28.64614 693
28.66625 713
28.68636 676
28.70648 689
28.72659 648
28.74671 615
28.76682 628
28.78693 629
28.80705 703
28.82716 639
28.84727 662
28.86739 650
28.8875 708
28.90762 603
28.92773 644
28.94784 634
28.96796 630
28.98807 623
29.00818 625
29.0283 653
29.04841 675
29.06853 625
29.08864 687
29.10875 717
29.12887 618
29.14898 676
29.16909 667
29.18921 630
29.20932 648
29.22943 653
29.24955 626
29.26966 680
29.28978 638
29.30989 631
29.33 660
29.35012 692
29.37023 621
29.39034 622
29.41046 552
29.43057 643
29.45069 661
29.4708 659
29.49091 635
29.51103 647
29.53114 649
29.55125 636
29.57137 683
29.59148 647
29.6116 640
29.63171 639
29.65182 675
29.67194 652
29.69205 673
29.71216 660
29.73228 630
29.75239 685
29.7725 663
29.79262 648
29.81273 707
29.83285 694
29.85296 594
29.87307 669
29.89319 670
29.9133 678
29.93341 688
29.95353 686
29.97364 730
29.99376 715
30.01387 740
30.03398 752
30.0541 771
30.07421 743
30.09432 764
30.11444 767
30.13455 758
30.15467 767
30.17478 739
30.19489 719
30.21501 768
30.23512 718
30.25523 680
30.27535 740
30.29546 660
30.31557 695
30.33569 692
30.3558 700
30.37592 684
30.39603 689
30.41614 687
30.43626 665
30.45637 641
30.47648 656
30.4966 642
30.51671 705
30.53683 656
30.55694 679
30.57705 677
30.59717 648
30.61728 659
30.63739 637
30.65751 642
30.67762 697
30.69773 666
30.71785 630
30.73796 634
30.75808 665
30.77819 583
30.7983 658
30.81842 631
30.83853 684
30.85864 634
30.87876 692
30.89887 625
30.91899 603
30.9391 625
30.95921 684
30.97933 648
30.99944 660
31.01955 631
31.03967 608
31.05978 701
31.0799 655
31.10001 621
31.12012 604
31.14024 659
31.16035 638
31.18046 634
31.20058 653
31.22069 615
31.2408 673
31.26092 606
31.28103 665
31.30115 655
31.32126 631
31.34137 619
31.36149 670
31.3816 688
31.40171 614
31.42183 635
31.44194 636
31.46206 635
31.48217 591
31.50228 640
31.5224 655
31.54251 670
31.56262 675
31.58274 621
31.60285 678
31.62297 674
31.64308 659
31.66319 619
31.68331 629
31.70342 677
31.72353 682
31.74365 618
31.76376 677
31.78387 646
31.80399 667
31.8241 629
31.84422 698
31.86433 663
31.88444 722
31.90456 704
31.92467 707
31.94478 640
31.9649 627
31.98501 701
32.00513 666
32.02524 665
32.04535 659
32.06547 634
32.08558 710
32.10569 635
32.12581 655
32.14592 648
32.16604 663
32.18615 663
32.20626 698
32.22638 623
32.24649 693
32.2666 649
32.28672 666
32.30683 622
32.32694 652
32.34706 708
32.36717 664
32.38729 695
32.4074 716
32.42751 680
32.44763 733
32.46774 705
32.48785 735
32.50797 671
32.52808 734
32.5482 784
32.56831 773
32.58842 766
32.60854 712
32.62865 738
32.64876 773
32.66888 783
32.68899 743
32.7091 760
32.72922 787
32.74933 772
32.76945 769
32.78956 741
32.80967 809
32.82979 839
32.8499 788
32.87001 767
32.89013 831
32.91024 815
32.93036 841
32.95047 849
32.97058 851
32.9907 882
33.01081 972
33.03092 866
33.05104 856
33.07115 931
33.09127 909
33.11138 894
33.13149 895
33.15161 889
33.17172 887
33.19183 855
33.21195 830
33.23206 842
33.25217 871
33.27229 769
33.2924 804
33.31252 865
33.33263 798
33.35274 828
33.37286 823
33.39297 881
33.41308 816
33.4332 781
33.45331 758
33.47343 792
33.49354 770
33.51365 748
33.53377 749
33.55388 782
33.57399 703
33.59411 748
33.61422 755
33.63434 711
33.65445 794
33.67456 780
33.69468 722
33.71479 757
33.7349 701
33.75502 707
33.77513 691
33.79524 691
33.81536 733
33.83547 696
33.85559 698
33.8757 689
33.89581 719
33.91593 653
33.93604 718
33.95615 760
33.97627 641
33.99638 740
34.0165 692
34.03661 685
34.05672 696
34.07684 696
34.09695 732
34.11706 720
34.13718 694
34.15729 704
34.17741 659
34.19752 739
34.21763 707
34.23775 644
34.25786 675
34.27797 706
34.29809 674
34.3182 692
34.33831 654
34.35843 685
34.37854 663
34.39866 644
34.41877 625
34.43888 677
34.459 731
34.47911 689
34.49922 696
34.51934 730
34.53945 710
34.55957 725
34.57968 739
34.59979 751
34.61991 737
34.64002 753
34.66013 759
34.68025 771
34.70036 781
34.72047 812
34.74059 804
34.7607 847
34.78082 820
34.80093 872
34.82104 824
34.84116 856
34.86127 958
34.88138 857
34.9015 926
34.92161 879
34.94173 870
34.96184 883
34.98195 875
35.00207 872
35.02218 918
35.04229 885
35.06241 877
35.08252 874
35.10264 847
35.12275 875
35.14286 846
35.16298 874
35.18309 858
35.2032 973
35.22332 941
35.24343 971
35.26354 987
35.28366 1003
35.30377 981
35.32389 1023
35.344 1086
35.36411 1058
35.38423 1109
35.40434 1148
35.42445 1219
35.44457 1176
35.46468 1256
35.4848 1255
35.50491 1236
35.52502 1243
35.54514 1100
35.56525 1145
35.58536 1176
35.60548 1149
35.62559 1098
35.64571 1013
35.66582 1204
35.68593 1099
35.70605 1079
35.72616 1037
35.74627 1075
35.76639 1072
35.7865 1074
35.80661 995
35.82673 1059
35.84684 997
35.86696 1027
35.88707 992
35.90718 1013
35.9273 935
35.94741 907
35.96752 922
35.98764 913
36.00775 870
36.02787 865
36.04798 913
36.06809 852
36.08821 815
36.10832 813
36.12843 806
36.14855 822
36.16866 813
36.18878 756
36.20889 837
36.229 839
36.24912 878
36.26923 828
36.28934 823
36.30946 845
36.32957 800
36.34968 869
36.3698 838
36.38991 904
36.41003 895
36.43014 900
36.45025 836
36.47037 830
36.49048 816
36.51059 848
36.53071 896
36.55082 891
36.57094 925
36.59105 874
36.61116 839
36.63128 866
36.65139 826
36.6715 791
36.69162 820
36.71173 902
36.73184 811
36.75196 874
36.77207 824
36.79219 819
36.8123 839
36.83241 850
36.85253 840
36.87264 824
36.89275 812
36.91287 809
36.93298 858
36.9531 798
36.97321 869
36.99332 814
37.01344 833
37.03355 845
37.05366 839
37.07378 843
37.09389 866
37.11401 836
37.13412 824
37.15423 844
37.17435 747
37.19446 797
37.21457 798
37.23469 825
37.2548 863
37.27491 786
37.29503 802
37.31514 790
37.33526 880
37.35537 821
37.37548 824
37.3956 846
37.41571 802
37.43582 813
37.45594 777
37.47605 774
37.49617 836
37.51628 839
37.53639 852
37.55651 862
37.57662 838
37.59673 893
37.61685 839
37.63696 909
37.65708 841
37.67719 917
37.6973 853
37.71742 817
37.73753 829
37.75764 835
37.77776 798
37.79787 800
37.81798 821
37.8381 846
37.85821 763
37.87833 774
37.89844 793
37.91855 797
37.93867 756
37.95878 791
37.97889 807
37.99901 797
38.01912 815
38.03924 824
38.05935 807
38.07946 839
38.09958 783
38.11969 833
38.1398 839
38.15992 882
38.18003 873
38.20015 830
38.22026 856
38.24037 894
38.26049 814
38.2806 870
38.30071 874
38.32083 919
38.34094 864
38.36105 904
38.38117 845
38.40128 878
38.4214 891
38.44151 919
38.46162 796
38.48174 791
38.50185 864
38.52196 808
38.54208 851
38.56219 868
38.58231 835
38.60242 829
38.62253 815
38.64265 727
38.66276 796
38.68287 798
38.70299 724
38.7231 735
38.74321 828
38.76333 769
38.78344 767
38.80356 814
38.82367 775
38.84378 728
38.8639 741
38.88401 730
38.90412 738
38.92424 749
38.94435 798
38.96447 780
38.98458 747
39.00469 790
39.02481 797
39.04492 764
39.06503 774
39.08515 790
39.10526 773
39.12538 796
39.14549 769
39.1656 839
39.18572 784
39.20583 761
39.22594 760
39.24606 806
39.26617 819
39.28628 735
39.3064 762
39.32651 768
39.34663 755
39.36674 807
39.38685 785
39.40697 758
39.42708 781
39.44719 757
39.46731 741
39.48742 744
39.50754 770
39.52765 734
39.54776 723
39.56788 738
39.58799 716
39.6081 701
39.62822 660
39.64833 691
39.66845 712
39.68856 717
39.70867 716
39.72879 723
39.7489 713
39.76901 701
39.78913 731
39.80924 737
39.82935 707
39.84947 675
39.86958 726
39.8897 678
39.90981 676
39.92992 662
39.95004 680
39.97015 702
39.99026 698
40.01038 706
40.03049 745
40.05061 717
40.07072 735
40.09083 736
40.11095 755
40.13106 752
40.15117 742
40.17129 743
40.1914 691
40.21152 739
40.23163 744
40.25174 697
40.27186 777
40.29197 713
40.31208 763
40.3322 771
40.35231 735
40.37242 686
40.39254 727
40.41265 735
40.43277 711
40.45288 738
40.47299 722
40.49311 736
40.51322 712
40.53333 713
40.55345 783
40.57356 797
40.59368 781
40.61379 792
40.6339 749
40.65402 748
40.67413 761
40.69424 742
40.71436 757
40.73447 763
40.75458 748
40.7747 756
40.79481 758
40.81493 771
40.83504 760
40.85515 781
40.87527 747
40.89538 802
40.91549 778
40.93561 801
40.95572 750
40.97584 729
40.99595 768
41.01606 768
41.03618 729
41.05629 749
41.0764 712
41.09652 770
41.11663 746
41.13675 765
41.15686 769
41.17697 755
41.19709 750
41.2172 722
41.23731 719
41.25743 718
41.27754 727
41.29765 712
41.31777 740
41.33788 723
41.358 733
41.37811 699
41.39822 749
41.41834 679
41.43845 711
41.45856 712
41.47868 760
41.49879 670
41.51891 686
41.53902 745
41.55913 709
41.57925 748
41.59936 718
41.61947 684
41.63959 748
41.6597 712
41.67982 725
41.69993 732
41.72004 660
41.74016 706
41.76027 736
41.78038 702
41.8005 664
41.82061 677
41.84072 700
41.86084 618
41.88095 658
41.90107 695
41.92118 662
41.94129 648
41.96141 690
41.98152 700
42.00163 681
42.02175 618
42.04186 654
42.06198 642
42.08209 712
42.1022 656
42.12232 671
42.14243 633
42.16254 657
42.18266 639
42.20277 678
42.22289 662
42.243 661
42.26311 658
42.28323 690
42.30334 638
42.32345 640
42.34357 695
42.36368 676
42.38379 698
42.40391 686
42.42402 662
42.44414 614
42.46425 697
42.48436 623
42.50448 621
42.52459 694
42.5447 665
42.56482 637
42.58493 669
42.60505 626
42.62516 659
42.64527 606
42.66539 638
42.6855 650
42.70561 671
42.72573 632
42.74584 648
42.76595 671
42.78607 668
42.80618 626
42.8263 635
42.84641 649
42.86652 678
42.88664 640
42.90675 704
42.92686 652
42.94698 635
42.96709 667
42.98721 738
43.00732 686
43.02743 673
43.04755 705
43.06766 718
43.08777 715
43.10789 670
43.128 689
43.14812 707
43.16823 665
43.18834 687
43.20846 653
43.22857 692
43.24868 659
43.2688 694
43.28891 720
43.30902 629
43.32914 619
43.34925 674
43.36937 636
43.38948 662
43.40959 663
43.42971 649
43.44982 666
43.46993 674
43.49005 636
43.51016 625
43.53028 653
43.55039 653
43.5705 646
43.59062 677
43.61073 653
43.63084 644
43.65096 631
43.67107 653
43.69119 608
43.7113 634
43.73141 697
43.75153 669
43.77164 630
43.79175 625
43.81187 685
43.83198 629
43.85209 681
43.87221 675
43.89232 626
43.91244 657
43.93255 680
43.95266 665
43.97278 683
43.99289 635
44.013 653
44.03312 702
44.05323 698
44.07335 694
44.09346 706
44.11357 674
44.13369 681
44.1538 690
44.17391 713
44.19403 697
44.21414 692
44.23426 670
44.25437 657
44.27448 698
44.2946 697
44.31471 662
44.33482 622
44.35494 669
44.37505 695
44.39516 665
44.41528 634
44.43539 612
44.45551 686
44.47562 694
44.49573 635
44.51585 617
44.53596 648
44.55607 616
44.57619 643
44.5963 639
44.61642 624
44.63653 639
44.65664 639
44.67676 653
44.69687 611
44.71698 630
44.7371 654
44.75721 633
44.77732 646
44.79744 662
44.81755 656
44.83767 661
44.85778 648
44.87789 645
44.89801 602
44.91812 623
44.93823 658
44.95835 691
44.97846 638
44.99858 654
45.01869 667
45.0388 617
45.05892 694
45.07903 651
45.09914 648
45.11926 646
45.13937 663
45.15949 679
45.1796 682
45.19971 725
45.21983 679
45.23994 701
45.26005 675
45.28017 688
45.30028 738
45.32039 734
45.34051 748
45.36062 708
45.38074 734
45.40085 722
45.42096 777
45.44108 709
45.46119 754
45.4813 712
45.50142 748
45.52153 739
45.54165 694
45.56176 657
45.58187 721
45.60199 650
45.6221 698
45.64221 724
45.66233 731
45.68244 635
45.70256 657
45.72267 686
45.74278 702
45.7629 668
45.78301 703
45.80312 666
45.82324 682
45.84335 671
45.86346 653
45.88358 655
45.90369 705
45.92381 649
45.94392 617
45.96403 739
45.98415 680
46.00426 676
46.02437 640
46.04449 664
46.0646 669
46.08472 659
46.10483 600
46.12494 621
46.14506 663
46.16517 672
46.18528 653
46.2054 685
46.22551 652
46.24563 668
46.26574 614
46.28585 694
46.30597 678
46.32608 633
46.34619 658
46.36631 668
46.38642 577
46.40653 655
46.42665 660
46.44676 624
46.46688 584
46.48699 674
46.5071 611
46.52722 676
46.54733 650
46.56744 661
46.58756 652
46.60767 648
46.62779 629
46.6479 645
46.66801 637
46.68813 653
46.70824 601
46.72835 652
46.74847 640
46.76858 651
46.78869 647
46.80881 616
46.82892 642
46.84904 640
46.86915 666
46.88926 713
46.90938 676
46.92949 635
46.9496 691
46.96972 626
46.98983 671
47.00995 661
47.03006 648
47.05017 639
47.07029 641
47.0904 641
47.11051 675
47.13063 642
47.15074 667
47.17086 672
47.19097 654
47.21108 679
47.2312 684
47.25131 688
47.27142 670
47.29154 684
47.31165 676
47.33176 707
47.35188 654
47.37199 668
47.39211 659
47.41222 650
47.43233 659
47.45245 688
47.47256 645
47.49267 657
47.51279 715
47.5329 658
47.55302 686
47.57313 682
47.59324 680
47.61336 759
47.63347 713
47.65358 692
47.6737 675
47.69381 669
47.71393 719
47.73404 680
47.75415 631
47.77427 690
47.79438 700
47.81449 687
47.83461 730
47.85472 730
47.87483 678
47.89495 734
47.91506 666
47.93518 713
47.95529 639
47.9754 653
47.99552 704
48.01563 643
48.03574 625
48.05586 649
48.07597 687
48.09609 660
48.1162 635
48.13631 670
48.15643 585
48.17654 671
48.19665 637
48.21677 604
48.23688 647
48.257 646
48.27711 673
48.29722 673
48.31734 604
48.33745 691
48.35756 622
48.37768 653
48.39779 647
48.4179 644
48.43802 613
48.45813 662
48.47825 648
48.49836 661
48.51847 592
48.53859 669
48.5587 661
48.57881 594
48.59893 675
48.61904 634
48.63916 691
48.65927 630
48.67938 632
48.6995 610
48.71961 670
48.73972 642
48.75984 662
48.77995 635
48.80006 673
48.82018 667
48.84029 707
48.86041 658
48.88052 687
48.90063 687
48.92075 662
48.94086 657
48.96097 679
48.98109 680
49.0012 676
49.02132 632
49.04143 711
49.06154 681
49.08166 691
49.10177 729
49.12188 707
49.142 663
49.16211 649
49.18223 725
49.20234 680
49.22245 660
49.24257 691
49.26268 734
49.28279 669
49.30291 697
49.32302 743
49.34313 714
49.36325 712
49.38336 742
49.40348 679
49.42359 687
49.4437 725
49.46382 747
49.48393 724
49.50404 677
49.52416 685
49.54427 732
49.56439 718
49.5845 685
49.60461 644
49.62473 717
49.64484 703
49.66495 718
49.68507 647
49.70518 632
49.7253 686
49.74541 673
49.76552 703
49.78564 657
49.80575 669
49.82586 633
49.84598 678
49.86609 660
49.8862 674
49.90632 641
49.92643 679
49.94655 668
49.96666 670
49.98677 658
50.00689 650
50.027 710
50.04711 731
50.06723 717
50.08734 681
50.10746 685
50.12757 688
50.14768 725
50.1678 651
50.18791 671
50.20802 680
50.22814 625
50.24825 716
50.26837 654
50.28848 660
50.30859 649
50.32871 702
50.34882 616
50.36893 657
50.38905 674
50.40916 711
50.42927 683
50.44939 681
50.4695 695
50.48962 680
50.50973 705
50.52984 672
50.54996 706
50.57007 667
50.59018 692
50.6103 635
50.63041 629
50.65053 674
50.67064 651
50.69075 613
50.71087 655
50.73098 643
50.75109 652
50.77121 638
50.79132 614
50.81143 634
50.83155 654
50.85166 677
50.87178 664
50.89189 620
50.912 662
50.93212 637
50.95223 657
50.97234 672
50.99246 654
51.01257 627
51.03269 659
51.0528 645
51.07291 656
51.09303 669
51.11314 665
51.13325 621
51.15337 656
51.17348 633
51.1936 665
51.21371 658
51.23382 628
51.25394 660
51.27405 623
51.29416 627
51.31428 598
51.33439 621
51.3545 592
51.37462 635
51.39473 647
51.41485 628
51.43496 636
51.45507 631
51.47519 625
51.4953 647
51.51541 562
51.53553 630
51.55564 629
51.57576 657
51.59587 682
51.61598 588
51.6361 625
51.65621 640
51.67632 586
51.69644 611
51.71655 594
51.73667 595
51.75678 651
51.77689 625
51.79701 622
51.81712 647
51.83723 668
51.85735 673
51.87746 638
51.89757 616
51.91769 598
51.9378 629
51.95792 587
51.97803 645
51.99814 630
52.01826 666
52.03837 615
52.05848 630
52.0786 676
52.09871 633
52.11883 727
52.13894 673
52.15905 662
52.17917 707
52.19928 680
52.21939 684
52.23951 707
52.25962 654
52.27974 660
52.29985 634
52.31996 663
52.34008 651
52.36019 608
52.3803 619
52.40042 635
52.42053 640
52.44064 638
52.46076 690
52.48087 646
52.50099 644
52.5211 653
52.54121 651
52.56133 649
52.58144 634
52.60155 637
52.62167 690
52.64178 615
52.6619 653
52.68201 659
52.70212 653
52.72224 648
52.74235 692
52.76246 639
52.78258 670
52.80269 621
52.8228 639
52.84292 702
52.86303 588
52.88315 688
52.90326 665
52.92337 669
52.94349 681
52.9636 670
52.98371 680
53.00383 632
53.02394 626
53.04406 691
53.06417 644
53.08428 661
53.1044 696
53.12451 640
53.14462 694
53.16474 687
53.18485 646
53.20497 664
53.22508 699
53.24519 701
53.26531 754
53.28542 742
53.30553 726
53.32565 730
53.34576 735
53.36587 707
53.38599 691
53.4061 751
53.42622 733
53.44633 787
53.46644 720
53.48656 727
53.50667 766
53.52678 778
53.5469 766
53.56701 794
53.58713 737
53.60724 807
53.62735 825
53.64747 778
53.66758 811
53.68769 778
53.70781 822
53.72792 863
53.74804 835
53.76815 810
53.78826 865
53.80838 797
53.82849 814
53.8486 768
53.86872 851
53.88883 842
53.90894 840
53.92906 848
53.94917 818
53.96929 832
53.9894 855
54.00951 790
54.02963 829
54.04974 832
54.06985 842
54.08997 841
54.11008 814
54.1302 850
54.15031 850
54.17042 830
54.19054 825
54.21065 863
54.23076 803
54.25088 847
54.27099 764
54.29111 830
54.31122 843
54.33133 810
54.35145 829
54.37156 836
54.39167 823
54.41179 797
54.4319 815
54.45201 780
54.47213 769
54.49224 798
54.51236 808
54.53247 795
54.55258 772
54.5727 757
54.59281 790
54.61292 762
54.63304 808
54.65315 764
54.67327 792
54.69338 733
54.71349 779
54.73361 768
54.75372 810
54.77383 782
54.79395 790
54.81406 747
54.83417 788
54.85429 764
54.8744 798
54.89452 751
54.91463 725
54.93474 792
54.95486 801
54.97497 728
54.99508 740
55.0152 730
55.03531 747
55.05543 712
55.07554 731
55.09565 729
55.11577 744
55.13588 734
55.15599 738
55.17611 743
55.19622 747
55.21634 741
55.23645 725
55.25656 740
55.27668 680
55.29679 707
55.3169 724
55.33702 743
55.35713 786
55.37724 725
55.39736 699
55.41747 742
55.43759 743
55.4577 724
55.47781 734
55.49793 718
55.51804 687
55.53815 710
55.55827 700
55.57838 685
55.5985 660
55.61861 681
55.63872 694
55.65884 701
55.67895 662
55.69906 704
55.71918 671
55.73929 668
55.75941 649
55.77952 716
55.79963 710
55.81975 649
55.83986 652
55.85997 701
55.88009 684
55.9002 706
55.92031 725
55.94043 662
55.96054 690
55.98066 659
56.00077 626
56.02088 657
56.041 694
56.06111 688
56.08122 678
56.10134 677
56.12145 657
56.14157 667
56.16168 691
56.18179 625
56.20191 663
56.22202 664
56.24213 690
56.26225 678
56.28236 624
56.30248 704
56.32259 635
56.3427 660
56.36282 667
56.38293 659
56.40304 655
56.42316 720
56.44327 647
56.46338 663
56.4835 611
56.50361 673
56.52373 632
56.54384 643
56.56395 689
56.58407 691
56.60418 633
56.62429 646
56.64441 660
56.66452 667
56.68464 634
56.70475 620
56.72486 702
56.74498 639
56.76509 655
56.7852 694
56.80532 661
56.82543 666
56.84554 651
56.86566 643
56.88577 652
56.90589 671
56.926 718
56.94611 671
56.96623 661
56.98634 740
57.00645 701
57.02657 687
57.04668 714
57.0668 690
57.08691 751
57.10702 697
57.12714 718
57.14725 762
57.16736 681
57.18748 698
57.20759 681
57.22771 692
57.24782 650
57.26793 685
57.28805 703
57.30816 664
57.32827 755
57.34839 708
57.3685 673
57.38861 662
57.40873 723
57.42884 719
57.44896 647
57.46907 704
57.48918 669
57.5093 686
57.52941 648
57.54952 697
57.56964 682
57.58975 623
57.60987 620
57.62998 679
57.65009 627
57.67021 641
57.69032 649
57.71043 611
57.73055 640
57.75066 643
57.77078 693
57.79089 622
57.811 623
57.83112 631
57.85123 701
57.87134 691
57.89146 659
57.91157 648
57.93168 665
57.9518 694
57.97191 681
57.99203 638
58.01214 659
58.03225 667
58.05237 662
58.07248 613
58.09259 593
58.11271 655
58.13282 650
58.15294 661
58.17305 656
58.19316 661
58.21328 675
58.23339 642
58.2535 652
58.27362 614
58.29373 656
58.31385 677
58.33396 617
58.35407 685
58.37419 659
58.3943 754
58.41441 626
58.43453 655
58.45464 655
58.47475 665
58.49487 649
58.51498 647
58.5351 660
58.55521 641
58.57532 636
58.59544 693
58.61555 648
58.63566 644
58.65578 660
58.67589 660
58.69601 633
58.71612 646
58.73623 644
58.75635 610
58.77646 604
58.79657 637
58.81669 603
58.8368 675
58.85691 638
58.87703 601
58.89714 642
58.91726 610
58.93737 599
58.95748 586
58.9776 669
58.99771 608
59.01782 608
59.03794 671
59.05805 674
59.07817 628
59.09828 637
59.11839 612
59.13851 616
59.15862 643
59.17873 625
59.19885 625
59.21896 627
59.23908 640
59.25919 625
59.2793 700
59.29942 656
59.31953 634
59.33964 631
59.35976 636
59.37987 628
59.39998 649
59.4201 618
59.44021 661
59.46033 657
59.48044 644
59.50055 681
59.52067 639
59.54078 628
59.56089 641
59.58101 649
59.60112 667
59.62124 601
59.64135 636
59.66146 637
59.68158 692
59.70169 663
59.7218 678
59.74192 691
59.76203 637
59.78215 662
59.80226 679
59.82237 672
59.84249 657
59.8626 670
59.88271 705
59.90283 667
59.92294 663
59.94305 653
59.96317 666
59.98328 685
60.0034 696
60.02351 668
60.04362 650
60.06374 665
60.08385 644
60.10396 659
60.12408 646
60.14419 623
60.16431 662
60.18442 624
60.20453 615
60.22465 645
60.24476 680
60.26487 605
60.28499 593
60.3051 581
60.32522 637
60.34533 662
60.36544 611
60.38556 665
60.40567 595
60.42578 624
60.4459 591
60.46601 602
60.48612 594
60.50624 608
60.52635 623
60.54647 662
60.56658 646
60.58669 650
60.60681 617
60.62692 649
60.64703 626
60.66715 618
60.68726 651
60.70738 590
60.72749 568
60.7476 680
60.76772 619
60.78783 624
60.80794 596
60.82806 640
60.84817 592
60.86828 629
60.8884 607
60.90851 667
60.92863 645
60.94874 657
60.96885 635
60.98897 616
61.00908 610
61.02919 627
61.04931 651
61.06942 629
61.08954 634
61.10965 666
61.12976 625
61.14988 585
61.16999 617
61.1901 679
61.21022 615
61.23033 610
61.25045 658
61.27056 594
61.29067 615
61.31079 600
61.3309 653
61.35101 652
61.37113 643
61.39124 657
61.41135 648
61.43147 629
61.45158 684
61.4717 693
61.49181 703
61.51192 641
61.53204 678
61.55215 679
61.57226 667
61.59238 674
61.61249 649
61.63261 655
61.65272 658
61.67283 711
61.69295 692
61.71306 670
61.73317 639
61.75329 623
61.7734 684
61.79352 686
61.81363 663
61.83374 693
61.85386 703
61.87397 706
61.89408 721
61.9142 725
61.93431 741
61.95442 757
61.97454 739
61.99465 770
62.01477 741
62.03488 736
62.05499 834
62.07511 785
62.09522 776
62.11533 808
62.13545 817
62.15556 809
62.17568 789
62.19579 852
62.2159 857
62.23602 887
62.25613 822
62.27624 838
62.29636 835
62.31647 869
62.33659 900
62.3567 873
62.37681 868
62.39693 800
62.41704 839
62.43715 833
62.45727 813
62.47738 741
62.49749 807
62.51761 811
62.53772 770
62.55784 772
62.57795 820
62.59806 757
62.61818 810
62.63829 790
62.6584 824
62.67852 767
62.69863 742
62.71875 774
62.73886 740
62.75897 720
62.77909 733
62.7992 694
62.81931 702
62.83943 662
62.85954 699
62.87965 736
62.89977 725
62.91988 693
62.94 694
62.96011 696
62.98022 690
63.00034 654
63.02045 724
63.04056 717
63.06068 689
63.08079 677
63.10091 601
63.12102 648
63.14113 641
63.16125 713
63.18136 658
63.20147 683
63.22159 644
63.2417 697
63.26182 723
63.28193 647
63.30204 662
63.32216 701
63.34227 666
63.36238 682
63.3825 697
63.40261 690
63.42272 688
63.44284 688
63.46295 693
63.48307 700
63.50318 723
63.52329 651
63.54341 698
63.56352 694
63.58363 669
63.60375 670
63.62386 688
63.64398 707
63.66409 745
63.6842 686
63.70432 686
63.72443 722
63.74454 729
63.76466 727
63.78477 713
63.80489 773
63.825 712
63.84511 707
63.86523 703
63.88534 723
63.90545 713
63.92557 710
63.94568 712
63.96579 699
63.98591 692
64.00602 697
64.02614 701
64.04625 674
64.06636 715
64.08648 650
64.10659 720
64.1267 679
64.14682 723
64.16693 694
64.18705 736
64.20716 688
64.22727 695
64.24739 692
64.2675 703
64.28761 692
64.30773 672
64.32784 665
64.34796 662
64.36807 708
64.38818 667
64.4083 657
64.42841 601
64.44852 618
64.46864 674
64.48875 692
64.50886 668
64.52898 648
64.54909 650
64.56921 652
64.58932 682
64.60943 695
64.62955 692
64.64966 682
64.66977 650
64.68989 637
64.71 689
64.73012 637
64.75023 625
64.77034 618
64.79046 625
64.81057 621
64.83068 658
64.8508 642
64.87091 657
64.89102 658
64.91114 622
64.93125 628
64.95137 642
64.97148 620
64.99159 593
65.01171 605
65.03182 587
65.05193 646
65.07205 609
65.09216 617
65.11228 609
65.13239 615
65.1525 610
65.17262 620
65.19273 672
65.21284 579
65.23296 611
65.25307 627
65.27319 644
65.2933 587
65.31341 625
65.33353 597
65.35364 617
65.37375 612
65.39387 560
65.41398 630
65.43409 611
65.45421 608
65.47432 607
65.49444 607
65.51455 616
65.53466 598
65.55478 617
65.57489 587
65.595 578
65.61512 602
65.63523 590
65.65535 608
65.67546 599
65.69557 631
65.71569 612
65.7358 589
65.75591 580
65.77603 589
65.79614 590
65.81626 643
65.83637 628
65.85648 560
65.8766 577
65.89671 639
65.91682 601
65.93694 643
65.95705 571
65.97716 644
65.99728 651
66.01739 609
66.03751 607
66.05762 596
66.07773 638
66.09785 637
66.11796 620
66.13807 571
66.15819 605
66.1783 620
66.19842 609
66.21853 597
66.23864 647
66.25876 615
66.27887 602
66.29898 619
66.3191 618
66.33921 618
66.35933 625
66.37944 614
66.39955 580
66.41967 621
66.43978 631
66.45989 657
66.48001 597
66.50012 614
66.52023 628
66.54035 597
66.56046 567
66.58058 579
66.60069 598
66.6208 614
66.64092 668
66.66103 625
66.68114 631
66.70126 635
66.72137 579
66.74149 585
66.7616 627
66.78171 614
66.80183 584
66.82194 567
66.84205 633
66.86217 610
66.88228 666
66.90239 606
66.92251 641
66.94262 639
66.96274 640
66.98285 636
67.00296 623
67.02308 586
67.04319 599
67.0633 624
67.08342 587
67.10353 586
67.12365 585
67.14376 591
67.16387 595
67.18399 606
67.2041 545
67.22421 614
67.24433 574
67.26444 631
67.28456 615
67.30467 596
67.32478 613
67.3449 588
67.36501 615
67.38512 619
67.40524 593
67.42535 597
67.44546 564
67.46558 622
67.48569 617
67.50581 635
67.52592 600
67.54603 632
67.56615 587
67.58626 569
67.60637 588
67.62649 607
67.6466 553
67.66672 623
67.68683 605
67.70694 605
67.72706 622
67.74717 589
67.76728 629
67.7874 558
67.80751 557
67.82763 594
67.84774 600
67.86785 615
67.88797 618
67.90808 593
67.92819 599
67.94831 648
67.96842 620
67.98853 572
68.00865 603
68.02876 621
68.04888 633
68.06899 609
68.0891 625
68.10922 598
68.12933 599
68.14944 573
68.16956 649
68.18967 661
68.20979 627
68.2299 632
68.25001 639
68.27013 598
68.29024 643
68.31035 636
68.33047 652
68.35058 608
68.3707 646
68.39081 609
68.41092 583
68.43104 602
68.45115 626
68.47126 606
68.49138 571
68.51149 612
68.5316 594
68.55172 617
68.57183 587
68.59195 584
68.61206 563
68.63217 601
68.65229 594
68.6724 644
68.69251 575
68.71263 565
68.73274 654
68.75286 647
68.77297 544
68.79308 616
68.8132 588
68.83331 599
68.85342 622
68.87354 617
68.89365 586
68.91376 598
68.93388 621
68.95399 636
68.97411 617
68.99422 612
69.01433 649
69.03445 589
69.05456 617
69.07467 584
69.09479 636
69.1149 606
69.13502 612
69.15513 581
69.17524 562
69.19536 593
69.21547 579
69.23558 581
69.2557 601
69.27581 566
69.29593 556
69.31604 578
69.33615 594
69.35627 544
69.37638 602
69.39649 568
69.41661 604
69.43672 556
69.45683 564
69.47695 608
69.49706 605
69.51718 603
69.53729 606
69.5574 547
69.57752 593
69.59763 556
69.61774 625
69.63786 616
69.65797 592
69.67809 557
69.6982 608
69.71831 562
69.73843 604
69.75854 637
69.77865 551
69.79877 611
69.81888 589
69.839 547
69.85911 603
69.87922 634
69.89934 579
69.91945 587
69.93956 613
69.95968 576
69.97979 627
69.9999 580
70.02002 610
70.04013 602
70.06025 594
70.08036 554
70.10047 639
70.12059 649
70.1407 579
70.16081 587
70.18093 580
70.20104 532
70.22116 588
70.24127 575
70.26138 542
70.2815 607
70.30161 559
70.32172 570
70.34184 597
70.36195 585
70.38207 564
70.40218 572
70.42229 612
70.44241 652
70.46252 568
70.48263 635
70.50275 558
70.52286 628
70.54297 567
70.56309 575
70.5832 598
70.60332 583
70.62343 585
70.64354 575
70.66366 566
70.68377 540
70.70388 578
70.724 569
70.74411 651
70.76423 598
70.78434 598
70.80445 558
70.82457 579
70.84468 572
70.86479 618
70.88491 543
70.90502 607
70.92513 595
70.94525 598
70.96536 628
70.98548 609
71.00559 616
71.0257 611
71.04582 574
71.06593 601
71.08604 636
71.10616 588
71.12627 594
71.14639 570
71.1665 587
71.18661 599
71.20673 574
71.22684 568
71.24695 618
71.26707 611
71.28718 591
71.3073 578
71.32741 615
71.34752 577
71.36764 561
71.38775 557
71.40786 584
71.42798 597
71.44809 594
71.4682 570
71.48832 599
71.50843 557
71.52855 591
71.54866 543
71.56877 605
71.58889 566
71.609 636
71.62911 578
71.64923 615
71.66934 638
71.68946 572
71.70957 546
71.72968 591
71.7498 579
71.76991 580
71.79002 596
71.81014 579
71.83025 595
71.85037 599
71.87048 575
71.89059 588
71.91071 590
71.93082 638
71.95093 600
71.97105 551
71.99116 603
72.01127 605
72.03139 605
72.0515 549
72.07162 575
72.09173 620
72.11184 599
72.13196 595
72.15207 602
72.17218 603
72.1923 603
72.21241 611
72.23253 588
72.25264 586
72.27275 589
72.29287 533
72.31298 596
72.33309 594
72.35321 596
72.37332 553
72.39344 638
72.41355 576
72.43366 583
72.45378 540
72.47389 536
72.494 593
72.51412 561
72.53423 578
72.55434 582
72.57446 596
72.59457 531
72.61469 575
72.6348 580
72.65491 577
72.67503 600
72.69514 554
72.71525 555
72.73537 534
72.75548 578
72.7756 575
72.79571 541
72.81582 598
72.83594 590
72.85605 619
72.87616 588
72.89628 576
72.91639 507
72.9365 580
72.95662 596
72.97673 587
72.99685 597
73.01696 551
73.03707 564
73.05719 613
73.0773 579
73.09741 616
73.11753 597
73.13764 576
73.15776 521
73.17787 591
73.19798 584
73.2181 588
73.23821 588
73.25832 590
73.27844 590
73.29855 585
73.31867 556
73.33878 558
73.35889 608
73.37901 609
73.39912 575
73.41923 587
73.43935 604
73.45946 569
73.47957 552
73.49969 545
73.5198 572
73.53992 570
73.56003 565
73.58014 567
73.60026 594
73.62037 612
73.64048 574
73.6606 567
73.68071 628
73.70083 570
73.72094 608
73.74105 549
73.76117 575
73.78128 564
73.80139 561
73.82151 584
73.84162 575
73.86174 597
73.88185 570
73.90196 620
73.92208 585
73.94219 627
73.9623 568
73.98242 571
74.00253 564
74.02264 558
74.04276 576
74.06287 630
74.08299 571
74.1031 574
74.12321 573
74.14333 595
74.16344 525
74.18355 558
74.20367 541
74.22378 576
74.2439 564
74.26401 534
74.28412 605
74.30424 587
74.32435 599
74.34446 524
74.36458 572
74.38469 606
74.40481 568
74.42492 576
74.44503 582
74.46515 616
74.48526 511
74.50537 590
74.52549 563
74.5456 558
74.56571 564
74.58583 542
74.60594 551
74.62606 535
74.64617 547
74.66628 558
74.6864 561
74.70651 520
74.72662 569
74.74674 535
74.76685 570
74.78697 538
74.80708 612
74.82719 537
74.84731 544
74.86742 556
74.88753 543
74.90765 569
74.92776 562
74.94787 585
74.96799 587
74.9881 558
75.00822 603
