3.00117 20877
3.02128 20097
3.0414 19994
3.06151 19253
3.08162 19120
3.10174 17946
3.12185 17828
3.14197 17460
3.16208 16835
3.18219 16589
3.20231 15647
3.22242 15433
3.24253 15045
3.26265 14526
3.28276 14189
3.30288 13645
3.32299 13226
3.3431 12975
3.36322 12599
3.38333 12384
3.40344 11620
3.42356 11295
3.44367 11014
3.46379 10388
3.4839 10355
3.50401 9677
3.52413 9506
3.54424 9380
3.56435 8685
3.58447 8669
3.60458 8035
3.62469 8065
3.64481 7743
3.66492 7417
3.68504 7398
3.70515 6641
3.72526 6604
3.74538 6579
3.76549 6164
3.7856 5934
3.80572 5480
3.82583 5356
3.84595 5274
3.86606 4898
3.88617 4810
3.90629 4441
3.9264 4450
3.94651 4253
3.96663 4030
3.98674 4001
4.00686 3787
4.02697 3567
4.04708 3508
4.0672 3264
4.08731 3275
4.10742 2991
4.12754 2894
4.14765 2856
4.16776 2722
4.18788 2644
4.20799 2444
4.22811 2496
4.24822 2432
4.26833 2263
4.28845 2198
4.30856 2006
4.32867 1982
4.34879 2074
4.3689 1990
4.38902 1932
4.40913 1757
4.42924 1758
4.44936 1698
4.46947 1744
4.48958 1766
4.5097 1542
4.52981 1576
4.54992 1628
4.57004 1582
4.59015 1491
4.61027 1475
4.63038 1405
4.65049 1424
4.67061 1436
4.69072 1380
4.71083 1320
4.73095 1323
4.75106 1366
4.77118 1286
4.79129 1232
4.8114 1159
4.83152 1126
4.85163 1225
4.87174 1117
4.89186 1166
4.91197 1091
4.93209 1051
4.9522 1020
4.97231 1109
4.99243 957
5.01254 991
5.03265 933
5.05277 984
5.07288 934
5.09299 918
5.11311 912
5.13322 913
5.15334 871
5.17345 922
5.19356 856
5.21368 841
5.23379 851
5.2539 788
5.27402 754
5.29413 753
5.31425 838
5.33436 766
5.35447 735
5.37459 774
5.3947 726
5.41481 704
5.43493 690
5.45504 719
5.47516 676
5.49527 601
5.51538 678
5.5355 709
5.55561 703
5.57572 655
5.59584 620
5.61595 602
5.63606 636
5.65618 609
5.67629 605
5.69641 604
5.71652 571
5.73663 641
5.75675 580
5.77686 548
5.79697 532
5.81709 539
5.8372 546
5.85732 553
5.87743 547
5.89754 566
5.91766 545
5.93777 533
5.95788 547
5.978 509
5.99811 542
6.01823 546
6.03834 565
6.05845 510
6.07857 545
6.09868 544
6.11879 492
6.13891 535
6.15902 541
6.17913 483
6.19925 502
6.21936 470
6.23948 523
6.25959 529
6.2797 471
6.29982 482
6.31993 485
6.34004 470
6.36016 529
6.38027 482
6.40039 496
6.4205 462
6.44061 466
6.46073 502
6.48084 470
6.50095 483
6.52107 491
6.54118 466
6.56129 427
6.58141 477
6.60152 452
6.62164 465
6.64175 489
6.66186 451
6.68198 496
6.70209 436
6.7222 429
6.74232 435
6.76243 433
6.78255 492
6.80266 464
6.82277 471
6.84289 469
6.863 443
6.88311 457
6.90323 483
6.92334 502
6.94346 504
6.96357 469
6.98368 442
7.0038 454
7.02391 491
7.04402 449
7.06414 422
7.08425 526
7.10436 446
7.12448 454
7.14459 459
7.16471 444
7.18482 459
7.20493 461
7.22505 474
7.24516 469
7.26527 432
7.28539 456
7.3055 496
7.32562 499
7.34573 443
7.36584 494
7.38596 443
7.40607 430
7.42618 462
7.4463 452
7.46641 454
7.48653 473
7.50664 407
7.52675 453
7.54687 439
7.56698 477
7.58709 430
7.60721 456
7.62732 454
7.64743 464
7.66755 408
7.68766 423
7.70778 444
7.72789 432
7.748 440
7.76812 452
7.78823 472
7.80834 468
7.82846 451
7.84857 475
7.86869 441
7.8888 403
7.90891 466
7.92903 426
7.94914 450
7.96925 459
7.98937 451
8.00948 450
8.0296 433
8.04971 445
8.06982 423
8.08994 408
8.11005 446
8.13016 451
8.15028 455
8.17039 410
8.1905 410
8.21062 487
8.23073 468
8.25085 422
8.27096 457
8.29107 471
8.31119 493
8.3313 464
8.35141 438
8.37153 425
8.39164 450
8.41176 407
8.43187 481
8.45198 446
8.4721 432
8.49221 475
8.51232 480
8.53244 442
8.55255 468
8.57266 457
8.59278 466
8.61289 457
8.63301 452
8.65312 461
8.67323 448
8.69335 465
8.71346 420
8.73357 437
8.75369 412
8.7738 423
8.79392 433
8.81403 443
8.83414 438
8.85426 473
8.87437 462
8.89448 460
8.9146 420
8.93471 406
8.95483 467
8.97494 432
8.99505 464
9.01517 442
9.03528 440
9.05539 440
9.07551 416
9.09562 470
9.11573 410
9.13585 477
9.15596 452
9.17608 461
9.19619 474
9.2163 450
9.23642 457
9.25653 476
9.27664 454
9.29676 497
9.31687 466
9.33699 421
9.3571 456
9.37721 453
9.39733 451
9.41744 418
9.43755 436
9.45767 419
9.47778 457
9.4979 439
9.51801 453
9.53812 473
9.55824 456
9.57835 447
9.59846 452
9.61858 450
9.63869 470
9.6588 446
9.67892 430
9.69903 448
9.71915 470
9.73926 481
9.75937 405
9.77949 450
9.7996 481
9.81971 389
9.83983 439
9.85994 412
9.88006 430
9.90017 451
9.92028 433
9.9404 453
9.96051 418
9.98062 465
10.00074 459
10.02085 443
10.04097 451
10.06108 412
10.08119 425
10.10131 426
10.12142 449
10.14153 492
10.16165 479
10.18176 427
10.20187 477
10.22199 468
10.2421 436
10.26222 427
10.28233 435
10.30244 429
10.32256 467
10.34267 447
10.36278 480
10.3829 434
10.40301 447
10.42313 465
10.44324 461
10.46335 465
10.48347 438
10.50358 453
10.52369 439
10.54381 479
10.56392 440
10.58403 456
10.60415 484
10.62426 478
10.64438 457
10.66449 459
10.6846 490
10.70472 498
10.72483 470
10.74494 426
10.76506 441
10.78517 455
10.80529 472
10.8254 476
10.84551 488
10.86563 475
10.88574 444
10.90585 488
10.92597 452
10.94608 483
10.9662 476
10.98631 426
11.00642 462
11.02654 476
11.04665 439
11.06676 465
11.08688 498
11.10699 431
11.1271 472
11.14722 508
11.16733 475
11.18745 445
11.20756 476
11.22767 496
11.24779 501
11.2679 518
11.28801 495
11.30813 493
11.32824 478
11.34836 492
11.36847 511
11.38858 508
11.4087 484
11.42881 518
11.44892 466
11.46904 515
11.48915 510
11.50927 546
11.52938 515
11.54949 505
11.56961 501
11.58972 512
11.60983 518
11.62995 520
11.65006 547
11.67017 548
11.69029 533
11.7104 548
11.73052 587
11.75063 575
11.77074 605
11.79086 623
11.81097 573
11.83108 658
11.8512 643
11.87131 660
11.89143 603
11.91154 682
11.93165 701
11.95177 716
11.97188 741
11.99199 805
12.01211 887
12.03222 840
12.05234 889
12.07245 895
12.09256 949
12.11268 1031
12.13279 1059
12.1529 1159
12.17302 1298
12.19313 1329
12.21324 1389
12.23336 1362
12.25347 1430
12.27359 1554
12.2937 1530
12.31381 1554
12.33393 1450
12.35404 1412
12.37415 1314
12.39427 1236
12.41438 1154
12.4345 1079
12.45461 1008
12.47472 864
12.49484 824
12.51495 823
12.53506 710
12.55518 754
12.57529 704
12.5954 696
12.61552 615
12.63563 553
12.65575 611
12.67586 589
12.69597 539
12.71609 579
12.7362 514
12.75631 501
12.77643 550
12.79654 476
12.81666 521
12.83677 502
12.85688 472
12.877 499
12.89711 496
12.91722 517
12.93734 497
12.95745 421
12.97757 459
12.99768 490
13.01779 463
13.03791 488
13.05802 475
13.07813 466
13.09825 455
13.11836 453
13.13847 437
13.15859 417
13.1787 414
13.19882 480
13.21893 464
13.23904 449
13.25916 470
13.27927 461
13.29938 439
13.3195 424
13.33961 420
13.35973 435
13.37984 426
13.39995 422
13.42007 425
13.44018 374
13.46029 438
13.48041 431
13.50052 414
13.52064 435
13.54075 408
13.56086 431
13.58098 437
13.60109 394
13.6212 417
13.64132 437
13.66143 418
13.68154 399
13.70166 406
13.72177 412
13.74189 397
13.762 431
13.78211 389
13.80223 433
13.82234 417
13.84245 427
13.86257 440
13.88268 458
13.9028 429
13.92291 429
13.94302 476
13.96314 414
13.98325 427
14.00336 415
14.02348 459
14.04359 422
14.06371 373
14.08382 466
14.10393 438
14.12405 399
14.14416 425
14.16427 445
14.18439 409
14.2045 432
14.22461 397
14.24473 424
14.26484 418
14.28496 399
14.30507 392
14.32518 406
14.3453 420
14.36541 385
14.38552 399
14.40564 403
14.42575 390
14.44587 440
14.46598 421
14.48609 422
14.50621 441
14.52632 396
14.54643 405
14.56655 412
14.58666 429
14.60677 402
14.62689 376
14.647 410
14.66712 410
14.68723 420
14.70734 401
14.72746 425
14.74757 420
14.76768 398
14.7878 392
14.80791 413
14.82803 435
14.84814 389
14.86825 395
14.88837 392
14.90848 384
14.92859 381
14.94871 408
14.96882 408
14.98894 408
15.00905 391
15.02916 378
15.04928 392
15.06939 402
15.0895 379
15.10962 414
15.12973 404
15.14984 405
15.16996 368
15.19007 407
15.21019 395
15.2303 415
15.25041 399
15.27053 370
15.29064 384
15.31075 381
15.33087 392
15.35098 360
15.3711 363
15.39121 382
15.41132 416
15.43144 370
15.45155 412
15.47166 412
15.49178 402
15.51189 391
15.53201 376
15.55212 372
15.57223 381
15.59235 387
15.61246 397
15.63257 399
15.65269 398
15.6728 409
15.69291 410
15.71303 392
15.73314 375
15.75326 370
15.77337 406
15.79348 361
15.8136 392
15.83371 402
15.85382 355
15.87394 399
15.89405 405
15.91417 388
15.93428 382
15.95439 430
15.97451 422
15.99462 405
16.01473 434
16.03485 399
16.05496 361
16.07508 382
16.09519 408
16.1153 401
16.13542 402
16.15553 426
16.17564 394
16.19576 377
16.21587 418
16.23598 388
16.2561 430
16.27621 416
16.29633 370
16.31644 409
16.33655 409
16.35667 385
16.37678 365
16.39689 369
16.41701 369
16.43712 391
16.45724 385
16.47735 423
16.49746 397
16.51758 400
16.53769 363
16.5578 401
16.57792 383
16.59803 387
16.61814 355
16.63826 404
16.65837 397
16.67849 402
16.6986 390
16.71871 364
16.73883 367
16.75894 375
16.77905 386
16.79917 369
16.81928 404
16.8394 422
16.85951 397
16.87962 374
16.89974 391
16.91985 403
16.93996 398
16.96008 382
16.98019 383
17.00031 392
17.02042 401
17.04053 409
17.06065 400
17.08076 381
17.10087 388
17.12099 384
17.1411 398
17.16121 413
17.18133 368
17.20144 396
17.22156 365
17.24167 383
17.26178 374
17.2819 427
17.30201 390
17.32212 397
17.34224 393
17.36235 387
17.38247 419
17.40258 375
17.42269 407
17.44281 419
17.46292 411
17.48303 404
17.50315 406
17.52326 398
17.54338 397
17.56349 397
17.5836 439
17.60372 409
17.62383 413
17.64394 382
17.66406 421
17.68417 402
17.70428 409
17.7244 403
17.74451 416
17.76463 429
17.78474 449
17.80485 391
17.82497 409
17.84508 382
17.86519 459
17.88531 428
17.90542 428
17.92554 386
17.94565 468
17.96576 401
17.98588 413
18.00599 441
18.0261 429
18.04622 446
18.06633 426
18.08645 435
18.10656 459
18.12667 454
18.14679 456
18.1669 515
18.18701 500
18.20713 541
18.22724 580
18.24735 559
18.26747 535
18.28758 569
18.3077 494
18.32781 471
18.34792 435
18.36804 435
18.38815 434
18.40826 395
18.42838 390
18.44849 407
18.46861 386
18.48872 372
18.50883 395
18.52895 393
18.54906 388
18.56917 400
18.58929 417
18.6094 404
18.62951 383
18.64963 371
18.66974 403
18.68986 425
18.70997 370
18.73008 398
18.7502 453
18.77031 416
18.79042 388
18.81054 423
18.83065 406
18.85077 417
18.87088 396
18.89099 392
18.91111 443
18.93122 447
18.95133 381
18.97145 379
18.99156 428
19.01168 406
19.03179 402
19.0519 399
19.07202 427
19.09213 421
19.11224 444
19.13236 443
19.15247 428
19.17258 427
19.1927 439
19.21281 415
19.23293 409
19.25304 423
19.27315 408
19.29327 410
19.31338 406
19.33349 425
19.35361 432
19.37372 479
19.39384 465
19.41395 448
19.43406 450
19.45418 460
19.47429 498
19.4944 455
19.51452 494
19.53463 529
19.55475 488
19.57486 521
19.59497 514
19.61509 499
19.6352 582
19.65531 569
19.67543 618
19.69554 722
19.71565 722
19.73577 806
19.75588 816
19.776 882
19.79611 997
19.81622 1000
19.83634 994
19.85645 1056
19.87656 959
19.89668 959
19.91679 975
19.93691 940
19.95702 913
19.97713 847
19.99725 873
20.01736 890
20.03747 891
20.05759 885
20.0777 812
20.09782 899
20.11793 851
20.13804 917
20.15816 937
20.17827 882
20.19838 993
20.2185 953
20.23861 983
20.25872 1023
20.27884 940
20.29895 936
20.31907 937
20.33918 968
20.35929 934
20.37941 972
20.39952 902
20.41963 908
20.43975 1015
20.45986 941
20.47998 1014
20.50009 985
20.5202 1015
20.54032 1044
20.56043 1058
20.58054 1042
20.60066 1071
20.62077 1162
20.64088 1266
20.661 1367
20.68111 1496
20.70123 1868
20.72134 2258
20.74145 2570
20.76157 2964
20.78168 3215
20.80179 3143
20.82191 3092
20.84202 2803
20.86214 2363
20.88225 2027
20.90236 1618
20.92248 1260
20.94259 1183
20.9627 1117
20.98282 1086
21.00293 1037
21.02305 1008
21.04316 958
21.06327 1009
21.08339 993
21.1035 967
21.12361 1049
21.14373 1003
21.16384 1011
21.18395 1091
21.20407 1050
21.22418 1001
21.2443 1082
21.26441 1047
21.28452 1057
21.30464 1102
21.32475 1034
21.34486 1077
21.36498 1010
21.38509 964
21.40521 993
21.42532 960
21.44543 932
21.46555 912
21.48566 850
21.50577 915
21.52589 826
21.546 828
21.56612 839
21.58623 801
21.60634 836
21.62646 767
21.64657 792
21.66668 787
21.6868 775
21.70691 746
21.72702 742
21.74714 771
21.76725 697
21.78737 733
21.80748 711
21.82759 723
21.84771 665
21.86782 690
21.88793 701
21.90805 707
21.92816 701
21.94828 722
21.96839 648
21.9885 690
22.00862 673
22.02873 678
22.04884 648
22.06896 689
22.08907 690
22.10919 675
22.1293 676
22.14941 654
22.16953 654
22.18964 671
22.20975 630
22.22987 641
22.24998 624
22.27009 626
22.29021 620
22.31032 671
22.33044 648
22.35055 615
22.37066 657
22.39078 608
22.41089 663
22.431 583
22.45112 627
22.47123 581
22.49135 599
22.51146 601
22.53157 645
22.55169 601
22.5718 567
22.59191 596
22.61203 587
22.63214 578
22.65225 611
22.67237 615
22.69248 588
22.7126 583
22.73271 559
22.75282 606
22.77294 628
22.79305 602
22.81316 591
22.83328 582
22.85339 553
22.87351 568
22.89362 552
22.91373 555
22.93385 612
22.95396 581
22.97407 581
22.99419 581
23.0143 589
23.03442 572
23.05453 568
23.07464 573
23.09476 564
23.11487 577
23.13498 550
23.1551 575
23.17521 545
23.19532 535
23.21544 542
23.23555 574
23.25567 529
23.27578 566
23.29589 557
23.31601 534
23.33612 573
23.35623 564
23.37635 545
23.39646 568
23.41658 580
23.43669 528
23.4568 555
23.47692 489
23.49703 528
23.51714 546
23.53726 540
23.55737 553
23.57749 545
23.5976 498
23.61771 560
23.63783 522
23.65794 545
23.67805 548
23.69817 536
23.71828 531
23.73839 561
23.75851 586
23.77862 591
23.79874 593
23.81885 547
23.83896 528
23.85908 572
23.87919 578
23.8993 581
23.91942 626
23.93953 597
23.95965 576
23.97976 558
23.99987 597
24.01999 618
24.0401 611
24.06021 596
24.08033 605
24.10044 591
24.12056 575
24.14067 638
24.16078 591
24.1809 572
24.20101 620
24.22112 614
24.24124 609
24.26135 629
24.28146 619
24.30158 588
24.32169 693
24.34181 622
24.36192 652
24.38203 686
24.40215 676
24.42226 701
24.44237 689
24.46249 679
24.4826 737
24.50272 763
24.52283 798
24.54294 773
24.56306 845
24.58317 855
24.60328 841
24.6234 958
24.64351 960
24.66362 1062
24.68374 1102
24.70385 1128
24.72397 1134
24.74408 1119
24.76419 1268
24.78431 1258
24.80442 1280
24.82453 1241
24.84465 1200
24.86476 1197
24.88488 1180
24.90499 1067
24.9251 1094
24.94522 983
24.96533 975
24.98544 942
25.00556 866
25.02567 821
25.04579 860
25.0659 803
25.08601 824
25.10613 850
25.12624 799
25.14635 712
25.16647 681
25.18658 717
25.20669 712
25.22681 662
25.24692 681
25.26704 695
25.28715 627
25.30726 660
25.32738 639
25.34749 658
25.3676 650
25.38772 585
25.40783 669
25.42795 604
25.44806 602
25.46817 587
25.48829 569
25.5084 561
25.52851 608
25.54863 595
25.56874 599
25.58886 594
25.60897 620
25.62908 599
25.6492 571
25.66931 580
25.68942 601
25.70954 641
25.72965 630
25.74976 576
25.76988 624
25.78999 637
25.81011 550
25.83022 591
25.85033 644
25.87045 657
25.89056 628
25.91067 621
25.93079 636
25.9509 650
25.97102 617
25.99113 638
26.01124 680
26.03136 717
26.05147 712
26.07158 663
26.0917 709
26.11181 726
26.13193 799
26.15204 793
26.17215 820
26.19227 875
26.21238 910
26.23249 950
26.25261 1026
26.27272 1041
26.29283 1125
26.31295 1268
26.33306 1332
26.35318 1609
26.37329 1936
26.3934 2355
26.41352 2884
26.43363 3556
26.45374 4551
26.47386 5752
26.49397 7256
26.51409 8808
26.5342 10117
26.55431 10987
26.57443 11462
26.59454 10744
26.61465 9276
26.63477 7697
26.65488 5740
26.67499 4425
26.69511 3272
26.71522 2261
26.73534 1595
26.75545 1331
26.77556 1118
26.79568 1016
26.81579 943
26.8359 926
26.85602 844
26.87613 839
26.89625 752
26.91636 802
26.93647 717
26.95659 734
26.9767 670
26.99681 660
27.01693 651
27.03704 589
27.05716 582
27.07727 633
27.09738 549
27.1175 564
27.13761 544
27.15772 548
27.17784 569
27.19795 574
27.21806 541
27.23818 584
27.25829 550
27.27841 528
27.29852 538
27.31863 517
27.33875 551
27.35886 573
27.37897 513
27.39909 502
27.4192 543
27.43932 504
27.45943 517
27.47954 512
27.49966 511
27.51977 518
27.53988 517
27.56 493
27.58011 524
27.60023 482
27.62034 496
27.64045 518
27.66057 534
27.68068 493
27.70079 486
27.72091 486
27.74102 448
27.76113 496
27.78125 468
27.80136 490
27.82148 483
27.84159 497
27.8617 492
27.88182 499
27.90193 487
27.92204 481
27.94216 472
27.96227 517
27.98239 487
28.0025 447
28.02261 466
28.04273 500
28.06284 478
28.08295 472
28.10307 525
28.12318 509
28.1433 516
28.16341 472
28.18352 457
28.20364 478
28.22375 458
28.24386 486
28.26398 437
28.28409 465
28.3042 464
28.32432 489
28.34443 469
28.36455 440
28.38466 459
28.40477 507
28.42489 452
28.445 466
28.46511 456
28.48523 397
28.50534 474
28.52546 481
28.54557 459
28.56568 440
28.5858 439
28.60591 474
28.62602 468
28.64614 463
28.66625 435
28.68636 460
28.70648 453
28.72659 442
28.74671 414
28.76682 450
28.78693 486
28.80705 458
28.82716 433
28.84727 466
28.86739 464
28.8875 468
28.90762 430
28.92773 466
28.94784 496
28.96796 457
28.98807 428
29.00818 422
29.0283 462
29.04841 438
29.06853 430
29.08864 467
29.10875 442
29.12887 438
29.14898 436
29.16909 448
29.18921 441
29.20932 423
29.22943 397
29.24955 409
29.26966 448
29.28978 466
29.30989 412
29.33 438
29.35012 438
29.37023 415
29.39034 410
29.41046 453
29.43057 414
29.45069 438
29.4708 441
29.49091 407
29.51103 420
29.53114 441
29.55125 432
29.57137 406
29.59148 429
29.6116 424
29.63171 436
29.65182 424
29.67194 442
29.69205 414
29.71216 427
29.73228 408
29.75239 395
29.7725 437
29.79262 395
29.81273 441
29.83285 397
29.85296 407
29.87307 417
29.89319 391
29.9133 445
29.93341 416
29.95353 420
29.97364 383
29.99376 426
30.01387 428
30.03398 451
30.0541 439
30.07421 436
30.09432 459
30.11444 434
30.13455 475
30.15467 430
30.17478 446
30.19489 468
30.21501 452
30.23512 440
30.25523 434
30.27535 457
30.29546 420
30.31557 433
30.33569 469
30.3558 396
30.37592 446
30.39603 419
30.41614 426
30.43626 448
30.45637 422
30.47648 458
30.4966 426
30.51671 399
30.53683 460
30.55694 419
30.57705 413
30.59717 383
30.61728 401
30.63739 418
30.65751 394
30.67762 435
30.69773 399
30.71785 431
30.73796 389
30.75808 428
30.77819 394
30.7983 414
30.81842 450
30.83853 427
30.85864 389
30.87876 442
30.89887 409
30.91899 410
30.9391 394
30.95921 431
30.97933 427
30.99944 387
31.01955 420
31.03967 429
31.05978 445
31.0799 474
31.10001 417
31.12012 424
31.14024 422
31.16035 409
31.18046 401
31.20058 372
31.22069 419
31.2408 412
31.26092 417
31.28103 432
31.30115 437
31.32126 421
31.34137 417
31.36149 397
31.3816 376
31.40171 402
31.42183 396
31.44194 405
31.46206 424
31.48217 390
31.50228 420
31.5224 412
31.54251 407
31.56262 421
31.58274 384
31.60285 423
31.62297 400
31.64308 404
31.66319 431
31.68331 386
31.70342 446
31.72353 403
31.74365 428
31.76376 414
31.78387 432
31.80399 418
31.8241 372
31.84422 419
31.86433 401
31.88444 431
31.90456 406
31.92467 411
31.94478 414
31.9649 417
31.98501 424
32.00513 382
32.02524 477
32.04535 419
32.06547 436
32.08558 389
32.10569 415
32.12581 433
32.14592 454
32.16604 438
32.18615 423
32.20626 453
32.22638 450
32.24649 419
32.2666 416
32.28672 417
32.30683 429
32.32694 447
32.34706 477
32.36717 423
32.38729 433
32.4074 441
32.42751 489
32.44763 452
32.46774 431
32.48785 465
32.50797 457
32.52808 453
32.5482 452
32.56831 460
32.58842 453
32.60854 453
32.62865 442
32.64876 449
32.66888 447
32.68899 501
32.7091 417
32.72922 480
32.74933 465
32.76945 493
32.78956 488
32.80967 486
32.82979 487
32.8499 481
32.87001 474
32.89013 498
32.91024 482
32.93036 505
32.95047 500
32.97058 511
32.9907 562
33.01081 486
33.03092 526
33.05104 546
33.07115 574
33.09127 524
33.11138 530
33.13149 525
33.15161 529
33.17172 502
33.19183 475
33.21195 501
33.23206 571
33.25217 504
33.27229 504
33.2924 501
33.31252 532
33.33263 491
33.35274 509
33.37286 535
33.39297 496
33.41308 476
33.4332 492
33.45331 451
33.47343 492
33.49354 490
33.51365 483
33.53377 495
33.55388 507
33.57399 479
33.59411 493
33.61422 482
33.63434 468
33.65445 476
33.67456 468
33.69468 470
33.71479 481
33.7349 464
33.75502 445
33.77513 468
33.79524 461
33.81536 433
33.83547 434
33.85559 453
33.8757 454
33.89581 417
33.91593 425
33.93604 455
33.95615 461
33.97627 413
33.99638 434
34.0165 454
34.03661 444
34.05672 468
34.07684 452
34.09695 433
34.11706 452
34.13718 474
34.15729 460
34.17741 381
34.19752 426
34.21763 437
34.23775 441
34.25786 436
34.27797 450
34.29809 406
34.3182 424
34.33831 421
34.35843 455
34.37854 424
34.39866 441
34.41877 458
34.43888 393
34.459 437
34.47911 494
34.49922 460
34.51934 480
34.53945 440
34.55957 477
34.57968 498
34.59979 508
34.61991 486
34.64002 524
34.66013 557
34.68025 564
34.70036 574
34.72047 578
34.74059 621
34.7607 637
34.78082 704
34.80093 649
34.82104 747
34.84116 767
34.86127 758
34.88138 737
34.9015 748
34.92161 721
34.94173 723
34.96184 716
34.98195 699
35.00207 728
35.02218 724
35.04229 670
35.06241 732
35.08252 698
35.10264 668
35.12275 660
35.14286 701
35.16298 674
35.18309 693
35.2032 715
35.22332 723
35.24343 705
35.26354 703
35.28366 705
35.30377 711
35.32389 688
35.344 736
35.36411 741
35.38423 681
35.40434 753
35.42445 712
35.44457 699
35.46468 707
35.4848 700
35.50491 682
35.52502 660
35.54514 700
35.56525 640
35.58536 685
35.60548 720
35.62559 671
35.64571 672
35.66582 702
35.68593 691
35.70605 773
35.72616 755
35.74627 712
35.76639 721
35.7865 804
35.80661 755
35.82673 746
35.84684 741
35.86696 772
35.88707 775
35.90718 718
35.9273 728
35.94741 767
35.96752 707
35.98764 689
36.00775 668
36.02787 618
36.04798 652
36.06809 590
36.08821 590
36.10832 595
36.12843 578
36.14855 565
36.16866 583
36.18878 567
36.20889 568
36.229 678
36.24912 656
36.26923 688
36.28934 674
36.30946 741
36.32957 746
36.34968 801
36.3698 859
36.38991 965
36.41003 1086
36.43014 1114
36.45025 1170
36.47037 1160
36.49048 1211
36.51059 1100
36.53071 1051
36.55082 996
36.57094 876
36.59105 858
36.61116 760
36.63128 714
36.65139 646
36.6715 615
36.69162 606
36.71173 567
36.73184 586
36.75196 621
36.77207 540
36.79219 578
36.8123 573
36.83241 544
36.85253 619
36.87264 620
36.89275 581
36.91287 607
36.93298 653
36.9531 628
36.97321 633
36.99332 585
37.01344 631
37.03355 605
37.05366 609
37.07378 599
37.09389 592
37.11401 565
37.13412 583
37.15423 545
37.17435 557
37.19446 579
37.21457 538
37.23469 534
37.2548 562
37.27491 576
37.29503 517
37.31514 521
37.33526 555
37.35537 525
37.37548 583
37.3956 536
37.41571 586
37.43582 577
37.45594 596
37.47605 561
37.49617 561
37.51628 553
37.53639 599
37.55651 578
37.57662 595
37.59673 606
37.61685 580
37.63696 611
37.65708 585
37.67719 605
37.6973 573
37.71742 586
37.73753 600
37.75764 543
37.77776 599
37.79787 591
37.81798 575
37.8381 534
37.85821 573
37.87833 616
37.89844 669
37.91855 603
37.93867 591
37.95878 631
37.97889 603
37.99901 614
38.01912 712
38.03924 642
38.05935 691
38.07946 660
38.09958 703
38.11969 746
38.1398 724
38.15992 747
38.18003 799
38.20015 825
38.22026 857
38.24037 878
38.26049 854
38.2806 906
38.30071 884
38.32083 904
38.34094 858
38.36105 853
38.38117 826
38.40128 843
38.4214 823
38.44151 847
38.46162 769
38.48174 771
38.50185 755
38.52196 705
38.54208 706
38.56219 651
38.58231 686
38.60242 656
38.62253 659
38.64265 612
38.66276 661
38.68287 631
38.70299 633
38.7231 576
38.74321 613
38.76333 597
38.78344 607
38.80356 585
38.82367 551
38.84378 617
38.8639 633
38.88401 631
38.90412 628
38.92424 668
38.94435 692
38.96447 684
38.98458 678
39.00469 692
39.02481 701
39.04492 691
39.06503 696
39.08515 771
39.10526 754
39.12538 748
39.14549 756
39.1656 781
39.18572 821
39.20583 786
39.22594 808
39.24606 872
39.26617 851
39.28628 1015
39.3064 988
39.32651 1075
39.34663 1084
39.36674 1192
39.38685 1134
39.40697 1190
39.42708 1152
39.44719 1061
39.46731 988
39.48742 907
39.50754 784
39.52765 720
39.54776 653
39.56788 652
39.58799 555
39.6081 547
39.62822 497
39.64833 496
39.66845 486
39.68856 493
39.70867 505
39.72879 502
39.7489 535
39.76901 497
39.78913 516
39.80924 465
39.82935 480
39.84947 474
39.86958 488
39.8897 498
39.90981 475
39.92992 465
39.95004 506
39.97015 523
39.99026 529
40.01038 569
40.03049 531
40.05061 581
40.07072 608
40.09083 589
40.11095 640
40.13106 691
40.15117 713
40.17129 748
40.1914 797
40.21152 817
40.23163 785
40.25174 739
40.27186 746
40.29197 689
40.31208 697
40.3322 614
40.35231 579
40.37242 578
40.39254 534
40.41265 542
40.43277 549
40.45288 531
40.47299 496
40.49311 500
40.51322 481
40.53333 483
40.55345 549
40.57356 501
40.59368 529
40.61379 477
40.6339 512
40.65402 537
40.67413 500
40.69424 507
40.71436 470
40.73447 491
40.75458 518
40.7747 488
40.79481 483
40.81493 495
40.83504 486
40.85515 512
40.87527 491
40.89538 504
40.91549 506
40.93561 464
40.95572 518
40.97584 482
40.99595 538
41.01606 473
41.03618 513
41.05629 464
41.0764 462
41.09652 467
41.11663 445
41.13675 488
41.15686 501
41.17697 493
41.19709 489
41.2172 485
41.23731 514
41.25743 450
41.27754 438
41.29765 483
41.31777 495
41.33788 508
41.358 444
41.37811 491
41.39822 472
41.41834 463
41.43845 473
41.45856 460
41.47868 457
41.49879 468
41.51891 485
41.53902 464
41.55913 438
41.57925 445
41.59936 460
41.61947 448
41.63959 452
41.6597 444
41.67982 463
41.69993 492
41.72004 459
41.74016 478
41.76027 464
41.78038 467
41.8005 439
41.82061 463
41.84072 439
41.86084 462
41.88095 469
41.90107 439
41.92118 429
41.94129 466
41.96141 442
41.98152 410
42.00163 460
42.02175 454
42.04186 450
42.06198 428
42.08209 414
42.1022 478
42.12232 510
42.14243 488
42.16254 459
42.18266 490
42.20277 502
42.22289 585
42.243 603
42.26311 626
42.28323 720
42.30334 746
42.32345 837
42.34357 835
42.36368 899
42.38379 858
42.40391 825
42.42402 772
42.44414 748
42.46425 686
42.48436 601
42.50448 560
42.52459 548
42.5447 489
42.56482 482
42.58493 419
42.60505 429
42.62516 437
42.64527 409
42.66539 393
42.6855 421
42.70561 402
42.72573 410
42.74584 380
42.76595 394
42.78607 394
42.80618 410
42.8263 425
42.84641 414
42.86652 390
42.88664 420
42.90675 376
42.92686 402
42.94698 384
42.96709 392
42.98721 379
43.00732 375
43.02743 407
43.04755 404
43.06766 413
43.08777 417
43.10789 396
43.128 380
43.14812 420
43.16823 424
43.18834 383
43.20846 380
43.22857 386
43.24868 418
43.2688 372
43.28891 411
43.30902 382
43.32914 406
43.34925 393
43.36937 418
43.38948 379
43.40959 348
43.42971 391
43.44982 388
43.46993 408
43.49005 414
43.51016 415
43.53028 422
43.55039 396
43.5705 395
43.59062 409
43.61073 403
43.63084 423
43.65096 393
43.67107 394
43.69119 395
43.7113 367
43.73141 443
43.75153 405
43.77164 417
43.79175 382
43.81187 373
43.83198 426
43.85209 409
43.87221 366
43.89232 397
43.91244 418
43.93255 400
43.95266 417
43.97278 445
43.99289 402
44.013 368
44.03312 384
44.05323 383
44.07335 391
44.09346 412
44.11357 414
44.13369 453
44.1538 405
44.17391 446
44.19403 396
44.21414 409
44.23426 409
44.25437 409
44.27448 386
44.2946 404
44.31471 412
44.33482 378
44.35494 366
44.37505 421
44.39516 386
44.41528 378
44.43539 385
44.45551 373
44.47562 398
44.49573 408
44.51585 432
44.53596 388
44.55607 444
44.57619 406
44.5963 419
44.61642 409
44.63653 406
44.65664 396
44.67676 413
44.69687 409
44.71698 398
44.7371 424
44.75721 404
44.77732 414
44.79744 429
44.81755 437
44.83767 460
44.85778 414
44.87789 419
44.89801 377
44.91812 447
44.93823 413
44.95835 449
44.97846 428
44.99858 452
45.01869 457
45.0388 451
45.05892 448
45.07903 466
45.09914 487
45.11926 450
45.13937 478
45.15949 499
45.1796 479
45.19971 488
45.21983 475
45.23994 472
45.26005 502
45.28017 512
45.30028 503
45.32039 553
45.34051 535
45.36062 521
45.38074 543
45.40085 505
45.42096 516
45.44108 537
45.46119 564
45.4813 551
45.50142 563
45.52153 582
45.54165 581
45.56176 617
45.58187 606
45.60199 671
45.6221 647
45.64221 680
45.66233 711
45.68244 721
45.70256 746
45.72267 788
45.74278 736
45.7629 662
45.78301 667
45.80312 627
45.82324 555
45.84335 565
45.86346 548
45.88358 500
45.90369 510
45.92381 479
45.94392 486
45.96403 437
45.98415 457
46.00426 438
46.02437 458
46.04449 448
46.0646 429
46.08472 448
46.10483 433
46.12494 450
46.14506 440
46.16517 450
46.18528 454
46.2054 476
46.22551 447
46.24563 419
46.26574 467
46.28585 440
46.30597 430
46.32608 407
46.34619 419
46.36631 459
46.38642 472
46.40653 420
46.42665 389
46.44676 415
46.46688 422
46.48699 446
46.5071 453
46.52722 446
46.54733 450
46.56744 462
46.58756 408
46.60767 468
46.62779 412
46.6479 456
46.66801 391
46.68813 440
46.70824 427
46.72835 418
46.74847 433
46.76858 457
46.78869 418
46.80881 431
46.82892 440
46.84904 447
46.86915 427
46.88926 426
46.90938 410
46.92949 403
46.9496 426
46.96972 431
46.98983 427
47.00995 435
47.03006 426
47.05017 429
47.07029 415
47.0904 410
47.11051 419
47.13063 439
47.15074 428
47.17086 421
47.19097 418
47.21108 431
47.2312 427
47.25131 412
47.27142 427
47.29154 424
47.31165 491
47.33176 415
47.35188 426
47.37199 418
47.39211 458
47.41222 438
47.43233 431
47.45245 430
47.47256 418
47.49267 480
47.51279 445
47.5329 462
47.55302 449
47.57313 414
47.59324 428
47.61336 468
47.63347 455
47.65358 445
47.6737 446
47.69381 461
47.71393 433
47.73404 467
47.75415 408
47.77427 470
47.79438 413
47.81449 462
47.83461 427
47.85472 462
47.87483 442
47.89495 435
47.91506 457
47.93518 442
47.95529 446
47.9754 454
47.99552 452
48.01563 419
48.03574 413
48.05586 437
48.07597 438
48.09609 406
48.1162 449
48.13631 429
48.15643 435
48.17654 405
48.19665 416
48.21677 408
48.23688 445
48.257 399
48.27711 438
48.29722 425
48.31734 412
48.33745 427
48.35756 416
48.37768 398
48.39779 420
48.4179 400
48.43802 377
48.45813 402
48.47825 371
48.49836 427
48.51847 398
48.53859 398
48.5587 399
48.57881 413
48.59893 397
48.61904 389
48.63916 396
48.65927 403
48.67938 410
48.6995 415
48.71961 414
48.73972 429
48.75984 400
48.77995 426
48.80006 403
48.82018 447
48.84029 422
48.86041 430
48.88052 440
48.90063 437
48.92075 427
48.94086 415
48.96097 412
48.98109 439
49.0012 395
49.02132 456
49.04143 426
49.06154 416
49.08166 412
49.10177 396
49.12188 396
49.142 407
49.16211 429
49.18223 419
49.20234 421
49.22245 443
49.24257 424
49.26268 455
49.28279 424
49.30291 424
49.32302 458
49.34313 450
49.36325 458
49.38336 442
49.40348 416
49.42359 448
49.4437 418
49.46382 441
49.48393 426
49.50404 452
49.52416 437
49.54427 403
49.56439 437
49.5845 464
49.60461 432
49.62473 460
49.64484 462
49.66495 436
49.68507 493
49.70518 469
49.7253 479
49.74541 549
49.76552 526
49.78564 569
49.80575 573
49.82586 579
49.84598 660
49.86609 676
49.8862 741
49.90632 817
49.92643 914
49.94655 987
49.96666 1064
49.98677 1168
50.00689 1305
50.027 1398
50.04711 1453
50.06723 1478
50.08734 1323
50.10746 1199
50.12757 1180
50.14768 1007
50.1678 937
50.18791 867
50.20802 822
50.22814 758
50.24825 674
50.26837 610
50.28848 528
50.30859 482
50.32871 484
50.34882 505
50.36893 452
50.38905 452
50.40916 445
50.42927 464
50.44939 481
50.4695 410
50.48962 434
50.50973 466
50.52984 427
50.54996 435
50.57007 481
50.59018 424
50.6103 431
50.63041 434
50.65053 437
50.67064 446
50.69075 466
50.71087 472
50.73098 430
50.75109 460
50.77121 401
50.79132 431
50.81143 432
50.83155 444
50.85166 446
50.87178 439
50.89189 435
50.912 433
50.93212 397
50.95223 415
50.97234 421
50.99246 425
51.01257 476
51.03269 410
51.0528 417
51.07291 397
51.09303 416
51.11314 408
51.13325 471
51.15337 423
51.17348 395
51.1936 420
51.21371 403
51.23382 421
51.25394 386
51.27405 398
51.29416 436
51.31428 412
51.33439 394
51.3545 377
51.37462 390
51.39473 360
51.41485 427
51.43496 431
51.45507 394
51.47519 380
51.4953 405
51.51541 396
51.53553 361
51.55564 367
51.57576 411
51.59587 401
51.61598 340
51.6361 391
51.65621 378
51.67632 374
51.69644 380
51.71655 420
51.73667 414
51.75678 344
51.77689 346
51.79701 390
51.81712 378
51.83723 389
51.85735 373
51.87746 334
51.89757 366
51.91769 412
51.9378 368
51.95792 360
51.97803 396
51.99814 447
52.01826 418
52.03837 389
52.05848 360
52.0786 396
52.09871 417
52.11883 404
52.13894 401
52.15905 411
52.17917 373
52.19928 381
52.21939 389
52.23951 416
52.25962 380
52.27974 434
52.29985 372
52.31996 382
52.34008 351
52.36019 389
52.3803 392
52.40042 389
52.42053 381
52.44064 356
52.46076 394
52.48087 403
52.50099 371
52.5211 399
52.54121 380
52.56133 420
52.58144 394
52.60155 384
52.62167 392
52.64178 393
52.6619 386
52.68201 384
52.70212 394
52.72224 341
52.74235 388
52.76246 366
52.78258 393
52.80269 395
52.8228 405
52.84292 419
52.86303 393
52.88315 395
52.90326 356
52.92337 410
52.94349 430
52.9636 359
52.98371 384
53.00383 429
53.02394 389
53.04406 435
53.06417 375
53.08428 383
53.1044 422
53.12451 408
53.14462 412
53.16474 432
53.18485 426
53.20497 401
53.22508 423
53.24519 435
53.26531 442
53.28542 427
53.30553 421
53.32565 441
53.34576 396
53.36587 470
53.38599 444
53.4061 442
53.42622 485
53.44633 454
53.46644 471
53.48656 452
53.50667 468
53.52678 458
53.5469 463
53.56701 491
53.58713 488
53.60724 522
53.62735 485
53.64747 485
53.66758 473
53.68769 470
53.70781 471
53.72792 529
53.74804 491
53.76815 470
53.78826 514
53.80838 483
53.82849 481
53.8486 520
53.86872 519
53.88883 463
53.90894 526
53.92906 497
53.94917 509
53.96929 520
53.9894 554
54.00951 525
54.02963 505
54.04974 464
54.06985 500
54.08997 519
54.11008 526
54.1302 529
54.15031 532
54.17042 495
54.19054 557
54.21065 532
54.23076 551
54.25088 577
54.27099 535
54.29111 537
54.31122 514
54.33133 528
54.35145 527
54.37156 544
54.39167 513
54.41179 508
54.4319 571
54.45201 534
54.47213 555
54.49224 559
54.51236 561
54.53247 572
54.55258 587
54.5727 580
54.59281 587
54.61292 611
54.63304 660
54.65315 642
54.67327 714
54.69338 728
54.71349 760
54.73361 833
54.75372 835
54.77383 806
54.79395 813
54.81406 826
54.83417 759
54.85429 707
54.8744 742
54.89452 720
54.91463 705
54.93474 707
54.95486 682
54.97497 683
54.99508 696
55.0152 616
55.03531 588
55.05543 587
55.07554 617
55.09565 619
55.11577 596
55.13588 614
55.15599 623
55.17611 623
55.19622 672
55.21634 620
55.23645 625
55.25656 647
55.27668 599
55.29679 583
55.3169 602
55.33702 562
55.35713 602
55.37724 589
55.39736 572
55.41747 570
55.43759 532
55.4577 491
55.47781 502
55.49793 496
55.51804 482
55.53815 521
55.55827 474
55.57838 479
55.5985 475
55.61861 517
55.63872 507
55.65884 485
55.67895 448
55.69906 445
55.71918 446
55.73929 446
55.75941 456
55.77952 426
55.79963 463
55.81975 416
55.83986 433
55.85997 446
55.88009 446
55.9002 461
55.92031 419
55.94043 426
55.96054 486
55.98066 482
56.00077 459
56.02088 463
56.041 497
56.06111 412
56.08122 437
56.10134 449
56.12145 455
56.14157 483
56.16168 424
56.18179 457
56.20191 442
56.22202 442
56.24213 462
56.26225 406
56.28236 439
56.30248 463
56.32259 468
56.3427 431
56.36282 463
56.38293 443
56.40304 493
56.42316 413
56.44327 444
56.46338 459
56.4835 500
56.50361 464
56.52373 474
56.54384 488
56.56395 440
56.58407 453
56.60418 465
56.62429 387
56.64441 428
56.66452 422
56.68464 471
56.70475 416
56.72486 454
56.74498 406
56.76509 459
56.7852 458
56.80532 436
56.82543 420
56.84554 439
56.86566 471
56.88577 448
56.90589 438
56.926 422
56.94611 448
56.96623 394
56.98634 427
57.00645 412
57.02657 428
57.04668 412
57.0668 413
57.08691 410
57.10702 455
57.12714 460
57.14725 408
57.16736 463
57.18748 414
57.20759 429
57.22771 429
57.24782 416
57.26793 392
57.28805 450
57.30816 411
57.32827 410
57.34839 423
57.3685 405
57.38861 424
57.40873 410
57.42884 417
57.44896 412
57.46907 399
57.48918 424
57.5093 436
57.52941 434
57.54952 405
57.56964 401
57.58975 403
57.60987 429
57.62998 391
57.65009 399
57.67021 370
57.69032 404
57.71043 415
57.73055 400
57.75066 389
57.77078 408
57.79089 390
57.811 404
57.83112 418
57.85123 406
57.87134 443
57.89146 407
57.91157 409
57.93168 431
57.9518 401
57.97191 408
57.99203 418
58.01214 439
58.03225 391
58.05237 437
58.07248 441
58.09259 409
58.11271 416
58.13282 395
58.15294 383
58.17305 410
58.19316 377
58.21328 412
58.23339 421
58.2535 391
58.27362 404
58.29373 409
58.31385 419
58.33396 404
58.35407 404
58.37419 409
58.3943 396
58.41441 425
58.43453 406
58.45464 400
58.47475 404
58.49487 399
58.51498 403
58.5351 388
58.55521 417
58.57532 409
58.59544 404
58.61555 401
58.63566 395
58.65578 422
58.67589 368
58.69601 371
58.71612 378
58.73623 363
58.75635 386
58.77646 402
58.79657 425
58.81669 400
58.8368 393
58.85691 398
58.87703 406
58.89714 402
58.91726 385
58.93737 421
58.95748 402
58.9776 392
58.99771 401
59.01782 372
59.03794 410
59.05805 393
59.07817 375
59.09828 386
59.11839 412
59.13851 412
59.15862 399
59.17873 400
59.19885 405
59.21896 402
59.23908 416
59.25919 385
59.2793 441
59.29942 452
59.31953 434
59.33964 430
59.35976 442
59.37987 431
59.39998 446
59.4201 461
59.44021 474
59.46033 489
59.48044 503
59.50055 508
59.52067 478
59.54078 507
59.56089 522
59.58101 523
59.60112 543
59.62124 534
59.64135 557
59.66146 593
59.68158 662
59.70169 664
59.7218 703
59.74192 818
59.76203 845
59.78215 897
59.80226 915
59.82237 957
59.84249 1079
59.8626 1035
59.88271 1065
59.90283 985
59.92294 882
59.94305 872
59.96317 827
59.98328 799
60.0034 732
60.02351 787
60.04362 731
60.06374 688
60.08385 607
60.10396 577
60.12408 531
60.14419 517
60.16431 455
60.18442 467
60.20453 474
60.22465 437
60.24476 429
60.26487 430
60.28499 415
60.3051 386
60.32522 401
60.34533 426
60.36544 399
60.38556 406
60.40567 417
60.42578 414
60.4459 489
60.46601 387
60.48612 383
60.50624 393
60.52635 417
60.54647 425
60.56658 372
60.58669 408
60.60681 371
60.62692 372
60.64703 380
60.66715 363
60.68726 389
60.70738 408
60.72749 399
60.7476 410
60.76772 402
60.78783 371
60.80794 376
60.82806 397
60.84817 405
60.86828 409
60.8884 370
60.90851 368
60.92863 407
60.94874 401
60.96885 410
60.98897 362
61.00908 378
61.02919 406
61.04931 381
61.06942 400
61.08954 393
61.10965 385
61.12976 351
61.14988 382
61.16999 383
61.1901 367
61.21022 374
61.23033 385
61.25045 390
61.27056 371
61.29067 409
61.31079 378
61.3309 404
61.35101 399
61.37113 401
61.39124 377
61.41135 397
61.43147 390
61.45158 413
61.4717 423
61.49181 392
61.51192 393
61.53204 407
61.55215 386
61.57226 378
61.59238 436
61.61249 398
61.63261 431
61.65272 423
61.67283 393
61.69295 416
61.71306 410
61.73317 450
61.75329 436
61.7734 431
61.79352 482
61.81363 485
61.83374 487
61.85386 454
61.87397 484
61.89408 524
61.9142 517
61.93431 536
61.95442 567
61.97454 494
61.99465 553
62.01477 533
62.03488 585
62.05499 582
62.07511 631
62.09522 620
62.11533 637
62.13545 630
62.15556 669
62.17568 651
62.19579 647
62.2159 693
62.23602 645
62.25613 672
62.27624 602
62.29636 555
62.31647 667
62.33659 635
62.3567 632
62.37681 558
62.39693 571
62.41704 542
62.43715 580
62.45727 509
62.47738 470
62.49749 485
62.51761 549
62.53772 450
62.55784 457
62.57795 471
62.59806 468
62.61818 458
62.63829 451
62.6584 462
62.67852 440
62.69863 428
62.71875 413
62.73886 412
62.75897 397
62.77909 400
62.7992 413
62.81931 430
62.83943 406
62.85954 434
62.87965 402
62.89977 414
62.91988 399
62.94 380
62.96011 415
62.98022 434
63.00034 372
63.02045 403
63.04056 394
63.06068 426
63.08079 388
63.10091 407
63.12102 387
63.14113 435
63.16125 410
63.18136 431
63.20147 433
63.22159 442
63.2417 399
63.26182 406
63.28193 404
63.30204 418
63.32216 437
63.34227 384
63.36238 393
63.3825 417
63.40261 434
63.42272 400
63.44284 402
63.46295 424
63.48307 404
63.50318 422
63.52329 392
63.54341 419
63.56352 411
63.58363 398
63.60375 446
63.62386 440
63.64398 418
63.66409 487
63.6842 415
63.70432 448
63.72443 423
63.74454 447
63.76466 504
63.78477 479
63.80489 459
63.825 450
63.84511 492
63.86523 506
63.88534 523
63.90545 579
63.92557 559
63.94568 546
63.96579 517
63.98591 516
64.00602 543
64.02614 532
64.04625 488
64.06636 500
64.08648 504
64.10659 485
64.1267 463
64.14682 489
64.16693 446
64.18705 432
64.20716 398
64.22727 417
64.24739 421
64.2675 416
64.28761 370
64.30773 394
64.32784 387
64.34796 388
64.36807 408
64.38818 392
64.4083 387
64.42841 417
64.44852 389
64.46864 380
64.48875 396
64.50886 433
64.52898 378
64.54909 429
64.56921 381
64.58932 378
64.60943 352
64.62955 401
64.64966 400
64.66977 400
64.68989 406
64.71 402
64.73012 394
64.75023 377
64.77034 418
64.79046 419
64.81057 382
64.83068 400
64.8508 397
64.87091 380
64.89102 369
64.91114 395
64.93125 376
64.95137 364
64.97148 402
64.99159 394
65.01171 357
65.03182 414
65.05193 382
65.07205 380
65.09216 415
65.11228 413
65.13239 410
65.1525 374
65.17262 371
65.19273 378
65.21284 369
65.23296 350
65.25307 361
65.27319 395
65.2933 373
65.31341 371
65.33353 404
65.35364 350
65.37375 393
65.39387 357
65.41398 404
65.43409 373
65.45421 375
65.47432 395
65.49444 364
65.51455 375
65.53466 389
65.55478 364
65.57489 401
65.595 390
65.61512 401
65.63523 385
65.65535 405
65.67546 406
65.69557 409
65.71569 416
65.7358 419
65.75591 371
65.77603 371
65.79614 349
65.81626 403
65.83637 375
65.85648 420
65.8766 374
65.89671 367
65.91682 369
65.93694 399
65.95705 361
65.97716 354
65.99728 361
66.01739 364
66.03751 370
66.05762 380
66.07773 353
66.09785 387
66.11796 385
66.13807 394
66.15819 384
66.1783 360
66.19842 374
66.21853 395
66.23864 382
66.25876 377
66.27887 384
66.29898 335
66.3191 391
66.33921 358
66.35933 386
66.37944 371
66.39955 374
66.41967 382
66.43978 385
66.45989 400
66.48001 399
66.50012 343
66.52023 357
66.54035 390
66.56046 389
66.58058 383
66.60069 379
66.6208 359
66.64092 397
66.66103 394
66.68114 381
66.70126 385
66.72137 357
66.74149 388
66.7616 372
66.78171 392
66.80183 403
66.82194 383
66.84205 398
66.86217 375
66.88228 404
66.90239 381
66.92251 384
66.94262 345
66.96274 397
66.98285 409
67.00296 425
67.02308 422
67.04319 400
67.0633 375
67.08342 417
67.10353 350
67.12365 406
67.14376 406
67.16387 393
67.18399 429
67.2041 408
67.22421 441
67.24433 416
67.26444 447
67.28456 382
67.30467 448
67.32478 456
67.3449 455
67.36501 452
67.38512 476
67.40524 496
67.42535 472
67.44546 528
67.46558 548
67.48569 531
67.50581 595
67.52592 591
67.54603 640
67.56615 674
67.58626 717
67.60637 747
67.62649 759
67.6466 737
67.66672 759
67.68683 705
67.70694 705
67.72706 634
67.74717 619
67.76728 619
67.7874 639
67.80751 719
67.82763 696
67.84774 738
67.86785 714
67.88797 748
67.90808 687
67.92819 697
67.94831 758
67.96842 785
67.98853 810
68.00865 830
68.02876 888
68.04888 896
68.06899 875
68.0891 900
68.10922 929
68.12933 808
68.14944 885
68.16956 865
68.18967 830
68.20979 847
68.2299 875
68.25001 822
68.27013 755
68.29024 732
68.31035 628
68.33047 602
68.35058 539
68.3707 559
68.39081 567
68.41092 567
68.43104 508
68.45115 480
68.47126 451
68.49138 430
68.51149 417
68.5316 404
68.55172 394
68.57183 399
68.59195 424
68.61206 409
68.63217 395
68.65229 362
68.6724 369
68.69251 398
68.71263 402
68.73274 365
68.75286 389
68.77297 391
68.79308 387
68.8132 340
68.83331 400
68.85342 415
68.87354 367
68.89365 338
68.91376 401
68.93388 398
68.95399 386
68.97411 338
68.99422 381
69.01433 385
69.03445 367
69.05456 372
69.07467 397
69.09479 372
69.1149 384
69.13502 382
69.15513 386
69.17524 343
69.19536 362
69.21547 348
69.23558 376
69.2557 348
69.27581 379
69.29593 357
69.31604 381
69.33615 400
69.35627 386
69.37638 379
69.39649 375
69.41661 368
69.43672 371
69.45683 334
69.47695 372
69.49706 386
69.51718 374
69.53729 372
69.5574 361
69.57752 349
69.59763 371
69.61774 382
69.63786 389
69.65797 380
69.67809 357
69.6982 395
69.71831 363
69.73843 396
69.75854 392
69.77865 384
69.79877 367
69.81888 373
69.839 375
69.85911 410
69.87922 345
69.89934 404
69.91945 379
69.93956 376
69.95968 389
69.97979 385
69.9999 364
70.02002 378
70.04013 361
70.06025 400
70.08036 391
70.10047 365
70.12059 380
70.1407 364
70.16081 384
70.18093 363
70.20104 352
70.22116 398
70.24127 353
70.26138 318
70.2815 342
70.30161 391
70.32172 393
70.34184 370
70.36195 366
70.38207 348
70.40218 342
70.42229 351
70.44241 350
70.46252 357
70.48263 341
70.50275 377
70.52286 329
70.54297 326
70.56309 332
70.5832 321
70.60332 358
70.62343 372
70.64354 352
70.66366 357
70.68377 376
70.70388 350
70.724 341
70.74411 356
70.76423 324
70.78434 307
70.80445 339
70.82457 351
70.84468 358
70.86479 375
70.88491 359
70.90502 347
70.92513 342
70.94525 384
70.96536 341
70.98548 340
71.00559 354
71.0257 328
71.04582 343
71.06593 308
71.08604 368
71.10616 345
71.12627 367
71.14639 345
71.1665 352
71.18661 369
71.20673 368
71.22684 395
71.24695 349
71.26707 355
71.28718 343
71.3073 345
71.32741 340
71.34752 342
71.36764 349
71.38775 376
71.40786 329
71.42798 362
71.44809 366
71.4682 355
71.48832 379
71.50843 375
71.52855 358
71.54866 371
71.56877 356
71.58889 389
71.609 347
71.62911 327
71.64923 358
71.66934 359
71.68946 356
71.70957 345
71.72968 376
71.7498 365
71.76991 407
71.79002 394
71.81014 380
71.83025 386
71.85037 371
71.87048 387
71.89059 369
71.91071 403
71.93082 358
71.95093 393
71.97105 381
71.99116 351
72.01127 353
72.03139 354
72.0515 374
72.07162 384
72.09173 399
72.11184 353
72.13196 392
72.15207 389
72.17218 413
72.1923 345
72.21241 369
72.23253 363
72.25264 391
72.27275 385
72.29287 397
72.31298 383
72.33309 341
72.35321 380
72.37332 360
72.39344 363
72.41355 373
72.43366 343
72.45378 351
72.47389 388
72.494 350
72.51412 364
72.53423 358
72.55434 370
72.57446 374
72.59457 359
72.61469 353
72.6348 365
72.65491 371
72.67503 316
72.69514 384
72.71525 355
72.73537 363
72.75548 312
72.7756 329
72.79571 390
72.81582 363
72.83594 380
72.85605 390
72.87616 379
72.89628 357
72.91639 359
72.9365 351
72.95662 365
72.97673 385
72.99685 395
73.01696 349
73.03707 399
73.05719 344
73.0773 422
73.09741 381
73.11753 396
73.13764 400
73.15776 435
73.17787 413
73.19798 393
73.2181 421
73.23821 428
73.25832 416
73.27844 450
73.29855 473
73.31867 449
73.33878 515
73.35889 466
73.37901 492
73.39912 499
73.41923 493
73.43935 482
73.45946 462
73.47957 451
73.49969 451
73.5198 429
73.53992 477
73.56003 450
73.58014 417
73.60026 454
73.62037 423
73.64048 418
73.6606 377
73.68071 375
73.70083 378
73.72094 395
73.74105 380
73.76117 397
73.78128 379
73.80139 377
73.82151 405
73.84162 366
73.86174 377
73.88185 347
73.90196 333
73.92208 357
73.94219 373
73.9623 362
73.98242 373
74.00253 331
74.02264 365
74.04276 332
74.06287 342
74.08299 352
74.1031 342
74.12321 349
74.14333 328
74.16344 358
74.18355 336
74.20367 342
74.22378 340
74.2439 345
74.26401 365
74.28412 333
74.30424 358
74.32435 356
74.34446 335
74.36458 347
74.38469 359
74.40481 343
74.42492 352
74.44503 352
74.46515 374
74.48526 354
74.50537 357
74.52549 376
74.5456 370
74.56571 354
74.58583 355
74.60594 339
74.62606 375
74.64617 339
74.66628 345
74.6864 334
74.70651 342
74.72662 343
74.74674 349
74.76685 386
74.78697 355
74.80708 367
74.82719 380
74.84731 351
74.86742 358
74.88753 376
74.90765 351
74.92776 375
74.94787 354
74.96799 362
74.9881 378
75.00822 350
