3.00117 20676
3.02128 19630
3.0414 19236
3.06151 18777
3.08162 18059
3.10174 18155
3.12185 17160
3.14197 16750
3.16208 16495
3.18219 15613
3.20231 15437
3.22242 14836
3.24253 14360
3.26265 14138
3.28276 13160
3.30288 13402
3.32299 12665
3.3431 12443
3.36322 12001
3.38333 11506
3.40344 11339
3.42356 10770
3.44367 10505
3.46379 10311
3.4839 9763
3.50401 9705
3.52413 9002
3.54424 8705
3.56435 8487
3.58447 8010
3.60458 8086
3.62469 7367
3.64481 7294
3.66492 7070
3.68504 6464
3.70515 6415
3.72526 6202
3.74538 5835
3.76549 5908
3.7856 5532
3.80572 5386
3.82583 5096
3.84595 4767
3.86606 4621
3.88617 4488
3.90629 4257
3.9264 4048
3.94651 3879
3.96663 3632
3.98674 3475
4.00686 3506
4.02697 3094
4.04708 3150
4.0672 2943
4.08731 2967
4.10742 2739
4.12754 2426
4.14765 2380
4.16776 2379
4.18788 2318
4.20799 2218
4.22811 2052
4.24822 1975
4.26833 2071
4.28845 1929
4.30856 1854
4.32867 1693
4.34879 1663
4.3689 1655
4.38902 1636
4.40913 1579
4.42924 1524
4.44936 1346
4.46947 1422
4.48958 1406
4.5097 1394
4.52981 1263
4.54992 1273
4.57004 1378
4.59015 1217
4.61027 1169
4.63038 1128
4.65049 1137
4.67061 1086
4.69072 1079
4.71083 1012
4.73095 1001
4.75106 958
4.77118 985
4.79129 1008
4.8114 903
4.83152 885
4.85163 875
4.87174 927
4.89186 824
4.91197 762
4.93209 811
4.9522 741
4.97231 783
4.99243 755
5.01254 668
5.03265 720
5.05277 699
5.07288 671
5.09299 666
5.11311 650
5.13322 600
5.15334 588
5.17345 594
5.19356 633
5.21368 584
5.23379 535
5.2539 587
5.27402 544
5.29413 489
5.31425 514
5.33436 517
5.35447 487
5.37459 469
5.3947 474
5.41481 463
5.43493 445
5.45504 434
5.47516 416
5.49527 466
5.51538 390
5.5355 408
5.55561 373
5.57572 380
5.59584 370
5.61595 383
5.63606 368
5.65618 358
5.67629 372
5.69641 331
5.71652 340
5.73663 346
5.75675 344
5.77686 299
5.79697 329
5.81709 323
5.8372 289
5.85732 284
5.87743 297
5.89754 297
5.91766 264
5.93777 295
5.95788 268
5.978 261
5.99811 272
6.01823 281
6.03834 279
6.05845 281
6.07857 243
6.09868 308
6.11879 233
6.13891 261
6.15902 252
6.17913 256
6.19925 270
6.21936 254
6.23948 253
6.25959 244
6.2797 226
6.29982 229
6.31993 268
6.34004 243
6.36016 269
6.38027 247
6.40039 214
6.4205 220
6.44061 237
6.46073 224
6.48084 238
6.50095 214
6.52107 241
6.54118 228
6.56129 243
6.58141 197
6.60152 238
6.62164 229
6.64175 254
6.66186 250
6.68198 234
6.70209 207
6.7222 215
6.74232 201
6.76243 254
6.78255 211
6.80266 217
6.82277 226
6.84289 209
6.863 202
6.88311 205
6.90323 234
6.92334 226
6.94346 214
6.96357 204
6.98368 215
7.0038 216
7.02391 217
7.04402 241
7.06414 216
7.08425 210
7.10436 226
7.12448 225
7.14459 204
7.16471 190
7.18482 225
7.20493 208
7.22505 231
7.24516 231
7.26527 256
7.28539 257
7.3055 217
7.32562 220
7.34573 228
7.36584 203
7.38596 206
7.40607 226
7.42618 232
7.4463 215
7.46641 219
7.48653 232
7.50664 231
7.52675 250
7.54687 249
7.56698 238
7.58709 232
7.60721 221
7.62732 215
7.64743 201
7.66755 220
7.68766 227
7.70778 225
7.72789 215
7.748 254
7.76812 244
7.78823 243
7.80834 226
7.82846 271
7.84857 235
7.86869 242
7.8888 237
7.90891 242
7.92903 212
7.94914 252
7.96925 265
7.98937 221
8.00948 230
8.0296 195
8.04971 218
8.06982 216
8.08994 253
8.11005 210
8.13016 235
8.15028 228
8.17039 219
8.1905 229
8.21062 236
8.23073 231
8.25085 247
8.27096 237
8.29107 230
8.31119 247
8.3313 248
8.35141 222
8.37153 250
8.39164 246
8.41176 229
8.43187 259
8.45198 227
8.4721 228
8.49221 245
8.51232 233
8.53244 267
8.55255 273
8.57266 228
8.59278 259
8.61289 244
8.63301 229
8.65312 269
8.67323 252
8.69335 244
8.71346 265
8.73357 247
8.75369 258
8.7738 272
8.79392 270
8.81403 258
8.83414 268
8.85426 293
8.87437 257
8.89448 264
8.9146 273
8.93471 274
8.95483 281
8.97494 268
8.99505 272
9.01517 225
9.03528 252
9.05539 275
9.07551 251
9.09562 278
9.11573 246
9.13585 232
9.15596 227
9.17608 229
9.19619 234
9.2163 236
9.23642 230
9.25653 250
9.27664 230
9.29676 257
9.31687 249
9.33699 241
9.3571 226
9.37721 225
9.39733 241
9.41744 257
9.43755 242
9.45767 233
9.47778 222
9.4979 251
9.51801 246
9.53812 242
9.55824 240
9.57835 237
9.59846 240
9.61858 238
9.63869 237
9.6588 248
9.67892 226
9.69903 247
9.71915 231
9.73926 251
9.75937 240
9.77949 234
9.7996 222
9.81971 252
9.83983 272
9.85994 228
9.88006 227
9.90017 254
9.92028 221
9.9404 218
9.96051 240
9.98062 261
10.00074 226
10.02085 260
10.04097 278
10.06108 218
10.08119 243
10.10131 232
10.12142 278
10.14153 228
10.16165 248
10.18176 216
10.20187 290
10.22199 267
10.2421 266
10.26222 234
10.28233 273
10.30244 235
10.32256 232
10.34267 230
10.36278 243
10.3829 248
10.40301 223
10.42313 225
10.44324 268
10.46335 257
10.48347 266
10.50358 266
10.52369 243
10.54381 225
10.56392 238
10.58403 262
10.60415 299
10.62426 254
10.64438 232
10.66449 273
10.6846 260
10.70472 224
10.72483 251
10.74494 283
10.76506 256
10.78517 246
10.80529 252
10.8254 261
10.84551 261
10.86563 245
10.88574 231
10.90585 244
10.92597 254
10.94608 263
10.9662 240
10.98631 227
11.00642 227
11.02654 241
11.04665 238
11.06676 236
11.08688 248
11.10699 253
11.1271 266
11.14722 228
11.16733 239
11.18745 216
11.20756 249
11.22767 265
11.24779 263
11.2679 204
11.28801 270
11.30813 236
11.32824 247
11.34836 259
11.36847 230
11.38858 258
11.4087 258
11.42881 263
11.44892 278
11.46904 240
11.48915 232
11.50927 248
11.52938 250
11.54949 230
11.56961 247
11.58972 259
11.60983 259
11.62995 217
11.65006 279
11.67017 250
11.69029 260
11.7104 264
11.73052 283
11.75063 276
11.77074 252
11.79086 274
11.81097 251
11.83108 285
11.8512 271
11.87131 306
11.89143 291
11.91154 285
11.93165 308
11.95177 272
11.97188 295
11.99199 316
12.01211 306
12.03222 301
12.05234 342
12.07245 359
12.09256 354
12.11268 386
12.13279 381
12.1529 411
12.17302 422
12.19313 457
12.21324 429
12.23336 398
12.25347 452
12.27359 470
12.2937 395
12.31381 398
12.33393 457
12.35404 438
12.37415 399
12.39427 394
12.41438 391
12.4345 370
12.45461 371
12.47472 327
12.49484 318
12.51495 299
12.53506 300
12.55518 298
12.57529 291
12.5954 307
12.61552 251
12.63563 288
12.65575 273
12.67586 222
12.69597 273
12.71609 239
12.7362 283
12.75631 236
12.77643 262
12.79654 245
12.81666 266
12.83677 257
12.85688 224
12.877 236
12.89711 255
12.91722 242
12.93734 240
12.95745 229
12.97757 247
12.99768 225
13.01779 269
13.03791 250
13.05802 221
13.07813 223
13.09825 261
13.11836 237
13.13847 212
13.15859 214
13.1787 225
13.19882 221
13.21893 221
13.23904 216
13.25916 205
13.27927 209
13.29938 214
13.3195 214
13.33961 208
13.35973 213
13.37984 227
13.39995 193
13.42007 218
13.44018 237
13.46029 200
13.48041 227
13.50052 215
13.52064 223
13.54075 224
13.56086 193
13.58098 217
13.60109 205
13.6212 193
13.64132 218
13.66143 209
13.68154 218
13.70166 205
13.72177 196
13.74189 212
13.762 234
13.78211 229
13.80223 212
13.82234 217
13.84245 220
13.86257 210
13.88268 203
13.9028 196
13.92291 221
13.94302 220
13.96314 210
13.98325 208
14.00336 220
14.02348 191
14.04359 188
14.06371 207
14.08382 209
14.10393 187
14.12405 213
14.14416 219
14.16427 200
14.18439 238
14.2045 189
14.22461 212
14.24473 221
14.26484 226
14.28496 190
14.30507 226
14.32518 201
14.3453 197
14.36541 193
14.38552 181
14.40564 234
14.42575 207
14.44587 200
14.46598 185
14.48609 215
14.50621 224
14.52632 198
14.54643 239
14.56655 176
14.58666 217
14.60677 234
14.62689 182
14.647 206
14.66712 197
14.68723 171
14.70734 202
14.72746 213
14.74757 224
14.76768 173
14.7878 216
14.80791 178
14.82803 187
14.84814 194
14.86825 213
14.88837 194
14.90848 210
14.92859 216
14.94871 194
14.96882 215
14.98894 164
15.00905 221
15.02916 202
15.04928 187
15.06939 182
15.0895 232
15.10962 205
15.12973 219
15.14984 218
15.16996 188
15.19007 193
15.21019 179
15.2303 207
15.25041 225
15.27053 200
15.29064 210
15.31075 210
15.33087 196
15.35098 226
15.3711 193
15.39121 182
15.41132 189
15.43144 226
15.45155 163
15.47166 199
15.49178 206
15.51189 191
15.53201 197
15.55212 199
15.57223 195
15.59235 208
15.61246 170
15.63257 194
15.65269 213
15.6728 191
15.69291 172
15.71303 203
15.73314 181
15.75326 204
15.77337 191
15.79348 196
15.8136 173
15.83371 220
15.85382 185
15.87394 184
15.89405 202
15.91417 178
15.93428 200
15.95439 182
15.97451 187
15.99462 213
16.01473 184
16.03485 201
16.05496 188
16.07508 161
16.09519 193
16.1153 181
16.13542 193
16.15553 202
16.17564 182
16.19576 200
16.21587 187
16.23598 193
16.2561 184
16.27621 188
16.29633 182
16.31644 199
16.33655 205
16.35667 203
16.37678 206
16.39689 180
16.41701 180
16.43712 199
16.45724 180
16.47735 188
16.49746 212
16.51758 183
16.53769 179
16.5578 188
16.57792 178
16.59803 187
16.61814 180
16.63826 197
16.65837 200
16.67849 196
16.6986 179
16.71871 193
16.73883 187
16.75894 183
16.77905 184
16.79917 192
16.81928 176
16.8394 185
16.85951 166
16.87962 173
16.89974 188
16.91985 194
16.93996 183
16.96008 174
16.98019 229
17.00031 188
17.02042 176
17.04053 183
17.06065 165
17.08076 182
17.10087 165
17.12099 174
17.1411 172
17.16121 159
17.18133 181
17.20144 190
17.22156 212
17.24167 215
17.26178 185
17.2819 169
17.30201 189
17.32212 196
17.34224 201
17.36235 166
17.38247 196
17.40258 186
17.42269 199
17.44281 203
17.46292 203
17.48303 170
17.50315 176
17.52326 184
17.54338 219
17.56349 193
17.5836 212
17.60372 222
17.62383 182
17.64394 217
17.66406 198
17.68417 186
17.70428 216
17.7244 173
17.74451 197
17.76463 212
17.78474 198
17.80485 194
17.82497 199
17.84508 183
17.86519 213
17.88531 208
17.90542 214
17.92554 192
17.94565 229
17.96576 192
17.98588 173
18.00599 184
18.0261 201
18.04622 199
18.06633 210
18.08645 201
18.10656 209
18.12667 187
18.14679 213
18.1669 208
18.18701 183
18.20713 200
18.22724 183
18.24735 204
18.26747 192
18.28758 170
18.3077 199
18.32781 200
18.34792 192
18.36804 196
18.38815 185
18.40826 192
18.42838 176
18.44849 213
18.46861 182
18.48872 190
18.50883 174
18.52895 180
18.54906 182
18.56917 198
18.58929 197
18.6094 206
18.62951 170
18.64963 185
18.66974 200
18.68986 209
18.70997 183
18.73008 180
18.7502 206
18.77031 178
18.79042 209
18.81054 176
18.83065 215
18.85077 188
18.87088 186
18.89099 176
18.91111 193
18.93122 199
18.95133 216
18.97145 171
18.99156 187
19.01168 192
19.03179 217
19.0519 184
19.07202 207
19.09213 187
19.11224 178
19.13236 192
19.15247 180
19.17258 203
19.1927 202
19.21281 218
19.23293 173
19.25304 202
19.27315 194
19.29327 167
19.31338 172
19.33349 194
19.35361 200
19.37372 197
19.39384 200
19.41395 211
19.43406 182
19.45418 197
19.47429 182
19.4944 194
19.51452 212
19.53463 227
19.55475 204
19.57486 234
19.59497 247
19.61509 236
19.6352 268
19.65531 275
19.67543 285
19.69554 315
19.71565 324
19.73577 331
19.75588 374
19.776 364
19.79611 360
19.81622 399
19.83634 392
19.85645 404
19.87656 423
19.89668 388
19.91679 347
19.93691 364
19.95702 364
19.97713 338
19.99725 324
20.01736 376
20.03747 368
20.05759 344
20.0777 372
20.09782 380
20.11793 362
20.13804 321
20.15816 348
20.17827 371
20.19838 402
20.2185 385
20.23861 365
20.25872 411
20.27884 390
20.29895 356
20.31907 395
20.33918 397
20.35929 426
20.37941 426
20.39952 446
20.41963 472
20.43975 467
20.45986 459
20.47998 490
20.50009 505
20.5202 548
20.54032 598
20.56043 627
20.58054 727
20.60066 813
20.62077 1061
20.64088 1346
20.661 1643
20.68111 2112
20.70123 2672
20.72134 3407
20.74145 4219
20.76157 5059
20.78168 5607
20.80179 5910
20.82191 5845
20.84202 5481
20.86214 4520
20.88225 3537
20.90236 2368
20.92248 1695
20.94259 1155
20.9627 798
20.98282 610
21.00293 551
21.02305 483
21.04316 514
21.06327 507
21.08339 465
21.1035 435
21.12361 421
21.14373 409
21.16384 397
21.18395 365
21.20407 361
21.22418 372
21.2443 384
21.26441 339
21.28452 403
21.30464 339
21.32475 309
21.34486 359
21.36498 347
21.38509 319
21.40521 333
21.42532 361
21.44543 333
21.46555 361
21.48566 346
21.50577 343
21.52589 329
21.546 364
21.56612 311
21.58623 315
21.60634 315
21.62646 313
21.64657 305
21.66668 320
21.6868 301
21.70691 307
21.72702 323
21.74714 281
21.76725 286
21.78737 295
21.80748 277
21.82759 258
21.84771 280
21.86782 275
21.88793 298
21.90805 314
21.92816 275
21.94828 273
21.96839 275
21.9885 252
22.00862 271
22.02873 277
22.04884 304
22.06896 303
22.08907 284
22.10919 255
22.1293 292
22.14941 308
22.16953 288
22.18964 303
22.20975 305
22.22987 288
22.24998 262
22.27009 266
22.29021 271
22.31032 289
22.33044 257
22.35055 248
22.37066 311
22.39078 270
22.41089 270
22.431 282
22.45112 271
22.47123 237
22.49135 256
22.51146 227
22.53157 242
22.55169 257
22.5718 277
22.59191 247
22.61203 276
22.63214 237
22.65225 232
22.67237 238
22.69248 237
22.7126 277
22.73271 298
22.75282 247
22.77294 268
22.79305 251
22.81316 252
22.83328 240
22.85339 244
22.87351 240
22.89362 241
22.91373 248
22.93385 262
22.95396 255
22.97407 245
22.99419 234
23.0143 240
23.03442 228
23.05453 230
23.07464 229
23.09476 223
23.11487 221
23.13498 225
23.1551 221
23.17521 239
23.19532 238
23.21544 233
23.23555 237
23.25567 256
23.27578 240
23.29589 235
23.31601 215
23.33612 261
23.35623 240
23.37635 230
23.39646 215
23.41658 222
23.43669 231
23.4568 251
23.47692 225
23.49703 229
23.51714 238
23.53726 261
23.55737 248
23.57749 247
23.5976 245
23.61771 254
23.63783 235
23.65794 262
23.67805 253
23.69817 261
23.71828 266
23.73839 285
23.75851 280
23.77862 276
23.79874 255
23.81885 258
23.83896 302
23.85908 257
23.87919 261
23.8993 296
23.91942 283
23.93953 315
23.95965 335
23.97976 309
23.99987 320
24.01999 285
24.0401 280
24.06021 268
24.08033 235
24.10044 239
24.12056 270
24.14067 245
24.16078 205
24.1809 239
24.20101 263
24.22112 239
24.24124 235
24.26135 259
24.28146 278
24.30158 221
24.32169 242
24.34181 276
24.36192 256
24.38203 261
24.40215 262
24.42226 239
24.44237 268
24.46249 248
24.4826 265
24.50272 309
24.52283 263
24.54294 284
24.56306 279
24.58317 316
24.60328 297
24.6234 324
24.64351 300
24.66362 337
24.68374 312
24.70385 319
24.72397 367
24.74408 375
24.76419 361
24.78431 362
24.80442 386
24.82453 380
24.84465 404
24.86476 385
24.88488 404
24.90499 375
24.9251 367
24.94522 343
24.96533 348
24.98544 337
25.00556 341
25.02567 316
25.04579 319
25.0659 354
25.08601 293
25.10613 325
25.12624 297
25.14635 290
25.16647 308
25.18658 302
25.20669 314
25.22681 276
25.24692 316
25.26704 300
25.28715 327
25.30726 288
25.32738 306
25.34749 314
25.3676 260
25.38772 283
25.40783 314
25.42795 299
25.44806 295
25.46817 282
25.48829 328
25.5084 303
25.52851 311
25.54863 320
25.56874 331
25.58886 309
25.60897 358
25.62908 393
25.6492 408
25.66931 452
25.68942 425
25.70954 447
25.72965 451
25.74976 452
25.76988 473
25.78999 464
25.81011 427
25.83022 416
25.85033 432
25.87045 438
25.89056 439
25.91067 501
25.93079 493
25.9509 476
25.97102 514
25.99113 539
26.01124 578
26.03136 620
26.05147 597
26.07158 607
26.0917 713
26.11181 684
26.13193 759
26.15204 811
26.17215 878
26.19227 954
26.21238 1070
26.23249 1074
26.25261 1244
26.27272 1418
26.29283 1630
26.31295 1813
26.33306 2240
26.35318 2831
26.37329 3632
26.3934 4622
26.41352 6050
26.43363 7895
26.45374 10065
26.47386 12831
26.49397 15816
26.51409 19178
26.5342 22623
26.55431 25371
26.57443 26643
26.59454 26557
26.61465 24471
26.63477 21030
26.65488 16571
26.67499 12490
26.69511 8644
26.71522 5677
26.73534 3584
26.75545 2407
26.77556 1844
26.79568 1465
26.81579 1353
26.8359 1186
26.85602 1081
26.87613 1021
26.89625 872
26.91636 800
26.93647 783
26.95659 673
26.9767 641
26.99681 579
27.01693 522
27.03704 552
27.05716 486
27.07727 510
27.09738 498
27.1175 413
27.13761 473
27.15772 443
27.17784 435
27.19795 408
27.21806 401
27.23818 441
27.25829 410
27.27841 390
27.29852 390
27.31863 412
27.33875 394
27.35886 377
27.37897 394
27.39909 403
27.4192 400
27.43932 348
27.45943 351
27.47954 379
27.49966 374
27.51977 362
27.53988 327
27.56 319
27.58011 329
27.60023 357
27.62034 324
27.64045 297
27.66057 348
27.68068 308
27.70079 346
27.72091 327
27.74102 324
27.76113 332
27.78125 322
27.80136 307
27.82148 284
27.84159 345
27.8617 295
27.88182 317
27.90193 322
27.92204 275
27.94216 301
27.96227 307
27.98239 276
28.0025 317
28.02261 288
28.04273 269
28.06284 279
28.08295 313
28.10307 281
28.12318 279
28.1433 271
28.16341 289
28.18352 276
28.20364 275
28.22375 287
28.24386 229
28.26398 276
28.28409 262
28.3042 255
28.32432 275
28.34443 255
28.36455 301
28.38466 289
28.40477 264
28.42489 243
28.445 280
28.46511 247
28.48523 248
28.50534 280
28.52546 259
28.54557 264
28.56568 263
28.5858 242
28.60591 267
28.62602 275
28.64614 222
28.66625 239
28.68636 215
28.70648 244
28.72659 249
28.74671 254
28.76682 245
28.78693 285
28.80705 229
28.82716 238
28.84727 249
28.86739 258
28.8875 244
28.90762 252
28.92773 202
28.94784 247
28.96796 274
28.98807 223
29.00818 236
29.0283 241
29.04841 259
29.06853 227
29.08864 234
29.10875 245
29.12887 272
29.14898 256
29.16909 239
29.18921 206
29.20932 237
29.22943 221
29.24955 218
29.26966 230
29.28978 240
29.30989 221
29.33 257
29.35012 236
29.37023 246
29.39034 233
29.41046 217
29.43057 264
29.45069 228
29.4708 247
29.49091 239
29.51103 214
29.53114 247
29.55125 229
29.57137 214
29.59148 220
29.6116 232
29.63171 235
29.65182 239
29.67194 265
29.69205 219
29.71216 257
29.73228 241
29.75239 229
29.7725 260
29.79262 273
29.81273 250
29.83285 255
29.85296 240
29.87307 221
29.89319 246
29.9133 240
29.93341 238
29.95353 205
29.97364 249
29.99376 240
30.01387 209
30.03398 242
30.0541 249
30.07421 218
30.09432 222
30.11444 243
30.13455 241
30.15467 213
30.17478 198
30.19489 210
30.21501 182
30.23512 204
30.25523 193
30.27535 220
30.29546 220
30.31557 237
30.33569 229
30.3558 199
30.37592 233
30.39603 221
30.41614 197
30.43626 194
30.45637 254
30.47648 233
30.4966 241
30.51671 215
30.53683 241
30.55694 197
30.57705 212
30.59717 198
30.61728 235
30.63739 220
30.65751 178
30.67762 228
30.69773 201
30.71785 225
30.73796 215
30.75808 206
30.77819 187
30.7983 208
30.81842 200
30.83853 221
30.85864 206
30.87876 232
30.89887 199
30.91899 207
30.9391 202
30.95921 199
30.97933 221
30.99944 209
31.01955 235
31.03967 224
31.05978 198
31.0799 245
31.10001 203
31.12012 209
31.14024 198
31.16035 224
31.18046 205
31.20058 210
31.22069 206
31.2408 215
31.26092 224
31.28103 228
31.30115 205
31.32126 223
31.34137 203
31.36149 206
31.3816 235
31.40171 202
31.42183 223
31.44194 188
31.46206 181
31.48217 198
31.50228 179
31.5224 212
31.54251 188
31.56262 219
31.58274 172
31.60285 214
31.62297 195
31.64308 179
31.66319 214
31.68331 206
31.70342 174
31.72353 198
31.74365 196
31.76376 190
31.78387 204
31.80399 237
31.8241 196
31.84422 220
31.86433 185
31.88444 194
31.90456 223
31.92467 197
31.94478 218
31.9649 216
31.98501 189
32.00513 190
32.02524 200
32.04535 199
32.06547 210
32.08558 189
32.10569 196
32.12581 186
32.14592 206
32.16604 196
32.18615 188
32.20626 213
32.22638 223
32.24649 193
32.2666 208
32.28672 196
32.30683 184
32.32694 177
32.34706 214
32.36717 212
32.38729 203
32.4074 194
32.42751 212
32.44763 205
32.46774 226
32.48785 233
32.50797 237
32.52808 220
32.5482 232
32.56831 209
32.58842 230
32.60854 190
32.62865 177
32.64876 220
32.66888 208
32.68899 199
32.7091 181
32.72922 210
32.74933 215
32.76945 206
32.78956 225
32.80967 219
32.82979 197
32.8499 197
32.87001 199
32.89013 219
32.91024 194
32.93036 203
32.95047 218
32.97058 194
32.9907 220
33.01081 181
33.03092 181
33.05104 222
33.07115 208
33.09127 207
33.11138 209
33.13149 179
33.15161 206
33.17172 209
33.19183 190
33.21195 193
33.23206 203
33.25217 197
33.27229 212
33.2924 226
33.31252 228
33.33263 192
33.35274 184
33.37286 196
33.39297 166
33.41308 181
33.4332 206
33.45331 181
33.47343 219
33.49354 204
33.51365 188
33.53377 203
33.55388 181
33.57399 214
33.59411 164
33.61422 161
33.63434 187
33.65445 196
33.67456 197
33.69468 188
33.71479 175
33.7349 171
33.75502 210
33.77513 195
33.79524 186
33.81536 158
33.83547 223
33.85559 155
33.8757 181
33.89581 182
33.91593 198
33.93604 213
33.95615 199
33.97627 189
33.99638 165
34.0165 178
34.03661 156
34.05672 173
34.07684 207
34.09695 181
34.11706 183
34.13718 171
34.15729 186
34.17741 171
34.19752 161
34.21763 183
34.23775 176
34.25786 180
34.27797 192
34.29809 167
34.3182 187
34.33831 168
34.35843 202
34.37854 184
34.39866 206
34.41877 196
34.43888 222
34.459 180
34.47911 231
34.49922 211
34.51934 201
34.53945 202
34.55957 219
34.57968 222
34.59979 243
34.61991 243
34.64002 232
34.66013 235
34.68025 247
34.70036 257
34.72047 264
34.74059 273
34.7607 282
34.78082 282
34.80093 292
34.82104 289
34.84116 272
34.86127 295
34.88138 324
34.9015 332
34.92161 311
34.94173 286
34.96184 306
34.98195 328
35.00207 278
35.02218 264
35.04229 276
35.06241 265
35.08252 248
35.10264 278
35.12275 301
35.14286 296
35.16298 240
35.18309 280
35.2032 253
35.22332 279
35.24343 255
35.26354 274
35.28366 255
35.30377 262
35.32389 289
35.344 254
35.36411 261
35.38423 255
35.40434 257
35.42445 242
35.44457 257
35.46468 273
35.4848 247
35.50491 258
35.52502 267
35.54514 246
35.56525 245
35.58536 266
35.60548 276
35.62559 257
35.64571 283
35.66582 253
35.68593 278
35.70605 268
35.72616 266
35.74627 289
35.76639 267
35.7865 283
35.80661 292
35.82673 289
35.84684 266
35.86696 309
35.88707 281
35.90718 292
35.9273 278
35.94741 284
35.96752 275
35.98764 303
36.00775 282
36.02787 289
36.04798 287
36.06809 293
36.08821 275
36.10832 290
36.12843 278
36.14855 295
36.16866 341
36.18878 360
36.20889 386
36.229 421
36.24912 479
36.26923 505
36.28934 654
36.30946 791
36.32957 843
36.34968 1042
36.3698 1216
36.38991 1403
36.41003 1520
36.43014 1799
36.45025 1807
36.47037 1958
36.49048 1897
36.51059 1816
36.53071 1563
36.55082 1397
36.57094 1191
36.59105 984
36.61116 777
36.63128 640
36.65139 515
36.6715 400
36.69162 352
36.71173 307
36.73184 253
36.75196 276
36.77207 286
36.79219 268
36.8123 275
36.83241 252
36.85253 237
36.87264 248
36.89275 219
36.91287 245
36.93298 219
36.9531 216
36.97321 234
36.99332 209
37.01344 227
37.03355 213
37.05366 218
37.07378 243
37.09389 250
37.11401 216
37.13412 237
37.15423 223
37.17435 198
37.19446 228
37.21457 210
37.23469 230
37.2548 226
37.27491 234
37.29503 192
37.31514 218
37.33526 225
37.35537 211
37.37548 210
37.3956 218
37.41571 218
37.43582 250
37.45594 215
37.47605 228
37.49617 238
37.51628 197
37.53639 206
37.55651 219
37.57662 233
37.59673 256
37.61685 220
37.63696 228
37.65708 240
37.67719 232
37.6973 209
37.71742 229
37.73753 229
37.75764 211
37.77776 224
37.79787 218
37.81798 223
37.8381 226
37.85821 229
37.87833 252
37.89844 236
37.91855 240
37.93867 241
37.95878 245
37.97889 238
37.99901 251
38.01912 248
38.03924 251
38.05935 223
38.07946 212
38.09958 259
38.11969 232
38.1398 259
38.15992 248
38.18003 272
38.20015 264
38.22026 292
38.24037 283
38.26049 264
38.2806 279
38.30071 264
38.32083 312
38.34094 286
38.36105 244
38.38117 269
38.40128 293
38.4214 264
38.44151 284
38.46162 271
38.48174 246
38.50185 264
38.52196 270
38.54208 244
38.56219 245
38.58231 233
38.60242 234
38.62253 220
38.64265 223
38.66276 230
38.68287 247
38.70299 238
38.7231 245
38.74321 225
38.76333 272
38.78344 233
38.80356 232
38.82367 241
38.84378 242
38.8639 222
38.88401 234
38.90412 278
38.92424 266
38.94435 251
38.96447 259
38.98458 291
39.00469 298
39.02481 295
39.04492 292
39.06503 317
39.08515 349
39.10526 329
39.12538 403
39.14549 416
39.1656 460
39.18572 511
39.20583 606
39.22594 712
39.24606 809
39.26617 890
39.28628 1032
39.3064 1277
39.32651 1416
39.34663 1588
39.36674 1658
39.38685 1696
39.40697 1757
39.42708 1597
39.44719 1519
39.46731 1375
39.48742 1117
39.50754 921
39.52765 807
39.54776 697
39.56788 540
39.58799 446
39.6081 308
39.62822 301
39.64833 250
39.66845 281
39.68856 245
39.70867 294
39.72879 255
39.7489 237
39.76901 234
39.78913 253
39.80924 225
39.82935 230
39.84947 262
39.86958 257
39.8897 267
39.90981 227
39.92992 284
39.95004 290
39.97015 315
39.99026 343
40.01038 366
40.03049 388
40.05061 431
40.07072 479
40.09083 579
40.11095 616
40.13106 703
40.15117 759
40.17129 856
40.1914 961
40.21152 924
40.23163 888
40.25174 883
40.27186 891
40.29197 754
40.31208 660
40.3322 591
40.35231 490
40.37242 440
40.39254 407
40.41265 359
40.43277 251
40.45288 261
40.47299 232
40.49311 238
40.51322 224
40.53333 227
40.55345 207
40.57356 193
40.59368 203
40.61379 212
40.6339 207
40.65402 191
40.67413 222
40.69424 214
40.71436 203
40.73447 179
40.75458 208
40.7747 199
40.79481 200
40.81493 227
40.83504 215
40.85515 201
40.87527 215
40.89538 204
40.91549 200
40.93561 205
40.95572 209
40.97584 230
40.99595 202
41.01606 224
41.03618 200
41.05629 215
41.0764 217
41.09652 188
41.11663 199
41.13675 213
41.15686 214
41.17697 199
41.19709 207
41.2172 256
41.23731 243
41.25743 201
41.27754 200
41.29765 200
41.31777 207
41.33788 237
41.358 220
41.37811 193
41.39822 206
41.41834 196
41.43845 206
41.45856 203
41.47868 207
41.49879 172
41.51891 195
41.53902 193
41.55913 220
41.57925 219
41.59936 205
41.61947 176
41.63959 199
41.6597 185
41.67982 181
41.69993 214
41.72004 211
41.74016 216
41.76027 214
41.78038 234
41.8005 208
41.82061 215
41.84072 227
41.86084 236
41.88095 196
41.90107 255
41.92118 200
41.94129 215
41.96141 235
41.98152 236
42.00163 214
42.02175 251
42.04186 273
42.06198 247
42.08209 282
42.1022 295
42.12232 359
42.14243 390
42.16254 432
42.18266 483
42.20277 522
42.22289 590
42.243 663
42.26311 788
42.28323 881
42.30334 1059
42.32345 1167
42.34357 1224
42.36368 1278
42.38379 1315
42.40391 1201
42.42402 1097
42.44414 1040
42.46425 866
42.48436 726
42.50448 676
42.52459 601
42.5447 468
42.56482 422
42.58493 307
42.60505 270
42.62516 243
42.64527 217
42.66539 205
42.6855 220
42.70561 201
42.72573 178
42.74584 205
42.76595 192
42.78607 170
42.80618 197
42.8263 199
42.84641 195
42.86652 201
42.88664 184
42.90675 196
42.92686 189
42.94698 189
42.96709 200
42.98721 174
43.00732 178
43.02743 190
43.04755 162
43.06766 186
43.08777 168
43.10789 177
43.128 167
43.14812 193
43.16823 173
43.18834 186
43.20846 187
43.22857 195
43.24868 169
43.2688 164
43.28891 180
43.30902 169
43.32914 172
43.34925 163
43.36937 162
43.38948 177
43.40959 184
43.42971 159
43.44982 181
43.46993 158
43.49005 185
43.51016 139
43.53028 174
43.55039 145
43.5705 163
43.59062 152
43.61073 159
43.63084 181
43.65096 179
43.67107 172
43.69119 158
43.7113 187
43.73141 150
43.75153 169
43.77164 178
43.79175 169
43.81187 188
43.83198 199
43.85209 162
43.87221 186
43.89232 169
43.91244 167
43.93255 171
43.95266 183
43.97278 190
43.99289 169
44.013 165
44.03312 166
44.05323 179
44.07335 196
44.09346 159
44.11357 174
44.13369 149
44.1538 187
44.17391 193
44.19403 184
44.21414 179
44.23426 189
44.25437 191
44.27448 165
44.2946 162
44.31471 178
44.33482 190
44.35494 187
44.37505 170
44.39516 180
44.41528 175
44.43539 188
44.45551 155
44.47562 173
44.49573 169
44.51585 193
44.53596 185
44.55607 193
44.57619 164
44.5963 162
44.61642 168
44.63653 187
44.65664 174
44.67676 174
44.69687 177
44.71698 188
44.7371 160
44.75721 162
44.77732 182
44.79744 166
44.81755 167
44.83767 171
44.85778 174
44.87789 152
44.89801 181
44.91812 200
44.93823 181
44.95835 180
44.97846 186
44.99858 179
45.01869 184
45.0388 194
45.05892 199
45.07903 175
45.09914 202
45.11926 191
45.13937 205
45.15949 213
45.1796 176
45.19971 190
45.21983 218
45.23994 235
45.26005 215
45.28017 237
45.30028 218
45.32039 214
45.34051 217
45.36062 256
45.38074 237
45.40085 245
45.42096 248
45.44108 296
45.46119 298
45.4813 289
45.50142 338
45.52153 378
45.54165 413
45.56176 450
45.58187 521
45.60199 603
45.6221 653
45.64221 702
45.66233 771
45.68244 845
45.70256 903
45.72267 918
45.74278 857
45.7629 765
45.78301 766
45.80312 658
45.82324 590
45.84335 495
45.86346 465
45.88358 416
45.90369 337
45.92381 293
45.94392 270
45.96403 238
45.98415 216
46.00426 189
46.02437 180
46.04449 195
46.0646 196
46.08472 198
46.10483 171
46.12494 158
46.14506 187
46.16517 158
46.18528 170
46.2054 156
46.22551 186
46.24563 185
46.26574 200
46.28585 179
46.30597 200
46.32608 177
46.34619 173
46.36631 158
46.38642 169
46.40653 167
46.42665 187
46.44676 172
46.46688 166
46.48699 166
46.5071 182
46.52722 154
46.54733 182
46.56744 174
46.58756 173
46.60767 171
46.62779 188
46.6479 150
46.66801 173
46.68813 157
46.70824 179
46.72835 185
46.74847 193
46.76858 176
46.78869 163
46.80881 169
46.82892 161
46.84904 143
46.86915 171
46.88926 172
46.90938 175
46.92949 177
46.9496 168
46.96972 158
46.98983 168
47.00995 173
47.03006 156
47.05017 182
47.07029 161
47.0904 183
47.11051 165
47.13063 177
47.15074 184
47.17086 151
47.19097 168
47.21108 165
47.2312 169
47.25131 166
47.27142 167
47.29154 165
47.31165 153
47.33176 176
47.35188 169
47.37199 171
47.39211 160
47.41222 147
47.43233 175
47.45245 161
47.47256 173
47.49267 176
47.51279 159
47.5329 157
47.55302 175
47.57313 162
47.59324 176
47.61336 162
47.63347 164
47.65358 170
47.6737 177
47.69381 176
47.71393 167
47.73404 184
47.75415 151
47.77427 174
47.79438 182
47.81449 165
47.83461 152
47.85472 182
47.87483 157
47.89495 166
47.91506 170
47.93518 175
47.95529 168
47.9754 176
47.99552 178
48.01563 162
48.03574 156
48.05586 157
48.07597 183
48.09609 171
48.1162 161
48.13631 179
48.15643 170
48.17654 155
48.19665 172
48.21677 153
48.23688 195
48.257 160
48.27711 164
48.29722 171
48.31734 169
48.33745 169
48.35756 190
48.37768 178
48.39779 158
48.4179 201
48.43802 193
48.45813 180
48.47825 172
48.49836 157
48.51847 201
48.53859 177
48.5587 188
48.57881 186
48.59893 182
48.61904 191
48.63916 212
48.65927 192
48.67938 188
48.6995 194
48.71961 175
48.73972 197
48.75984 180
48.77995 196
48.80006 176
48.82018 178
48.84029 192
48.86041 190
48.88052 186
48.90063 181
48.92075 167
48.94086 161
48.96097 178
48.98109 177
49.0012 189
49.02132 195
49.04143 159
49.06154 198
49.08166 194
49.10177 200
49.12188 178
49.142 180
49.16211 203
49.18223 181
49.20234 197
49.22245 196
49.24257 190
49.26268 178
49.28279 184
49.30291 180
49.32302 185
49.34313 202
49.36325 233
49.38336 199
49.40348 208
49.42359 192
49.4437 203
49.46382 199
49.48393 213
49.50404 210
49.52416 248
49.54427 219
49.56439 222
49.5845 226
49.60461 257
49.62473 274
49.64484 282
49.66495 312
49.68507 331
49.70518 336
49.7253 364
49.74541 404
49.76552 463
49.78564 532
49.80575 564
49.82586 666
49.84598 803
49.86609 937
49.8862 1086
49.90632 1227
49.92643 1424
49.94655 1589
49.96666 1948
49.98677 2196
50.00689 2406
50.027 2499
50.04711 2859
50.06723 2738
50.08734 2705
50.10746 2520
50.12757 2172
50.14768 1861
50.1678 1678
50.18791 1424
50.20802 1267
50.22814 1155
50.24825 920
50.26837 759
50.28848 583
50.30859 497
50.32871 355
50.34882 368
50.36893 309
50.38905 303
50.40916 305
50.42927 283
50.44939 303
50.4695 282
50.48962 254
50.50973 261
50.52984 272
50.54996 282
50.57007 253
50.59018 268
50.6103 255
50.63041 252
50.65053 230
50.67064 228
50.69075 248
50.71087 211
50.73098 192
50.75109 189
50.77121 178
50.79132 181
50.81143 197
50.83155 196
50.85166 189
50.87178 159
50.89189 200
50.912 167
50.93212 162
50.95223 167
50.97234 174
50.99246 165
51.01257 169
51.03269 165
51.0528 170
51.07291 158
51.09303 189
51.11314 156
51.13325 197
51.15337 189
51.17348 197
51.1936 178
51.21371 159
51.23382 164
51.25394 147
51.27405 184
51.29416 149
51.31428 183
51.33439 125
51.3545 141
51.37462 156
51.39473 156
51.41485 153
51.43496 168
51.45507 166
51.47519 155
51.4953 152
51.51541 139
51.53553 166
51.55564 163
51.57576 155
51.59587 168
51.61598 171
51.6361 176
51.65621 161
51.67632 169
51.69644 174
51.71655 144
51.73667 170
51.75678 147
51.77689 160
51.79701 167
51.81712 165
51.83723 145
51.85735 180
51.87746 162
51.89757 177
51.91769 151
51.9378 141
51.95792 169
51.97803 165
51.99814 156
52.01826 156
52.03837 168
52.05848 178
52.0786 151
52.09871 164
52.11883 141
52.13894 151
52.15905 159
52.17917 124
52.19928 150
52.21939 164
52.23951 157
52.25962 165
52.27974 149
52.29985 140
52.31996 160
52.34008 152
52.36019 149
52.3803 177
52.40042 167
52.42053 159
52.44064 156
52.46076 156
52.48087 171
52.50099 163
52.5211 136
52.54121 170
52.56133 141
52.58144 148
52.60155 157
52.62167 157
52.64178 154
52.6619 143
52.68201 158
52.70212 158
52.72224 158
52.74235 164
52.76246 178
52.78258 161
52.80269 172
52.8228 183
52.84292 178
52.86303 177
52.88315 193
52.90326 178
52.92337 183
52.94349 161
52.9636 187
52.98371 157
53.00383 186
53.02394 161
53.04406 175
53.06417 146
53.08428 198
53.1044 176
53.12451 169
53.14462 163
53.16474 187
53.18485 175
53.20497 172
53.22508 190
53.24519 180
53.26531 178
53.28542 162
53.30553 189
53.32565 189
53.34576 152
53.36587 189
53.38599 179
53.4061 174
53.42622 191
53.44633 162
53.46644 192
53.48656 190
53.50667 179
53.52678 180
53.5469 193
53.56701 195
53.58713 194
53.60724 158
53.62735 180
53.64747 190
53.66758 181
53.68769 179
53.70781 197
53.72792 206
53.74804 211
53.76815 225
53.78826 224
53.80838 217
53.82849 212
53.8486 190
53.86872 190
53.88883 194
53.90894 204
53.92906 202
53.94917 157
53.96929 189
53.9894 182
54.00951 201
54.02963 189
54.04974 185
54.06985 213
54.08997 226
54.11008 236
54.1302 208
54.15031 202
54.17042 215
54.19054 223
54.21065 236
54.23076 205
54.25088 237
54.27099 232
54.29111 222
54.31122 229
54.33133 244
54.35145 259
54.37156 241
54.39167 245
54.41179 251
54.4319 223
54.45201 267
54.47213 268
54.49224 282
54.51236 315
54.53247 318
54.55258 370
54.5727 415
54.59281 394
54.61292 461
54.63304 511
54.65315 567
54.67327 563
54.69338 678
54.71349 740
54.73361 841
54.75372 869
54.77383 889
54.79395 926
54.81406 877
54.83417 834
54.85429 757
54.8744 749
54.89452 635
54.91463 593
54.93474 576
54.95486 527
54.97497 509
54.99508 443
55.0152 409
55.03531 399
55.05543 395
55.07554 352
55.09565 399
55.11577 421
55.13588 415
55.15599 445
55.17611 465
55.19622 514
55.21634 503
55.23645 524
55.25656 520
55.27668 460
55.29679 465
55.3169 457
55.33702 412
55.35713 381
55.37724 361
55.39736 353
55.41747 317
55.43759 312
55.4577 304
55.47781 292
55.49793 246
55.51804 230
55.53815 220
55.55827 201
55.57838 222
55.5985 215
55.61861 190
55.63872 190
55.65884 195
55.67895 199
55.69906 194
55.71918 178
55.73929 204
55.75941 205
55.77952 200
55.79963 185
55.81975 208
55.83986 178
55.85997 195
55.88009 190
55.9002 206
55.92031 167
55.94043 176
55.96054 163
55.98066 175
56.00077 190
56.02088 152
56.041 172
56.06111 163
56.08122 188
56.10134 198
56.12145 185
56.14157 167
56.16168 193
56.18179 188
56.20191 164
56.22202 189
56.24213 177
56.26225 174
56.28236 166
56.30248 184
56.32259 166
56.3427 181
56.36282 189
56.38293 169
56.40304 164
56.42316 181
56.44327 185
56.46338 192
56.4835 180
56.50361 171
56.52373 193
56.54384 187
56.56395 181
56.58407 169
56.60418 172
56.62429 167
56.64441 160
56.66452 154
56.68464 185
56.70475 185
56.72486 169
56.74498 169
56.76509 176
56.7852 178
56.80532 174
56.82543 163
56.84554 168
56.86566 158
56.88577 178
56.90589 181
56.926 179
56.94611 201
56.96623 167
56.98634 152
57.00645 154
57.02657 185
57.04668 194
57.0668 183
57.08691 222
57.10702 223
57.12714 200
57.14725 211
57.16736 205
57.18748 209
57.20759 150
57.22771 188
57.24782 187
57.26793 188
57.28805 168
57.30816 164
57.32827 199
57.34839 196
57.3685 182
57.38861 172
57.40873 166
57.42884 158
57.44896 164
57.46907 147
57.48918 160
57.5093 169
57.52941 166
57.54952 183
57.56964 151
57.58975 159
57.60987 169
57.62998 176
57.65009 159
57.67021 170
57.69032 172
57.71043 165
57.73055 160
57.75066 177
57.77078 166
57.79089 165
57.811 148
57.83112 169
57.85123 167
57.87134 159
57.89146 147
57.91157 152
57.93168 160
57.9518 174
57.97191 166
57.99203 180
58.01214 174
58.03225 145
58.05237 162
58.07248 163
58.09259 154
58.11271 160
58.13282 159
58.15294 173
58.17305 170
58.19316 139
58.21328 169
58.23339 169
58.2535 161
58.27362 162
58.29373 169
58.31385 177
58.33396 177
58.35407 176
58.37419 180
58.3943 166
58.41441 199
58.43453 170
58.45464 172
58.47475 168
58.49487 164
58.51498 178
58.5351 170
58.55521 152
58.57532 186
58.59544 144
58.61555 178
58.63566 179
58.65578 192
58.67589 160
58.69601 154
58.71612 170
58.73623 175
58.75635 172
58.77646 178
58.79657 190
58.81669 136
58.8368 179
58.85691 192
58.87703 146
58.89714 174
58.91726 162
58.93737 183
58.95748 158
58.9776 178
58.99771 174
59.01782 167
59.03794 164
59.05805 166
59.07817 157
59.09828 165
59.11839 169
59.13851 180
59.15862 151
59.17873 196
59.19885 173
59.21896 168
59.23908 178
59.25919 195
59.2793 224
59.29942 197
59.31953 194
59.33964 213
59.35976 189
59.37987 222
59.39998 231
59.4201 236
59.44021 227
59.46033 268
59.48044 269
59.50055 295
59.52067 343
59.54078 313
59.56089 358
59.58101 395
59.60112 450
59.62124 494
59.64135 580
59.66146 629
59.68158 689
59.70169 812
59.7218 950
59.74192 1059
59.76203 1178
59.78215 1393
59.80226 1511
59.82237 1682
59.84249 1817
59.8626 1834
59.88271 1807
59.90283 1632
59.92294 1472
59.94305 1349
59.96317 1195
59.98328 1110
60.0034 1008
60.02351 1018
60.04362 897
60.06374 817
60.08385 687
60.10396 608
60.12408 481
60.14419 349
60.16431 314
60.18442 267
60.20453 240
60.22465 233
60.24476 230
60.26487 214
60.28499 226
60.3051 213
60.32522 208
60.34533 200
60.36544 191
60.38556 190
60.40567 177
60.42578 206
60.4459 196
60.46601 179
60.48612 196
60.50624 198
60.52635 170
60.54647 177
60.56658 165
60.58669 160
60.60681 193
60.62692 179
60.64703 181
60.66715 168
60.68726 167
60.70738 159
60.72749 150
60.7476 159
60.76772 188
60.78783 172
60.80794 143
60.82806 166
60.84817 155
60.86828 178
60.8884 160
60.90851 170
60.92863 156
60.94874 168
60.96885 152
60.98897 156
61.00908 166
61.02919 169
61.04931 169
61.06942 153
61.08954 142
61.10965 172
61.12976 168
61.14988 146
61.16999 145
61.1901 181
61.21022 182
61.23033 168
61.25045 169
61.27056 162
61.29067 174
61.31079 163
61.3309 175
61.35101 175
61.37113 177
61.39124 200
61.41135 182
61.43147 181
61.45158 175
61.4717 165
61.49181 165
61.51192 179
61.53204 190
61.55215 179
61.57226 173
61.59238 153
61.61249 174
61.63261 159
61.65272 187
61.67283 193
61.69295 184
61.71306 160
61.73317 193
61.75329 194
61.7734 197
61.79352 173
61.81363 208
61.83374 164
61.85386 188
61.87397 198
61.89408 187
61.9142 181
61.93431 208
61.95442 202
61.97454 205
61.99465 216
62.01477 215
62.03488 221
62.05499 203
62.07511 196
62.09522 202
62.11533 217
62.13545 194
62.15556 214
62.17568 215
62.19579 198
62.2159 213
62.23602 241
62.25613 228
62.27624 212
62.29636 178
62.31647 206
62.33659 226
62.3567 211
62.37681 185
62.39693 195
62.41704 184
62.43715 191
62.45727 187
62.47738 185
62.49749 179
62.51761 163
62.53772 195
62.55784 157
62.57795 154
62.59806 153
62.61818 158
62.63829 169
62.6584 174
62.67852 172
62.69863 198
62.71875 169
62.73886 168
62.75897 157
62.77909 152
62.7992 154
62.81931 153
62.83943 164
62.85954 151
62.87965 156
62.89977 176
62.91988 165
62.94 140
62.96011 167
62.98022 182
63.00034 159
63.02045 182
63.04056 175
63.06068 193
63.08079 190
63.10091 184
63.12102 156
63.14113 175
63.16125 155
63.18136 164
63.20147 168
63.22159 167
63.2417 162
63.26182 168
63.28193 189
63.30204 196
63.32216 151
63.34227 158
63.36238 162
63.3825 149
63.40261 181
63.42272 154
63.44284 196
63.46295 198
63.48307 166
63.50318 173
63.52329 184
63.54341 178
63.56352 187
63.58363 180
63.60375 192
63.62386 200
63.64398 219
63.66409 206
63.6842 223
63.70432 229
63.72443 236
63.74454 253
63.76466 252
63.78477 295
63.80489 318
63.825 297
63.84511 327
63.86523 354
63.88534 391
63.90545 443
63.92557 428
63.94568 427
63.96579 434
63.98591 444
64.00602 415
64.02614 352
64.04625 358
64.06636 360
64.08648 329
64.10659 259
64.1267 299
64.14682 316
64.16693 267
64.18705 212
64.20716 196
64.22727 198
64.24739 194
64.2675 155
64.28761 176
64.30773 173
64.32784 154
64.34796 181
64.36807 150
64.38818 175
64.4083 155
64.42841 155
64.44852 150
64.46864 153
64.48875 157
64.50886 146
64.52898 164
64.54909 160
64.56921 175
64.58932 151
64.60943 175
64.62955 144
64.64966 153
64.66977 125
64.68989 150
64.71 165
64.73012 161
64.75023 156
64.77034 168
64.79046 142
64.81057 159
64.83068 163
64.8508 165
64.87091 156
64.89102 177
64.91114 158
64.93125 133
64.95137 165
64.97148 147
64.99159 160
65.01171 145
65.03182 153
65.05193 172
65.07205 151
65.09216 172
65.11228 160
65.13239 155
65.1525 157
65.17262 166
65.19273 162
65.21284 134
65.23296 157
65.25307 161
65.27319 168
65.2933 149
65.31341 140
65.33353 176
65.35364 155
65.37375 149
65.39387 148
65.41398 160
65.43409 195
65.45421 170
65.47432 197
65.49444 207
65.51455 180
65.53466 191
65.55478 201
65.57489 201
65.595 185
65.61512 228
65.63523 212
65.65535 246
65.67546 218
65.69557 214
65.71569 238
65.7358 224
65.75591 197
65.77603 197
65.79614 214
65.81626 187
65.83637 200
65.85648 206
65.8766 195
65.89671 177
65.91682 198
65.93694 150
65.95705 175
65.97716 170
65.99728 153
66.01739 142
66.03751 160
66.05762 167
66.07773 175
66.09785 141
66.11796 168
66.13807 153
66.15819 142
66.1783 136
66.19842 142
66.21853 150
66.23864 186
66.25876 170
66.27887 152
66.29898 159
66.3191 138
66.33921 168
66.35933 149
66.37944 146
66.39955 159
66.41967 145
66.43978 168
66.45989 150
66.48001 146
66.50012 162
66.52023 140
66.54035 165
66.56046 148
66.58058 159
66.60069 153
66.6208 161
66.64092 148
66.66103 171
66.68114 167
66.70126 167
66.72137 164
66.74149 172
66.7616 161
66.78171 158
66.80183 143
66.82194 192
66.84205 157
66.86217 176
66.88228 178
66.90239 177
66.92251 171
66.94262 181
66.96274 159
66.98285 167
67.00296 189
67.02308 174
67.04319 187
67.0633 164
67.08342 206
67.10353 186
67.12365 212
67.14376 213
67.16387 220
67.18399 240
67.2041 195
67.22421 230
67.24433 227
67.26444 239
67.28456 235
67.30467 260
67.32478 316
67.3449 284
67.36501 304
67.38512 351
67.40524 358
67.42535 416
67.44546 469
67.46558 508
67.48569 598
67.50581 662
67.52592 721
67.54603 808
67.56615 906
67.58626 979
67.60637 1036
67.62649 1168
67.6466 1104
67.66672 1148
67.68683 1083
67.70694 1012
67.72706 1009
67.74717 907
67.76728 862
67.7874 894
67.80751 922
67.82763 919
67.84774 958
67.86785 973
67.88797 1025
67.90808 1058
67.92819 1117
67.94831 1174
67.96842 1243
67.98853 1349
68.00865 1378
68.02876 1487
68.04888 1540
68.06899 1597
68.0891 1527
68.10922 1492
68.12933 1392
68.14944 1381
68.16956 1367
68.18967 1419
68.20979 1333
68.2299 1317
68.25001 1274
68.27013 1157
68.29024 1041
68.31035 869
68.33047 774
68.35058 627
68.3707 615
68.39081 550
68.41092 568
68.43104 509
68.45115 434
68.47126 389
68.49138 359
68.51149 309
68.5316 289
68.55172 240
68.57183 219
68.59195 201
68.61206 220
68.63217 175
68.65229 214
68.6724 181
68.69251 187
68.71263 195
68.73274 187
68.75286 163
68.77297 190
68.79308 157
68.8132 184
68.83331 177
68.85342 163
68.87354 160
68.89365 163
68.91376 203
68.93388 179
68.95399 179
68.97411 178
68.99422 200
69.01433 170
69.03445 184
69.05456 156
69.07467 153
69.09479 154
69.1149 164
69.13502 142
69.15513 160
69.17524 156
69.19536 176
69.21547 139
69.23558 166
69.2557 138
69.27581 172
69.29593 161
69.31604 168
69.33615 153
69.35627 168
69.37638 148
69.39649 142
69.41661 166
69.43672 171
69.45683 148
69.47695 140
69.49706 153
69.51718 158
69.53729 170
69.5574 164
69.57752 136
69.59763 162
69.61774 155
69.63786 158
69.65797 145
69.67809 130
69.6982 145
69.71831 157
69.73843 162
69.75854 164
69.77865 164
69.79877 146
69.81888 149
69.839 152
69.85911 129
69.87922 145
69.89934 157
69.91945 164
69.93956 140
69.95968 160
69.97979 155
69.9999 148
70.02002 145
70.04013 143
70.06025 151
70.08036 149
70.10047 153
70.12059 166
70.1407 155
70.16081 141
70.18093 166
70.20104 148
70.22116 167
70.24127 160
70.26138 126
70.2815 155
70.30161 163
70.32172 138
70.34184 149
70.36195 170
70.38207 181
70.40218 177
70.42229 140
70.44241 171
70.46252 146
70.48263 138
70.50275 137
70.52286 162
70.54297 164
70.56309 149
70.5832 142
70.60332 146
70.62343 126
70.64354 149
70.66366 148
70.68377 152
70.70388 133
70.724 139
70.74411 146
70.76423 146
70.78434 163
70.80445 171
70.82457 137
70.84468 154
70.86479 131
70.88491 157
70.90502 130
70.92513 131
70.94525 136
70.96536 138
70.98548 147
71.00559 139
71.0257 145
71.04582 123
71.06593 139
71.08604 155
71.10616 143
71.12627 158
71.14639 153
71.1665 151
71.18661 135
71.20673 137
71.22684 149
71.24695 145
71.26707 148
71.28718 129
71.3073 137
71.32741 149
71.34752 149
71.36764 140
71.38775 126
71.40786 152
71.42798 132
71.44809 139
71.4682 133
71.48832 148
71.50843 138
71.52855 132
71.54866 127
71.56877 127
71.58889 143
71.609 142
71.62911 137
71.64923 156
71.66934 138
71.68946 149
71.70957 140
71.72968 132
71.7498 130
71.76991 160
71.79002 148
71.81014 148
71.83025 124
71.85037 146
71.87048 142
71.89059 130
71.91071 133
71.93082 141
71.95093 159
71.97105 139
71.99116 144
72.01127 133
72.03139 133
72.0515 155
72.07162 148
72.09173 167
72.11184 154
72.13196 164
72.15207 137
72.17218 167
72.1923 137
72.21241 152
72.23253 154
72.25264 126
72.27275 147
72.29287 169
72.31298 129
72.33309 139
72.35321 149
72.37332 148
72.39344 124
72.41355 131
72.43366 144
72.45378 139
72.47389 143
72.494 143
72.51412 144
72.53423 141
72.55434 139
72.57446 158
72.59457 136
72.61469 154
72.6348 132
72.65491 140
72.67503 165
72.69514 156
72.71525 148
72.73537 173
72.75548 165
72.7756 150
72.79571 136
72.81582 164
72.83594 139
72.85605 147
72.87616 161
72.89628 163
72.91639 197
72.9365 173
72.95662 172
72.97673 191
72.99685 192
73.01696 185
73.03707 194
73.05719 192
73.0773 186
73.09741 216
73.11753 204
73.13764 213
73.15776 243
73.17787 289
73.19798 281
73.2181 310
73.23821 331
73.25832 350
73.27844 378
73.29855 407
73.31867 425
73.33878 462
73.35889 437
73.37901 467
73.39912 442
73.41923 413
73.43935 396
73.45946 380
73.47957 341
73.49969 305
73.5198 332
73.53992 311
73.56003 291
73.58014 310
73.60026 280
73.62037 282
73.64048 257
73.6606 239
73.68071 210
73.70083 204
73.72094 183
73.74105 174
73.76117 174
73.78128 129
73.80139 174
73.82151 146
73.84162 155
73.86174 143
73.88185 168
73.90196 168
73.92208 135
73.94219 148
73.9623 152
73.98242 148
74.00253 127
74.02264 149
74.04276 167
74.06287 148
74.08299 153
74.1031 123
74.12321 143
74.14333 122
74.16344 162
74.18355 152
74.20367 156
74.22378 147
74.2439 141
74.26401 146
74.28412 126
74.30424 119
74.32435 145
74.34446 145
74.36458 148
74.38469 149
74.40481 163
74.42492 143
74.44503 142
74.46515 149
74.48526 152
74.50537 128
74.52549 147
74.5456 138
74.56571 136
74.58583 142
74.60594 158
74.62606 136
74.64617 131
74.66628 140
74.6864 156
74.70651 140
74.72662 139
74.74674 137
74.76685 170
74.78697 131
74.80708 145
74.82719 149
74.84731 144
74.86742 161
74.88753 147
74.90765 155
74.92776 156
74.94787 153
74.96799 164
74.9881 132
75.00822 139
