3.00117 20630
3.02128 20371
3.0414 19593
3.06151 19212
3.08162 18896
3.10174 18202
3.12185 17995
3.14197 17106
3.16208 16681
3.18219 16154
3.20231 15577
3.22242 15300
3.24253 14513
3.26265 14356
3.28276 14082
3.30288 13141
3.32299 13054
3.3431 12594
3.36322 12364
3.38333 11742
3.40344 11413
3.42356 11316
3.44367 10436
3.46379 10431
3.4839 9977
3.50401 9653
3.52413 9521
3.54424 8861
3.56435 8646
3.58447 8136
3.60458 7817
3.62469 7835
3.64481 7258
3.66492 7148
3.68504 6818
3.70515 6489
3.72526 6519
3.74538 5865
3.76549 5904
3.7856 5579
3.80572 5240
3.82583 5222
3.84595 4746
3.86606 4608
3.88617 4393
3.90629 4148
3.9264 4192
3.94651 3752
3.96663 3637
3.98674 3649
4.00686 3342
4.02697 3309
4.04708 3050
4.0672 2944
4.08731 2784
4.10742 2662
4.12754 2739
4.14765 2327
4.16776 2239
4.18788 2308
4.20799 2164
4.22811 2132
4.24822 1887
4.26833 1846
4.28845 1857
4.30856 1696
4.32867 1728
4.34879 1574
4.3689 1638
4.38902 1577
4.40913 1497
4.42924 1507
4.44936 1271
4.46947 1352
4.48958 1394
4.5097 1319
4.52981 1301
4.54992 1194
4.57004 1124
4.59015 1181
4.61027 1110
4.63038 1136
4.65049 1044
4.67061 1031
4.69072 1044
4.71083 988
4.73095 968
4.75106 912
4.77118 889
4.79129 840
4.8114 890
4.83152 790
4.85163 800
4.87174 782
4.89186 845
4.91197 743
4.93209 697
4.9522 707
4.97231 698
4.99243 709
5.01254 648
5.03265 673
5.05277 643
5.07288 583
5.09299 573
5.11311 608
5.13322 539
5.15334 550
5.17345 541
5.19356 506
5.21368 518
5.23379 516
5.2539 522
5.27402 459
5.29413 445
5.31425 452
5.33436 458
5.35447 420
5.37459 398
5.3947 380
5.41481 432
5.43493 295
5.45504 387
5.47516 318
5.49527 331
5.51538 356
5.5355 310
5.55561 330
5.57572 330
5.59584 322
5.61595 305
5.63606 273
5.65618 280
5.67629 304
5.69641 262
5.71652 288
5.73663 252
5.75675 254
5.77686 251
5.79697 250
5.81709 263
5.8372 258
5.85732 220
5.87743 224
5.89754 241
5.91766 223
5.93777 243
5.95788 210
5.978 229
5.99811 221
6.01823 220
6.03834 189
6.05845 233
6.07857 217
6.09868 189
6.11879 203
6.13891 200
6.15902 168
6.17913 165
6.19925 201
6.21936 175
6.23948 178
6.25959 198
6.2797 166
6.29982 216
6.31993 179
6.34004 174
6.36016 186
6.38027 171
6.40039 178
6.4205 186
6.44061 142
6.46073 181
6.48084 139
6.50095 169
6.52107 158
6.54118 159
6.56129 159
6.58141 196
6.60152 162
6.62164 152
6.64175 184
6.66186 139
6.68198 150
6.70209 157
6.7222 180
6.74232 168
6.76243 175
6.78255 134
6.80266 154
6.82277 148
6.84289 160
6.863 167
6.88311 181
6.90323 184
6.92334 176
6.94346 158
6.96357 166
6.98368 162
7.0038 175
7.02391 165
7.04402 165
7.06414 136
7.08425 168
7.10436 148
7.12448 158
7.14459 190
7.16471 171
7.18482 174
7.20493 175
7.22505 181
7.24516 145
7.26527 146
7.28539 172
7.3055 149
7.32562 173
7.34573 165
7.36584 173
7.38596 165
7.40607 178
7.42618 166
7.4463 184
7.46641 174
7.48653 186
7.50664 159
7.52675 194
7.54687 163
7.56698 172
7.58709 167
7.60721 177
7.62732 181
7.64743 183
7.66755 178
7.68766 188
7.70778 177
7.72789 178
7.748 184
7.76812 187
7.78823 189
7.80834 196
7.82846 180
7.84857 167
7.86869 186
7.8888 182
7.90891 204
7.92903 179
7.94914 206
7.96925 196
7.98937 184
8.00948 185
8.0296 184
8.04971 193
8.06982 186
8.08994 192
8.11005 200
8.13016 198
8.15028 179
8.17039 197
8.1905 194
8.21062 187
8.23073 185
8.25085 213
8.27096 169
8.29107 192
8.31119 196
8.3313 195
8.35141 211
8.37153 177
8.39164 173
8.41176 177
8.43187 220
8.45198 208
8.4721 186
8.49221 218
8.51232 181
8.53244 199
8.55255 183
8.57266 214
8.59278 188
8.61289 175
8.63301 186
8.65312 191
8.67323 207
8.69335 200
8.71346 224
8.73357 187
8.75369 196
8.7738 209
8.79392 170
8.81403 206
8.83414 207
8.85426 238
8.87437 219
8.89448 202
8.9146 205
8.93471 212
8.95483 202
8.97494 208
8.99505 217
9.01517 178
9.03528 190
9.05539 196
9.07551 188
9.09562 224
9.11573 183
9.13585 194
9.15596 202
9.17608 207
9.19619 211
9.2163 200
9.23642 218
9.25653 201
9.27664 218
9.29676 194
9.31687 230
9.33699 190
9.3571 219
9.37721 197
9.39733 210
9.41744 180
9.43755 195
9.45767 202
9.47778 190
9.4979 209
9.51801 185
9.53812 209
9.55824 217
9.57835 221
9.59846 203
9.61858 191
9.63869 208
9.6588 175
9.67892 214
9.69903 176
9.71915 221
9.73926 199
9.75937 187
9.77949 202
9.7996 218
9.81971 196
9.83983 240
9.85994 212
9.88006 199
9.90017 219
9.92028 206
9.9404 215
9.96051 211
9.98062 213
10.00074 169
10.02085 196
10.04097 205
10.06108 201
10.08119 201
10.10131 204
10.12142 234
10.14153 197
10.16165 224
10.18176 204
10.20187 225
10.22199 204
10.2421 213
10.26222 221
10.28233 230
10.30244 206
10.32256 230
10.34267 216
10.36278 212
10.3829 215
10.40301 237
10.42313 201
10.44324 220
10.46335 209
10.48347 211
10.50358 206
10.52369 192
10.54381 199
10.56392 167
10.58403 200
10.60415 207
10.62426 208
10.64438 224
10.66449 193
10.6846 225
10.70472 196
10.72483 227
10.74494 216
10.76506 212
10.78517 215
10.80529 192
10.8254 218
10.84551 184
10.86563 185
10.88574 215
10.90585 199
10.92597 222
10.94608 216
10.9662 217
10.98631 239
11.00642 218
11.02654 201
11.04665 207
11.06676 197
11.08688 221
11.10699 210
11.1271 219
11.14722 192
11.16733 228
11.18745 204
11.20756 208
11.22767 211
11.24779 203
11.2679 206
11.28801 221
11.30813 213
11.32824 203
11.34836 219
11.36847 224
11.38858 189
11.4087 205
11.42881 182
11.44892 203
11.46904 207
11.48915 202
11.50927 185
11.52938 221
11.54949 243
11.56961 234
11.58972 180
11.60983 195
11.62995 219
11.65006 197
11.67017 197
11.69029 183
11.7104 194
11.73052 159
11.75063 189
11.77074 181
11.79086 190
11.81097 222
11.83108 165
11.8512 197
11.87131 193
11.89143 195
11.91154 194
11.93165 192
11.95177 197
11.97188 242
11.99199 207
12.01211 179
12.03222 170
12.05234 208
12.07245 216
12.09256 187
12.11268 204
12.13279 184
12.1529 217
12.17302 189
12.19313 219
12.21324 191
12.23336 188
12.25347 224
12.27359 202
12.2937 238
12.31381 217
12.33393 222
12.35404 218
12.37415 202
12.39427 214
12.41438 231
12.4345 209
12.45461 230
12.47472 211
12.49484 208
12.51495 193
12.53506 196
12.55518 195
12.57529 202
12.5954 169
12.61552 224
12.63563 210
12.65575 189
12.67586 203
12.69597 226
12.71609 203
12.7362 201
12.75631 213
12.77643 205
12.79654 202
12.81666 210
12.83677 194
12.85688 186
12.877 203
12.89711 215
12.91722 207
12.93734 221
12.95745 220
12.97757 193
12.99768 182
13.01779 189
13.03791 176
13.05802 204
13.07813 191
13.09825 170
13.11836 208
13.13847 171
13.15859 188
13.1787 170
13.19882 176
13.21893 192
13.23904 178
13.25916 202
13.27927 180
13.29938 168
13.3195 181
13.33961 187
13.35973 195
13.37984 183
13.39995 178
13.42007 174
13.44018 193
13.46029 188
13.48041 195
13.50052 178
13.52064 192
13.54075 175
13.56086 195
13.58098 173
13.60109 205
13.6212 208
13.64132 183
13.66143 181
13.68154 194
13.70166 198
13.72177 213
13.74189 187
13.762 184
13.78211 188
13.80223 156
13.82234 174
13.84245 176
13.86257 187
13.88268 191
13.9028 175
13.92291 189
13.94302 183
13.96314 179
13.98325 178
14.00336 161
14.02348 177
14.04359 177
14.06371 182
14.08382 192
14.10393 156
14.12405 171
14.14416 150
14.16427 164
14.18439 184
14.2045 163
14.22461 168
14.24473 159
14.26484 162
14.28496 167
14.30507 184
14.32518 176
14.3453 179
14.36541 175
14.38552 174
14.40564 196
14.42575 199
14.44587 154
14.46598 177
14.48609 179
14.50621 194
14.52632 173
14.54643 193
14.56655 168
14.58666 173
14.60677 175
14.62689 146
14.647 175
14.66712 160
14.68723 193
14.70734 178
14.72746 172
14.74757 179
14.76768 147
14.7878 168
14.80791 180
14.82803 161
14.84814 185
14.86825 168
14.88837 173
14.90848 185
14.92859 176
14.94871 191
14.96882 172
14.98894 165
15.00905 167
15.02916 199
15.04928 172
15.06939 146
15.0895 171
15.10962 146
15.12973 172
15.14984 206
15.16996 145
15.19007 178
15.21019 160
15.2303 199
15.25041 196
15.27053 159
15.29064 172
15.31075 140
15.33087 152
15.35098 169
15.3711 158
15.39121 154
15.41132 158
15.43144 170
15.45155 172
15.47166 165
15.49178 174
15.51189 189
15.53201 178
15.55212 153
15.57223 141
15.59235 156
15.61246 189
15.63257 167
15.65269 165
15.6728 174
15.69291 167
15.71303 164
15.73314 150
15.75326 139
15.77337 159
15.79348 168
15.8136 167
15.83371 186
15.85382 169
15.87394 165
15.89405 180
15.91417 209
15.93428 177
15.95439 158
15.97451 176
15.99462 157
16.01473 172
16.03485 171
16.05496 174
16.07508 171
16.09519 151
16.1153 160
16.13542 177
16.15553 171
16.17564 146
16.19576 172
16.21587 167
16.23598 144
16.2561 167
16.27621 165
16.29633 155
16.31644 165
16.33655 184
16.35667 160
16.37678 149
16.39689 183
16.41701 179
16.43712 167
16.45724 165
16.47735 170
16.49746 132
16.51758 161
16.53769 149
16.5578 150
16.57792 141
16.59803 160
16.61814 174
16.63826 160
16.65837 147
16.67849 146
16.6986 182
16.71871 176
16.73883 160
16.75894 158
16.77905 162
16.79917 170
16.81928 159
16.8394 188
16.85951 173
16.87962 148
16.89974 166
16.91985 149
16.93996 145
16.96008 166
16.98019 151
17.00031 145
17.02042 145
17.04053 161
17.06065 162
17.08076 176
17.10087 146
17.12099 170
17.1411 157
17.16121 162
17.18133 141
17.20144 165
17.22156 140
17.24167 143
17.26178 174
17.2819 150
17.30201 165
17.32212 165
17.34224 153
17.36235 156
17.38247 168
17.40258 161
17.42269 175
17.44281 148
17.46292 137
17.48303 162
17.50315 147
17.52326 161
17.54338 138
17.56349 150
17.5836 156
17.60372 138
17.62383 154
17.64394 146
17.66406 152
17.68417 160
17.70428 158
17.7244 161
17.74451 138
17.76463 159
17.78474 140
17.80485 160
17.82497 175
17.84508 167
17.86519 123
17.88531 166
17.90542 165
17.92554 144
17.94565 162
17.96576 146
17.98588 146
18.00599 155
18.0261 139
18.04622 163
18.06633 151
18.08645 144
18.10656 147
18.12667 157
18.14679 144
18.1669 156
18.18701 161
18.20713 153
18.22724 139
18.24735 156
18.26747 166
18.28758 161
18.3077 130
18.32781 159
18.34792 138
18.36804 140
18.38815 165
18.40826 159
18.42838 142
18.44849 133
18.46861 154
18.48872 166
18.50883 152
18.52895 140
18.54906 141
18.56917 162
18.58929 150
18.6094 158
18.62951 157
18.64963 152
18.66974 153
18.68986 158
18.70997 163
18.73008 166
18.7502 163
18.77031 164
18.79042 173
18.81054 171
18.83065 169
18.85077 157
18.87088 200
18.89099 181
18.91111 147
18.93122 140
18.95133 167
18.97145 158
18.99156 158
19.01168 134
19.03179 189
19.0519 148
19.07202 150
19.09213 152
19.11224 157
19.13236 156
19.15247 152
19.17258 175
19.1927 172
19.21281 154
19.23293 177
19.25304 160
19.27315 163
19.29327 174
19.31338 177
19.33349 163
19.35361 156
19.37372 168
19.39384 170
19.41395 164
19.43406 144
19.45418 151
19.47429 168
19.4944 168
19.51452 161
19.53463 168
19.55475 156
19.57486 176
19.59497 177
19.61509 185
19.6352 196
19.65531 165
19.67543 161
19.69554 188
19.71565 171
19.73577 152
19.75588 160
19.776 193
19.79611 185
19.81622 185
19.83634 188
19.85645 183
19.87656 199
19.89668 205
19.91679 165
19.93691 177
19.95702 157
19.97713 180
19.99725 183
20.01736 183
20.03747 205
20.05759 181
20.0777 213
20.09782 215
20.11793 226
20.13804 239
20.15816 192
20.17827 239
20.19838 254
20.2185 241
20.23861 248
20.25872 250
20.27884 267
20.29895 257
20.31907 272
20.33918 311
20.35929 257
20.37941 284
20.39952 292
20.41963 296
20.43975 320
20.45986 312
20.47998 389
20.50009 348
20.5202 384
20.54032 383
20.56043 394
20.58054 401
20.60066 512
20.62077 539
20.64088 624
20.661 825
20.68111 1006
20.70123 1365
20.72134 1832
20.74145 2707
20.76157 3835
20.78168 5340
20.80179 7107
20.82191 8624
20.84202 9272
20.86214 8796
20.88225 7601
20.90236 5307
20.92248 3797
20.94259 2321
20.9627 1346
20.98282 868
21.00293 658
21.02305 588
21.04316 510
21.06327 505
21.08339 409
21.1035 408
21.12361 389
21.14373 321
21.16384 319
21.18395 304
21.20407 289
21.22418 259
21.2443 272
21.26441 271
21.28452 261
21.30464 252
21.32475 267
21.34486 241
21.36498 274
21.38509 223
21.40521 253
21.42532 227
21.44543 216
21.46555 211
21.48566 244
21.50577 212
21.52589 201
21.546 214
21.56612 222
21.58623 215
21.60634 211
21.62646 219
21.64657 216
21.66668 207
21.6868 204
21.70691 216
21.72702 192
21.74714 178
21.76725 163
21.78737 175
21.80748 221
21.82759 183
21.84771 220
21.86782 186
21.88793 200
21.90805 188
21.92816 230
21.94828 226
21.96839 198
21.9885 206
22.00862 216
22.02873 207
22.04884 206
22.06896 173
22.08907 212
22.10919 193
22.1293 180
22.14941 184
22.16953 172
22.18964 182
22.20975 207
22.22987 192
22.24998 189
22.27009 186
22.29021 198
22.31032 212
22.33044 221
22.35055 173
22.37066 168
22.39078 164
22.41089 214
22.431 168
22.45112 193
22.47123 200
22.49135 193
22.51146 202
22.53157 166
22.55169 209
22.5718 195
22.59191 209
22.61203 212
22.63214 202
22.65225 174
22.67237 178
22.69248 180
22.7126 179
22.73271 185
22.75282 201
22.77294 174
22.79305 174
22.81316 175
22.83328 172
22.85339 184
22.87351 178
22.89362 176
22.91373 185
22.93385 187
22.95396 223
22.97407 187
22.99419 178
23.0143 194
23.03442 173
23.05453 175
23.07464 205
23.09476 191
23.11487 210
23.13498 189
23.1551 189
23.17521 208
23.19532 211
23.21544 176
23.23555 211
23.25567 193
23.27578 193
23.29589 193
23.31601 162
23.33612 185
23.35623 176
23.37635 203
23.39646 187
23.41658 195
23.43669 191
23.4568 176
23.47692 189
23.49703 189
23.51714 183
23.53726 197
23.55737 186
23.57749 172
23.5976 192
23.61771 205
23.63783 186
23.65794 195
23.67805 181
23.69817 181
23.71828 193
23.73839 182
23.75851 204
23.77862 188
23.79874 196
23.81885 199
23.83896 194
23.85908 206
23.87919 203
23.8993 227
23.91942 263
23.93953 289
23.95965 335
23.97976 358
23.99987 324
24.01999 318
24.0401 283
24.06021 256
24.08033 227
24.10044 189
24.12056 186
24.14067 189
24.16078 193
24.1809 207
24.20101 183
24.22112 163
24.24124 181
24.26135 196
24.28146 174
24.30158 187
24.32169 168
24.34181 180
24.36192 194
24.38203 196
24.40215 170
24.42226 173
24.44237 186
24.46249 176
24.4826 171
24.50272 186
24.52283 160
24.54294 169
24.56306 170
24.58317 185
24.60328 193
24.6234 155
24.64351 178
24.66362 200
24.68374 167
24.70385 176
24.72397 181
24.74408 157
24.76419 208
24.78431 186
24.80442 189
24.82453 226
24.84465 189
24.86476 179
24.88488 193
24.90499 198
24.9251 196
24.94522 190
24.96533 191
24.98544 186
25.00556 208
25.02567 188
25.04579 172
25.0659 188
25.08601 176
25.10613 204
25.12624 181
25.14635 182
25.16647 192
25.18658 171
25.20669 212
25.22681 220
25.24692 205
25.26704 232
25.28715 202
25.30726 218
25.32738 207
25.34749 198
25.3676 235
25.38772 232
25.40783 219
25.42795 224
25.44806 258
25.46817 245
25.48829 270
25.5084 276
25.52851 277
25.54863 264
25.56874 278
25.58886 283
25.60897 307
25.62908 313
25.6492 312
25.66931 362
25.68942 381
25.70954 365
25.72965 437
25.74976 437
25.76988 451
25.78999 438
25.81011 508
25.83022 446
25.85033 457
25.87045 490
25.89056 452
25.91067 501
25.93079 504
25.9509 512
25.97102 523
25.99113 501
26.01124 566
26.03136 539
26.05147 562
26.07158 591
26.0917 629
26.11181 704
26.13193 740
26.15204 741
26.17215 855
26.19227 892
26.21238 1006
26.23249 1045
26.25261 1102
26.27272 1208
26.29283 1296
26.31295 1372
26.33306 1631
26.35318 1821
26.37329 2079
26.3934 2513
26.41352 3096
26.43363 3877
26.45374 5063
26.47386 6894
26.49397 9574
26.51409 13337
26.5342 18508
26.55431 25656
26.57443 33690
26.59454 40633
26.61465 43966
26.63477 42708
26.65488 36381
26.67499 28163
26.69511 21141
26.71522 14823
26.73534 9221
26.75545 5008
26.77556 3120
26.79568 2413
26.81579 2002
26.8359 1707
26.85602 1566
26.87613 1392
26.89625 1349
26.91636 1136
26.93647 1083
26.95659 925
26.9767 854
26.99681 777
27.01693 729
27.03704 711
27.05716 667
27.07727 596
27.09738 570
27.1175 560
27.13761 569
27.15772 511
27.17784 458
27.19795 520
27.21806 475
27.23818 454
27.25829 437
27.27841 444
27.29852 425
27.31863 465
27.33875 474
27.35886 545
27.37897 564
27.39909 539
27.4192 567
27.43932 583
27.45943 559
27.47954 560
27.49966 526
27.51977 481
27.53988 463
27.56 381
27.58011 401
27.60023 359
27.62034 371
27.64045 362
27.66057 322
27.68068 295
27.70079 331
27.72091 315
27.74102 315
27.76113 333
27.78125 315
27.80136 294
27.82148 329
27.84159 323
27.8617 301
27.88182 280
27.90193 317
27.92204 327
27.94216 290
27.96227 285
27.98239 248
28.0025 236
28.02261 291
28.04273 259
28.06284 270
28.08295 280
28.10307 240
28.12318 257
28.1433 289
28.16341 261
28.18352 246
28.20364 256
28.22375 254
28.24386 278
28.26398 282
28.28409 212
28.3042 255
28.32432 250
28.34443 238
28.36455 243
28.38466 270
28.40477 233
28.42489 250
28.445 242
28.46511 248
28.48523 251
28.50534 233
28.52546 247
28.54557 247
28.56568 210
28.5858 249
28.60591 205
28.62602 241
28.64614 238
28.66625 208
28.68636 216
28.70648 235
28.72659 214
28.74671 239
28.76682 205
28.78693 220
28.80705 220
28.82716 188
28.84727 220
28.86739 226
28.8875 191
28.90762 218
28.92773 219
28.94784 241
28.96796 216
28.98807 212
29.00818 216
29.0283 242
29.04841 236
29.06853 220
29.08864 213
29.10875 240
29.12887 201
29.14898 205
29.16909 183
29.18921 206
29.20932 203
29.22943 204
29.24955 228
29.26966 212
29.28978 211
29.30989 229
29.33 216
29.35012 232
29.37023 230
29.39034 217
29.41046 226
29.43057 224
29.45069 228
29.4708 227
29.49091 226
29.51103 251
29.53114 211
29.55125 223
29.57137 202
29.59148 199
29.6116 200
29.63171 200
29.65182 209
29.67194 212
29.69205 199
29.71216 227
29.73228 208
29.75239 197
29.7725 225
29.79262 200
29.81273 214
29.83285 211
29.85296 218
29.87307 220
29.89319 213
29.9133 206
29.93341 225
29.95353 206
29.97364 177
29.99376 174
30.01387 216
30.03398 212
30.0541 190
30.07421 186
30.09432 200
30.11444 186
30.13455 185
30.15467 226
30.17478 190
30.19489 191
30.21501 206
30.23512 227
30.25523 204
30.27535 212
30.29546 194
30.31557 190
30.33569 193
30.3558 189
30.37592 171
30.39603 186
30.41614 174
30.43626 193
30.45637 169
30.47648 136
30.4966 172
30.51671 177
30.53683 201
30.55694 198
30.57705 199
30.59717 204
30.61728 214
30.63739 198
30.65751 228
30.67762 193
30.69773 212
30.71785 177
30.73796 226
30.75808 184
30.77819 196
30.7983 207
30.81842 224
30.83853 219
30.85864 183
30.87876 196
30.89887 175
30.91899 191
30.9391 211
30.95921 174
30.97933 186
30.99944 167
31.01955 164
31.03967 158
31.05978 158
31.0799 163
31.10001 163
31.12012 153
31.14024 175
31.16035 157
31.18046 179
31.20058 159
31.22069 166
31.2408 171
31.26092 152
31.28103 160
31.30115 161
31.32126 153
31.34137 159
31.36149 165
31.3816 164
31.40171 164
31.42183 155
31.44194 135
31.46206 160
31.48217 167
31.50228 151
31.5224 152
31.54251 155
31.56262 168
31.58274 156
31.60285 161
31.62297 164
31.64308 139
31.66319 138
31.68331 153
31.70342 136
31.72353 127
31.74365 126
31.76376 171
31.78387 163
31.80399 169
31.8241 171
31.84422 155
31.86433 156
31.88444 156
31.90456 143
31.92467 144
31.94478 152
31.9649 150
31.98501 139
32.00513 170
32.02524 168
32.04535 137
32.06547 150
32.08558 159
32.10569 143
32.12581 180
32.14592 166
32.16604 141
32.18615 165
32.20626 130
32.22638 150
32.24649 171
32.2666 150
32.28672 145
32.30683 147
32.32694 160
32.34706 140
32.36717 139
32.38729 141
32.4074 148
32.42751 154
32.44763 172
32.46774 163
32.48785 147
32.50797 134
32.52808 169
32.5482 153
32.56831 134
32.58842 141
32.60854 136
32.62865 151
32.64876 149
32.66888 142
32.68899 136
32.7091 131
32.72922 124
32.74933 124
32.76945 148
32.78956 142
32.80967 119
32.82979 140
32.8499 143
32.87001 142
32.89013 163
32.91024 168
32.93036 160
32.95047 132
32.97058 146
32.9907 128
33.01081 156
33.03092 143
33.05104 157
33.07115 140
33.09127 142
33.11138 142
33.13149 137
33.15161 134
33.17172 127
33.19183 144
33.21195 137
33.23206 133
33.25217 153
33.27229 123
33.2924 128
33.31252 141
33.33263 134
33.35274 128
33.37286 131
33.39297 125
33.41308 146
33.4332 142
33.45331 128
33.47343 139
33.49354 117
33.51365 125
33.53377 170
33.55388 133
33.57399 129
33.59411 147
33.61422 130
33.63434 134
33.65445 132
33.67456 130
33.69468 138
33.71479 137
33.7349 140
33.75502 123
33.77513 148
33.79524 154
33.81536 119
33.83547 121
33.85559 134
33.8757 139
33.89581 135
33.91593 142
33.93604 129
33.95615 128
33.97627 119
33.99638 137
34.0165 140
34.03661 117
34.05672 156
34.07684 155
34.09695 144
34.11706 154
34.13718 136
34.15729 141
34.17741 164
34.19752 138
34.21763 136
34.23775 142
34.25786 141
34.27797 123
34.29809 149
34.3182 124
34.33831 136
34.35843 127
34.37854 119
34.39866 105
34.41877 133
34.43888 147
34.459 136
34.47911 136
34.49922 132
34.51934 120
34.53945 142
34.55957 119
34.57968 146
34.59979 139
34.61991 147
34.64002 125
34.66013 138
34.68025 127
34.70036 145
34.72047 151
34.74059 155
34.7607 153
34.78082 137
34.80093 174
34.82104 144
34.84116 137
34.86127 121
34.88138 136
34.9015 160
34.92161 151
34.94173 134
34.96184 142
34.98195 153
35.00207 129
35.02218 139
35.04229 134
35.06241 163
35.08252 127
35.10264 138
35.12275 126
35.14286 146
35.16298 124
35.18309 145
35.2032 135
35.22332 168
35.24343 134
35.26354 156
35.28366 134
35.30377 147
35.32389 136
35.344 143
35.36411 167
35.38423 147
35.40434 163
35.42445 171
35.44457 164
35.46468 158
35.4848 157
35.50491 160
35.52502 186
35.54514 144
35.56525 172
35.58536 159
35.60548 160
35.62559 158
35.64571 152
35.66582 142
35.68593 178
35.70605 138
35.72616 142
35.74627 166
35.76639 147
35.7865 154
35.80661 157
35.82673 156
35.84684 153
35.86696 161
35.88707 152
35.90718 164
35.9273 178
35.94741 181
35.96752 153
35.98764 175
36.00775 170
36.02787 150
36.04798 196
36.06809 178
36.08821 169
36.10832 190
36.12843 183
36.14855 199
36.16866 227
36.18878 225
36.20889 218
36.229 263
36.24912 252
36.26923 324
36.28934 339
36.30946 407
36.32957 489
36.34968 571
36.3698 649
36.38991 842
36.41003 1118
36.43014 1401
36.45025 1868
36.47037 2296
36.49048 2609
36.51059 2722
36.53071 2589
36.55082 2321
36.57094 1923
36.59105 1583
36.61116 1395
36.63128 1175
36.65139 844
36.6715 513
36.69162 360
36.71173 298
36.73184 263
36.75196 256
36.77207 204
36.79219 228
36.8123 194
36.83241 208
36.85253 198
36.87264 182
36.89275 179
36.91287 160
36.93298 163
36.9531 161
36.97321 172
36.99332 163
37.01344 166
37.03355 193
37.05366 154
37.07378 162
37.09389 162
37.11401 137
37.13412 154
37.15423 135
37.17435 155
37.19446 136
37.21457 146
37.23469 140
37.2548 160
37.27491 143
37.29503 123
37.31514 149
37.33526 126
37.35537 138
37.37548 148
37.3956 129
37.41571 140
37.43582 144
37.45594 135
37.47605 144
37.49617 140
37.51628 132
37.53639 135
37.55651 142
37.57662 141
37.59673 145
37.61685 154
37.63696 159
37.65708 139
37.67719 149
37.6973 130
37.71742 158
37.73753 138
37.75764 125
37.77776 133
37.79787 119
37.81798 137
37.8381 140
37.85821 135
37.87833 146
37.89844 135
37.91855 136
37.93867 121
37.95878 161
37.97889 145
37.99901 124
38.01912 135
38.03924 137
38.05935 148
38.07946 137
38.09958 134
38.11969 152
38.1398 158
38.15992 139
38.18003 132
38.20015 149
38.22026 144
38.24037 143
38.26049 139
38.2806 148
38.30071 148
38.32083 149
38.34094 144
38.36105 133
38.38117 154
38.40128 139
38.4214 118
38.44151 133
38.46162 150
38.48174 163
38.50185 143
38.52196 147
38.54208 154
38.56219 159
38.58231 145
38.60242 144
38.62253 158
38.64265 123
38.66276 158
38.68287 150
38.70299 148
38.7231 154
38.74321 149
38.76333 135
38.78344 159
38.80356 152
38.82367 165
38.84378 150
38.8639 153
38.88401 158
38.90412 158
38.92424 185
38.94435 165
38.96447 159
38.98458 172
39.00469 178
39.02481 187
39.04492 208
39.06503 192
39.08515 210
39.10526 246
39.12538 229
39.14549 250
39.1656 269
39.18572 294
39.20583 320
39.22594 366
39.24606 458
39.26617 522
39.28628 665
39.3064 742
39.32651 991
39.34663 1306
39.36674 1598
39.38685 1924
39.40697 2226
39.42708 2433
39.44719 2388
39.46731 2237
39.48742 1775
39.50754 1472
39.52765 1321
39.54776 1211
39.56788 1019
39.58799 703
39.6081 468
39.62822 347
39.64833 308
39.66845 263
39.68856 253
39.70867 258
39.72879 237
39.7489 212
39.76901 209
39.78913 199
39.80924 177
39.82935 195
39.84947 197
39.86958 182
39.8897 208
39.90981 215
39.92992 204
39.95004 200
39.97015 203
39.99026 225
40.01038 239
40.03049 257
40.05061 263
40.07072 305
40.09083 362
40.11095 427
40.13106 497
40.15117 577
40.17129 709
40.1914 936
40.21152 1031
40.23163 1250
40.25174 1326
40.27186 1294
40.29197 1144
40.31208 1012
40.3322 853
40.35231 727
40.37242 669
40.39254 575
40.41265 395
40.43277 292
40.45288 239
40.47299 206
40.49311 196
40.51322 178
40.53333 185
40.55345 160
40.57356 172
40.59368 175
40.61379 167
40.6339 170
40.65402 156
40.67413 147
40.69424 166
40.71436 155
40.73447 165
40.75458 126
40.7747 133
40.79481 129
40.81493 136
40.83504 136
40.85515 155
40.87527 136
40.89538 133
40.91549 159
40.93561 132
40.95572 149
40.97584 145
40.99595 148
41.01606 164
41.03618 133
41.05629 156
41.0764 153
41.09652 147
41.11663 145
41.13675 149
41.15686 132
41.17697 127
41.19709 134
41.2172 161
41.23731 138
41.25743 151
41.27754 147
41.29765 156
41.31777 137
41.33788 136
41.358 126
41.37811 146
41.39822 140
41.41834 166
41.43845 152
41.45856 151
41.47868 154
41.49879 153
41.51891 149
41.53902 164
41.55913 156
41.57925 164
41.59936 150
41.61947 135
41.63959 154
41.6597 178
41.67982 182
41.69993 161
41.72004 182
41.74016 186
41.76027 186
41.78038 177
41.8005 198
41.82061 183
41.84072 177
41.86084 160
41.88095 157
41.90107 156
41.92118 174
41.94129 168
41.96141 175
41.98152 190
42.00163 172
42.02175 173
42.04186 140
42.06198 199
42.08209 198
42.1022 170
42.12232 250
42.14243 238
42.16254 247
42.18266 298
42.20277 294
42.22289 358
42.243 416
42.26311 523
42.28323 618
42.30334 766
42.32345 932
42.34357 1147
42.36368 1394
42.38379 1682
42.40391 1770
42.42402 1805
42.44414 1588
42.46425 1381
42.48436 1127
42.50448 1035
42.52459 952
42.5447 834
42.56482 717
42.58493 481
42.60505 334
42.62516 264
42.64527 237
42.66539 210
42.6855 194
42.70561 205
42.72573 203
42.74584 163
42.76595 184
42.78607 177
42.80618 145
42.8263 155
42.84641 168
42.86652 153
42.88664 155
42.90675 153
42.92686 155
42.94698 147
42.96709 152
42.98721 161
43.00732 145
43.02743 134
43.04755 128
43.06766 150
43.08777 135
43.10789 135
43.128 121
43.14812 127
43.16823 121
43.18834 130
43.20846 121
43.22857 148
43.24868 120
43.2688 141
43.28891 129
43.30902 113
43.32914 142
43.34925 134
43.36937 121
43.38948 124
43.40959 128
43.42971 113
43.44982 134
43.46993 136
43.49005 142
43.51016 144
43.53028 121
43.55039 139
43.5705 134
43.59062 111
43.61073 119
43.63084 116
43.65096 115
43.67107 133
43.69119 114
43.7113 137
43.73141 122
43.75153 116
43.77164 116
43.79175 128
43.81187 129
43.83198 120
43.85209 120
43.87221 111
43.89232 134
43.91244 137
43.93255 102
43.95266 132
43.97278 120
43.99289 132
44.013 130
44.03312 109
44.05323 103
44.07335 136
44.09346 138
44.11357 111
44.13369 134
44.1538 133
44.17391 140
44.19403 126
44.21414 112
44.23426 143
44.25437 125
44.27448 126
44.2946 122
44.31471 131
44.33482 128
44.35494 131
44.37505 132
44.39516 144
44.41528 123
44.43539 133
44.45551 115
44.47562 124
44.49573 142
44.51585 132
44.53596 116
44.55607 128
44.57619 125
44.5963 126
44.61642 148
44.63653 135
44.65664 146
44.67676 139
44.69687 125
44.71698 132
44.7371 124
44.75721 113
44.77732 114
44.79744 120
44.81755 128
44.83767 146
44.85778 131
44.87789 138
44.89801 150
44.91812 165
44.93823 136
44.95835 129
44.97846 149
44.99858 145
45.01869 141
45.0388 132
45.05892 119
45.07903 134
45.09914 149
45.11926 144
45.13937 129
45.15949 143
45.1796 124
45.19971 132
45.21983 138
45.23994 145
45.26005 137
45.28017 142
45.30028 149
45.32039 173
45.34051 162
45.36062 153
45.38074 161
45.40085 190
45.42096 168
45.44108 177
45.46119 207
45.4813 208
45.50142 225
45.52153 248
45.54165 275
45.56176 280
45.58187 313
45.60199 371
45.6221 445
45.64221 544
45.66233 656
45.68244 820
45.70256 928
45.72267 1043
45.74278 1149
45.7629 1185
45.78301 1038
45.80312 905
45.82324 768
45.84335 687
45.86346 623
45.88358 589
45.90369 531
45.92381 418
45.94392 276
45.96403 221
45.98415 189
46.00426 164
46.02437 166
46.04449 142
46.0646 140
46.08472 134
46.10483 156
46.12494 157
46.14506 114
46.16517 163
46.18528 157
46.2054 140
46.22551 137
46.24563 120
46.26574 122
46.28585 123
46.30597 115
46.32608 133
46.34619 126
46.36631 113
46.38642 124
46.40653 127
46.42665 131
46.44676 133
46.46688 118
46.48699 118
46.5071 116
46.52722 98
46.54733 110
46.56744 107
46.58756 127
46.60767 118
46.62779 139
46.6479 116
46.66801 122
46.68813 136
46.70824 104
46.72835 97
46.74847 131
46.76858 111
46.78869 111
46.80881 123
46.82892 109
46.84904 126
46.86915 123
46.88926 109
46.90938 117
46.92949 114
46.9496 128
46.96972 138
46.98983 141
47.00995 116
47.03006 117
47.05017 111
47.07029 119
47.0904 130
47.11051 115
47.13063 108
47.15074 126
47.17086 136
47.19097 126
47.21108 137
47.2312 119
47.25131 140
47.27142 115
47.29154 106
47.31165 119
47.33176 110
47.35188 119
47.37199 123
47.39211 113
47.41222 93
47.43233 116
47.45245 118
47.47256 105
47.49267 118
47.51279 104
47.5329 118
47.55302 114
47.57313 132
47.59324 122
47.61336 117
47.63347 135
47.65358 118
47.6737 114
47.69381 114
47.71393 109
47.73404 118
47.75415 112
47.77427 120
47.79438 129
47.81449 119
47.83461 115
47.85472 110
47.87483 78
47.89495 133
47.91506 98
47.93518 118
47.95529 133
47.9754 118
47.99552 119
48.01563 113
48.03574 105
48.05586 103
48.07597 118
48.09609 120
48.1162 121
48.13631 115
48.15643 102
48.17654 113
48.19665 128
48.21677 127
48.23688 118
48.257 132
48.27711 119
48.29722 115
48.31734 127
48.33745 126
48.35756 107
48.37768 124
48.39779 133
48.4179 125
48.43802 132
48.45813 123
48.47825 153
48.49836 159
48.51847 131
48.53859 125
48.5587 142
48.57881 128
48.59893 128
48.61904 120
48.63916 111
48.65927 133
48.67938 133
48.6995 119
48.71961 145
48.73972 143
48.75984 133
48.77995 143
48.80006 129
48.82018 146
48.84029 129
48.86041 142
48.88052 139
48.90063 118
48.92075 145
48.94086 153
48.96097 158
48.98109 149
49.0012 139
49.02132 146
49.04143 130
49.06154 131
49.08166 134
49.10177 128
49.12188 134
49.142 144
49.16211 134
49.18223 148
49.20234 140
49.22245 158
49.24257 151
49.26268 138
49.28279 137
49.30291 144
49.32302 134
49.34313 175
49.36325 161
49.38336 130
49.40348 150
49.42359 138
49.4437 159
49.46382 143
49.48393 149
49.50404 142
49.52416 180
49.54427 152
49.56439 191
49.5845 177
49.60461 210
49.62473 199
49.64484 236
49.66495 208
49.68507 242
49.70518 294
49.7253 249
49.74541 302
49.76552 320
49.78564 324
49.80575 366
49.82586 449
49.84598 485
49.86609 523
49.8862 630
49.90632 771
49.92643 886
49.94655 1087
49.96666 1470
49.98677 1716
50.00689 2165
50.027 2669
50.04711 3125
50.06723 3604
50.08734 3986
50.10746 4060
50.12757 3562
50.14768 3024
50.1678 2448
50.18791 2076
50.20802 2128
50.22814 2008
50.24825 1900
50.26837 1539
50.28848 1149
50.30859 733
50.32871 531
50.34882 442
50.36893 345
50.38905 357
50.40916 276
50.42927 281
50.44939 298
50.4695 253
50.48962 279
50.50973 254
50.52984 273
50.54996 273
50.57007 304
50.59018 257
50.6103 227
50.63041 243
50.65053 226
50.67064 186
50.69075 215
50.71087 204
50.73098 199
50.75109 169
50.77121 152
50.79132 170
50.81143 158
50.83155 140
50.85166 155
50.87178 141
50.89189 140
50.912 148
50.93212 158
50.95223 133
50.97234 139
50.99246 165
51.01257 139
51.03269 124
51.0528 127
51.07291 109
51.09303 133
51.11314 120
51.13325 121
51.15337 137
51.17348 114
51.1936 132
51.21371 133
51.23382 139
51.25394 134
51.27405 114
51.29416 108
51.31428 110
51.33439 118
51.3545 113
51.37462 132
51.39473 120
51.41485 109
51.43496 124
51.45507 128
51.47519 114
51.4953 126
51.51541 95
51.53553 104
51.55564 124
51.57576 106
51.59587 128
51.61598 141
51.6361 102
51.65621 118
51.67632 114
51.69644 108
51.71655 101
51.73667 115
51.75678 117
51.77689 108
51.79701 113
51.81712 122
51.83723 113
51.85735 119
51.87746 109
51.89757 119
51.91769 122
51.9378 134
51.95792 96
51.97803 113
51.99814 104
52.01826 130
52.03837 110
52.05848 109
52.0786 107
52.09871 133
52.11883 114
52.13894 108
52.15905 114
52.17917 117
52.19928 106
52.21939 128
52.23951 108
52.25962 104
52.27974 119
52.29985 114
52.31996 100
52.34008 100
52.36019 99
52.3803 101
52.40042 102
52.42053 115
52.44064 102
52.46076 128
52.48087 105
52.50099 121
52.5211 137
52.54121 106
52.56133 103
52.58144 104
52.60155 112
52.62167 112
52.64178 114
52.6619 110
52.68201 118
52.70212 108
52.72224 99
52.74235 116
52.76246 93
52.78258 115
52.80269 98
52.8228 112
52.84292 107
52.86303 114
52.88315 110
52.90326 122
52.92337 140
52.94349 113
52.9636 134
52.98371 128
53.00383 110
53.02394 112
53.04406 114
53.06417 101
53.08428 112
53.1044 122
53.12451 112
53.14462 113
53.16474 98
53.18485 105
53.20497 103
53.22508 120
53.24519 113
53.26531 116
53.28542 141
53.30553 133
53.32565 99
53.34576 131
53.36587 113
53.38599 112
53.4061 110
53.42622 119
53.44633 111
53.46644 115
53.48656 109
53.50667 108
53.52678 120
53.5469 114
53.56701 115
53.58713 108
53.60724 122
53.62735 125
53.64747 121
53.66758 115
53.68769 115
53.70781 107
53.72792 121
53.74804 105
53.76815 105
53.78826 101
53.80838 115
53.82849 116
53.8486 124
53.86872 133
53.88883 114
53.90894 110
53.92906 116
53.94917 107
53.96929 121
53.9894 119
54.00951 131
54.02963 135
54.04974 128
54.06985 122
54.08997 110
54.11008 119
54.1302 128
54.15031 116
54.17042 124
54.19054 135
54.21065 129
54.23076 123
54.25088 136
54.27099 137
54.29111 129
54.31122 114
54.33133 165
54.35145 158
54.37156 157
54.39167 158
54.41179 136
54.4319 159
54.45201 143
54.47213 152
54.49224 182
54.51236 192
54.53247 201
54.55258 222
54.5727 236
54.59281 247
54.61292 262
54.63304 314
54.65315 308
54.67327 367
54.69338 479
54.71349 558
54.73361 674
54.75372 844
54.77383 971
54.79395 1095
54.81406 1216
54.83417 1232
54.85429 1093
54.8744 964
54.89452 890
54.91463 742
54.93474 722
54.95486 696
54.97497 694
54.99508 697
55.0152 568
55.03531 437
55.05543 381
55.07554 296
55.09565 305
55.11577 269
55.13588 329
55.15599 326
55.17611 379
55.19622 424
55.21634 489
55.23645 464
55.25656 572
55.27668 583
55.29679 583
55.3169 522
55.33702 492
55.35713 389
55.37724 358
55.39736 396
55.41747 326
55.43759 337
55.4577 340
55.47781 285
55.49793 210
55.51804 172
55.53815 173
55.55827 170
55.57838 144
55.5985 142
55.61861 128
55.63872 127
55.65884 136
55.67895 133
55.69906 139
55.71918 119
55.73929 122
55.75941 131
55.77952 118
55.79963 109
55.81975 124
55.83986 97
55.85997 100
55.88009 118
55.9002 117
55.92031 106
55.94043 120
55.96054 120
55.98066 106
56.00077 114
56.02088 111
56.041 117
56.06111 114
56.08122 101
56.10134 108
56.12145 95
56.14157 130
56.16168 108
56.18179 100
56.20191 105
56.22202 109
56.24213 100
56.26225 111
56.28236 91
56.30248 90
56.32259 110
56.3427 122
56.36282 96
56.38293 122
56.40304 105
56.42316 114
56.44327 125
56.46338 99
56.4835 113
56.50361 116
56.52373 117
56.54384 117
56.56395 89
56.58407 78
56.60418 102
56.62429 98
56.64441 116
56.66452 106
56.68464 107
56.70475 106
56.72486 106
56.74498 109
56.76509 110
56.7852 117
56.80532 112
56.82543 106
56.84554 122
56.86566 137
56.88577 106
56.90589 100
56.926 118
56.94611 112
56.96623 102
56.98634 128
57.00645 130
57.02657 129
57.04668 137
57.0668 152
57.08691 128
57.10702 161
57.12714 134
57.14725 175
57.16736 136
57.18748 173
57.20759 154
57.22771 137
57.24782 156
57.26793 133
57.28805 136
57.30816 135
57.32827 130
57.34839 159
57.3685 150
57.38861 113
57.40873 127
57.42884 131
57.44896 102
57.46907 121
57.48918 113
57.5093 96
57.52941 105
57.54952 101
57.56964 119
57.58975 103
57.60987 101
57.62998 134
57.65009 110
57.67021 95
57.69032 111
57.71043 110
57.73055 110
57.75066 126
57.77078 113
57.79089 112
57.811 98
57.83112 114
57.85123 118
57.87134 117
57.89146 114
57.91157 134
57.93168 114
57.9518 127
57.97191 119
57.99203 112
58.01214 95
58.03225 132
58.05237 113
58.07248 103
58.09259 108
58.11271 107
58.13282 113
58.15294 124
58.17305 106
58.19316 117
58.21328 122
58.23339 109
58.2535 111
58.27362 112
58.29373 121
58.31385 114
58.33396 102
58.35407 125
58.37419 107
58.3943 126
58.41441 114
58.43453 119
58.45464 114
58.47475 126
58.49487 120
58.51498 109
58.5351 126
58.55521 105
58.57532 150
58.59544 115
58.61555 127
58.63566 106
58.65578 113
58.67589 108
58.69601 112
58.71612 135
58.73623 100
58.75635 121
58.77646 125
58.79657 116
58.81669 124
58.8368 116
58.85691 126
58.87703 102
58.89714 121
58.91726 109
58.93737 114
58.95748 120
58.9776 132
58.99771 113
59.01782 107
59.03794 147
59.05805 117
59.07817 146
59.09828 130
59.11839 133
59.13851 123
59.15862 109
59.17873 135
59.19885 119
59.21896 132
59.23908 142
59.25919 114
59.2793 125
59.29942 137
59.31953 155
59.33964 153
59.35976 158
59.37987 135
59.39998 138
59.4201 143
59.44021 179
59.46033 176
59.48044 216
59.50055 195
59.52067 225
59.54078 250
59.56089 275
59.58101 250
59.60112 289
59.62124 294
59.64135 353
59.66146 368
59.68158 458
59.70169 533
59.7218 610
59.74192 742
59.76203 865
59.78215 1080
59.80226 1257
59.82237 1501
59.84249 1800
59.8626 2066
59.88271 2346
59.90283 2562
59.92294 2441
59.94305 2168
59.96317 1813
59.98328 1431
60.0034 1311
60.02351 1247
60.04362 1293
60.06374 1301
60.08385 1303
60.10396 1111
60.12408 850
60.14419 626
60.16431 443
60.18442 330
60.20453 265
60.22465 220
60.24476 222
60.26487 208
60.28499 203
60.3051 170
60.32522 161
60.34533 163
60.36544 188
60.38556 141
60.40567 166
60.42578 153
60.4459 142
60.46601 138
60.48612 147
60.50624 139
60.52635 124
60.54647 134
60.56658 151
60.58669 124
60.60681 129
60.62692 124
60.64703 133
60.66715 134
60.68726 103
60.70738 114
60.72749 127
60.7476 125
60.76772 136
60.78783 132
60.80794 114
60.82806 112
60.84817 126
60.86828 110
60.8884 109
60.90851 106
60.92863 111
60.94874 106
60.96885 141
60.98897 109
61.00908 125
61.02919 107
61.04931 122
61.06942 114
61.08954 114
61.10965 104
61.12976 127
61.14988 119
61.16999 117
61.1901 115
61.21022 111
61.23033 106
61.25045 105
61.27056 113
61.29067 122
61.31079 107
61.3309 90
61.35101 105
61.37113 105
61.39124 135
61.41135 104
61.43147 116
61.45158 115
61.4717 104
61.49181 124
61.51192 93
61.53204 124
61.55215 111
61.57226 111
61.59238 107
61.61249 92
61.63261 102
61.65272 107
61.67283 100
61.69295 105
61.71306 106
61.73317 116
61.75329 83
61.7734 110
61.79352 92
61.81363 112
61.83374 105
61.85386 109
61.87397 100
61.89408 101
61.9142 100
61.93431 103
61.95442 109
61.97454 120
61.99465 114
62.01477 100
62.03488 116
62.05499 105
62.07511 111
62.09522 111
62.11533 116
62.13545 111
62.15556 105
62.17568 105
62.19579 92
62.2159 90
62.23602 97
62.25613 116
62.27624 102
62.29636 127
62.31647 118
62.33659 88
62.3567 120
62.37681 94
62.39693 110
62.41704 107
62.43715 109
62.45727 93
62.47738 114
62.49749 100
62.51761 119
62.53772 114
62.55784 115
62.57795 110
62.59806 123
62.61818 98
62.63829 110
62.6584 106
62.67852 98
62.69863 90
62.71875 103
62.73886 125
62.75897 101
62.77909 91
62.7992 108
62.81931 101
62.83943 109
62.85954 102
62.87965 104
62.89977 110
62.91988 107
62.94 93
62.96011 94
62.98022 98
63.00034 123
63.02045 106
63.04056 108
63.06068 116
63.08079 93
63.10091 119
63.12102 109
63.14113 102
63.16125 104
63.18136 116
63.20147 109
63.22159 109
63.2417 94
63.26182 122
63.28193 109
63.30204 87
63.32216 98
63.34227 84
63.36238 112
63.3825 94
63.40261 113
63.42272 119
63.44284 98
63.46295 127
63.48307 102
63.50318 102
63.52329 113
63.54341 114
63.56352 112
63.58363 126
63.60375 126
63.62386 137
63.64398 124
63.66409 138
63.6842 112
63.70432 126
63.72443 173
63.74454 145
63.76466 174
63.78477 178
63.80489 203
63.825 218
63.84511 244
63.86523 287
63.88534 291
63.90545 345
63.92557 431
63.94568 452
63.96579 513
63.98591 466
64.00602 482
64.02614 443
64.04625 358
64.06636 325
64.08648 298
64.10659 291
64.1267 267
64.14682 263
64.16693 294
64.18705 302
64.20716 230
64.22727 195
64.24739 149
64.2675 139
64.28761 118
64.30773 148
64.32784 132
64.34796 114
64.36807 91
64.38818 100
64.4083 101
64.42841 104
64.44852 124
64.46864 109
64.48875 92
64.50886 96
64.52898 89
64.54909 101
64.56921 81
64.58932 80
64.60943 105
64.62955 96
64.64966 82
64.66977 100
64.68989 105
64.71 102
64.73012 91
64.75023 112
64.77034 117
64.79046 87
64.81057 112
64.83068 86
64.8508 98
64.87091 106
64.89102 100
64.91114 107
64.93125 117
64.95137 93
64.97148 113
64.99159 104
65.01171 99
65.03182 104
65.05193 91
65.07205 108
65.09216 93
65.11228 103
65.13239 108
65.1525 127
65.17262 109
65.19273 99
65.21284 90
65.23296 97
65.25307 105
65.27319 109
65.2933 111
65.31341 107
65.33353 125
65.35364 116
65.37375 105
65.39387 102
65.41398 102
65.43409 91
65.45421 138
65.47432 139
65.49444 120
65.51455 122
65.53466 128
65.55478 118
65.57489 148
65.595 159
65.61512 148
65.63523 166
65.65535 195
65.67546 186
65.69557 192
65.71569 220
65.7358 211
65.75591 181
65.77603 174
65.79614 160
65.81626 146
65.83637 155
65.85648 151
65.8766 166
65.89671 163
65.91682 158
65.93694 129
65.95705 128
65.97716 127
65.99728 111
66.01739 118
66.03751 132
66.05762 120
66.07773 126
66.09785 111
66.11796 120
66.13807 120
66.15819 113
66.1783 119
66.19842 123
66.21853 117
66.23864 117
66.25876 113
66.27887 109
66.29898 110
66.3191 118
66.33921 118
66.35933 127
66.37944 105
66.39955 124
66.41967 129
66.43978 121
66.45989 131
66.48001 111
66.50012 125
66.52023 120
66.54035 114
66.56046 129
66.58058 100
66.60069 133
66.6208 120
66.64092 107
66.66103 126
66.68114 116
66.70126 108
66.72137 109
66.74149 139
66.7616 133
66.78171 120
66.80183 118
66.82194 123
66.84205 115
66.86217 134
66.88228 117
66.90239 127
66.92251 126
66.94262 142
66.96274 128
66.98285 136
67.00296 139
67.02308 111
67.04319 145
67.0633 135
67.08342 156
67.10353 162
67.12365 153
67.14376 156
67.16387 140
67.18399 135
67.2041 171
67.22421 185
67.24433 170
67.26444 183
67.28456 184
67.30467 178
67.32478 205
67.3449 213
67.36501 245
67.38512 245
67.40524 276
67.42535 272
67.44546 310
67.46558 362
67.48569 372
67.50581 468
67.52592 478
67.54603 608
67.56615 701
67.58626 776
67.60637 950
67.62649 1080
67.6466 1232
67.66672 1326
67.68683 1342
67.70694 1334
67.72706 1269
67.74717 1134
67.76728 917
67.7874 864
67.80751 844
67.82763 933
67.84774 904
67.86785 1045
67.88797 1043
67.90808 1066
67.92819 1039
67.94831 1038
67.96842 1097
67.98853 1120
68.00865 1281
68.02876 1473
68.04888 1595
68.06899 1760
68.0891 1853
68.10922 1850
68.12933 1808
68.14944 1693
68.16956 1542
68.18967 1533
68.20979 1529
68.2299 1600
68.25001 1727
68.27013 1754
68.29024 1647
68.31035 1453
68.33047 1191
68.35058 954
68.3707 823
68.39081 697
68.41092 673
68.43104 648
68.45115 618
68.47126 595
68.49138 536
68.51149 428
68.5316 332
68.55172 280
68.57183 248
68.59195 227
68.61206 208
68.63217 170
68.65229 180
68.6724 168
68.69251 172
68.71263 151
68.73274 156
68.75286 123
68.77297 136
68.79308 152
68.8132 146
68.83331 134
68.85342 142
68.87354 131
68.89365 142
68.91376 118
68.93388 128
68.95399 114
68.97411 150
68.99422 114
69.01433 117
69.03445 112
69.05456 125
69.07467 130
69.09479 108
69.1149 113
69.13502 129
69.15513 110
69.17524 127
69.19536 125
69.21547 108
69.23558 103
69.2557 119
69.27581 117
69.29593 112
69.31604 109
69.33615 92
69.35627 105
69.37638 105
69.39649 124
69.41661 111
69.43672 122
69.45683 91
69.47695 116
69.49706 114
69.51718 106
69.53729 99
69.5574 85
69.57752 118
69.59763 112
69.61774 104
69.63786 111
69.65797 106
69.67809 93
69.6982 94
69.71831 100
69.73843 102
69.75854 109
69.77865 122
69.79877 81
69.81888 102
69.839 105
69.85911 87
69.87922 113
69.89934 94
69.91945 106
69.93956 103
69.95968 106
69.97979 123
69.9999 116
70.02002 98
70.04013 94
70.06025 111
70.08036 102
70.10047 96
70.12059 95
70.1407 80
70.16081 99
70.18093 111
70.20104 96
70.22116 88
70.24127 115
70.26138 98
70.2815 83
70.30161 88
70.32172 101
70.34184 101
70.36195 111
70.38207 94
70.40218 96
70.42229 88
70.44241 123
70.46252 84
70.48263 88
70.50275 96
70.52286 113
70.54297 92
70.56309 118
70.5832 101
70.60332 97
70.62343 94
70.64354 110
70.66366 96
70.68377 97
70.70388 120
70.724 107
70.74411 100
70.76423 84
70.78434 96
70.80445 100
70.82457 87
70.84468 91
70.86479 88
70.88491 85
70.90502 80
70.92513 109
70.94525 87
70.96536 105
70.98548 86
71.00559 91
71.0257 104
71.04582 92
71.06593 80
71.08604 113
71.10616 75
71.12627 98
71.14639 99
71.1665 89
71.18661 108
71.20673 89
71.22684 100
71.24695 81
71.26707 84
71.28718 92
71.3073 99
71.32741 87
71.34752 106
71.36764 106
71.38775 115
71.40786 93
71.42798 112
71.44809 98
71.4682 99
71.48832 104
71.50843 101
71.52855 111
71.54866 99
71.56877 96
71.58889 99
71.609 96
71.62911 82
71.64923 85
71.66934 104
71.68946 101
71.70957 85
71.72968 96
71.7498 87
71.76991 103
71.79002 87
71.81014 110
71.83025 96
71.85037 79
71.87048 91
71.89059 112
71.91071 85
71.93082 76
71.95093 96
71.97105 97
71.99116 89
72.01127 79
72.03139 99
72.0515 91
72.07162 102
72.09173 95
72.11184 89
72.13196 88
72.15207 100
72.17218 72
72.1923 96
72.21241 98
72.23253 99
72.25264 95
72.27275 115
72.29287 86
72.31298 80
72.33309 91
72.35321 93
72.37332 95
72.39344 71
72.41355 98
72.43366 79
72.45378 78
72.47389 80
72.494 88
72.51412 88
72.53423 92
72.55434 93
72.57446 88
72.59457 93
72.61469 101
72.6348 90
72.65491 95
72.67503 104
72.69514 99
72.71525 102
72.73537 101
72.75548 89
72.7756 107
72.79571 96
72.81582 101
72.83594 99
72.85605 98
72.87616 106
72.89628 95
72.91639 103
72.9365 119
72.95662 123
72.97673 136
72.99685 96
73.01696 110
73.03707 124
73.05719 114
73.0773 129
73.09741 124
73.11753 137
73.13764 157
73.15776 161
73.17787 164
73.19798 172
73.2181 197
73.23821 207
73.25832 247
73.27844 266
73.29855 305
73.31867 325
73.33878 396
73.35889 405
73.37901 427
73.39912 474
73.41923 484
73.43935 501
73.45946 427
73.47957 363
73.49969 343
73.5198 263
73.53992 298
73.56003 289
73.58014 290
73.60026 301
73.62037 299
73.64048 322
73.6606 263
73.68071 229
73.70083 170
73.72094 187
73.74105 132
73.76117 126
73.78128 125
73.80139 98
73.82151 122
73.84162 101
73.86174 100
73.88185 101
73.90196 99
73.92208 100
73.94219 96
73.9623 109
73.98242 90
74.00253 94
74.02264 91
74.04276 80
74.06287 111
74.08299 100
74.1031 88
74.12321 92
74.14333 104
74.16344 106
74.18355 72
74.20367 84
74.22378 86
74.2439 85
74.26401 95
74.28412 110
74.30424 92
74.32435 108
74.34446 72
74.36458 100
74.38469 84
74.40481 79
74.42492 84
74.44503 85
74.46515 108
74.48526 101
74.50537 89
74.52549 99
74.5456 88
74.56571 104
74.58583 90
74.60594 98
74.62606 110
74.64617 92
74.66628 98
74.6864 85
74.70651 86
74.72662 101
74.74674 117
74.76685 94
74.78697 97
74.80708 94
74.82719 92
74.84731 118
74.86742 108
74.88753 99
74.90765 109
74.92776 92
74.94787 82
74.96799 115
74.9881 90
75.00822 97
