3.00117 20024
3.02128 19496
3.0414 18742
3.06151 18666
3.08162 17832
3.10174 17564
3.12185 16923
3.14197 16362
3.16208 16173
3.18219 15305
3.20231 15117
3.22242 14425
3.24253 14200
3.26265 13898
3.28276 13249
3.30288 12876
3.32299 12363
3.3431 11804
3.36322 11693
3.38333 11005
3.40344 10818
3.42356 10502
3.44367 10099
3.46379 9977
3.4839 9332
3.50401 9231
3.52413 8569
3.54424 8362
3.56435 8311
3.58447 7723
3.60458 7591
3.62469 7309
3.64481 6897
3.66492 6731
3.68504 6241
3.70515 6205
3.72526 5843
3.74538 5722
3.76549 5488
3.7856 5122
3.80572 5085
3.82583 4700
3.84595 4520
3.86606 4568
3.88617 4209
3.90629 4187
3.9264 3842
3.94651 3792
3.96663 3521
3.98674 3210
4.00686 3178
4.02697 3012
4.04708 2912
4.0672 2937
4.08731 2627
4.10742 2655
4.12754 2466
4.14765 2369
4.16776 2286
4.18788 1989
4.20799 2093
4.22811 1947
4.24822 1928
4.26833 1932
4.28845 1751
4.30856 1751
4.32867 1694
4.34879 1633
4.3689 1626
4.38902 1489
4.40913 1469
4.42924 1527
4.44936 1393
4.46947 1340
4.48958 1213
4.5097 1234
4.52981 1247
4.54992 1229
4.57004 1198
4.59015 1090
4.61027 1098
4.63038 1131
4.65049 1056
4.67061 1102
4.69072 950
4.71083 985
4.73095 909
4.75106 911
4.77118 977
4.79129 811
4.8114 831
4.83152 826
4.85163 833
4.87174 842
4.89186 779
4.91197 780
4.93209 742
4.9522 755
4.97231 742
4.99243 691
5.01254 655
5.03265 638
5.05277 627
5.07288 654
5.09299 617
5.11311 552
5.13322 570
5.15334 535
5.17345 575
5.19356 487
5.21368 491
5.23379 528
5.2539 508
5.27402 493
5.29413 453
5.31425 440
5.33436 430
5.35447 456
5.37459 423
5.3947 405
5.41481 414
5.43493 387
5.45504 404
5.47516 378
5.49527 365
5.51538 342
5.5355 305
5.55561 346
5.57572 320
5.59584 369
5.61595 312
5.63606 294
5.65618 319
5.67629 294
5.69641 297
5.71652 280
5.73663 285
5.75675 292
5.77686 256
5.79697 304
5.81709 249
5.8372 274
5.85732 270
5.87743 260
5.89754 244
5.91766 208
5.93777 226
5.95788 261
5.978 244
5.99811 230
6.01823 227
6.03834 260
6.05845 248
6.07857 249
6.09868 217
6.11879 204
6.13891 193
6.15902 187
6.17913 244
6.19925 182
6.21936 187
6.23948 192
6.25959 221
6.2797 202
6.29982 172
6.31993 199
6.34004 211
6.36016 205
6.38027 198
6.40039 165
6.4205 188
6.44061 192
6.46073 192
6.48084 208
6.50095 201
6.52107 177
6.54118 204
6.56129 178
6.58141 213
6.60152 202
6.62164 210
6.64175 188
6.66186 190
6.68198 155
6.70209 163
6.7222 191
6.74232 166
6.76243 179
6.78255 181
6.80266 179
6.82277 206
6.84289 166
6.863 180
6.88311 192
6.90323 173
6.92334 181
6.94346 185
6.96357 200
6.98368 203
7.0038 182
7.02391 183
7.04402 177
7.06414 198
7.08425 185
7.10436 179
7.12448 191
7.14459 185
7.16471 161
7.18482 180
7.20493 183
7.22505 161
7.24516 207
7.26527 172
7.28539 189
7.3055 187
7.32562 180
7.34573 188
7.36584 189
7.38596 181
7.40607 170
7.42618 168
7.4463 198
7.46641 195
7.48653 207
7.50664 177
7.52675 191
7.54687 178
7.56698 194
7.58709 188
7.60721 175
7.62732 215
7.64743 178
7.66755 185
7.68766 190
7.70778 211
7.72789 188
7.748 213
7.76812 167
7.78823 221
7.80834 186
7.82846 210
7.84857 188
7.86869 154
7.8888 192
7.90891 193
7.92903 209
7.94914 214
7.96925 207
7.98937 210
8.00948 200
8.0296 174
8.04971 208
8.06982 175
8.08994 211
8.11005 192
8.13016 211
8.15028 217
8.17039 186
8.1905 212
8.21062 233
8.23073 210
8.25085 195
8.27096 207
8.29107 203
8.31119 197
8.3313 207
8.35141 225
8.37153 238
8.39164 193
8.41176 222
8.43187 192
8.45198 224
8.4721 215
8.49221 212
8.51232 193
8.53244 248
8.55255 229
8.57266 227
8.59278 195
8.61289 224
8.63301 203
8.65312 213
8.67323 221
8.69335 224
8.71346 211
8.73357 195
8.75369 213
8.7738 199
8.79392 193
8.81403 201
8.83414 188
8.85426 234
8.87437 223
8.89448 237
8.9146 222
8.93471 206
8.95483 204
8.97494 212
8.99505 251
9.01517 229
9.03528 222
9.05539 228
9.07551 226
9.09562 232
9.11573 234
9.13585 229
9.15596 214
9.17608 240
9.19619 244
9.2163 197
9.23642 236
9.25653 214
9.27664 192
9.29676 221
9.31687 226
9.33699 211
9.3571 220
9.37721 196
9.39733 219
9.41744 225
9.43755 222
9.45767 203
9.47778 234
9.4979 189
9.51801 201
9.53812 216
9.55824 228
9.57835 207
9.59846 252
9.61858 213
9.63869 202
9.6588 207
9.67892 226
9.69903 227
9.71915 202
9.73926 202
9.75937 180
9.77949 213
9.7996 222
9.81971 247
9.83983 233
9.85994 208
9.88006 234
9.90017 213
9.92028 229
9.9404 245
9.96051 221
9.98062 239
10.00074 226
10.02085 231
10.04097 221
10.06108 212
10.08119 235
10.10131 200
10.12142 235
10.14153 215
10.16165 231
10.18176 202
10.20187 225
10.22199 211
10.2421 217
10.26222 206
10.28233 242
10.30244 191
10.32256 223
10.34267 223
10.36278 209
10.3829 242
10.40301 226
10.42313 220
10.44324 228
10.46335 221
10.48347 231
10.50358 245
10.52369 217
10.54381 214
10.56392 212
10.58403 196
10.60415 237
10.62426 232
10.64438 221
10.66449 214
10.6846 232
10.70472 199
10.72483 209
10.74494 226
10.76506 226
10.78517 213
10.80529 210
10.8254 230
10.84551 209
10.86563 247
10.88574 190
10.90585 231
10.92597 230
10.94608 247
10.9662 222
10.98631 221
11.00642 239
11.02654 215
11.04665 245
11.06676 213
11.08688 235
11.10699 237
11.1271 219
11.14722 222
11.16733 185
11.18745 204
11.20756 257
11.22767 233
11.24779 214
11.2679 194
11.28801 207
11.30813 242
11.32824 182
11.34836 211
11.36847 210
11.38858 212
11.4087 236
11.42881 234
11.44892 234
11.46904 228
11.48915 243
11.50927 239
11.52938 214
11.54949 228
11.56961 218
11.58972 236
11.60983 251
11.62995 234
11.65006 232
11.67017 212
11.69029 244
11.7104 247
11.73052 235
11.75063 225
11.77074 226
11.79086 254
11.81097 269
11.83108 240
11.8512 253
11.87131 226
11.89143 267
11.91154 280
11.93165 264
11.95177 270
11.97188 281
11.99199 269
12.01211 307
12.03222 293
12.05234 280
12.07245 343
12.09256 339
12.11268 311
12.13279 324
12.1529 353
12.17302 363
12.19313 359
12.21324 377
12.23336 348
12.25347 366
12.27359 383
12.2937 386
12.31381 345
12.33393 394
12.35404 389
12.37415 361
12.39427 351
12.41438 314
12.4345 320
12.45461 308
12.47472 286
12.49484 290
12.51495 325
12.53506 280
12.55518 256
12.57529 275
12.5954 257
12.61552 261
12.63563 238
12.65575 237
12.67586 236
12.69597 227
12.71609 246
12.7362 239
12.75631 225
12.77643 232
12.79654 230
12.81666 217
12.83677 194
12.85688 207
12.877 205
12.89711 242
12.91722 231
12.93734 208
12.95745 212
12.97757 209
12.99768 243
13.01779 208
13.03791 225
13.05802 226
13.07813 232
13.09825 220
13.11836 205
13.13847 189
13.15859 237
13.1787 206
13.19882 197
13.21893 220
13.23904 192
13.25916 193
13.27927 203
13.29938 222
13.3195 214
13.33961 204
13.35973 219
13.37984 222
13.39995 222
13.42007 214
13.44018 199
13.46029 190
13.48041 223
13.50052 181
13.52064 180
13.54075 215
13.56086 214
13.58098 202
13.60109 217
13.6212 168
13.64132 193
13.66143 229
13.68154 206
13.70166 153
13.72177 188
13.74189 180
13.762 190
13.78211 203
13.80223 172
13.82234 216
13.84245 212
13.86257 191
13.88268 188
13.9028 169
13.92291 196
13.94302 210
13.96314 210
13.98325 198
14.00336 184
14.02348 177
14.04359 200
14.06371 197
14.08382 185
14.10393 181
14.12405 205
14.14416 187
14.16427 193
14.18439 185
14.2045 177
14.22461 191
14.24473 188
14.26484 202
14.28496 181
14.30507 195
14.32518 178
14.3453 214
14.36541 168
14.38552 209
14.40564 208
14.42575 183
14.44587 212
14.46598 205
14.48609 185
14.50621 184
14.52632 180
14.54643 183
14.56655 196
14.58666 202
14.60677 166
14.62689 177
14.647 200
14.66712 198
14.68723 186
14.70734 192
14.72746 177
14.74757 191
14.76768 181
14.7878 181
14.80791 196
14.82803 171
14.84814 197
14.86825 202
14.88837 184
14.90848 162
14.92859 161
14.94871 174
14.96882 167
14.98894 173
15.00905 183
15.02916 205
15.04928 176
15.06939 191
15.0895 168
15.10962 178
15.12973 199
15.14984 159
15.16996 205
15.19007 178
15.21019 155
15.2303 194
15.25041 181
15.27053 180
15.29064 177
15.31075 168
15.33087 173
15.35098 196
15.3711 188
15.39121 163
15.41132 154
15.43144 157
15.45155 184
15.47166 196
15.49178 154
15.51189 183
15.53201 186
15.55212 162
15.57223 168
15.59235 176
15.61246 181
15.63257 175
15.65269 185
15.6728 184
15.69291 172
15.71303 164
15.73314 176
15.75326 181
15.77337 173
15.79348 199
15.8136 184
15.83371 205
15.85382 174
15.87394 174
15.89405 192
15.91417 168
15.93428 210
15.95439 200
15.97451 202
15.99462 203
16.01473 164
16.03485 181
16.05496 156
16.07508 142
16.09519 181
16.1153 153
16.13542 188
16.15553 186
16.17564 148
16.19576 167
16.21587 174
16.23598 189
16.2561 168
16.27621 179
16.29633 169
16.31644 159
16.33655 182
16.35667 154
16.37678 167
16.39689 172
16.41701 174
16.43712 185
16.45724 176
16.47735 188
16.49746 165
16.51758 182
16.53769 200
16.5578 199
16.57792 185
16.59803 169
16.61814 198
16.63826 175
16.65837 167
16.67849 175
16.6986 151
16.71871 197
16.73883 143
16.75894 172
16.77905 174
16.79917 177
16.81928 216
16.8394 168
16.85951 175
16.87962 171
16.89974 147
16.91985 149
16.93996 179
16.96008 196
16.98019 173
17.00031 162
17.02042 169
17.04053 164
17.06065 148
17.08076 182
17.10087 171
17.12099 161
17.1411 149
17.16121 155
17.18133 169
17.20144 150
17.22156 169
17.24167 159
17.26178 168
17.2819 169
17.30201 173
17.32212 161
17.34224 175
17.36235 192
17.38247 142
17.40258 177
17.42269 176
17.44281 174
17.46292 185
17.48303 161
17.50315 172
17.52326 164
17.54338 168
17.56349 153
17.5836 166
17.60372 137
17.62383 155
17.64394 165
17.66406 167
17.68417 184
17.70428 190
17.7244 166
17.74451 173
17.76463 171
17.78474 156
17.80485 135
17.82497 167
17.84508 182
17.86519 169
17.88531 141
17.90542 166
17.92554 153
17.94565 173
17.96576 177
17.98588 189
18.00599 186
18.0261 173
18.04622 169
18.06633 156
18.08645 171
18.10656 177
18.12667 161
18.14679 147
18.1669 168
18.18701 162
18.20713 182
18.22724 150
18.24735 163
18.26747 135
18.28758 160
18.3077 143
18.32781 175
18.34792 161
18.36804 187
18.38815 177
18.40826 178
18.42838 183
18.44849 155
18.46861 188
18.48872 158
18.50883 153
18.52895 169
18.54906 156
18.56917 182
18.58929 190
18.6094 144
18.62951 143
18.64963 187
18.66974 152
18.68986 168
18.70997 164
18.73008 157
18.7502 180
18.77031 212
18.79042 165
18.81054 168
18.83065 182
18.85077 163
18.87088 151
18.89099 178
18.91111 161
18.93122 168
18.95133 159
18.97145 163
18.99156 148
19.01168 162
19.03179 170
19.0519 177
19.07202 178
19.09213 174
19.11224 177
19.13236 163
19.15247 171
19.17258 178
19.1927 157
19.21281 186
19.23293 188
19.25304 158
19.27315 156
19.29327 174
19.31338 161
19.33349 162
19.35361 159
19.37372 190
19.39384 171
19.41395 172
19.43406 183
19.45418 189
19.47429 165
19.4944 194
19.51452 182
19.53463 171
19.55475 196
19.57486 192
19.59497 214
19.61509 195
19.6352 207
19.65531 198
19.67543 221
19.69554 238
19.71565 229
19.73577 244
19.75588 241
19.776 257
19.79611 307
19.81622 269
19.83634 280
19.85645 285
19.87656 325
19.89668 305
19.91679 326
19.93691 325
19.95702 291
19.97713 318
19.99725 308
20.01736 297
20.03747 310
20.05759 346
20.0777 327
20.09782 312
20.11793 335
20.13804 332
20.15816 350
20.17827 316
20.19838 356
20.2185 339
20.23861 344
20.25872 333
20.27884 392
20.29895 369
20.31907 337
20.33918 356
20.35929 365
20.37941 377
20.39952 409
20.41963 431
20.43975 456
20.45986 405
20.47998 459
20.50009 450
20.5202 455
20.54032 535
20.56043 520
20.58054 594
20.60066 699
20.62077 789
20.64088 1001
20.661 1209
20.68111 1648
20.70123 2151
20.72134 3023
20.74145 3748
20.76157 5019
20.78168 6154
20.80179 7182
20.82191 7700
20.84202 7340
20.86214 6461
20.88225 5195
20.90236 3782
20.92248 2559
20.94259 1578
20.9627 1012
20.98282 768
21.00293 625
21.02305 586
21.04316 544
21.06327 508
21.08339 487
21.1035 469
21.12361 461
21.14373 384
21.16384 382
21.18395 381
21.20407 336
21.22418 391
21.2443 339
21.26441 328
21.28452 312
21.30464 386
21.32475 345
21.34486 314
21.36498 300
21.38509 308
21.40521 331
21.42532 339
21.44543 323
21.46555 294
21.48566 276
21.50577 294
21.52589 283
21.546 276
21.56612 260
21.58623 263
21.60634 280
21.62646 288
21.64657 237
21.66668 256
21.6868 253
21.70691 256
21.72702 263
21.74714 270
21.76725 255
21.78737 307
21.80748 263
21.82759 232
21.84771 246
21.86782 208
21.88793 255
21.90805 228
21.92816 233
21.94828 237
21.96839 272
21.9885 267
22.00862 237
22.02873 230
22.04884 243
22.06896 221
22.08907 248
22.10919 217
22.1293 235
22.14941 241
22.16953 215
22.18964 213
22.20975 218
22.22987 207
22.24998 230
22.27009 228
22.29021 232
22.31032 220
22.33044 226
22.35055 228
22.37066 237
22.39078 231
22.41089 216
22.431 177
22.45112 244
22.47123 225
22.49135 228
22.51146 198
22.53157 211
22.55169 197
22.5718 206
22.59191 198
22.61203 204
22.63214 232
22.65225 211
22.67237 241
22.69248 210
22.7126 214
22.73271 220
22.75282 219
22.77294 238
22.79305 214
22.81316 196
22.83328 218
22.85339 224
22.87351 204
22.89362 227
22.91373 233
22.93385 222
22.95396 220
22.97407 234
22.99419 227
23.0143 205
23.03442 206
23.05453 222
23.07464 206
23.09476 200
23.11487 224
23.13498 196
23.1551 215
23.17521 215
23.19532 205
23.21544 187
23.23555 238
23.25567 200
23.27578 187
23.29589 224
23.31601 221
23.33612 205
23.35623 241
23.37635 224
23.39646 196
23.41658 236
23.43669 201
23.4568 186
23.47692 220
23.49703 190
23.51714 223
23.53726 226
23.55737 238
23.57749 176
23.5976 209
23.61771 205
23.63783 224
23.65794 213
23.67805 220
23.69817 201
23.71828 217
23.73839 225
23.75851 230
23.77862 244
23.79874 197
23.81885 213
23.83896 240
23.85908 241
23.87919 261
23.8993 256
23.91942 291
23.93953 261
23.95965 316
23.97976 268
23.99987 283
24.01999 284
24.0401 278
24.06021 238
24.08033 230
24.10044 234
24.12056 225
24.14067 209
24.16078 200
24.1809 220
24.20101 227
24.22112 250
24.24124 220
24.26135 217
24.28146 230
24.30158 247
24.32169 232
24.34181 240
24.36192 222
24.38203 223
24.40215 226
24.42226 245
24.44237 256
24.46249 241
24.4826 248
24.50272 247
24.52283 251
24.54294 256
24.56306 282
24.58317 240
24.60328 268
24.6234 305
24.64351 271
24.66362 318
24.68374 307
24.70385 309
24.72397 297
24.74408 307
24.76419 312
24.78431 312
24.80442 341
24.82453 320
24.84465 327
24.86476 289
24.88488 299
24.90499 307
24.9251 302
24.94522 278
24.96533 251
24.98544 234
25.00556 255
25.02567 253
25.04579 244
25.0659 245
25.08601 240
25.10613 232
25.12624 228
25.14635 275
25.16647 276
25.18658 248
25.20669 236
25.22681 271
25.24692 249
25.26704 242
25.28715 253
25.30726 251
25.32738 257
25.34749 279
25.3676 224
25.38772 259
25.40783 252
25.42795 265
25.44806 234
25.46817 232
25.48829 227
25.5084 264
25.52851 271
25.54863 258
25.56874 248
25.58886 286
25.60897 317
25.62908 339
25.6492 343
25.66931 381
25.68942 395
25.70954 376
25.72965 416
25.74976 436
25.76988 484
25.78999 435
25.81011 468
25.83022 515
25.85033 495
25.87045 487
25.89056 478
25.91067 509
25.93079 585
25.9509 554
25.97102 562
25.99113 559
26.01124 561
26.03136 592
26.05147 709
26.07158 688
26.0917 693
26.11181 723
26.13193 802
26.15204 850
26.17215 863
26.19227 1038
26.21238 1101
26.23249 1168
26.25261 1251
26.27272 1434
26.29283 1471
26.31295 1729
26.33306 1959
26.35318 2240
26.37329 2744
26.3934 3364
26.41352 4469
26.43363 5731
26.45374 7805
26.47386 10194
26.49397 13445
26.51409 17762
26.5342 22424
26.55431 27774
26.57443 31730
26.59454 34056
26.61465 33297
26.63477 30276
26.65488 24908
26.67499 19105
26.69511 14093
26.71522 9577
26.73534 6176
26.75545 3894
26.77556 2654
26.79568 2008
26.81579 1713
26.8359 1538
26.85602 1378
26.87613 1243
26.89625 1166
26.91636 1033
26.93647 927
26.95659 821
26.9767 810
26.99681 740
27.01693 665
27.03704 590
27.05716 578
27.07727 599
27.09738 532
27.1175 519
27.13761 484
27.15772 494
27.17784 464
27.19795 484
27.21806 445
27.23818 416
27.25829 408
27.27841 392
27.29852 420
27.31863 406
27.33875 377
27.35886 403
27.37897 372
27.39909 385
27.4192 375
27.43932 383
27.45943 332
27.47954 354
27.49966 351
27.51977 338
27.53988 346
27.56 337
27.58011 309
27.60023 307
27.62034 366
27.64045 326
27.66057 292
27.68068 323
27.70079 321
27.72091 314
27.74102 283
27.76113 303
27.78125 320
27.80136 274
27.82148 317
27.84159 294
27.8617 253
27.88182 279
27.90193 277
27.92204 275
27.94216 300
27.96227 295
27.98239 276
28.0025 274
28.02261 269
28.04273 286
28.06284 273
28.08295 240
28.10307 263
28.12318 252
28.1433 264
28.16341 250
28.18352 260
28.20364 253
28.22375 271
28.24386 235
28.26398 245
28.28409 233
28.3042 259
28.32432 221
28.34443 250
28.36455 252
28.38466 254
28.40477 265
28.42489 260
28.445 261
28.46511 243
28.48523 225
28.50534 284
28.52546 252
28.54557 250
28.56568 246
28.5858 238
28.60591 231
28.62602 246
28.64614 237
28.66625 241
28.68636 252
28.70648 240
28.72659 228
28.74671 254
28.76682 246
28.78693 241
28.80705 233
28.82716 206
28.84727 222
28.86739 232
28.8875 249
28.90762 217
28.92773 238
28.94784 232
28.96796 246
28.98807 226
29.00818 224
29.0283 201
29.04841 222
29.06853 254
29.08864 231
29.10875 245
29.12887 198
29.14898 225
29.16909 220
29.18921 217
29.20932 223
29.22943 220
29.24955 206
29.26966 197
29.28978 231
29.30989 208
29.33 205
29.35012 210
29.37023 244
29.39034 217
29.41046 213
29.43057 235
29.45069 212
29.4708 223
29.49091 235
29.51103 186
29.53114 214
29.55125 208
29.57137 205
29.59148 203
29.6116 187
29.63171 201
29.65182 222
29.67194 204
29.69205 219
29.71216 219
29.73228 220
29.75239 190
29.7725 197
29.79262 206
29.81273 213
29.83285 201
29.85296 211
29.87307 228
29.89319 200
29.9133 194
29.93341 209
29.95353 184
29.97364 210
29.99376 189
30.01387 200
30.03398 204
30.0541 201
30.07421 208
30.09432 171
30.11444 176
30.13455 201
30.15467 179
30.17478 187
30.19489 190
30.21501 198
30.23512 178
30.25523 228
30.27535 182
30.29546 237
30.31557 173
30.33569 203
30.3558 212
30.37592 204
30.39603 202
30.41614 203
30.43626 184
30.45637 184
30.47648 185
30.4966 183
30.51671 173
30.53683 184
30.55694 188
30.57705 172
30.59717 191
30.61728 216
30.63739 195
30.65751 184
30.67762 191
30.69773 191
30.71785 185
30.73796 201
30.75808 189
30.77819 228
30.7983 201
30.81842 191
30.83853 201
30.85864 166
30.87876 190
30.89887 191
30.91899 184
30.9391 167
30.95921 187
30.97933 210
30.99944 159
31.01955 170
31.03967 198
31.05978 186
31.0799 193
31.10001 179
31.12012 199
31.14024 188
31.16035 168
31.18046 177
31.20058 182
31.22069 171
31.2408 192
31.26092 177
31.28103 178
31.30115 167
31.32126 180
31.34137 191
31.36149 171
31.3816 164
31.40171 151
31.42183 161
31.44194 173
31.46206 169
31.48217 193
31.50228 186
31.5224 166
31.54251 191
31.56262 178
31.58274 186
31.60285 171
31.62297 190
31.64308 183
31.66319 173
31.68331 187
31.70342 159
31.72353 138
31.74365 181
31.76376 185
31.78387 160
31.80399 188
31.8241 164
31.84422 163
31.86433 176
31.88444 159
31.90456 160
31.92467 175
31.94478 157
31.9649 164
31.98501 183
32.00513 172
32.02524 164
32.04535 169
32.06547 168
32.08558 181
32.10569 185
32.12581 163
32.14592 155
32.16604 177
32.18615 177
32.20626 179
32.22638 165
32.24649 163
32.2666 161
32.28672 174
32.30683 172
32.32694 205
32.34706 156
32.36717 170
32.38729 177
32.4074 183
32.42751 159
32.44763 148
32.46774 186
32.48785 173
32.50797 176
32.52808 171
32.5482 181
32.56831 178
32.58842 179
32.60854 166
32.62865 157
32.64876 171
32.66888 168
32.68899 142
32.7091 164
32.72922 172
32.74933 175
32.76945 170
32.78956 185
32.80967 174
32.82979 163
32.8499 158
32.87001 165
32.89013 150
32.91024 170
32.93036 155
32.95047 170
32.97058 188
32.9907 178
33.01081 151
33.03092 184
33.05104 161
33.07115 159
33.09127 171
33.11138 158
33.13149 167
33.15161 161
33.17172 163
33.19183 179
33.21195 143
33.23206 170
33.25217 192
33.27229 165
33.2924 169
33.31252 141
33.33263 202
33.35274 152
33.37286 138
33.39297 136
33.41308 164
33.4332 159
33.45331 145
33.47343 162
33.49354 160
33.51365 157
33.53377 146
33.55388 141
33.57399 155
33.59411 131
33.61422 186
33.63434 149
33.65445 145
33.67456 141
33.69468 150
33.71479 165
33.7349 138
33.75502 147
33.77513 153
33.79524 146
33.81536 162
33.83547 137
33.85559 141
33.8757 175
33.89581 144
33.91593 161
33.93604 162
33.95615 172
33.97627 156
33.99638 136
34.0165 128
34.03661 154
34.05672 151
34.07684 140
34.09695 119
34.11706 164
34.13718 141
34.15729 147
34.17741 157
34.19752 147
34.21763 155
34.23775 158
34.25786 156
34.27797 140
34.29809 170
34.3182 151
34.33831 136
34.35843 133
34.37854 148
34.39866 137
34.41877 174
34.43888 164
34.459 146
34.47911 139
34.49922 148
34.51934 153
34.53945 157
34.55957 148
34.57968 159
34.59979 162
34.61991 136
34.64002 155
34.66013 163
34.68025 173
34.70036 178
34.72047 170
34.74059 188
34.7607 197
34.78082 155
34.80093 197
34.82104 201
34.84116 192
34.86127 198
34.88138 200
34.9015 204
34.92161 218
34.94173 205
34.96184 182
34.98195 202
35.00207 202
35.02218 191
35.04229 208
35.06241 197
35.08252 202
35.10264 160
35.12275 200
35.14286 185
35.16298 197
35.18309 208
35.2032 198
35.22332 191
35.24343 184
35.26354 185
35.28366 194
35.30377 187
35.32389 184
35.344 197
35.36411 205
35.38423 194
35.40434 210
35.42445 205
35.44457 196
35.46468 200
35.4848 195
35.50491 212
35.52502 212
35.54514 205
35.56525 202
35.58536 210
35.60548 179
35.62559 214
35.64571 203
35.66582 191
35.68593 230
35.70605 197
35.72616 214
35.74627 225
35.76639 207
35.7865 222
35.80661 207
35.82673 194
35.84684 217
35.86696 209
35.88707 209
35.90718 209
35.9273 229
35.94741 212
35.96752 221
35.98764 188
36.00775 256
36.02787 268
36.04798 256
36.06809 275
36.08821 237
36.10832 276
36.12843 278
36.14855 283
36.16866 294
36.18878 285
36.20889 325
36.229 367
36.24912 381
36.26923 415
36.28934 464
36.30946 584
36.32957 660
36.34968 783
36.3698 969
36.38991 1196
36.41003 1469
36.43014 1718
36.45025 2004
36.47037 2198
36.49048 2227
36.51059 2209
36.53071 2108
36.55082 1843
36.57094 1521
36.59105 1315
36.61116 1036
36.63128 809
36.65139 663
36.6715 481
36.69162 383
36.71173 362
36.73184 277
36.75196 322
36.77207 280
36.79219 253
36.8123 255
36.83241 245
36.85253 226
36.87264 230
36.89275 231
36.91287 240
36.93298 216
36.9531 193
36.97321 203
36.99332 215
37.01344 200
37.03355 187
37.05366 196
37.07378 189
37.09389 186
37.11401 180
37.13412 163
37.15423 204
37.17435 213
37.19446 191
37.21457 173
37.23469 192
37.2548 188
37.27491 191
37.29503 206
37.31514 183
37.33526 170
37.35537 185
37.37548 200
37.3956 203
37.41571 166
37.43582 173
37.45594 187
37.47605 179
37.49617 186
37.51628 182
37.53639 167
37.55651 183
37.57662 216
37.59673 213
37.61685 202
37.63696 186
37.65708 202
37.67719 202
37.6973 193
37.71742 173
37.73753 154
37.75764 195
37.77776 222
37.79787 187
37.81798 181
37.8381 178
37.85821 189
37.87833 153
37.89844 190
37.91855 173
37.93867 178
37.95878 207
37.97889 162
37.99901 179
38.01912 192
38.03924 185
38.05935 201
38.07946 190
38.09958 191
38.11969 202
38.1398 208
38.15992 184
38.18003 171
38.20015 206
38.22026 181
38.24037 192
38.26049 213
38.2806 235
38.30071 171
38.32083 205
38.34094 204
38.36105 212
38.38117 213
38.40128 228
38.4214 193
38.44151 220
38.46162 195
38.48174 224
38.50185 208
38.52196 200
38.54208 193
38.56219 200
38.58231 204
38.60242 193
38.62253 203
38.64265 222
38.66276 223
38.68287 212
38.70299 220
38.7231 226
38.74321 214
38.76333 182
38.78344 185
38.80356 193
38.82367 199
38.84378 193
38.8639 223
38.88401 226
38.90412 200
38.92424 193
38.94435 229
38.96447 238
38.98458 242
39.00469 247
39.02481 242
39.04492 230
39.06503 259
39.08515 299
39.10526 283
39.12538 331
39.14549 311
39.1656 336
39.18572 408
39.20583 476
39.22594 510
39.24606 622
39.26617 774
39.28628 920
39.3064 1012
39.32651 1339
39.34663 1588
39.36674 1843
39.38685 2063
39.40697 2187
39.42708 2222
39.44719 1959
39.46731 1701
39.48742 1502
39.50754 1256
39.52765 1099
39.54776 974
39.56788 799
39.58799 551
39.6081 405
39.62822 320
39.64833 288
39.66845 287
39.68856 276
39.70867 232
39.72879 254
39.7489 265
39.76901 253
39.78913 234
39.80924 219
39.82935 220
39.84947 262
39.86958 200
39.8897 243
39.90981 261
39.92992 230
39.95004 251
39.97015 281
39.99026 289
40.01038 282
40.03049 321
40.05061 369
40.07072 392
40.09083 456
40.11095 494
40.13106 615
40.15117 739
40.17129 854
40.1914 991
40.21152 1117
40.23163 1150
40.25174 1043
40.27186 1024
40.29197 909
40.31208 761
40.3322 659
40.35231 589
40.37242 563
40.39254 403
40.41265 383
40.43277 276
40.45288 233
40.47299 213
40.49311 233
40.51322 215
40.53333 197
40.55345 199
40.57356 173
40.59368 224
40.61379 183
40.6339 169
40.65402 154
40.67413 190
40.69424 163
40.71436 170
40.73447 156
40.75458 161
40.7747 182
40.79481 185
40.81493 186
40.83504 170
40.85515 188
40.87527 178
40.89538 185
40.91549 171
40.93561 194
40.95572 162
40.97584 182
40.99595 180
41.01606 175
41.03618 170
41.05629 180
41.0764 179
41.09652 196
41.11663 174
41.13675 167
41.15686 160
41.17697 182
41.19709 175
41.2172 178
41.23731 175
41.25743 166
41.27754 164
41.29765 155
41.31777 185
41.33788 163
41.358 160
41.37811 166
41.39822 177
41.41834 189
41.43845 180
41.45856 183
41.47868 199
41.49879 188
41.51891 174
41.53902 191
41.55913 169
41.57925 174
41.59936 159
41.61947 173
41.63959 173
41.6597 183
41.67982 167
41.69993 168
41.72004 162
41.74016 178
41.76027 183
41.78038 162
41.8005 162
41.82061 157
41.84072 200
41.86084 166
41.88095 178
41.90107 170
41.92118 177
41.94129 196
41.96141 191
41.98152 183
42.00163 221
42.02175 206
42.04186 238
42.06198 224
42.08209 240
42.1022 254
42.12232 265
42.14243 331
42.16254 349
42.18266 349
42.20277 417
42.22289 472
42.243 529
42.26311 721
42.28323 747
42.30334 905
42.32345 1120
42.34357 1266
42.36368 1410
42.38379 1667
42.40391 1535
42.42402 1524
42.44414 1334
42.46425 1149
42.48436 1029
42.50448 910
42.52459 776
42.5447 686
42.56482 509
42.58493 384
42.60505 291
42.62516 265
42.64527 259
42.66539 226
42.6855 205
42.70561 196
42.72573 188
42.74584 182
42.76595 195
42.78607 199
42.80618 166
42.8263 157
42.84641 174
42.86652 153
42.88664 155
42.90675 155
42.92686 167
42.94698 176
42.96709 166
42.98721 162
43.00732 160
43.02743 169
43.04755 137
43.06766 163
43.08777 175
43.10789 163
43.128 156
43.14812 158
43.16823 162
43.18834 138
43.20846 158
43.22857 155
43.24868 147
43.2688 170
43.28891 137
43.30902 151
43.32914 141
43.34925 131
43.36937 172
43.38948 133
43.40959 139
43.42971 158
43.44982 161
43.46993 143
43.49005 161
43.51016 142
43.53028 143
43.55039 156
43.5705 148
43.59062 160
43.61073 153
43.63084 154
43.65096 136
43.67107 156
43.69119 151
43.7113 159
43.73141 155
43.75153 151
43.77164 158
43.79175 129
43.81187 135
43.83198 134
43.85209 150
43.87221 136
43.89232 139
43.91244 155
43.93255 141
43.95266 137
43.97278 152
43.99289 183
44.013 145
44.03312 131
44.05323 156
44.07335 149
44.09346 131
44.11357 164
44.13369 136
44.1538 161
44.17391 163
44.19403 170
44.21414 159
44.23426 149
44.25437 158
44.27448 158
44.2946 153
44.31471 150
44.33482 138
44.35494 149
44.37505 165
44.39516 151
44.41528 145
44.43539 146
44.45551 162
44.47562 118
44.49573 147
44.51585 148
44.53596 116
44.55607 140
44.57619 149
44.5963 144
44.61642 126
44.63653 141
44.65664 146
44.67676 167
44.69687 155
44.71698 150
44.7371 153
44.75721 160
44.77732 145
44.79744 171
44.81755 177
44.83767 145
44.85778 181
44.87789 159
44.89801 146
44.91812 156
44.93823 148
44.95835 172
44.97846 165
44.99858 174
45.01869 169
45.0388 152
45.05892 159
45.07903 155
45.09914 136
45.11926 163
45.13937 153
45.15949 147
45.1796 150
45.19971 175
45.21983 161
45.23994 169
45.26005 168
45.28017 174
45.30028 198
45.32039 183
45.34051 177
45.36062 182
45.38074 202
45.40085 193
45.42096 198
45.44108 242
45.46119 219
45.4813 256
45.50142 281
45.52153 288
45.54165 333
45.56176 394
45.58187 426
45.60199 486
45.6221 549
45.64221 626
45.66233 776
45.68244 902
45.70256 1001
45.72267 1048
45.74278 1062
45.7629 1006
45.78301 898
45.80312 798
45.82324 632
45.84335 671
45.86346 584
45.88358 467
45.90369 419
45.92381 382
45.94392 315
45.96403 248
45.98415 217
46.00426 215
46.02437 172
46.04449 165
46.0646 175
46.08472 173
46.10483 177
46.12494 178
46.14506 170
46.16517 177
46.18528 164
46.2054 171
46.22551 154
46.24563 139
46.26574 147
46.28585 141
46.30597 132
46.32608 138
46.34619 148
46.36631 148
46.38642 155
46.40653 147
46.42665 137
46.44676 139
46.46688 141
46.48699 156
46.5071 143
46.52722 141
46.54733 130
46.56744 128
46.58756 155
46.60767 175
46.62779 148
46.6479 148
46.66801 124
46.68813 132
46.70824 151
46.72835 146
46.74847 134
46.76858 133
46.78869 139
46.80881 150
46.82892 143
46.84904 125
46.86915 126
46.88926 142
46.90938 143
46.92949 137
46.9496 143
46.96972 148
46.98983 143
47.00995 153
47.03006 151
47.05017 145
47.07029 155
47.0904 140
47.11051 144
47.13063 126
47.15074 162
47.17086 170
47.19097 158
47.21108 159
47.2312 146
47.25131 130
47.27142 152
47.29154 143
47.31165 127
47.33176 143
47.35188 141
47.37199 143
47.39211 145
47.41222 150
47.43233 136
47.45245 144
47.47256 168
47.49267 138
47.51279 143
47.5329 142
47.55302 127
47.57313 126
47.59324 144
47.61336 149
47.63347 125
47.65358 138
47.6737 154
47.69381 133
47.71393 149
47.73404 149
47.75415 139
47.77427 143
47.79438 150
47.81449 154
47.83461 136
47.85472 137
47.87483 154
47.89495 135
47.91506 152
47.93518 155
47.95529 145
47.9754 125
47.99552 142
48.01563 150
48.03574 128
48.05586 151
48.07597 144
48.09609 142
48.1162 141
48.13631 127
48.15643 131
48.17654 149
48.19665 134
48.21677 139
48.23688 155
48.257 152
48.27711 159
48.29722 144
48.31734 143
48.33745 157
48.35756 142
48.37768 158
48.39779 154
48.4179 142
48.43802 144
48.45813 141
48.47825 177
48.49836 158
48.51847 136
48.53859 135
48.5587 153
48.57881 146
48.59893 160
48.61904 143
48.63916 132
48.65927 149
48.67938 158
48.6995 157
48.71961 173
48.73972 156
48.75984 151
48.77995 151
48.80006 170
48.82018 162
48.84029 140
48.86041 141
48.88052 148
48.90063 156
48.92075 162
48.94086 166
48.96097 171
48.98109 148
49.0012 159
49.02132 153
49.04143 152
49.06154 157
49.08166 169
49.10177 182
49.12188 148
49.142 164
49.16211 163
49.18223 187
49.20234 160
49.22245 151
49.24257 168
49.26268 164
49.28279 174
49.30291 173
49.32302 172
49.34313 181
49.36325 179
49.38336 179
49.40348 168
49.42359 202
49.4437 183
49.46382 183
49.48393 205
49.50404 186
49.52416 207
49.54427 208
49.56439 216
49.5845 205
49.60461 254
49.62473 225
49.64484 265
49.66495 283
49.68507 272
49.70518 282
49.7253 334
49.74541 353
49.76552 391
49.78564 443
49.80575 453
49.82586 541
49.84598 597
49.86609 721
49.8862 804
49.90632 1004
49.92643 1191
49.94655 1480
49.96666 1761
49.98677 2121
50.00689 2495
50.027 2823
50.04711 3065
50.06723 3419
50.08734 3361
50.10746 3102
50.12757 2839
50.14768 2416
50.1678 2120
50.18791 1942
50.20802 1745
50.22814 1586
50.24825 1369
50.26837 1062
50.28848 824
50.30859 591
50.32871 436
50.34882 382
50.36893 323
50.38905 332
50.40916 298
50.42927 316
50.44939 321
50.4695 274
50.48962 286
50.50973 239
50.52984 251
50.54996 270
50.57007 278
50.59018 265
50.6103 256
50.63041 256
50.65053 236
50.67064 211
50.69075 184
50.71087 184
50.73098 175
50.75109 198
50.77121 166
50.79132 217
50.81143 169
50.83155 207
50.85166 148
50.87178 151
50.89189 147
50.912 160
50.93212 173
50.95223 179
50.97234 171
50.99246 171
51.01257 163
51.03269 143
51.0528 152
51.07291 157
51.09303 149
51.11314 145
51.13325 141
51.15337 146
51.17348 133
51.1936 163
51.21371 143
51.23382 133
51.25394 125
51.27405 120
51.29416 146
51.31428 131
51.33439 130
51.3545 135
51.37462 161
51.39473 146
51.41485 139
51.43496 109
51.45507 142
51.47519 121
51.4953 131
51.51541 132
51.53553 125
51.55564 132
51.57576 133
51.59587 126
51.61598 121
51.6361 135
51.65621 154
51.67632 145
51.69644 158
51.71655 128
51.73667 109
51.75678 157
51.77689 129
51.79701 120
51.81712 137
51.83723 137
51.85735 138
51.87746 120
51.89757 115
51.91769 138
51.9378 141
51.95792 150
51.97803 151
51.99814 142
52.01826 143
52.03837 138
52.05848 138
52.0786 118
52.09871 139
52.11883 122
52.13894 138
52.15905 152
52.17917 132
52.19928 131
52.21939 137
52.23951 131
52.25962 128
52.27974 130
52.29985 141
52.31996 121
52.34008 148
52.36019 140
52.3803 116
52.40042 130
52.42053 131
52.44064 162
52.46076 121
52.48087 116
52.50099 133
52.5211 129
52.54121 125
52.56133 142
52.58144 136
52.60155 130
52.62167 132
52.64178 118
52.6619 142
52.68201 138
52.70212 133
52.72224 120
52.74235 132
52.76246 144
52.78258 160
52.80269 141
52.8228 137
52.84292 131
52.86303 138
52.88315 141
52.90326 152
52.92337 149
52.94349 128
52.9636 139
52.98371 126
53.00383 132
53.02394 121
53.04406 150
53.06417 136
53.08428 141
53.1044 145
53.12451 118
53.14462 166
53.16474 146
53.18485 137
53.20497 154
53.22508 143
53.24519 145
53.26531 130
53.28542 127
53.30553 149
53.32565 136
53.34576 162
53.36587 167
53.38599 156
53.4061 153
53.42622 173
53.44633 129
53.46644 140
53.48656 137
53.50667 161
53.52678 146
53.5469 152
53.56701 155
53.58713 159
53.60724 153
53.62735 143
53.64747 149
53.66758 162
53.68769 139
53.70781 145
53.72792 146
53.74804 162
53.76815 156
53.78826 134
53.80838 159
53.82849 156
53.8486 166
53.86872 157
53.88883 151
53.90894 132
53.92906 170
53.94917 157
53.96929 141
53.9894 135
54.00951 148
54.02963 167
54.04974 147
54.06985 159
54.08997 151
54.11008 157
54.1302 163
54.15031 163
54.17042 158
54.19054 173
54.21065 187
54.23076 182
54.25088 168
54.27099 195
54.29111 175
54.31122 183
54.33133 199
54.35145 203
54.37156 191
54.39167 198
54.41179 173
54.4319 199
54.45201 201
54.47213 240
54.49224 199
54.51236 247
54.53247 281
54.55258 293
54.5727 294
54.59281 345
54.61292 336
54.63304 376
54.65315 451
54.67327 550
54.69338 555
54.71349 682
54.73361 742
54.75372 890
54.77383 996
54.79395 1010
54.81406 1009
54.83417 940
54.85429 925
54.8744 801
54.89452 755
54.91463 653
54.93474 665
54.95486 632
54.97497 593
54.99508 512
55.0152 456
55.03531 435
55.05543 383
55.07554 313
55.09565 326
55.11577 312
55.13588 349
55.15599 369
55.17611 458
55.19622 472
55.21634 516
55.23645 543
55.25656 560
55.27668 578
55.29679 496
55.3169 463
55.33702 428
55.35713 380
55.37724 367
55.39736 377
55.41747 332
55.43759 352
55.4577 269
55.47781 245
55.49793 234
55.51804 217
55.53815 187
55.55827 165
55.57838 207
55.5985 173
55.61861 163
55.63872 147
55.65884 154
55.67895 165
55.69906 148
55.71918 149
55.73929 179
55.75941 166
55.77952 149
55.79963 129
55.81975 168
55.83986 153
55.85997 139
55.88009 121
55.9002 133
55.92031 146
55.94043 137
55.96054 149
55.98066 138
56.00077 149
56.02088 146
56.041 141
56.06111 140
56.08122 157
56.10134 148
56.12145 141
56.14157 133
56.16168 137
56.18179 135
56.20191 116
56.22202 119
56.24213 135
56.26225 147
56.28236 155
56.30248 138
56.32259 132
56.3427 135
56.36282 125
56.38293 111
56.40304 139
56.42316 126
56.44327 149
56.46338 101
56.4835 153
56.50361 161
56.52373 136
56.54384 121
56.56395 146
56.58407 148
56.60418 154
56.62429 134
56.64441 130
56.66452 141
56.68464 146
56.70475 156
56.72486 123
56.74498 131
56.76509 132
56.7852 133
56.80532 128
56.82543 139
56.84554 147
56.86566 157
56.88577 148
56.90589 136
56.926 127
56.94611 133
56.96623 124
56.98634 148
57.00645 142
57.02657 159
57.04668 154
57.0668 161
57.08691 160
57.10702 184
57.12714 169
57.14725 174
57.16736 201
57.18748 178
57.20759 179
57.22771 167
57.24782 166
57.26793 160
57.28805 149
57.30816 166
57.32827 151
57.34839 135
57.3685 165
57.38861 141
57.40873 131
57.42884 157
57.44896 144
57.46907 152
57.48918 126
57.5093 119
57.52941 128
57.54952 116
57.56964 146
57.58975 108
57.60987 163
57.62998 114
57.65009 118
57.67021 123
57.69032 139
57.71043 143
57.73055 149
57.75066 132
57.77078 152
57.79089 155
57.811 157
57.83112 117
57.85123 126
57.87134 154
57.89146 138
57.91157 122
57.93168 124
57.9518 140
57.97191 143
57.99203 123
58.01214 136
58.03225 134
58.05237 128
58.07248 126
58.09259 145
58.11271 144
58.13282 118
58.15294 154
58.17305 149
58.19316 124
58.21328 147
58.23339 140
58.2535 136
58.27362 140
58.29373 135
58.31385 125
58.33396 131
58.35407 128
58.37419 140
58.3943 116
58.41441 120
58.43453 124
58.45464 154
58.47475 137
58.49487 148
58.51498 132
58.5351 138
58.55521 122
58.57532 126
58.59544 152
58.61555 148
58.63566 131
58.65578 141
58.67589 151
58.69601 146
58.71612 126
58.73623 157
58.75635 150
58.77646 142
58.79657 144
58.81669 135
58.8368 131
58.85691 128
58.87703 161
58.89714 128
58.91726 144
58.93737 148
58.95748 140
58.9776 152
58.99771 154
59.01782 133
59.03794 136
59.05805 155
59.07817 142
59.09828 151
59.11839 147
59.13851 140
59.15862 157
59.17873 158
59.19885 164
59.21896 165
59.23908 166
59.25919 187
59.2793 168
59.29942 175
59.31953 182
59.33964 168
59.35976 180
59.37987 194
59.39998 215
59.4201 228
59.44021 190
59.46033 203
59.48044 213
59.50055 268
59.52067 257
59.54078 258
59.56089 302
59.58101 324
59.60112 407
59.62124 404
59.64135 429
59.66146 492
59.68158 562
59.70169 656
59.7218 763
59.74192 879
59.76203 1052
59.78215 1235
59.80226 1514
59.82237 1658
59.84249 1818
59.8626 2108
59.88271 2058
59.90283 1985
59.92294 1952
59.94305 1618
59.96317 1444
59.98328 1295
60.0034 1200
60.02351 1091
60.04362 1150
60.06374 1101
60.08385 947
60.10396 770
60.12408 643
60.14419 478
60.16431 365
60.18442 289
60.20453 275
60.22465 227
60.24476 214
60.26487 225
60.28499 190
60.3051 189
60.32522 192
60.34533 168
60.36544 167
60.38556 173
60.40567 163
60.42578 132
60.4459 178
60.46601 169
60.48612 144
60.50624 151
60.52635 158
60.54647 158
60.56658 155
60.58669 167
60.60681 147
60.62692 159
60.64703 136
60.66715 150
60.68726 129
60.70738 133
60.72749 146
60.7476 141
60.76772 145
60.78783 138
60.80794 138
60.82806 141
60.84817 126
60.86828 138
60.8884 137
60.90851 127
60.92863 142
60.94874 134
60.96885 127
60.98897 116
61.00908 155
61.02919 134
61.04931 132
61.06942 160
61.08954 133
61.10965 148
61.12976 112
61.14988 137
61.16999 138
61.1901 115
61.21022 141
61.23033 121
61.25045 120
61.27056 135
61.29067 118
61.31079 118
61.3309 132
61.35101 127
61.37113 131
61.39124 120
61.41135 134
61.43147 124
61.45158 140
61.4717 148
61.49181 132
61.51192 131
61.53204 121
61.55215 135
61.57226 137
61.59238 94
61.61249 127
61.63261 130
61.65272 138
61.67283 131
61.69295 142
61.71306 101
61.73317 131
61.75329 145
61.7734 155
61.79352 129
61.81363 121
61.83374 127
61.85386 128
61.87397 132
61.89408 135
61.9142 155
61.93431 123
61.95442 156
61.97454 141
61.99465 145
62.01477 145
62.03488 157
62.05499 170
62.07511 145
62.09522 190
62.11533 173
62.13545 176
62.15556 163
62.17568 166
62.19579 192
62.2159 178
62.23602 178
62.25613 173
62.27624 150
62.29636 174
62.31647 177
62.33659 157
62.3567 157
62.37681 164
62.39693 151
62.41704 146
62.43715 165
62.45727 150
62.47738 165
62.49749 149
62.51761 151
62.53772 169
62.55784 157
62.57795 143
62.59806 146
62.61818 141
62.63829 149
62.6584 131
62.67852 145
62.69863 119
62.71875 121
62.73886 131
62.75897 117
62.77909 113
62.7992 140
62.81931 133
62.83943 118
62.85954 142
62.87965 162
62.89977 150
62.91988 120
62.94 131
62.96011 135
62.98022 116
63.00034 127
63.02045 117
63.04056 121
63.06068 139
63.08079 125
63.10091 150
63.12102 139
63.14113 130
63.16125 100
63.18136 123
63.20147 132
63.22159 121
63.2417 133
63.26182 129
63.28193 135
63.30204 143
63.32216 135
63.34227 129
63.36238 142
63.3825 148
63.40261 142
63.42272 134
63.44284 140
63.46295 147
63.48307 146
63.50318 155
63.52329 152
63.54341 165
63.56352 138
63.58363 151
63.60375 164
63.62386 176
63.64398 165
63.66409 154
63.6842 157
63.70432 182
63.72443 176
63.74454 198
63.76466 199
63.78477 220
63.80489 259
63.825 257
63.84511 286
63.86523 340
63.88534 379
63.90545 409
63.92557 445
63.94568 489
63.96579 454
63.98591 459
64.00602 429
64.02614 356
64.04625 327
64.06636 346
64.08648 344
64.10659 299
64.1267 294
64.14682 312
64.16693 281
64.18705 260
64.20716 217
64.22727 197
64.24739 166
64.2675 156
64.28761 151
64.30773 143
64.32784 140
64.34796 130
64.36807 140
64.38818 143
64.4083 122
64.42841 146
64.44852 122
64.46864 118
64.48875 120
64.50886 108
64.52898 124
64.54909 124
64.56921 116
64.58932 135
64.60943 107
64.62955 133
64.64966 122
64.66977 119
64.68989 119
64.71 144
64.73012 115
64.75023 140
64.77034 134
64.79046 137
64.81057 122
64.83068 122
64.8508 132
64.87091 122
64.89102 143
64.91114 119
64.93125 118
64.95137 131
64.97148 132
64.99159 139
65.01171 132
65.03182 119
65.05193 133
65.07205 129
65.09216 114
65.11228 140
65.13239 114
65.1525 117
65.17262 131
65.19273 105
65.21284 138
65.23296 117
65.25307 136
65.27319 143
65.2933 143
65.31341 126
65.33353 140
65.35364 133
65.37375 136
65.39387 136
65.41398 137
65.43409 127
65.45421 143
65.47432 163
65.49444 149
65.51455 177
65.53466 157
65.55478 171
65.57489 176
65.595 185
65.61512 192
65.63523 196
65.65535 197
65.67546 195
65.69557 216
65.71569 182
65.7358 216
65.75591 219
65.77603 191
65.79614 180
65.81626 182
65.83637 175
65.85648 168
65.8766 177
65.89671 174
65.91682 159
65.93694 151
65.95705 143
65.97716 140
65.99728 147
66.01739 171
66.03751 156
66.05762 134
66.07773 123
66.09785 123
66.11796 126
66.13807 121
66.15819 144
66.1783 120
66.19842 136
66.21853 132
66.23864 131
66.25876 145
66.27887 129
66.29898 145
66.3191 124
66.33921 126
66.35933 161
66.37944 127
66.39955 134
66.41967 130
66.43978 135
66.45989 126
66.48001 118
66.50012 135
66.52023 125
66.54035 144
66.56046 151
66.58058 130
66.60069 136
66.6208 157
66.64092 126
66.66103 150
66.68114 133
66.70126 151
66.72137 142
66.74149 131
66.7616 148
66.78171 137
66.80183 148
66.82194 150
66.84205 118
66.86217 158
66.88228 125
66.90239 157
66.92251 131
66.94262 139
66.96274 171
66.98285 148
67.00296 145
67.02308 150
67.04319 156
67.0633 189
67.08342 167
67.10353 163
67.12365 177
67.14376 201
67.16387 178
67.18399 166
67.2041 205
67.22421 191
67.24433 213
67.26444 215
67.28456 230
67.30467 245
67.32478 232
67.3449 279
67.36501 282
67.38512 302
67.40524 340
67.42535 364
67.44546 389
67.46558 413
67.48569 483
67.50581 601
67.52592 642
67.54603 699
67.56615 782
67.58626 942
67.60637 1001
67.62649 1152
67.6466 1241
67.66672 1240
67.68683 1270
67.70694 1190
67.72706 1018
67.74717 993
67.76728 932
67.7874 873
67.80751 919
67.82763 984
67.84774 944
67.86785 1000
67.88797 1057
67.90808 1020
67.92819 1013
67.94831 1095
67.96842 1213
67.98853 1300
68.00865 1336
68.02876 1567
68.04888 1598
68.06899 1606
68.0891 1710
68.10922 1648
68.12933 1564
68.14944 1511
68.16956 1423
68.18967 1411
68.20979 1463
68.2299 1525
68.25001 1507
68.27013 1377
68.29024 1295
68.31035 1159
68.33047 954
68.35058 794
68.3707 730
68.39081 643
68.41092 620
68.43104 582
68.45115 515
68.47126 494
68.49138 446
68.51149 367
68.5316 322
68.55172 260
68.57183 227
68.59195 227
68.61206 223
68.63217 195
68.65229 180
68.6724 171
68.69251 173
68.71263 179
68.73274 176
68.75286 166
68.77297 167
68.79308 156
68.8132 160
68.83331 145
68.85342 154
68.87354 139
68.89365 153
68.91376 147
68.93388 133
68.95399 130
68.97411 124
68.99422 159
69.01433 121
69.03445 128
69.05456 134
69.07467 140
69.09479 135
69.1149 117
69.13502 133
69.15513 128
69.17524 138
69.19536 135
69.21547 154
69.23558 130
69.2557 142
69.27581 149
69.29593 141
69.31604 141
69.33615 131
69.35627 155
69.37638 119
69.39649 124
69.41661 138
69.43672 137
69.45683 116
69.47695 118
69.49706 126
69.51718 128
69.53729 143
69.5574 125
69.57752 117
69.59763 121
69.61774 130
69.63786 122
69.65797 130
69.67809 128
69.6982 112
69.71831 114
69.73843 126
69.75854 110
69.77865 94
69.79877 95
69.81888 107
69.839 115
69.85911 105
69.87922 100
69.89934 151
69.91945 123
69.93956 138
69.95968 122
69.97979 126
69.9999 120
70.02002 119
70.04013 128
70.06025 114
70.08036 123
70.10047 98
70.12059 108
70.1407 128
70.16081 116
70.18093 120
70.20104 125
70.22116 140
70.24127 129
70.26138 124
70.2815 117
70.30161 111
70.32172 115
70.34184 138
70.36195 121
70.38207 123
70.40218 125
70.42229 109
70.44241 108
70.46252 121
70.48263 110
70.50275 122
70.52286 115
70.54297 116
70.56309 121
70.5832 115
70.60332 117
70.62343 117
70.64354 127
70.66366 109
70.68377 121
70.70388 116
70.724 111
70.74411 113
70.76423 130
70.78434 104
70.80445 128
70.82457 119
70.84468 137
70.86479 110
70.88491 125
70.90502 132
70.92513 106
70.94525 103
70.96536 122
70.98548 115
71.00559 116
71.0257 110
71.04582 135
71.06593 109
71.08604 124
71.10616 125
71.12627 121
71.14639 126
71.1665 106
71.18661 106
71.20673 105
71.22684 127
71.24695 121
71.26707 116
71.28718 123
71.3073 102
71.32741 115
71.34752 120
71.36764 113
71.38775 108
71.40786 130
71.42798 117
71.44809 117
71.4682 130
71.48832 109
71.50843 128
71.52855 118
71.54866 119
71.56877 132
71.58889 88
71.609 134
71.62911 111
71.64923 107
71.66934 117
71.68946 128
71.70957 108
71.72968 122
71.7498 102
71.76991 105
71.79002 108
71.81014 129
71.83025 103
71.85037 112
71.87048 108
71.89059 122
71.91071 123
71.93082 107
71.95093 119
71.97105 128
71.99116 102
72.01127 108
72.03139 114
72.0515 119
72.07162 114
72.09173 113
72.11184 117
72.13196 114
72.15207 119
72.17218 90
72.1923 101
72.21241 103
72.23253 123
72.25264 114
72.27275 109
72.29287 116
72.31298 94
72.33309 124
72.35321 110
72.37332 100
72.39344 107
72.41355 118
72.43366 118
72.45378 109
72.47389 126
72.494 125
72.51412 106
72.53423 119
72.55434 113
72.57446 110
72.59457 97
72.61469 110
72.6348 130
72.65491 96
72.67503 88
72.69514 116
72.71525 129
72.73537 107
72.75548 115
72.7756 124
72.79571 119
72.81582 113
72.83594 107
72.85605 120
72.87616 129
72.89628 121
72.91639 129
72.9365 141
72.95662 116
72.97673 147
72.99685 133
73.01696 152
73.03707 140
73.05719 175
73.0773 136
73.09741 205
73.11753 172
73.13764 171
73.15776 188
73.17787 206
73.19798 227
73.2181 221
73.23821 252
73.25832 259
73.27844 319
73.29855 362
73.31867 389
73.33878 456
73.35889 421
73.37901 478
73.39912 477
73.41923 471
73.43935 420
73.45946 381
73.47957 369
73.49969 321
73.5198 273
73.53992 309
73.56003 302
73.58014 294
73.60026 291
73.62037 296
73.64048 284
73.6606 253
73.68071 222
73.70083 213
73.72094 163
73.74105 148
73.76117 134
73.78128 136
73.80139 142
73.82151 137
73.84162 136
73.86174 127
73.88185 106
73.90196 129
73.92208 111
73.94219 124
73.9623 117
73.98242 114
74.00253 108
74.02264 141
74.04276 113
74.06287 124
74.08299 98
74.1031 120
74.12321 141
74.14333 113
74.16344 127
74.18355 119
74.20367 113
74.22378 126
74.2439 130
74.26401 100
74.28412 102
74.30424 125
74.32435 124
74.34446 108
74.36458 123
74.38469 105
74.40481 119
74.42492 99
74.44503 131
74.46515 120
74.48526 125
74.50537 121
74.52549 110
74.5456 125
74.56571 118
74.58583 93
74.60594 109
74.62606 122
74.64617 117
74.66628 116
74.6864 115
74.70651 119
74.72662 113
74.74674 128
74.76685 128
74.78697 133
74.80708 120
74.82719 120
74.84731 124
74.86742 125
74.88753 112
74.90765 123
74.92776 122
74.94787 125
74.96799 113
74.9881 133
75.00822 137
