3.00117 16417
3.02128 15546
3.0414 15109
3.06151 14990
3.08162 14196
3.10174 14043
3.12185 13312
3.14197 12950
3.16208 12806
3.18219 12301
3.20231 12151
3.22242 11497
3.24253 11116
3.26265 10557
3.28276 10216
3.30288 9902
3.32299 9653
3.3431 9239
3.36322 9137
3.38333 8527
3.40344 8510
3.42356 7896
3.44367 7883
3.46379 7569
3.4839 7220
3.50401 6911
3.52413 6323
3.54424 6557
3.56435 6310
3.58447 5811
3.60458 5699
3.62469 5389
3.64481 5167
3.66492 5176
3.68504 4621
3.70515 4638
3.72526 4311
3.74538 4221
3.76549 4015
3.7856 3771
3.80572 3908
3.82583 3444
3.84595 3309
3.86606 3236
3.88617 3019
3.90629 2917
3.9264 2775
3.94651 2654
3.96663 2659
3.98674 2509
4.00686 2466
4.02697 2189
4.04708 2128
4.0672 2163
4.08731 2033
4.10742 1940
4.12754 1888
4.14765 1804
4.16776 1789
4.18788 1746
4.20799 1768
4.22811 1556
4.24822 1578
4.26833 1547
4.28845 1515
4.30856 1575
4.32867 1399
4.34879 1349
4.3689 1398
4.38902 1339
4.40913 1289
4.42924 1236
4.44936 1249
4.46947 1246
4.48958 1193
4.5097 1187
4.52981 1159
4.54992 998
4.57004 1030
4.59015 1063
4.61027 995
4.63038 970
4.65049 892
4.67061 937
4.69072 906
4.71083 885
4.73095 943
4.75106 842
4.77118 843
4.79129 918
4.8114 785
4.83152 800
4.85163 757
4.87174 777
4.89186 777
4.91197 684
4.93209 648
4.9522 634
4.97231 692
4.99243 652
5.01254 598
5.03265 707
5.05277 599
5.07288 571
5.09299 564
5.11311 561
5.13322 581
5.15334 588
5.17345 480
5.19356 558
5.21368 477
5.23379 485
5.2539 500
5.27402 489
5.29413 517
5.31425 468
5.33436 412
5.35447 397
5.37459 417
5.3947 419
5.41481 384
5.43493 422
5.45504 438
5.47516 401
5.49527 378
5.51538 394
5.5355 379
5.55561 388
5.57572 368
5.59584 351
5.61595 355
5.63606 370
5.65618 343
5.67629 334
5.69641 324
5.71652 317
5.73663 284
5.75675 332
5.77686 299
5.79697 307
5.81709 322
5.8372 306
5.85732 282
5.87743 309
5.89754 329
5.91766 318
5.93777 279
5.95788 290
5.978 315
5.99811 252
6.01823 270
6.03834 322
6.05845 276
6.07857 290
6.09868 284
6.11879 270
6.13891 298
6.15902 276
6.17913 292
6.19925 275
6.21936 264
6.23948 281
6.25959 268
6.2797 292
6.29982 214
6.31993 243
6.34004 265
6.36016 272
6.38027 256
6.40039 258
6.4205 261
6.44061 256
6.46073 262
6.48084 248
6.50095 235
6.52107 289
6.54118 224
6.56129 255
6.58141 269
6.60152 257
6.62164 238
6.64175 239
6.66186 253
6.68198 259
6.70209 249
6.7222 224
6.74232 239
6.76243 242
6.78255 237
6.80266 211
6.82277 261
6.84289 268
6.863 256
6.88311 233
6.90323 239
6.92334 216
6.94346 222
6.96357 248
6.98368 235
7.0038 226
7.02391 235
7.04402 242
7.06414 256
7.08425 249
7.10436 251
7.12448 199
7.14459 263
7.16471 233
7.18482 237
7.20493 233
7.22505 256
7.24516 253
7.26527 241
7.28539 293
7.3055 236
7.32562 213
7.34573 232
7.36584 229
7.38596 239
7.40607 276
7.42618 248
7.4463 239
7.46641 236
7.48653 263
7.50664 234
7.52675 257
7.54687 259
7.56698 269
7.58709 228
7.60721 243
7.62732 247
7.64743 239
7.66755 240
7.68766 267
7.70778 256
7.72789 243
7.748 264
7.76812 273
7.78823 262
7.80834 248
7.82846 248
7.84857 244
7.86869 254
7.8888 298
7.90891 270
7.92903 266
7.94914 271
7.96925 239
7.98937 272
8.00948 243
8.0296 247
8.04971 284
8.06982 224
8.08994 236
8.11005 224
8.13016 247
8.15028 239
8.17039 231
8.1905 235
8.21062 277
8.23073 251
8.25085 247
8.27096 242
8.29107 264
8.31119 258
8.3313 269
8.35141 291
8.37153 258
8.39164 278
8.41176 266
8.43187 251
8.45198 293
8.4721 224
8.49221 242
8.51232 238
8.53244 242
8.55255 286
8.57266 274
8.59278 285
8.61289 254
8.63301 273
8.65312 268
8.67323 274
8.69335 276
8.71346 275
8.73357 268
8.75369 300
8.7738 279
8.79392 258
8.81403 258
8.83414 292
8.85426 256
8.87437 262
8.89448 295
8.9146 255
8.93471 259
8.95483 263
8.97494 283
8.99505 259
9.01517 247
9.03528 246
9.05539 271
9.07551 268
9.09562 275
9.11573 289
9.13585 251
9.15596 263
9.17608 266
9.19619 236
9.2163 246
9.23642 286
9.25653 286
9.27664 253
9.29676 230
9.31687 258
9.33699 223
9.3571 242
9.37721 274
9.39733 241
9.41744 262
9.43755 269
9.45767 245
9.47778 241
9.4979 260
9.51801 287
9.53812 255
9.55824 270
9.57835 250
9.59846 265
9.61858 242
9.63869 289
9.6588 243
9.67892 270
9.69903 250
9.71915 235
9.73926 252
9.75937 207
9.77949 254
9.7996 267
9.81971 230
9.83983 268
9.85994 268
9.88006 243
9.90017 252
9.92028 253
9.9404 259
9.96051 254
9.98062 253
10.00074 221
10.02085 238
10.04097 252
10.06108 251
10.08119 257
10.10131 238
10.12142 244
10.14153 250
10.16165 280
10.18176 246
10.20187 251
10.22199 238
10.2421 218
10.26222 227
10.28233 269
10.30244 266
10.32256 276
10.34267 257
10.36278 277
10.3829 214
10.40301 242
10.42313 241
10.44324 220
10.46335 238
10.48347 240
10.50358 228
10.52369 238
10.54381 247
10.56392 242
10.58403 216
10.60415 223
10.62426 251
10.64438 212
10.66449 232
10.6846 210
10.70472 255
10.72483 222
10.74494 220
10.76506 240
10.78517 265
10.80529 258
10.8254 242
10.84551 235
10.86563 266
10.88574 230
10.90585 250
10.92597 246
10.94608 244
10.9662 240
10.98631 225
11.00642 253
11.02654 255
11.04665 227
11.06676 234
11.08688 227
11.10699 267
11.1271 270
11.14722 269
11.16733 266
11.18745 284
11.20756 228
11.22767 230
11.24779 219
11.2679 234
11.28801 241
11.30813 258
11.32824 286
11.34836 242
11.36847 259
11.38858 280
11.4087 253
11.42881 214
11.44892 257
11.46904 267
11.48915 259
11.50927 268
11.52938 256
11.54949 270
11.56961 246
11.58972 241
11.60983 224
11.62995 268
11.65006 238
11.67017 249
11.69029 256
11.7104 237
11.73052 252
11.75063 258
11.77074 289
11.79086 280
11.81097 268
11.83108 300
11.8512 264
11.87131 273
11.89143 289
11.91154 253
11.93165 303
11.95177 273
11.97188 282
11.99199 250
12.01211 263
12.03222 280
12.05234 253
12.07245 252
12.09256 263
12.11268 246
12.13279 260
12.1529 261
12.17302 274
12.19313 246
12.21324 266
12.23336 259
12.25347 231
12.27359 259
12.2937 252
12.31381 242
12.33393 235
12.35404 254
12.37415 260
12.39427 244
12.41438 253
12.4345 234
12.45461 244
12.47472 204
12.49484 256
12.51495 264
12.53506 226
12.55518 243
12.57529 220
12.5954 232
12.61552 250
12.63563 287
12.65575 241
12.67586 214
12.69597 250
12.71609 213
12.7362 224
12.75631 251
12.77643 243
12.79654 248
12.81666 227
12.83677 224
12.85688 214
12.877 245
12.89711 210
12.91722 222
12.93734 223
12.95745 252
12.97757 205
12.99768 220
13.01779 240
13.03791 238
13.05802 214
13.07813 209
13.09825 234
13.11836 223
13.13847 231
13.15859 245
13.1787 222
13.19882 218
13.21893 203
13.23904 196
13.25916 218
13.27927 196
13.29938 210
13.3195 215
13.33961 205
13.35973 224
13.37984 222
13.39995 205
13.42007 224
13.44018 225
13.46029 205
13.48041 221
13.50052 226
13.52064 251
13.54075 233
13.56086 219
13.58098 260
13.60109 232
13.6212 250
13.64132 241
13.66143 241
13.68154 243
13.70166 255
13.72177 207
13.74189 205
13.762 173
13.78211 236
13.80223 233
13.82234 170
13.84245 220
13.86257 215
13.88268 211
13.9028 202
13.92291 208
13.94302 216
13.96314 205
13.98325 247
14.00336 199
14.02348 238
14.04359 225
14.06371 207
14.08382 206
14.10393 216
14.12405 185
14.14416 199
14.16427 216
14.18439 180
14.2045 215
14.22461 214
14.24473 226
14.26484 209
14.28496 189
14.30507 220
14.32518 160
14.3453 222
14.36541 197
14.38552 227
14.40564 205
14.42575 207
14.44587 196
14.46598 208
14.48609 217
14.50621 195
14.52632 206
14.54643 226
14.56655 207
14.58666 219
14.60677 209
14.62689 199
14.647 187
14.66712 212
14.68723 184
14.70734 193
14.72746 200
14.74757 186
14.76768 189
14.7878 199
14.80791 208
14.82803 195
14.84814 193
14.86825 191
14.88837 239
14.90848 206
14.92859 215
14.94871 211
14.96882 221
14.98894 214
15.00905 212
15.02916 168
15.04928 189
15.06939 179
15.0895 195
15.10962 213
15.12973 192
15.14984 224
15.16996 226
15.19007 214
15.21019 213
15.2303 190
15.25041 199
15.27053 206
15.29064 198
15.31075 216
15.33087 190
15.35098 194
15.3711 201
15.39121 187
15.41132 206
15.43144 197
15.45155 171
15.47166 198
15.49178 222
15.51189 191
15.53201 180
15.55212 194
15.57223 165
15.59235 159
15.61246 195
15.63257 188
15.65269 187
15.6728 188
15.69291 196
15.71303 177
15.73314 198
15.75326 195
15.77337 207
15.79348 146
15.8136 175
15.83371 215
15.85382 198
15.87394 195
15.89405 190
15.91417 191
15.93428 191
15.95439 176
15.97451 189
15.99462 213
16.01473 213
16.03485 169
16.05496 180
16.07508 192
16.09519 174
16.1153 207
16.13542 173
16.15553 190
16.17564 165
16.19576 196
16.21587 213
16.23598 226
16.2561 192
16.27621 162
16.29633 184
16.31644 206
16.33655 217
16.35667 175
16.37678 176
16.39689 180
16.41701 184
16.43712 199
16.45724 181
16.47735 181
16.49746 184
16.51758 186
16.53769 197
16.5578 175
16.57792 214
16.59803 205
16.61814 199
16.63826 156
16.65837 195
16.67849 211
16.6986 203
16.71871 198
16.73883 143
16.75894 170
16.77905 178
16.79917 158
16.81928 195
16.8394 180
16.85951 173
16.87962 179
16.89974 209
16.91985 167
16.93996 155
16.96008 184
16.98019 186
17.00031 172
17.02042 169
17.04053 165
17.06065 187
17.08076 161
17.10087 150
17.12099 190
17.1411 178
17.16121 209
17.18133 206
17.20144 192
17.22156 182
17.24167 177
17.26178 187
17.2819 190
17.30201 169
17.32212 159
17.34224 179
17.36235 187
17.38247 196
17.40258 165
17.42269 173
17.44281 175
17.46292 183
17.48303 181
17.50315 179
17.52326 210
17.54338 176
17.56349 220
17.5836 184
17.60372 175
17.62383 157
17.64394 200
17.66406 208
17.68417 188
17.70428 192
17.7244 216
17.74451 199
17.76463 171
17.78474 199
17.80485 182
17.82497 191
17.84508 209
17.86519 179
17.88531 159
17.90542 185
17.92554 192
17.94565 174
17.96576 188
17.98588 200
18.00599 166
18.0261 195
18.04622 183
18.06633 196
18.08645 190
18.10656 171
18.12667 169
18.14679 175
18.1669 189
18.18701 175
18.20713 176
18.22724 201
18.24735 167
18.26747 180
18.28758 187
18.3077 205
18.32781 188
18.34792 181
18.36804 198
18.38815 166
18.40826 177
18.42838 166
18.44849 161
18.46861 180
18.48872 194
18.50883 185
18.52895 169
18.54906 187
18.56917 168
18.58929 204
18.6094 172
18.62951 191
18.64963 189
18.66974 186
18.68986 200
18.70997 160
18.73008 185
18.7502 217
18.77031 181
18.79042 182
18.81054 191
18.83065 209
18.85077 201
18.87088 181
18.89099 194
18.91111 228
18.93122 190
18.95133 206
18.97145 195
18.99156 182
19.01168 191
19.03179 182
19.0519 205
19.07202 172
19.09213 178
19.11224 185
19.13236 174
19.15247 190
19.17258 221
19.1927 191
19.21281 200
19.23293 204
19.25304 228
19.27315 224
19.29327 213
19.31338 216
19.33349 236
19.35361 241
19.37372 223
19.39384 233
19.41395 247
19.43406 240
19.45418 223
19.47429 245
19.4944 274
19.51452 233
19.53463 250
19.55475 246
19.57486 278
19.59497 321
19.61509 282
19.6352 314
19.65531 326
19.67543 327
19.69554 296
19.71565 301
19.73577 340
19.75588 354
19.776 341
19.79611 333
19.81622 378
19.83634 376
19.85645 384
19.87656 386
19.89668 371
19.91679 329
19.93691 369
19.95702 420
19.97713 365
19.99725 348
20.01736 359
20.03747 350
20.05759 365
20.0777 357
20.09782 328
20.11793 363
20.13804 366
20.15816 347
20.17827 334
20.19838 352
20.2185 379
20.23861 359
20.25872 332
20.27884 413
20.29895 359
20.31907 382
20.33918 376
20.35929 390
20.37941 404
20.39952 408
20.41963 436
20.43975 416
20.45986 424
20.47998 435
20.50009 448
20.5202 471
20.54032 482
20.56043 503
20.58054 538
20.60066 602
20.62077 705
20.64088 806
20.661 1089
20.68111 1306
20.70123 1818
20.72134 2377
20.74145 3192
20.76157 4157
20.78168 5180
20.80179 5819
20.82191 6264
20.84202 5843
20.86214 4953
20.88225 3853
20.90236 2772
20.92248 1898
20.94259 1265
20.9627 918
20.98282 724
21.00293 698
21.02305 659
21.04316 576
21.06327 533
21.08339 487
21.1035 450
21.12361 407
21.14373 415
21.16384 394
21.18395 339
21.20407 367
21.22418 340
21.2443 368
21.26441 316
21.28452 329
21.30464 310
21.32475 341
21.34486 301
21.36498 338
21.38509 296
21.40521 294
21.42532 333
21.44543 266
21.46555 296
21.48566 272
21.50577 294
21.52589 298
21.546 264
21.56612 312
21.58623 251
21.60634 277
21.62646 254
21.64657 266
21.66668 251
21.6868 250
21.70691 273
21.72702 251
21.74714 264
21.76725 239
21.78737 292
21.80748 271
21.82759 263
21.84771 288
21.86782 245
21.88793 278
21.90805 285
21.92816 302
21.94828 292
21.96839 311
21.9885 343
22.00862 324
22.02873 278
22.04884 277
22.06896 241
22.08907 264
22.10919 251
22.1293 245
22.14941 242
22.16953 258
22.18964 279
22.20975 281
22.22987 249
22.24998 286
22.27009 283
22.29021 293
22.31032 286
22.33044 280
22.35055 256
22.37066 277
22.39078 248
22.41089 260
22.431 253
22.45112 264
22.47123 263
22.49135 266
22.51146 244
22.53157 298
22.55169 277
22.5718 262
22.59191 254
22.61203 287
22.63214 259
22.65225 261
22.67237 257
22.69248 246
22.7126 244
22.73271 244
22.75282 238
22.77294 241
22.79305 234
22.81316 260
22.83328 239
22.85339 233
22.87351 263
22.89362 244
22.91373 250
22.93385 253
22.95396 246
22.97407 277
22.99419 291
23.0143 273
23.03442 256
23.05453 270
23.07464 307
23.09476 289
23.11487 282
23.13498 292
23.1551 289
23.17521 296
23.19532 314
23.21544 341
23.23555 272
23.25567 319
23.27578 279
23.29589 275
23.31601 277
23.33612 290
23.35623 264
23.37635 288
23.39646 274
23.41658 254
23.43669 266
23.4568 277
23.47692 269
23.49703 259
23.51714 270
23.53726 280
23.55737 280
23.57749 272
23.5976 291
23.61771 297
23.63783 300
23.65794 284
23.67805 282
23.69817 304
23.71828 251
23.73839 256
23.75851 259
23.77862 274
23.79874 280
23.81885 265
23.83896 302
23.85908 307
23.87919 309
23.8993 335
23.91942 348
23.93953 389
23.95965 365
23.97976 372
23.99987 339
24.01999 352
24.0401 311
24.06021 287
24.08033 292
24.10044 240
24.12056 288
24.14067 250
24.16078 262
24.1809 265
24.20101 271
24.22112 273
24.24124 255
24.26135 275
24.28146 310
24.30158 302
24.32169 275
24.34181 307
24.36192 273
24.38203 277
24.40215 279
24.42226 293
24.44237 275
24.46249 310
24.4826 299
24.50272 264
24.52283 256
24.54294 245
24.56306 270
24.58317 267
24.60328 291
24.6234 265
24.64351 291
24.66362 288
24.68374 277
24.70385 296
24.72397 286
24.74408 276
24.76419 315
24.78431 303
24.80442 270
24.82453 291
24.84465 274
24.86476 288
24.88488 276
24.90499 254
24.9251 322
24.94522 282
24.96533 298
24.98544 298
25.00556 301
25.02567 279
25.04579 304
25.0659 285
25.08601 299
25.10613 306
25.12624 320
25.14635 251
25.16647 291
25.18658 275
25.20669 278
25.22681 298
25.24692 291
25.26704 297
25.28715 323
25.30726 288
25.32738 323
25.34749 278
25.3676 348
25.38772 342
25.40783 334
25.42795 357
25.44806 309
25.46817 358
25.48829 405
25.5084 436
25.52851 424
25.54863 409
25.56874 434
25.58886 457
25.60897 458
25.62908 418
25.6492 474
25.66931 429
25.68942 457
25.70954 446
25.72965 487
25.74976 401
25.76988 439
25.78999 446
25.81011 450
25.83022 458
25.85033 476
25.87045 477
25.89056 476
25.91067 463
25.93079 491
25.9509 483
25.97102 460
25.99113 506
26.01124 498
26.03136 555
26.05147 552
26.07158 575
26.0917 605
26.11181 679
26.13193 699
26.15204 729
26.17215 722
26.19227 839
26.21238 903
26.23249 955
26.25261 1050
26.27272 1109
26.29283 1217
26.31295 1375
26.33306 1672
26.35318 1875
26.37329 2269
26.3934 2798
26.41352 3582
26.43363 4621
26.45374 6357
26.47386 8388
26.49397 11094
26.51409 14627
26.5342 18852
26.55431 22882
26.57443 25802
26.59454 27100
26.61465 26101
26.63477 22602
26.65488 18123
26.67499 13447
26.69511 9666
26.71522 6389
26.73534 3941
26.75545 2432
26.77556 1817
26.79568 1505
26.81579 1342
26.8359 1209
26.85602 1105
26.87613 1067
26.89625 938
26.91636 855
26.93647 866
26.95659 735
26.9767 712
26.99681 736
27.01693 766
27.03704 666
27.05716 705
27.07727 640
27.09738 633
27.1175 578
27.13761 543
27.15772 545
27.17784 521
27.19795 500
27.21806 498
27.23818 480
27.25829 534
27.27841 524
27.29852 558
27.31863 613
27.33875 583
27.35886 610
27.37897 652
27.39909 715
27.4192 698
27.43932 706
27.45943 667
27.47954 631
27.49966 595
27.51977 518
27.53988 475
27.56 449
27.58011 439
27.60023 423
27.62034 355
27.64045 370
27.66057 364
27.68068 372
27.70079 399
27.72091 415
27.74102 375
27.76113 331
27.78125 393
27.80136 366
27.82148 367
27.84159 372
27.8617 364
27.88182 384
27.90193 399
27.92204 368
27.94216 348
27.96227 368
27.98239 364
28.0025 347
28.02261 301
28.04273 294
28.06284 280
28.08295 286
28.10307 269
28.12318 276
28.1433 326
28.16341 327
28.18352 311
28.20364 297
28.22375 262
28.24386 311
28.26398 298
28.28409 282
28.3042 310
28.32432 251
28.34443 282
28.36455 282
28.38466 305
28.40477 297
28.42489 264
28.445 273
28.46511 240
28.48523 273
28.50534 252
28.52546 267
28.54557 255
28.56568 260
28.5858 274
28.60591 262
28.62602 261
28.64614 247
28.66625 243
28.68636 244
28.70648 248
28.72659 256
28.74671 227
28.76682 240
28.78693 274
28.80705 276
28.82716 267
28.84727 258
28.86739 262
28.8875 253
28.90762 248
28.92773 270
28.94784 252
28.96796 243
28.98807 256
29.00818 249
29.0283 249
29.04841 237
29.06853 247
29.08864 279
29.10875 221
29.12887 255
29.14898 250
29.16909 244
29.18921 233
29.20932 235
29.22943 269
29.24955 243
29.26966 261
29.28978 247
29.30989 260
29.33 283
29.35012 286
29.37023 281
29.39034 271
29.41046 295
29.43057 286
29.45069 298
29.4708 302
29.49091 269
29.51103 282
29.53114 258
29.55125 257
29.57137 268
29.59148 278
29.6116 263
29.63171 253
29.65182 239
29.67194 250
29.69205 295
29.71216 269
29.73228 252
29.75239 277
29.7725 246
29.79262 259
29.81273 269
29.83285 270
29.85296 245
29.87307 241
29.89319 239
29.9133 239
29.93341 285
29.95353 239
29.97364 266
29.99376 256
30.01387 254
30.03398 252
30.0541 281
30.07421 250
30.09432 309
30.11444 285
30.13455 279
30.15467 271
30.17478 295
30.19489 283
30.21501 266
30.23512 235
30.25523 259
30.27535 276
30.29546 247
30.31557 262
30.33569 266
30.3558 275
30.37592 218
30.39603 239
30.41614 233
30.43626 200
30.45637 229
30.47648 239
30.4966 243
30.51671 237
30.53683 248
30.55694 223
30.57705 292
30.59717 251
30.61728 269
30.63739 269
30.65751 264
30.67762 297
30.69773 293
30.71785 284
30.73796 302
30.75808 304
30.77819 296
30.7983 275
30.81842 261
30.83853 287
30.85864 274
30.87876 261
30.89887 269
30.91899 245
30.9391 229
30.95921 252
30.97933 210
30.99944 213
31.01955 236
31.03967 215
31.05978 189
31.0799 193
31.10001 216
31.12012 202
31.14024 204
31.16035 232
31.18046 217
31.20058 200
31.22069 215
31.2408 202
31.26092 181
31.28103 206
31.30115 216
31.32126 238
31.34137 221
31.36149 210
31.3816 234
31.40171 205
31.42183 189
31.44194 204
31.46206 198
31.48217 200
31.50228 194
31.5224 190
31.54251 207
31.56262 199
31.58274 216
31.60285 213
31.62297 208
31.64308 219
31.66319 190
31.68331 184
31.70342 203
31.72353 177
31.74365 212
31.76376 208
31.78387 234
31.80399 179
31.8241 207
31.84422 188
31.86433 201
31.88444 203
31.90456 211
31.92467 196
31.94478 212
31.9649 208
31.98501 218
32.00513 219
32.02524 215
32.04535 218
32.06547 198
32.08558 214
32.10569 232
32.12581 185
32.14592 184
32.16604 197
32.18615 199
32.20626 206
32.22638 229
32.24649 198
32.2666 198
32.28672 234
32.30683 223
32.32694 213
32.34706 228
32.36717 218
32.38729 216
32.4074 213
32.42751 208
32.44763 213
32.46774 238
32.48785 205
32.50797 207
32.52808 200
32.5482 193
32.56831 203
32.58842 205
32.60854 185
32.62865 187
32.64876 170
32.66888 161
32.68899 205
32.7091 192
32.72922 186
32.74933 179
32.76945 186
32.78956 166
32.80967 192
32.82979 181
32.8499 215
32.87001 207
32.89013 187
32.91024 201
32.93036 210
32.95047 172
32.97058 176
32.9907 188
33.01081 189
33.03092 197
33.05104 178
33.07115 163
33.09127 172
33.11138 192
33.13149 199
33.15161 186
33.17172 205
33.19183 213
33.21195 173
33.23206 195
33.25217 188
33.27229 195
33.2924 183
33.31252 203
33.33263 196
33.35274 182
33.37286 193
33.39297 183
33.41308 190
33.4332 195
33.45331 190
33.47343 161
33.49354 163
33.51365 183
33.53377 166
33.55388 215
33.57399 211
33.59411 209
33.61422 228
33.63434 160
33.65445 192
33.67456 170
33.69468 186
33.71479 192
33.7349 192
33.75502 178
33.77513 195
33.79524 162
33.81536 175
33.83547 213
33.85559 181
33.8757 198
33.89581 197
33.91593 210
33.93604 228
33.95615 169
33.97627 189
33.99638 191
34.0165 174
34.03661 233
34.05672 227
34.07684 193
34.09695 229
34.11706 205
34.13718 245
34.15729 243
34.17741 264
34.19752 237
34.21763 261
34.23775 210
34.25786 245
34.27797 231
34.29809 259
34.3182 211
34.33831 231
34.35843 220
34.37854 238
34.39866 232
34.41877 252
34.43888 263
34.459 234
34.47911 235
34.49922 229
34.51934 262
34.53945 242
34.55957 238
34.57968 277
34.59979 278
34.61991 276
34.64002 282
34.66013 303
34.68025 296
34.70036 270
34.72047 263
34.74059 277
34.7607 245
34.78082 298
34.80093 289
34.82104 292
34.84116 298
34.86127 296
34.88138 262
34.9015 267
34.92161 269
34.94173 273
34.96184 277
34.98195 258
35.00207 249
35.02218 266
35.04229 273
35.06241 290
35.08252 278
35.10264 284
35.12275 261
35.14286 257
35.16298 252
35.18309 238
35.2032 249
35.22332 273
35.24343 238
35.26354 274
35.28366 268
35.30377 255
35.32389 246
35.344 310
35.36411 289
35.38423 250
35.40434 267
35.42445 264
35.44457 244
35.46468 293
35.4848 287
35.50491 284
35.52502 283
35.54514 292
35.56525 284
35.58536 245
35.60548 252
35.62559 254
35.64571 252
35.66582 267
35.68593 237
35.70605 250
35.72616 243
35.74627 239
35.76639 232
35.7865 231
35.80661 246
35.82673 253
35.84684 236
35.86696 222
35.88707 251
35.90718 253
35.9273 234
35.94741 231
35.96752 226
35.98764 276
36.00775 256
36.02787 266
36.04798 238
36.06809 271
36.08821 251
36.10832 261
36.12843 284
36.14855 278
36.16866 291
36.18878 319
36.20889 346
36.229 337
36.24912 357
36.26923 399
36.28934 439
36.30946 555
36.32957 623
36.34968 697
36.3698 960
36.38991 1063
36.41003 1293
36.43014 1472
36.45025 1617
36.47037 1927
36.49048 1942
36.51059 1852
36.53071 1737
36.55082 1390
36.57094 1264
36.59105 1059
36.61116 895
36.63128 745
36.65139 535
36.6715 414
36.69162 344
36.71173 340
36.73184 315
36.75196 272
36.77207 285
36.79219 289
36.8123 292
36.83241 278
36.85253 284
36.87264 289
36.89275 289
36.91287 247
36.93298 240
36.9531 273
36.97321 272
36.99332 279
37.01344 275
37.03355 233
37.05366 223
37.07378 264
37.09389 261
37.11401 230
37.13412 271
37.15423 267
37.17435 237
37.19446 224
37.21457 248
37.23469 240
37.2548 217
37.27491 246
37.29503 228
37.31514 217
37.33526 222
37.35537 210
37.37548 257
37.3956 233
37.41571 241
37.43582 196
37.45594 231
37.47605 213
37.49617 227
37.51628 222
37.53639 217
37.55651 212
37.57662 226
37.59673 230
37.61685 270
37.63696 220
37.65708 249
37.67719 201
37.6973 235
37.71742 225
37.73753 228
37.75764 220
37.77776 212
37.79787 217
37.81798 217
37.8381 241
37.85821 206
37.87833 243
37.89844 223
37.91855 207
37.93867 241
37.95878 203
37.97889 208
37.99901 217
38.01912 237
38.03924 211
38.05935 205
38.07946 212
38.09958 205
38.11969 231
38.1398 235
38.15992 209
38.18003 237
38.20015 213
38.22026 226
38.24037 220
38.26049 225
38.2806 252
38.30071 207
38.32083 248
38.34094 243
38.36105 199
38.38117 226
38.40128 225
38.4214 231
38.44151 236
38.46162 236
38.48174 246
38.50185 246
38.52196 252
38.54208 253
38.56219 259
38.58231 265
38.60242 230
38.62253 226
38.64265 246
38.66276 232
38.68287 243
38.70299 235
38.7231 212
38.74321 224
38.76333 197
38.78344 209
38.80356 217
38.82367 209
38.84378 196
38.8639 225
38.88401 212
38.90412 237
38.92424 240
38.94435 234
38.96447 216
38.98458 234
39.00469 228
39.02481 250
39.04492 264
39.06503 276
39.08515 253
39.10526 289
39.12538 302
39.14549 308
39.1656 394
39.18572 386
39.20583 430
39.22594 450
39.24606 523
39.26617 645
39.28628 766
39.3064 1007
39.32651 1093
39.34663 1339
39.36674 1580
39.38685 1702
39.40697 1780
39.42708 1703
39.44719 1649
39.46731 1366
39.48742 1240
39.50754 1070
39.52765 880
39.54776 770
39.56788 617
39.58799 474
39.6081 370
39.62822 325
39.64833 272
39.66845 292
39.68856 276
39.70867 241
39.72879 241
39.7489 243
39.76901 227
39.78913 220
39.80924 216
39.82935 252
39.84947 230
39.86958 262
39.8897 245
39.90981 242
39.92992 241
39.95004 247
39.97015 288
39.99026 291
40.01038 282
40.03049 326
40.05061 334
40.07072 403
40.09083 441
40.11095 514
40.13106 536
40.15117 700
40.17129 725
40.1914 812
40.21152 953
40.23163 941
40.25174 920
40.27186 849
40.29197 729
40.31208 675
40.3322 558
40.35231 548
40.37242 463
40.39254 415
40.41265 289
40.43277 292
40.45288 244
40.47299 225
40.49311 215
40.51322 219
40.53333 208
40.55345 212
40.57356 219
40.59368 207
40.61379 230
40.6339 192
40.65402 216
40.67413 216
40.69424 191
40.71436 201
40.73447 208
40.75458 213
40.7747 198
40.79481 198
40.81493 198
40.83504 193
40.85515 171
40.87527 203
40.89538 179
40.91549 207
40.93561 196
40.95572 184
40.97584 185
40.99595 193
41.01606 227
41.03618 217
41.05629 234
41.0764 194
41.09652 207
41.11663 212
41.13675 195
41.15686 230
41.17697 179
41.19709 192
41.2172 214
41.23731 230
41.25743 212
41.27754 187
41.29765 208
41.31777 213
41.33788 225
41.358 181
41.37811 186
41.39822 199
41.41834 212
41.43845 227
41.45856 185
41.47868 231
41.49879 204
41.51891 239
41.53902 188
41.55913 221
41.57925 234
41.59936 232
41.61947 248
41.63959 222
41.6597 238
41.67982 258
41.69993 278
41.72004 268
41.74016 247
41.76027 257
41.78038 282
41.8005 252
41.82061 269
41.84072 224
41.86084 208
41.88095 241
41.90107 245
41.92118 235
41.94129 208
41.96141 218
41.98152 228
42.00163 212
42.02175 256
42.04186 247
42.06198 237
42.08209 276
42.1022 273
42.12232 295
42.14243 305
42.16254 291
42.18266 346
42.20277 381
42.22289 443
42.243 470
42.26311 651
42.28323 740
42.30334 820
42.32345 980
42.34357 1131
42.36368 1160
42.38379 1274
42.40391 1270
42.42402 1178
42.44414 1042
42.46425 889
42.48436 756
42.50448 697
42.52459 685
42.5447 545
42.56482 429
42.58493 315
42.60505 288
42.62516 269
42.64527 246
42.66539 240
42.6855 217
42.70561 249
42.72573 235
42.74584 224
42.76595 221
42.78607 211
42.80618 213
42.8263 216
42.84641 196
42.86652 205
42.88664 200
42.90675 198
42.92686 185
42.94698 175
42.96709 179
42.98721 196
43.00732 202
43.02743 195
43.04755 220
43.06766 172
43.08777 169
43.10789 180
43.128 204
43.14812 186
43.16823 170
43.18834 196
43.20846 176
43.22857 185
43.24868 187
43.2688 179
43.28891 202
43.30902 187
43.32914 154
43.34925 151
43.36937 155
43.38948 190
43.40959 177
43.42971 192
43.44982 164
43.46993 177
43.49005 184
43.51016 184
43.53028 178
43.55039 170
43.5705 189
43.59062 177
43.61073 200
43.63084 179
43.65096 175
43.67107 173
43.69119 176
43.7113 176
43.73141 183
43.75153 189
43.77164 181
43.79175 177
43.81187 169
43.83198 174
43.85209 179
43.87221 202
43.89232 215
43.91244 185
43.93255 170
43.95266 174
43.97278 189
43.99289 181
44.013 201
44.03312 184
44.05323 161
44.07335 157
44.09346 178
44.11357 160
44.13369 157
44.1538 186
44.17391 175
44.19403 185
44.21414 195
44.23426 179
44.25437 194
44.27448 175
44.2946 180
44.31471 197
44.33482 181
44.35494 179
44.37505 172
44.39516 166
44.41528 178
44.43539 187
44.45551 154
44.47562 204
44.49573 181
44.51585 176
44.53596 179
44.55607 191
44.57619 195
44.5963 194
44.61642 192
44.63653 179
44.65664 176
44.67676 198
44.69687 197
44.71698 194
44.7371 182
44.75721 169
44.77732 192
44.79744 174
44.81755 186
44.83767 161
44.85778 197
44.87789 189
44.89801 163
44.91812 189
44.93823 193
44.95835 173
44.97846 186
44.99858 185
45.01869 168
45.0388 195
45.05892 203
45.07903 187
45.09914 184
45.11926 169
45.13937 194
45.15949 183
45.1796 185
45.19971 190
45.21983 176
45.23994 191
45.26005 186
45.28017 189
45.30028 198
45.32039 236
45.34051 223
45.36062 261
45.38074 197
45.40085 229
45.42096 237
45.44108 253
45.46119 280
45.4813 255
45.50142 307
45.52153 309
45.54165 344
45.56176 364
45.58187 405
45.60199 508
45.6221 539
45.64221 577
45.66233 754
45.68244 751
45.70256 885
45.72267 942
45.74278 849
45.7629 846
45.78301 715
45.80312 659
45.82324 617
45.84335 524
45.86346 507
45.88358 480
45.90369 401
45.92381 325
45.94392 260
45.96403 220
45.98415 240
46.00426 217
46.02437 185
46.04449 181
46.0646 202
46.08472 214
46.10483 171
46.12494 207
46.14506 187
46.16517 204
46.18528 181
46.2054 186
46.22551 194
46.24563 182
46.26574 183
46.28585 194
46.30597 167
46.32608 179
46.34619 169
46.36631 171
46.38642 174
46.40653 180
46.42665 177
46.44676 174
46.46688 165
46.48699 180
46.5071 165
46.52722 185
46.54733 165
46.56744 164
46.58756 161
46.60767 173
46.62779 178
46.6479 165
46.66801 172
46.68813 159
46.70824 187
46.72835 172
46.74847 185
46.76858 182
46.78869 178
46.80881 162
46.82892 167
46.84904 175
46.86915 164
46.88926 172
46.90938 168
46.92949 172
46.9496 175
46.96972 168
46.98983 192
47.00995 198
47.03006 190
47.05017 183
47.07029 183
47.0904 183
47.11051 193
47.13063 198
47.15074 193
47.17086 181
47.19097 193
47.21108 172
47.2312 157
47.25131 170
47.27142 182
47.29154 177
47.31165 195
47.33176 176
47.35188 170
47.37199 175
47.39211 213
47.41222 175
47.43233 178
47.45245 181
47.47256 168
47.49267 189
47.51279 166
47.5329 179
47.55302 191
47.57313 165
47.59324 174
47.61336 164
47.63347 165
47.65358 173
47.6737 192
47.69381 155
47.71393 155
47.73404 164
47.75415 161
47.77427 178
47.79438 180
47.81449 158
47.83461 174
47.85472 156
47.87483 165
47.89495 169
47.91506 155
47.93518 164
47.95529 168
47.9754 148
47.99552 168
48.01563 172
48.03574 186
48.05586 162
48.07597 146
48.09609 175
48.1162 191
48.13631 165
48.15643 185
48.17654 176
48.19665 171
48.21677 185
48.23688 194
48.257 196
48.27711 178
48.29722 170
48.31734 177
48.33745 186
48.35756 153
48.37768 185
48.39779 175
48.4179 163
48.43802 153
48.45813 163
48.47825 164
48.49836 170
48.51847 175
48.53859 183
48.5587 167
48.57881 207
48.59893 193
48.61904 171
48.63916 171
48.65927 202
48.67938 173
48.6995 155
48.71961 181
48.73972 182
48.75984 179
48.77995 188
48.80006 189
48.82018 178
48.84029 164
48.86041 177
48.88052 184
48.90063 209
48.92075 190
48.94086 191
48.96097 174
48.98109 212
49.0012 207
49.02132 208
49.04143 167
49.06154 187
49.08166 181
49.10177 164
49.12188 185
49.142 167
49.16211 182
49.18223 186
49.20234 172
49.22245 153
49.24257 213
49.26268 187
49.28279 207
49.30291 219
49.32302 201
49.34313 204
49.36325 193
49.38336 197
49.40348 178
49.42359 198
49.4437 208
49.46382 207
49.48393 209
49.50404 201
49.52416 232
49.54427 212
49.56439 211
49.5845 238
49.60461 223
49.62473 234
49.64484 258
49.66495 279
49.68507 287
49.70518 287
49.7253 307
49.74541 343
49.76552 404
49.78564 418
49.80575 409
49.82586 497
49.84598 572
49.86609 589
49.8862 785
49.90632 843
49.92643 985
49.94655 1268
49.96666 1437
49.98677 1781
50.00689 2058
50.027 2411
50.04711 2598
50.06723 2806
50.08734 2587
50.10746 2534
50.12757 2202
50.14768 1814
50.1678 1650
50.18791 1586
50.20802 1393
50.22814 1379
50.24825 1079
50.26837 880
50.28848 649
50.30859 477
50.32871 357
50.34882 361
50.36893 320
50.38905 317
50.40916 329
50.42927 310
50.44939 322
50.4695 319
50.48962 296
50.50973 331
50.52984 349
50.54996 317
50.57007 295
50.59018 293
50.6103 298
50.63041 274
50.65053 288
50.67064 276
50.69075 265
50.71087 257
50.73098 236
50.75109 240
50.77121 224
50.79132 227
50.81143 193
50.83155 238
50.85166 204
50.87178 199
50.89189 197
50.912 182
50.93212 180
50.95223 186
50.97234 188
50.99246 169
51.01257 170
51.03269 186
51.0528 198
51.07291 182
51.09303 190
51.11314 191
51.13325 185
51.15337 156
51.17348 163
51.1936 189
51.21371 168
51.23382 175
51.25394 172
51.27405 180
51.29416 144
51.31428 163
51.33439 168
51.3545 180
51.37462 169
51.39473 169
51.41485 160
51.43496 144
51.45507 174
51.47519 162
51.4953 143
51.51541 166
51.53553 155
51.55564 146
51.57576 141
51.59587 172
51.61598 155
51.6361 169
51.65621 156
51.67632 153
51.69644 162
51.71655 156
51.73667 167
51.75678 144
51.77689 166
51.79701 169
51.81712 155
51.83723 180
51.85735 163
51.87746 170
51.89757 177
51.91769 166
51.9378 155
51.95792 154
51.97803 151
51.99814 165
52.01826 153
52.03837 149
52.05848 148
52.0786 146
52.09871 130
52.11883 165
52.13894 156
52.15905 142
52.17917 148
52.19928 162
52.21939 148
52.23951 172
52.25962 154
52.27974 170
52.29985 179
52.31996 153
52.34008 149
52.36019 156
52.3803 181
52.40042 182
52.42053 152
52.44064 169
52.46076 147
52.48087 178
52.50099 167
52.5211 163
52.54121 159
52.56133 187
52.58144 165
52.60155 147
52.62167 140
52.64178 158
52.6619 157
52.68201 173
52.70212 165
52.72224 180
52.74235 180
52.76246 186
52.78258 170
52.80269 170
52.8228 173
52.84292 165
52.86303 175
52.88315 170
52.90326 188
52.92337 161
52.94349 178
52.9636 155
52.98371 158
53.00383 165
53.02394 166
53.04406 167
53.06417 154
53.08428 166
53.1044 174
53.12451 138
53.14462 141
53.16474 194
53.18485 165
53.20497 176
53.22508 196
53.24519 162
53.26531 180
53.28542 168
53.30553 148
53.32565 164
53.34576 174
53.36587 173
53.38599 158
53.4061 169
53.42622 167
53.44633 180
53.46644 171
53.48656 170
53.50667 178
53.52678 160
53.5469 175
53.56701 189
53.58713 132
53.60724 187
53.62735 205
53.64747 179
53.66758 173
53.68769 189
53.70781 209
53.72792 158
53.74804 179
53.76815 164
53.78826 182
53.80838 172
53.82849 218
53.8486 155
53.86872 181
53.88883 161
53.90894 178
53.92906 173
53.94917 194
53.96929 184
53.9894 211
54.00951 172
54.02963 190
54.04974 198
54.06985 165
54.08997 221
54.11008 192
54.1302 192
54.15031 195
54.17042 201
54.19054 195
54.21065 186
54.23076 185
54.25088 228
54.27099 218
54.29111 205
54.31122 198
54.33133 217
54.35145 209
54.37156 208
54.39167 205
54.41179 211
54.4319 207
54.45201 228
54.47213 231
54.49224 245
54.51236 245
54.53247 259
54.55258 254
54.5727 292
54.59281 324
54.61292 351
54.63304 400
54.65315 424
54.67327 495
54.69338 554
54.71349 659
54.73361 744
54.75372 808
54.77383 841
54.79395 913
54.81406 925
54.83417 922
54.85429 830
54.8744 654
54.89452 555
54.91463 556
54.93474 555
54.95486 497
54.97497 483
54.99508 513
55.0152 403
55.03531 347
55.05543 306
55.07554 322
55.09565 319
55.11577 328
55.13588 368
55.15599 369
55.17611 356
55.19622 447
55.21634 464
55.23645 476
55.25656 499
55.27668 480
55.29679 471
55.3169 423
55.33702 380
55.35713 363
55.37724 353
55.39736 352
55.41747 363
55.43759 346
55.4577 297
55.47781 255
55.49793 243
55.51804 209
55.53815 221
55.55827 211
55.57838 191
55.5985 192
55.61861 184
55.63872 192
55.65884 170
55.67895 160
55.69906 179
55.71918 184
55.73929 166
55.75941 177
55.77952 184
55.79963 169
55.81975 178
55.83986 186
55.85997 166
55.88009 185
55.9002 162
55.92031 187
55.94043 160
55.96054 155
55.98066 161
56.00077 163
56.02088 156
56.041 181
56.06111 173
56.08122 157
56.10134 166
56.12145 163
56.14157 176
56.16168 186
56.18179 180
56.20191 178
56.22202 176
56.24213 193
56.26225 155
56.28236 171
56.30248 182
56.32259 151
56.3427 160
56.36282 166
56.38293 158
56.40304 160
56.42316 175
56.44327 183
56.46338 154
56.4835 186
56.50361 185
56.52373 157
56.54384 155
56.56395 145
56.58407 175
56.60418 182
56.62429 180
56.64441 178
56.66452 171
56.68464 168
56.70475 186
56.72486 191
56.74498 159
56.76509 170
56.7852 166
56.80532 177
56.82543 164
56.84554 175
56.86566 189
56.88577 180
56.90589 159
56.926 169
56.94611 176
56.96623 159
56.98634 167
57.00645 185
57.02657 169
57.04668 166
57.0668 181
57.08691 221
57.10702 196
57.12714 202
57.14725 213
57.16736 220
57.18748 193
57.20759 199
57.22771 195
57.24782 197
57.26793 198
57.28805 174
57.30816 214
57.32827 165
57.34839 197
57.3685 175
57.38861 177
57.40873 180
57.42884 175
57.44896 167
57.46907 185
57.48918 166
57.5093 166
57.52941 176
57.54952 180
57.56964 167
57.58975 170
57.60987 158
57.62998 181
57.65009 169
57.67021 156
57.69032 151
57.71043 180
57.73055 150
57.75066 163
57.77078 171
57.79089 145
57.811 130
57.83112 168
57.85123 177
57.87134 165
57.89146 144
57.91157 153
57.93168 172
57.9518 172
57.97191 155
57.99203 175
58.01214 175
58.03225 178
58.05237 151
58.07248 171
58.09259 181
58.11271 165
58.13282 191
58.15294 164
58.17305 179
58.19316 129
58.21328 151
58.23339 162
58.2535 166
58.27362 175
58.29373 150
58.31385 154
58.33396 180
58.35407 196
58.37419 150
58.3943 154
58.41441 181
58.43453 169
58.45464 189
58.47475 181
58.49487 173
58.51498 192
58.5351 157
58.55521 170
58.57532 166
58.59544 184
58.61555 190
58.63566 166
58.65578 192
58.67589 190
58.69601 167
58.71612 169
58.73623 169
58.75635 176
58.77646 154
58.79657 154
58.81669 177
58.8368 164
58.85691 142
58.87703 165
58.89714 161
58.91726 191
58.93737 147
58.95748 147
58.9776 146
58.99771 168
59.01782 180
59.03794 163
59.05805 169
59.07817 174
59.09828 180
59.11839 168
59.13851 167
59.15862 169
59.17873 168
59.19885 176
59.21896 176
59.23908 167
59.25919 173
59.2793 196
59.29942 188
59.31953 189
59.33964 188
59.35976 196
59.37987 197
59.39998 213
59.4201 228
59.44021 233
59.46033 208
59.48044 266
59.50055 270
59.52067 261
59.54078 323
59.56089 317
59.58101 333
59.60112 358
59.62124 388
59.64135 409
59.66146 476
59.68158 524
59.70169 551
59.7218 654
59.74192 708
59.76203 930
59.78215 1076
59.80226 1232
59.82237 1395
59.84249 1604
59.8626 1687
59.88271 1753
59.90283 1749
59.92294 1532
59.94305 1374
59.96317 1201
59.98328 1045
60.0034 981
60.02351 967
60.04362 959
60.06374 917
60.08385 777
60.10396 648
60.12408 541
60.14419 425
60.16431 325
60.18442 288
60.20453 262
60.22465 241
60.24476 237
60.26487 231
60.28499 236
60.3051 202
60.32522 199
60.34533 209
60.36544 190
60.38556 203
60.40567 187
60.42578 199
60.4459 191
60.46601 175
60.48612 179
60.50624 193
60.52635 175
60.54647 173
60.56658 166
60.58669 191
60.60681 168
60.62692 177
60.64703 191
60.66715 197
60.68726 173
60.70738 182
60.72749 184
60.7476 192
60.76772 162
60.78783 198
60.80794 174
60.82806 167
60.84817 189
60.86828 187
60.8884 190
60.90851 176
60.92863 189
60.94874 181
60.96885 162
60.98897 165
61.00908 173
61.02919 193
61.04931 187
61.06942 176
61.08954 177
61.10965 180
61.12976 193
61.14988 194
61.16999 178
61.1901 167
61.21022 174
61.23033 189
61.25045 180
61.27056 198
61.29067 190
61.31079 183
61.3309 176
61.35101 179
61.37113 173
61.39124 189
61.41135 183
61.43147 179
61.45158 186
61.4717 150
61.49181 170
61.51192 191
61.53204 186
61.55215 206
61.57226 180
61.59238 170
61.61249 206
61.63261 179
61.65272 171
61.67283 179
61.69295 195
61.71306 186
61.73317 206
61.75329 164
61.7734 168
61.79352 181
61.81363 212
61.83374 186
61.85386 198
61.87397 226
61.89408 193
61.9142 190
61.93431 208
61.95442 201
61.97454 192
61.99465 213
62.01477 210
62.03488 193
62.05499 204
62.07511 198
62.09522 204
62.11533 204
62.13545 191
62.15556 198
62.17568 193
62.19579 191
62.2159 184
62.23602 237
62.25613 179
62.27624 183
62.29636 191
62.31647 190
62.33659 173
62.3567 188
62.37681 184
62.39693 178
62.41704 182
62.43715 175
62.45727 192
62.47738 196
62.49749 181
62.51761 178
62.53772 167
62.55784 166
62.57795 179
62.59806 167
62.61818 162
62.63829 166
62.6584 169
62.67852 172
62.69863 172
62.71875 159
62.73886 161
62.75897 183
62.77909 175
62.7992 166
62.81931 166
62.83943 162
62.85954 194
62.87965 172
62.89977 162
62.91988 172
62.94 172
62.96011 163
62.98022 174
63.00034 169
63.02045 159
63.04056 166
63.06068 182
63.08079 179
63.10091 136
63.12102 175
63.14113 171
63.16125 180
63.18136 161
63.20147 148
63.22159 192
63.2417 174
63.26182 157
63.28193 163
63.30204 153
63.32216 182
63.34227 166
63.36238 187
63.3825 166
63.40261 168
63.42272 160
63.44284 159
63.46295 162
63.48307 159
63.50318 175
63.52329 197
63.54341 189
63.56352 170
63.58363 204
63.60375 196
63.62386 175
63.64398 196
63.66409 172
63.6842 182
63.70432 204
63.72443 240
63.74454 239
63.76466 246
63.78477 265
63.80489 284
63.825 278
63.84511 340
63.86523 348
63.88534 350
63.90545 407
63.92557 441
63.94568 456
63.96579 485
63.98591 440
64.00602 401
64.02614 380
64.04625 338
64.06636 304
64.08648 287
64.10659 312
64.1267 305
64.14682 260
64.16693 281
64.18705 274
64.20716 259
64.22727 194
64.24739 186
64.2675 171
64.28761 165
64.30773 185
64.32784 174
64.34796 154
64.36807 184
64.38818 178
64.4083 151
64.42841 136
64.44852 163
64.46864 142
64.48875 155
64.50886 152
64.52898 169
64.54909 143
64.56921 137
64.58932 164
64.60943 132
64.62955 148
64.64966 128
64.66977 147
64.68989 167
64.71 159
64.73012 159
64.75023 159
64.77034 164
64.79046 130
64.81057 151
64.83068 159
64.8508 157
64.87091 137
64.89102 180
64.91114 157
64.93125 164
64.95137 147
64.97148 159
64.99159 168
65.01171 157
65.03182 157
65.05193 151
65.07205 175
65.09216 158
65.11228 148
65.13239 168
65.1525 152
65.17262 152
65.19273 184
65.21284 153
65.23296 163
65.25307 163
65.27319 167
65.2933 149
65.31341 158
65.33353 173
65.35364 156
65.37375 164
65.39387 172
65.41398 174
65.43409 167
65.45421 172
65.47432 169
65.49444 187
65.51455 153
65.53466 183
65.55478 148
65.57489 183
65.595 194
65.61512 215
65.63523 209
65.65535 198
65.67546 222
65.69557 231
65.71569 228
65.7358 218
65.75591 210
65.77603 196
65.79614 207
65.81626 201
65.83637 184
65.85648 188
65.8766 196
65.89671 179
65.91682 202
65.93694 180
65.95705 200
65.97716 176
65.99728 189
66.01739 160
66.03751 159
66.05762 171
66.07773 156
66.09785 187
66.11796 167
66.13807 166
66.15819 164
66.1783 158
66.19842 176
66.21853 181
66.23864 157
66.25876 174
66.27887 171
66.29898 176
66.3191 132
66.33921 161
66.35933 190
66.37944 156
66.39955 166
66.41967 161
66.43978 164
66.45989 163
66.48001 171
66.50012 179
66.52023 148
66.54035 164
66.56046 160
66.58058 162
66.60069 159
66.6208 152
66.64092 162
66.66103 160
66.68114 167
66.70126 175
66.72137 142
66.74149 173
66.7616 175
66.78171 187
66.80183 157
66.82194 168
66.84205 174
66.86217 157
66.88228 159
66.90239 168
66.92251 170
66.94262 184
66.96274 183
66.98285 170
67.00296 204
67.02308 184
67.04319 188
67.0633 188
67.08342 159
67.10353 196
67.12365 181
67.14376 198
67.16387 192
67.18399 215
67.2041 229
67.22421 187
67.24433 190
67.26444 213
67.28456 227
67.30467 204
67.32478 259
67.3449 248
67.36501 274
67.38512 297
67.40524 303
67.42535 316
67.44546 346
67.46558 414
67.48569 408
67.50581 474
67.52592 560
67.54603 618
67.56615 725
67.58626 815
67.60637 909
67.62649 1028
67.6466 1068
67.66672 1132
67.68683 1113
67.70694 1033
67.72706 940
67.74717 844
67.76728 795
67.7874 780
67.80751 693
67.82763 861
67.84774 853
67.86785 891
67.88797 876
67.90808 881
67.92819 868
67.94831 944
67.96842 972
67.98853 1032
68.00865 1251
68.02876 1344
68.04888 1484
68.06899 1494
68.0891 1411
68.10922 1392
68.12933 1374
68.14944 1305
68.16956 1304
68.18967 1250
68.20979 1311
68.2299 1346
68.25001 1330
68.27013 1249
68.29024 1117
68.31035 1000
68.33047 738
68.35058 675
68.3707 601
68.39081 544
68.41092 538
68.43104 537
68.45115 486
68.47126 456
68.49138 420
68.51149 349
68.5316 283
68.55172 271
68.57183 211
68.59195 204
68.61206 205
68.63217 190
68.65229 191
68.6724 219
68.69251 189
68.71263 202
68.73274 189
68.75286 207
68.77297 169
68.79308 179
68.8132 190
68.83331 158
68.85342 165
68.87354 151
68.89365 183
68.91376 173
68.93388 183
68.95399 152
68.97411 152
68.99422 148
69.01433 182
69.03445 162
69.05456 154
69.07467 162
69.09479 150
69.1149 167
69.13502 156
69.15513 154
69.17524 173
69.19536 154
69.21547 174
69.23558 157
69.2557 142
69.27581 157
69.29593 146
69.31604 163
69.33615 186
69.35627 153
69.37638 146
69.39649 163
69.41661 165
69.43672 154
69.45683 171
69.47695 162
69.49706 157
69.51718 168
69.53729 152
69.5574 162
69.57752 157
69.59763 146
69.61774 164
69.63786 152
69.65797 164
69.67809 162
69.6982 138
69.71831 141
69.73843 160
69.75854 150
69.77865 152
69.79877 139
69.81888 143
69.839 148
69.85911 145
69.87922 131
69.89934 137
69.91945 158
69.93956 149
69.95968 154
69.97979 162
69.9999 131
70.02002 169
70.04013 156
70.06025 145
70.08036 146
70.10047 158
70.12059 142
70.1407 138
70.16081 161
70.18093 147
70.20104 171
70.22116 169
70.24127 153
70.26138 137
70.2815 148
70.30161 155
70.32172 151
70.34184 149
70.36195 177
70.38207 146
70.40218 139
70.42229 161
70.44241 146
70.46252 136
70.48263 157
70.50275 135
70.52286 140
70.54297 142
70.56309 141
70.5832 150
70.60332 156
70.62343 141
70.64354 165
70.66366 150
70.68377 139
70.70388 157
70.724 142
70.74411 145
70.76423 139
70.78434 170
70.80445 148
70.82457 140
70.84468 163
70.86479 142
70.88491 150
70.90502 140
70.92513 155
70.94525 135
70.96536 135
70.98548 132
71.00559 134
71.0257 141
71.04582 149
71.06593 136
71.08604 146
71.10616 155
71.12627 139
71.14639 127
71.1665 144
71.18661 142
71.20673 153
71.22684 132
71.24695 147
71.26707 147
71.28718 142
71.3073 155
71.32741 141
71.34752 144
71.36764 146
71.38775 133
71.40786 142
71.42798 154
71.44809 151
71.4682 168
71.48832 158
71.50843 149
71.52855 169
71.54866 155
71.56877 158
71.58889 131
71.609 160
71.62911 157
71.64923 158
71.66934 142
71.68946 142
71.70957 163
71.72968 144
71.7498 148
71.76991 152
71.79002 152
71.81014 156
71.83025 175
71.85037 166
71.87048 155
71.89059 139
71.91071 159
71.93082 140
71.95093 137
71.97105 146
71.99116 144
72.01127 167
72.03139 161
72.0515 160
72.07162 140
72.09173 167
72.11184 128
72.13196 131
72.15207 135
72.17218 168
72.1923 158
72.21241 159
72.23253 134
72.25264 169
72.27275 160
72.29287 145
72.31298 163
72.33309 174
72.35321 127
72.37332 135
72.39344 140
72.41355 156
72.43366 148
72.45378 141
72.47389 149
72.494 174
72.51412 153
72.53423 161
72.55434 145
72.57446 169
72.59457 158
72.61469 156
72.6348 166
72.65491 142
72.67503 156
72.69514 157
72.71525 170
72.73537 142
72.75548 167
72.7756 161
72.79571 146
72.81582 167
72.83594 153
72.85605 179
72.87616 157
72.89628 170
72.91639 166
72.9365 179
72.95662 163
72.97673 169
72.99685 179
73.01696 175
73.03707 206
73.05719 192
73.0773 173
73.09741 197
73.11753 217
73.13764 191
73.15776 206
73.17787 228
73.19798 233
73.2181 258
73.23821 271
73.25832 296
73.27844 308
73.29855 368
73.31867 408
73.33878 426
73.35889 446
73.37901 451
73.39912 495
73.41923 450
73.43935 428
73.45946 392
73.47957 333
73.49969 326
73.5198 323
73.53992 286
73.56003 280
73.58014 325
73.60026 281
73.62037 295
73.64048 281
73.6606 263
73.68071 222
73.70083 217
73.72094 183
73.74105 188
73.76117 177
73.78128 154
73.80139 158
73.82151 140
73.84162 149
73.86174 188
73.88185 163
73.90196 167
73.92208 162
73.94219 172
73.9623 153
73.98242 145
74.00253 152
74.02264 137
74.04276 172
74.06287 143
74.08299 142
74.1031 159
74.12321 156
74.14333 181
74.16344 138
74.18355 161
74.20367 161
74.22378 144
74.2439 170
74.26401 141
74.28412 153
74.30424 173
74.32435 162
74.34446 145
74.36458 151
74.38469 162
74.40481 138
74.42492 133
74.44503 172
74.46515 162
74.48526 155
74.50537 156
74.52549 161
74.5456 142
74.56571 164
74.58583 133
74.60594 152
74.62606 146
74.64617 151
74.66628 165
74.6864 149
74.70651 169
74.72662 167
74.74674 165
74.76685 157
74.78697 165
74.80708 162
74.82719 140
74.84731 163
74.86742 161
74.88753 150
74.90765 137
74.92776 160
74.94787 174
74.96799 148
74.9881 138
75.00822 153
