3.00117 20065
3.02128 19442
3.0414 18687
3.06151 18570
3.08162 17623
3.10174 17584
3.12185 16977
3.14197 16334
3.16208 15934
3.18219 15191
3.20231 15141
3.22242 14530
3.24253 14173
3.26265 13855
3.28276 13189
3.30288 12811
3.32299 12534
3.3431 11755
3.36322 11596
3.38333 11058
3.40344 11080
3.42356 10519
3.44367 10161
3.46379 9854
3.4839 9249
3.50401 9156
3.52413 8750
3.54424 8647
3.56435 7974
3.58447 7791
3.60458 7572
3.62469 7405
3.64481 7041
3.66492 6878
3.68504 6263
3.70515 6327
3.72526 6036
3.74538 5749
3.76549 5632
3.7856 5026
3.80572 5141
3.82583 5034
3.84595 4578
3.86606 4404
3.88617 4191
3.90629 4036
3.9264 3816
3.94651 3766
3.96663 3518
3.98674 3252
4.00686 3198
4.02697 3070
4.04708 2984
4.0672 2823
4.08731 2583
4.10742 2510
4.12754 2530
4.14765 2240
4.16776 2208
4.18788 2143
4.20799 2028
4.22811 2035
4.24822 1877
4.26833 1770
4.28845 1713
4.30856 1721
4.32867 1710
4.34879 1579
4.3689 1575
4.38902 1468
4.40913 1400
4.42924 1528
4.44936 1310
4.46947 1331
4.48958 1344
4.5097 1350
4.52981 1357
4.54992 1182
4.57004 1241
4.59015 1152
4.61027 1124
4.63038 1106
4.65049 1020
4.67061 1077
4.69072 1007
4.71083 995
4.73095 1032
4.75106 939
4.77118 929
4.79129 874
4.8114 888
4.83152 873
4.85163 809
4.87174 831
4.89186 845
4.91197 786
4.93209 774
4.9522 714
4.97231 701
4.99243 737
5.01254 766
5.03265 737
5.05277 654
5.07288 666
5.09299 650
5.11311 626
5.13322 622
5.15334 564
5.17345 587
5.19356 584
5.21368 561
5.23379 602
5.2539 485
5.27402 527
5.29413 532
5.31425 450
5.33436 478
5.35447 448
5.37459 415
5.3947 407
5.41481 468
5.43493 467
5.45504 408
5.47516 428
5.49527 429
5.51538 433
5.5355 380
5.55561 372
5.57572 345
5.59584 392
5.61595 349
5.63606 336
5.65618 345
5.67629 313
5.69641 358
5.71652 339
5.73663 327
5.75675 308
5.77686 331
5.79697 313
5.81709 355
5.8372 286
5.85732 272
5.87743 303
5.89754 289
5.91766 310
5.93777 293
5.95788 286
5.978 283
5.99811 285
6.01823 258
6.03834 246
6.05845 274
6.07857 246
6.09868 252
6.11879 270
6.13891 246
6.15902 273
6.17913 256
6.19925 266
6.21936 265
6.23948 253
6.25959 262
6.2797 267
6.29982 273
6.31993 246
6.34004 231
6.36016 251
6.38027 241
6.40039 278
6.4205 226
6.44061 244
6.46073 224
6.48084 253
6.50095 231
6.52107 245
6.54118 252
6.56129 232
6.58141 231
6.60152 254
6.62164 234
6.64175 226
6.66186 257
6.68198 228
6.70209 219
6.7222 236
6.74232 210
6.76243 213
6.78255 231
6.80266 200
6.82277 252
6.84289 254
6.863 214
6.88311 247
6.90323 231
6.92334 227
6.94346 225
6.96357 212
6.98368 207
7.0038 207
7.02391 236
7.04402 224
7.06414 228
7.08425 227
7.10436 235
7.12448 225
7.14459 261
7.16471 229
7.18482 206
7.20493 219
7.22505 219
7.24516 230
7.26527 247
7.28539 247
7.3055 245
7.32562 238
7.34573 236
7.36584 230
7.38596 230
7.40607 230
7.42618 233
7.4463 239
7.46641 241
7.48653 242
7.50664 254
7.52675 257
7.54687 229
7.56698 243
7.58709 217
7.60721 250
7.62732 226
7.64743 232
7.66755 217
7.68766 231
7.70778 200
7.72789 248
7.748 250
7.76812 222
7.78823 222
7.80834 242
7.82846 203
7.84857 253
7.86869 231
7.8888 226
7.90891 249
7.92903 241
7.94914 252
7.96925 241
7.98937 262
8.00948 250
8.0296 231
8.04971 247
8.06982 240
8.08994 221
8.11005 235
8.13016 268
8.15028 249
8.17039 243
8.1905 241
8.21062 255
8.23073 251
8.25085 277
8.27096 228
8.29107 254
8.31119 267
8.3313 213
8.35141 242
8.37153 242
8.39164 241
8.41176 237
8.43187 235
8.45198 249
8.4721 224
8.49221 278
8.51232 246
8.53244 266
8.55255 264
8.57266 259
8.59278 287
8.61289 253
8.63301 297
8.65312 233
8.67323 262
8.69335 285
8.71346 283
8.73357 269
8.75369 253
8.7738 314
8.79392 302
8.81403 344
8.83414 330
8.85426 354
8.87437 370
8.89448 349
8.9146 338
8.93471 298
8.95483 346
8.97494 284
8.99505 270
9.01517 230
9.03528 225
9.05539 257
9.07551 255
9.09562 231
9.11573 273
9.13585 225
9.15596 267
9.17608 241
9.19619 259
9.2163 258
9.23642 253
9.25653 258
9.27664 223
9.29676 270
9.31687 278
9.33699 252
9.3571 261
9.37721 286
9.39733 256
9.41744 264
9.43755 233
9.45767 251
9.47778 264
9.4979 256
9.51801 269
9.53812 227
9.55824 257
9.57835 230
9.59846 261
9.61858 223
9.63869 254
9.6588 235
9.67892 253
9.69903 298
9.71915 274
9.73926 283
9.75937 225
9.77949 249
9.7996 262
9.81971 233
9.83983 268
9.85994 248
9.88006 268
9.90017 249
9.92028 250
9.9404 265
9.96051 252
9.98062 234
10.00074 261
10.02085 247
10.04097 252
10.06108 249
10.08119 247
10.10131 255
10.12142 252
10.14153 279
10.16165 248
10.18176 254
10.20187 233
10.22199 255
10.2421 239
10.26222 242
10.28233 293
10.30244 247
10.32256 230
10.34267 233
10.36278 240
10.3829 265
10.40301 285
10.42313 273
10.44324 230
10.46335 261
10.48347 275
10.50358 215
10.52369 299
10.54381 252
10.56392 257
10.58403 252
10.60415 292
10.62426 286
10.64438 249
10.66449 262
10.6846 268
10.70472 284
10.72483 235
10.74494 244
10.76506 275
10.78517 254
10.80529 255
10.8254 251
10.84551 272
10.86563 249
10.88574 269
10.90585 239
10.92597 241
10.94608 265
10.9662 261
10.98631 244
11.00642 275
11.02654 267
11.04665 275
11.06676 287
11.08688 272
11.10699 272
11.1271 276
11.14722 268
11.16733 239
11.18745 279
11.20756 246
11.22767 271
11.24779 261
11.2679 258
11.28801 256
11.30813 270
11.32824 252
11.34836 231
11.36847 238
11.38858 268
11.4087 254
11.42881 252
11.44892 260
11.46904 260
11.48915 255
11.50927 273
11.52938 283
11.54949 282
11.56961 283
11.58972 286
11.60983 253
11.62995 275
11.65006 252
11.67017 328
11.69029 263
11.7104 291
11.73052 280
11.75063 297
11.77074 308
11.79086 292
11.81097 246
11.83108 299
11.8512 291
11.87131 298
11.89143 288
11.91154 313
11.93165 303
11.95177 310
11.97188 335
11.99199 346
12.01211 345
12.03222 319
12.05234 341
12.07245 387
12.09256 420
12.11268 393
12.13279 431
12.1529 410
12.17302 462
12.19313 458
12.21324 481
12.23336 496
12.25347 471
12.27359 510
12.2937 556
12.31381 517
12.33393 494
12.35404 557
12.37415 524
12.39427 524
12.41438 467
12.4345 505
12.45461 430
12.47472 458
12.49484 427
12.51495 426
12.53506 367
12.55518 334
12.57529 379
12.5954 313
12.61552 329
12.63563 311
12.65575 286
12.67586 281
12.69597 277
12.71609 261
12.7362 306
12.75631 273
12.77643 243
12.79654 281
12.81666 257
12.83677 244
12.85688 278
12.877 250
12.89711 272
12.91722 247
12.93734 260
12.95745 277
12.97757 230
12.99768 282
13.01779 228
13.03791 241
13.05802 216
13.07813 238
13.09825 227
13.11836 280
13.13847 227
13.15859 224
13.1787 257
13.19882 266
13.21893 258
13.23904 244
13.25916 244
13.27927 258
13.29938 243
13.3195 238
13.33961 235
13.35973 257
13.37984 224
13.39995 225
13.42007 264
13.44018 237
13.46029 220
13.48041 221
13.50052 223
13.52064 238
13.54075 205
13.56086 253
13.58098 226
13.60109 266
13.6212 256
13.64132 236
13.66143 200
13.68154 233
13.70166 261
13.72177 251
13.74189 235
13.762 237
13.78211 196
13.80223 215
13.82234 219
13.84245 219
13.86257 216
13.88268 258
13.9028 260
13.92291 240
13.94302 228
13.96314 234
13.98325 233
14.00336 218
14.02348 220
14.04359 223
14.06371 205
14.08382 253
14.10393 219
14.12405 219
14.14416 204
14.16427 219
14.18439 209
14.2045 237
14.22461 208
14.24473 238
14.26484 212
14.28496 251
14.30507 216
14.32518 206
14.3453 216
14.36541 234
14.38552 230
14.40564 228
14.42575 230
14.44587 219
14.46598 228
14.48609 237
14.50621 224
14.52632 229
14.54643 253
14.56655 223
14.58666 224
14.60677 235
14.62689 221
14.647 223
14.66712 213
14.68723 193
14.70734 198
14.72746 204
14.74757 212
14.76768 203
14.7878 223
14.80791 241
14.82803 201
14.84814 201
14.86825 209
14.88837 242
14.90848 220
14.92859 213
14.94871 197
14.96882 231
14.98894 226
15.00905 214
15.02916 219
15.04928 233
15.06939 172
15.0895 189
15.10962 225
15.12973 220
15.14984 191
15.16996 195
15.19007 197
15.21019 235
15.2303 173
15.25041 223
15.27053 211
15.29064 200
15.31075 198
15.33087 222
15.35098 180
15.3711 200
15.39121 227
15.41132 209
15.43144 228
15.45155 210
15.47166 205
15.49178 204
15.51189 194
15.53201 215
15.55212 183
15.57223 221
15.59235 237
15.61246 231
15.63257 233
15.65269 219
15.6728 197
15.69291 244
15.71303 229
15.73314 208
15.75326 199
15.77337 214
15.79348 235
15.8136 223
15.83371 210
15.85382 178
15.87394 202
15.89405 230
15.91417 211
15.93428 212
15.95439 217
15.97451 207
15.99462 219
16.01473 223
16.03485 208
16.05496 219
16.07508 212
16.09519 200
16.1153 216
16.13542 199
16.15553 205
16.17564 203
16.19576 195
16.21587 207
16.23598 217
16.2561 214
16.27621 220
16.29633 223
16.31644 210
16.33655 240
16.35667 210
16.37678 216
16.39689 199
16.41701 159
16.43712 214
16.45724 197
16.47735 192
16.49746 227
16.51758 212
16.53769 219
16.5578 199
16.57792 194
16.59803 202
16.61814 202
16.63826 178
16.65837 215
16.67849 208
16.6986 214
16.71871 197
16.73883 224
16.75894 214
16.77905 225
16.79917 241
16.81928 164
16.8394 218
16.85951 200
16.87962 207
16.89974 222
16.91985 232
16.93996 220
16.96008 212
16.98019 201
17.00031 186
17.02042 192
17.04053 202
17.06065 228
17.08076 188
17.10087 196
17.12099 203
17.1411 214
17.16121 204
17.18133 204
17.20144 203
17.22156 199
17.24167 212
17.26178 211
17.2819 206
17.30201 221
17.32212 208
17.34224 190
17.36235 233
17.38247 207
17.40258 216
17.42269 214
17.44281 224
17.46292 196
17.48303 205
17.50315 200
17.52326 184
17.54338 223
17.56349 201
17.5836 213
17.60372 235
17.62383 224
17.64394 210
17.66406 206
17.68417 271
17.70428 236
17.7244 243
17.74451 217
17.76463 244
17.78474 214
17.80485 255
17.82497 231
17.84508 247
17.86519 209
17.88531 235
17.90542 213
17.92554 235
17.94565 200
17.96576 200
17.98588 218
18.00599 182
18.0261 185
18.04622 219
18.06633 207
18.08645 204
18.10656 213
18.12667 220
18.14679 221
18.1669 220
18.18701 216
18.20713 215
18.22724 206
18.24735 219
18.26747 198
18.28758 259
18.3077 215
18.32781 195
18.34792 191
18.36804 215
18.38815 220
18.40826 215
18.42838 216
18.44849 219
18.46861 200
18.48872 203
18.50883 210
18.52895 210
18.54906 209
18.56917 203
18.58929 198
18.6094 202
18.62951 203
18.64963 189
18.66974 226
18.68986 226
18.70997 222
18.73008 224
18.7502 211
18.77031 235
18.79042 213
18.81054 218
18.83065 234
18.85077 235
18.87088 208
18.89099 179
18.91111 221
18.93122 193
18.95133 210
18.97145 225
18.99156 218
19.01168 208
19.03179 241
19.0519 199
19.07202 212
19.09213 216
19.11224 227
19.13236 226
19.15247 241
19.17258 250
19.1927 211
19.21281 194
19.23293 218
19.25304 231
19.27315 237
19.29327 218
19.31338 231
19.33349 222
19.35361 219
19.37372 246
19.39384 220
19.41395 232
19.43406 222
19.45418 256
19.47429 223
19.4944 239
19.51452 223
19.53463 219
19.55475 247
19.57486 267
19.59497 247
19.61509 275
19.6352 260
19.65531 297
19.67543 303
19.69554 347
19.71565 356
19.73577 409
19.75588 428
19.776 426
19.79611 440
19.81622 461
19.83634 466
19.85645 489
19.87656 530
19.89668 491
19.91679 504
19.93691 505
19.95702 475
19.97713 442
19.99725 407
20.01736 385
20.03747 408
20.05759 392
20.0777 414
20.09782 417
20.11793 394
20.13804 395
20.15816 391
20.17827 436
20.19838 489
20.2185 418
20.23861 425
20.25872 407
20.27884 402
20.29895 431
20.31907 408
20.33918 447
20.35929 415
20.37941 426
20.39952 477
20.41963 503
20.43975 454
20.45986 464
20.47998 418
20.50009 507
20.5202 570
20.54032 532
20.56043 582
20.58054 676
20.60066 638
20.62077 742
20.64088 865
20.661 965
20.68111 1291
20.70123 1636
20.72134 2058
20.74145 2759
20.76157 3503
20.78168 4161
20.80179 5173
20.82191 5774
20.84202 6066
20.86214 6132
20.88225 5305
20.90236 4269
20.92248 3138
20.94259 2062
20.9627 1373
20.98282 924
21.00293 725
21.02305 620
21.04316 574
21.06327 532
21.08339 533
21.1035 454
21.12361 500
21.14373 480
21.16384 446
21.18395 473
21.20407 425
21.22418 444
21.2443 457
21.26441 444
21.28452 418
21.30464 477
21.32475 425
21.34486 419
21.36498 450
21.38509 431
21.40521 416
21.42532 406
21.44543 394
21.46555 340
21.48566 382
21.50577 379
21.52589 360
21.546 392
21.56612 365
21.58623 366
21.60634 358
21.62646 335
21.64657 342
21.66668 362
21.6868 372
21.70691 351
21.72702 370
21.74714 354
21.76725 331
21.78737 328
21.80748 347
21.82759 324
21.84771 342
21.86782 324
21.88793 359
21.90805 332
21.92816 339
21.94828 349
21.96839 302
21.9885 284
22.00862 311
22.02873 314
22.04884 307
22.06896 276
22.08907 321
22.10919 308
22.1293 308
22.14941 325
22.16953 346
22.18964 328
22.20975 311
22.22987 299
22.24998 308
22.27009 308
22.29021 302
22.31032 331
22.33044 284
22.35055 293
22.37066 302
22.39078 292
22.41089 279
22.431 295
22.45112 293
22.47123 310
22.49135 306
22.51146 331
22.53157 297
22.55169 297
22.5718 289
22.59191 275
22.61203 306
22.63214 309
22.65225 305
22.67237 311
22.69248 299
22.7126 311
22.73271 298
22.75282 307
22.77294 313
22.79305 311
22.81316 338
22.83328 289
22.85339 327
22.87351 292
22.89362 367
22.91373 289
22.93385 364
22.95396 354
22.97407 299
22.99419 286
23.0143 309
23.03442 290
23.05453 290
23.07464 280
23.09476 280
23.11487 284
23.13498 281
23.1551 285
23.17521 306
23.19532 269
23.21544 244
23.23555 257
23.25567 287
23.27578 288
23.29589 282
23.31601 267
23.33612 286
23.35623 283
23.37635 265
23.39646 297
23.41658 292
23.43669 251
23.4568 295
23.47692 301
23.49703 278
23.51714 272
23.53726 282
23.55737 270
23.57749 277
23.5976 294
23.61771 316
23.63783 286
23.65794 298
23.67805 287
23.69817 289
23.71828 328
23.73839 322
23.75851 299
23.77862 320
23.79874 334
23.81885 327
23.83896 340
23.85908 358
23.87919 317
23.8993 356
23.91942 367
23.93953 351
23.95965 369
23.97976 318
23.99987 324
24.01999 360
24.0401 342
24.06021 322
24.08033 284
24.10044 252
24.12056 279
24.14067 299
24.16078 288
24.1809 273
24.20101 298
24.22112 255
24.24124 282
24.26135 260
24.28146 315
24.30158 281
24.32169 303
24.34181 289
24.36192 285
24.38203 269
24.40215 270
24.42226 288
24.44237 325
24.46249 289
24.4826 313
24.50272 347
24.52283 316
24.54294 343
24.56306 365
24.58317 335
24.60328 342
24.6234 372
24.64351 357
24.66362 394
24.68374 395
24.70385 392
24.72397 420
24.74408 445
24.76419 441
24.78431 387
24.80442 444
24.82453 451
24.84465 431
24.86476 453
24.88488 490
24.90499 456
24.9251 447
24.94522 442
24.96533 447
24.98544 426
25.00556 429
25.02567 380
25.04579 415
25.0659 395
25.08601 358
25.10613 361
25.12624 363
25.14635 345
25.16647 362
25.18658 360
25.20669 395
25.22681 375
25.24692 367
25.26704 358
25.28715 324
25.30726 342
25.32738 367
25.34749 358
25.3676 348
25.38772 358
25.40783 371
25.42795 382
25.44806 343
25.46817 334
25.48829 344
25.5084 396
25.52851 335
25.54863 371
25.56874 356
25.58886 388
25.60897 360
25.62908 406
25.6492 397
25.66931 387
25.68942 395
25.70954 415
25.72965 424
25.74976 450
25.76988 440
25.78999 450
25.81011 441
25.83022 442
25.85033 457
25.87045 496
25.89056 479
25.91067 504
25.93079 480
25.9509 492
25.97102 541
25.99113 528
26.01124 477
26.03136 592
26.05147 538
26.07158 622
26.0917 587
26.11181 658
26.13193 678
26.15204 729
26.17215 777
26.19227 774
26.21238 891
26.23249 914
26.25261 1027
26.27272 1125
26.29283 1237
26.31295 1373
26.33306 1583
26.35318 1853
26.37329 2173
26.3934 2659
26.41352 3522
26.43363 4391
26.45374 5742
26.47386 7509
26.49397 9730
26.51409 12494
26.5342 15746
26.55431 19665
26.57443 23243
26.59454 25614
26.61465 27126
26.63477 26406
26.65488 23149
26.67499 18466
26.69511 14001
26.71522 10397
26.73534 6851
26.75545 4228
26.77556 2743
26.79568 1977
26.81579 1571
26.8359 1469
26.85602 1255
26.87613 1139
26.89625 1007
26.91636 957
26.93647 868
26.95659 794
26.9767 719
26.99681 642
27.01693 628
27.03704 567
27.05716 510
27.07727 495
27.09738 505
27.1175 468
27.13761 446
27.15772 456
27.17784 446
27.19795 432
27.21806 441
27.23818 454
27.25829 433
27.27841 424
27.29852 431
27.31863 428
27.33875 430
27.35886 402
27.37897 430
27.39909 393
27.4192 403
27.43932 377
27.45943 364
27.47954 388
27.49966 396
27.51977 377
27.53988 371
27.56 369
27.58011 367
27.60023 402
27.62034 368
27.64045 376
27.66057 359
27.68068 357
27.70079 358
27.72091 354
27.74102 381
27.76113 368
27.78125 352
27.80136 356
27.82148 347
27.84159 391
27.8617 363
27.88182 382
27.90193 371
27.92204 383
27.94216 376
27.96227 343
27.98239 349
28.0025 340
28.02261 310
28.04273 316
28.06284 298
28.08295 356
28.10307 305
28.12318 338
28.1433 327
28.16341 300
28.18352 287
28.20364 285
28.22375 332
28.24386 294
28.26398 286
28.28409 280
28.3042 278
28.32432 250
28.34443 302
28.36455 293
28.38466 294
28.40477 293
28.42489 279
28.445 284
28.46511 264
28.48523 281
28.50534 272
28.52546 257
28.54557 270
28.56568 252
28.5858 301
28.60591 258
28.62602 266
28.64614 291
28.66625 263
28.68636 257
28.70648 285
28.72659 271
28.74671 294
28.76682 291
28.78693 267
28.80705 292
28.82716 255
28.84727 256
28.86739 272
28.8875 253
28.90762 299
28.92773 252
28.94784 275
28.96796 274
28.98807 278
29.00818 298
29.0283 270
29.04841 269
29.06853 255
29.08864 300
29.10875 283
29.12887 280
29.14898 263
29.16909 297
29.18921 250
29.20932 271
29.22943 245
29.24955 279
29.26966 276
29.28978 286
29.30989 250
29.33 247
29.35012 281
29.37023 262
29.39034 279
29.41046 279
29.43057 250
29.45069 302
29.4708 283
29.49091 307
29.51103 306
29.53114 309
29.55125 341
29.57137 349
29.59148 367
29.6116 378
29.63171 358
29.65182 339
29.67194 343
29.69205 320
29.71216 299
29.73228 280
29.75239 330
29.7725 295
29.79262 313
29.81273 274
29.83285 308
29.85296 313
29.87307 275
29.89319 300
29.9133 293
29.93341 286
29.95353 290
29.97364 265
29.99376 256
30.01387 272
30.03398 258
30.0541 258
30.07421 268
30.09432 231
30.11444 237
30.13455 275
30.15467 280
30.17478 244
30.19489 229
30.21501 215
30.23512 243
30.25523 232
30.27535 236
30.29546 219
30.31557 238
30.33569 231
30.3558 242
30.37592 231
30.39603 247
30.41614 220
30.43626 257
30.45637 263
30.47648 244
30.4966 222
30.51671 251
30.53683 247
30.55694 259
30.57705 231
30.59717 256
30.61728 232
30.63739 228
30.65751 234
30.67762 244
30.69773 246
30.71785 230
30.73796 243
30.75808 237
30.77819 239
30.7983 246
30.81842 236
30.83853 249
30.85864 201
30.87876 215
30.89887 260
30.91899 219
30.9391 237
30.95921 214
30.97933 219
30.99944 233
31.01955 241
31.03967 237
31.05978 246
31.0799 252
31.10001 244
31.12012 224
31.14024 251
31.16035 251
31.18046 254
31.20058 280
31.22069 276
31.2408 246
31.26092 280
31.28103 280
31.30115 281
31.32126 271
31.34137 263
31.36149 257
31.3816 290
31.40171 222
31.42183 242
31.44194 223
31.46206 235
31.48217 268
31.50228 254
31.5224 246
31.54251 259
31.56262 236
31.58274 247
31.60285 254
31.62297 227
31.64308 248
31.66319 239
31.68331 224
31.70342 214
31.72353 207
31.74365 215
31.76376 247
31.78387 231
31.80399 220
31.8241 254
31.84422 241
31.86433 222
31.88444 220
31.90456 248
31.92467 240
31.94478 210
31.9649 241
31.98501 230
32.00513 248
32.02524 249
32.04535 247
32.06547 234
32.08558 252
32.10569 257
32.12581 249
32.14592 263
32.16604 275
32.18615 246
32.20626 274
32.22638 242
32.24649 281
32.2666 278
32.28672 301
32.30683 271
32.32694 291
32.34706 284
32.36717 244
32.38729 242
32.4074 264
32.42751 246
32.44763 226
32.46774 241
32.48785 235
32.50797 249
32.52808 244
32.5482 206
32.56831 276
32.58842 236
32.60854 220
32.62865 193
32.64876 217
32.66888 216
32.68899 239
32.7091 241
32.72922 223
32.74933 221
32.76945 247
32.78956 240
32.80967 217
32.82979 209
32.8499 227
32.87001 261
32.89013 226
32.91024 216
32.93036 217
32.95047 223
32.97058 254
32.9907 207
33.01081 232
33.03092 254
33.05104 249
33.07115 263
33.09127 268
33.11138 287
33.13149 293
33.15161 289
33.17172 299
33.19183 317
33.21195 337
33.23206 303
33.25217 333
33.27229 295
33.2924 293
33.31252 265
33.33263 258
33.35274 270
33.37286 234
33.39297 255
33.41308 218
33.4332 258
33.45331 229
33.47343 245
33.49354 226
33.51365 224
33.53377 218
33.55388 215
33.57399 210
33.59411 236
33.61422 224
33.63434 205
33.65445 222
33.67456 209
33.69468 206
33.71479 218
33.7349 210
33.75502 209
33.77513 193
33.79524 204
33.81536 196
33.83547 211
33.85559 190
33.8757 193
33.89581 204
33.91593 216
33.93604 164
33.95615 189
33.97627 206
33.99638 201
34.0165 163
34.03661 214
34.05672 188
34.07684 192
34.09695 201
34.11706 192
34.13718 205
34.15729 185
34.17741 203
34.19752 214
34.21763 197
34.23775 198
34.25786 208
34.27797 207
34.29809 236
34.3182 219
34.33831 240
34.35843 190
34.37854 210
34.39866 224
34.41877 225
34.43888 233
34.459 250
34.47911 219
34.49922 239
34.51934 261
34.53945 267
34.55957 275
34.57968 266
34.59979 270
34.61991 263
34.64002 275
34.66013 288
34.68025 298
34.70036 281
34.72047 255
34.74059 321
34.7607 317
34.78082 305
34.80093 310
34.82104 341
34.84116 323
34.86127 325
34.88138 392
34.9015 471
34.92161 422
34.94173 430
34.96184 463
34.98195 452
35.00207 480
35.02218 415
35.04229 404
35.06241 458
35.08252 386
35.10264 421
35.12275 375
35.14286 366
35.16298 340
35.18309 336
35.2032 302
35.22332 328
35.24343 303
35.26354 318
35.28366 279
35.30377 284
35.32389 325
35.344 278
35.36411 310
35.38423 317
35.40434 286
35.42445 282
35.44457 265
35.46468 294
35.4848 265
35.50491 283
35.52502 252
35.54514 239
35.56525 264
35.58536 280
35.60548 277
35.62559 300
35.64571 259
35.66582 272
35.68593 263
35.70605 278
35.72616 296
35.74627 294
35.76639 289
35.7865 310
35.80661 315
35.82673 306
35.84684 309
35.86696 328
35.88707 317
35.90718 311
35.9273 301
35.94741 324
35.96752 330
35.98764 291
36.00775 331
36.02787 320
36.04798 287
36.06809 337
36.08821 306
36.10832 288
36.12843 311
36.14855 305
36.16866 290
36.18878 370
36.20889 356
36.229 384
36.24912 388
36.26923 424
36.28934 490
36.30946 573
36.32957 603
36.34968 714
36.3698 835
36.38991 983
36.41003 1191
36.43014 1326
36.45025 1511
36.47037 1700
36.49048 1955
36.51059 2005
36.53071 1890
36.55082 1649
36.57094 1493
36.59105 1268
36.61116 1093
36.63128 861
36.65139 772
36.6715 603
36.69162 471
36.71173 379
36.73184 303
36.75196 330
36.77207 298
36.79219 305
36.8123 282
36.83241 297
36.85253 250
36.87264 287
36.89275 268
36.91287 261
36.93298 252
36.9531 226
36.97321 248
36.99332 254
37.01344 252
37.03355 264
37.05366 269
37.07378 248
37.09389 269
37.11401 253
37.13412 249
37.15423 242
37.17435 296
37.19446 281
37.21457 262
37.23469 255
37.2548 253
37.27491 283
37.29503 322
37.31514 312
37.33526 344
37.35537 348
37.37548 381
37.3956 372
37.41571 362
37.43582 370
37.45594 364
37.47605 367
37.49617 395
37.51628 358
37.53639 313
37.55651 320
37.57662 270
37.59673 298
37.61685 334
37.63696 286
37.65708 272
37.67719 274
37.6973 290
37.71742 278
37.73753 333
37.75764 317
37.77776 332
37.79787 285
37.81798 335
37.8381 330
37.85821 352
37.87833 328
37.89844 326
37.91855 316
37.93867 283
37.95878 332
37.97889 297
37.99901 305
38.01912 300
38.03924 313
38.05935 326
38.07946 345
38.09958 329
38.11969 357
38.1398 348
38.15992 328
38.18003 339
38.20015 355
38.22026 348
38.24037 331
38.26049 327
38.2806 336
38.30071 310
38.32083 346
38.34094 336
38.36105 325
38.38117 300
38.40128 358
38.4214 345
38.44151 317
38.46162 316
38.48174 321
38.50185 295
38.52196 342
38.54208 289
38.56219 283
38.58231 321
38.60242 286
38.62253 299
38.64265 268
38.66276 253
38.68287 250
38.70299 280
38.7231 261
38.74321 262
38.76333 253
38.78344 263
38.80356 271
38.82367 276
38.84378 254
38.8639 272
38.88401 284
38.90412 280
38.92424 274
38.94435 267
38.96447 279
38.98458 279
39.00469 303
39.02481 299
39.04492 330
39.06503 379
39.08515 311
39.10526 368
39.12538 378
39.14549 416
39.1656 470
39.18572 437
39.20583 506
39.22594 584
39.24606 687
39.26617 718
39.28628 867
39.3064 951
39.32651 1160
39.34663 1231
39.36674 1444
39.38685 1593
39.40697 1682
39.42708 1862
39.44719 1763
39.46731 1697
39.48742 1454
39.50754 1240
39.52765 1047
39.54776 1003
39.56788 746
39.58799 695
39.6081 503
39.62822 399
39.64833 350
39.66845 320
39.68856 317
39.70867 313
39.72879 304
39.7489 304
39.76901 274
39.78913 263
39.80924 258
39.82935 259
39.84947 276
39.86958 272
39.8897 264
39.90981 269
39.92992 279
39.95004 303
39.97015 334
39.99026 296
40.01038 311
40.03049 351
40.05061 403
40.07072 406
40.09083 527
40.11095 514
40.13106 599
40.15117 636
40.17129 763
40.1914 858
40.21152 893
40.23163 974
40.25174 997
40.27186 942
40.29197 893
40.31208 778
40.3322 705
40.35231 565
40.37242 556
40.39254 516
40.41265 434
40.43277 347
40.45288 332
40.47299 281
40.49311 276
40.51322 283
40.53333 276
40.55345 243
40.57356 250
40.59368 222
40.61379 231
40.6339 236
40.65402 232
40.67413 228
40.69424 247
40.71436 213
40.73447 260
40.75458 237
40.7747 209
40.79481 244
40.81493 230
40.83504 236
40.85515 242
40.87527 232
40.89538 239
40.91549 220
40.93561 246
40.95572 232
40.97584 228
40.99595 256
41.01606 232
41.03618 222
41.05629 251
41.0764 238
41.09652 264
41.11663 255
41.13675 249
41.15686 243
41.17697 237
41.19709 252
41.2172 244
41.23731 235
41.25743 223
41.27754 225
41.29765 272
41.31777 232
41.33788 239
41.358 206
41.37811 258
41.39822 199
41.41834 232
41.43845 233
41.45856 229
41.47868 211
41.49879 240
41.51891 210
41.53902 218
41.55913 194
41.57925 226
41.59936 223
41.61947 219
41.63959 212
41.6597 201
41.67982 205
41.69993 226
41.72004 233
41.74016 230
41.76027 211
41.78038 234
41.8005 222
41.82061 229
41.84072 232
41.86084 223
41.88095 209
41.90107 259
41.92118 243
41.94129 230
41.96141 242
41.98152 259
42.00163 245
42.02175 256
42.04186 275
42.06198 298
42.08209 299
42.1022 303
42.12232 301
42.14243 311
42.16254 337
42.18266 410
42.20277 447
42.22289 449
42.243 562
42.26311 615
42.28323 718
42.30334 851
42.32345 934
42.34357 1019
42.36368 1193
42.38379 1230
42.40391 1350
42.42402 1332
42.44414 1301
42.46425 1092
42.48436 947
42.50448 865
42.52459 699
42.5447 609
42.56482 607
42.58493 475
42.60505 363
42.62516 309
42.64527 274
42.66539 274
42.6855 265
42.70561 263
42.72573 253
42.74584 255
42.76595 280
42.78607 259
42.80618 232
42.8263 266
42.84641 235
42.86652 218
42.88664 228
42.90675 250
42.92686 208
42.94698 232
42.96709 242
42.98721 209
43.00732 237
43.02743 197
43.04755 207
43.06766 227
43.08777 209
43.10789 194
43.128 172
43.14812 211
43.16823 184
43.18834 206
43.20846 203
43.22857 207
43.24868 194
43.2688 204
43.28891 211
43.30902 195
43.32914 217
43.34925 215
43.36937 186
43.38948 205
43.40959 202
43.42971 189
43.44982 210
43.46993 194
43.49005 199
43.51016 206
43.53028 176
43.55039 191
43.5705 196
43.59062 204
43.61073 177
43.63084 190
43.65096 200
43.67107 190
43.69119 183
43.7113 190
43.73141 199
43.75153 200
43.77164 194
43.79175 201
43.81187 184
43.83198 221
43.85209 201
43.87221 183
43.89232 205
43.91244 190
43.93255 191
43.95266 216
43.97278 213
43.99289 224
44.013 197
44.03312 212
44.05323 198
44.07335 188
44.09346 195
44.11357 189
44.13369 197
44.1538 207
44.17391 206
44.19403 182
44.21414 197
44.23426 211
44.25437 194
44.27448 209
44.2946 183
44.31471 188
44.33482 195
44.35494 207
44.37505 196
44.39516 189
44.41528 188
44.43539 202
44.45551 200
44.47562 171
44.49573 208
44.51585 185
44.53596 193
44.55607 183
44.57619 200
44.5963 197
44.61642 203
44.63653 193
44.65664 190
44.67676 209
44.69687 186
44.71698 199
44.7371 203
44.75721 203
44.77732 197
44.79744 218
44.81755 192
44.83767 199
44.85778 197
44.87789 221
44.89801 183
44.91812 204
44.93823 199
44.95835 200
44.97846 213
44.99858 232
45.01869 200
45.0388 199
45.05892 238
45.07903 205
45.09914 206
45.11926 209
45.13937 208
45.15949 219
45.1796 215
45.19971 223
45.21983 247
45.23994 232
45.26005 240
45.28017 240
45.30028 264
45.32039 269
45.34051 246
45.36062 289
45.38074 249
45.40085 272
45.42096 272
45.44108 319
45.46119 319
45.4813 329
45.50142 331
45.52153 364
45.54165 386
45.56176 416
45.58187 438
45.60199 502
45.6221 571
45.64221 657
45.66233 698
45.68244 790
45.70256 862
45.72267 925
45.74278 1007
45.7629 1012
45.78301 956
45.80312 870
45.82324 793
45.84335 689
45.86346 604
45.88358 569
45.90369 518
45.92381 474
45.94392 388
45.96403 307
45.98415 272
46.00426 296
46.02437 278
46.04449 254
46.0646 247
46.08472 277
46.10483 261
46.12494 246
46.14506 237
46.16517 249
46.18528 223
46.2054 238
46.22551 210
46.24563 218
46.26574 226
46.28585 196
46.30597 199
46.32608 213
46.34619 197
46.36631 194
46.38642 192
46.40653 204
46.42665 194
46.44676 193
46.46688 207
46.48699 185
46.5071 215
46.52722 214
46.54733 220
46.56744 235
46.58756 199
46.60767 204
46.62779 185
46.6479 204
46.66801 191
46.68813 192
46.70824 205
46.72835 191
46.74847 189
46.76858 196
46.78869 187
46.80881 178
46.82892 184
46.84904 181
46.86915 189
46.88926 194
46.90938 181
46.92949 202
46.9496 201
46.96972 201
46.98983 190
47.00995 190
47.03006 192
47.05017 188
47.07029 191
47.0904 191
47.11051 200
47.13063 184
47.15074 218
47.17086 163
47.19097 223
47.21108 179
47.2312 182
47.25131 178
47.27142 163
47.29154 187
47.31165 184
47.33176 193
47.35188 188
47.37199 171
47.39211 175
47.41222 178
47.43233 168
47.45245 174
47.47256 210
47.49267 190
47.51279 192
47.5329 166
47.55302 182
47.57313 185
47.59324 188
47.61336 208
47.63347 189
47.65358 195
47.6737 177
47.69381 186
47.71393 168
47.73404 185
47.75415 165
47.77427 194
47.79438 169
47.81449 180
47.83461 201
47.85472 202
47.87483 215
47.89495 196
47.91506 199
47.93518 212
47.95529 207
47.9754 194
47.99552 192
48.01563 207
48.03574 202
48.05586 180
48.07597 183
48.09609 205
48.1162 172
48.13631 189
48.15643 170
48.17654 195
48.19665 174
48.21677 203
48.23688 195
48.257 194
48.27711 194
48.29722 191
48.31734 198
48.33745 154
48.35756 185
48.37768 200
48.39779 198
48.4179 218
48.43802 209
48.45813 192
48.47825 204
48.49836 202
48.51847 178
48.53859 215
48.5587 170
48.57881 198
48.59893 214
48.61904 187
48.63916 247
48.65927 183
48.67938 198
48.6995 207
48.71961 191
48.73972 208
48.75984 202
48.77995 214
48.80006 201
48.82018 168
48.84029 234
48.86041 186
48.88052 211
48.90063 191
48.92075 200
48.94086 174
48.96097 220
48.98109 201
49.0012 170
49.02132 189
49.04143 188
49.06154 209
49.08166 186
49.10177 196
49.12188 223
49.142 219
49.16211 203
49.18223 182
49.20234 201
49.22245 215
49.24257 189
49.26268 210
49.28279 202
49.30291 214
49.32302 204
49.34313 212
49.36325 205
49.38336 220
49.40348 201
49.42359 206
49.4437 204
49.46382 207
49.48393 230
49.50404 233
49.52416 245
49.54427 241
49.56439 240
49.5845 262
49.60461 270
49.62473 240
49.64484 283
49.66495 290
49.68507 309
49.70518 339
49.7253 335
49.74541 346
49.76552 393
49.78564 404
49.80575 475
49.82586 537
49.84598 589
49.86609 656
49.8862 720
49.90632 892
49.92643 999
49.94655 1227
49.96666 1416
49.98677 1611
50.00689 1967
50.027 2237
50.04711 2368
50.06723 2622
50.08734 2681
50.10746 2773
50.12757 2571
50.14768 2215
50.1678 1946
50.18791 1628
50.20802 1444
50.22814 1419
50.24825 1270
50.26837 1126
50.28848 829
50.30859 610
50.32871 448
50.34882 392
50.36893 307
50.38905 308
50.40916 307
50.42927 294
50.44939 305
50.4695 301
50.48962 279
50.50973 295
50.52984 259
50.54996 263
50.57007 301
50.59018 289
50.6103 262
50.63041 232
50.65053 256
50.67064 261
50.69075 247
50.71087 228
50.73098 236
50.75109 227
50.77121 232
50.79132 202
50.81143 214
50.83155 213
50.85166 214
50.87178 217
50.89189 212
50.912 204
50.93212 200
50.95223 193
50.97234 195
50.99246 196
51.01257 178
51.03269 194
51.0528 212
51.07291 206
51.09303 222
51.11314 186
51.13325 189
51.15337 216
51.17348 204
51.1936 192
51.21371 171
51.23382 202
51.25394 185
51.27405 211
51.29416 199
51.31428 184
51.33439 202
51.3545 192
51.37462 193
51.39473 181
51.41485 173
51.43496 206
51.45507 195
51.47519 196
51.4953 189
51.51541 162
51.53553 190
51.55564 179
51.57576 191
51.59587 180
51.61598 167
51.6361 175
51.65621 184
51.67632 184
51.69644 187
51.71655 162
51.73667 167
51.75678 170
51.77689 163
51.79701 186
51.81712 165
51.83723 159
51.85735 193
51.87746 165
51.89757 202
51.91769 162
51.9378 152
51.95792 201
51.97803 188
51.99814 178
52.01826 172
52.03837 171
52.05848 187
52.0786 193
52.09871 189
52.11883 165
52.13894 181
52.15905 186
52.17917 203
52.19928 192
52.21939 141
52.23951 166
52.25962 186
52.27974 169
52.29985 172
52.31996 180
52.34008 148
52.36019 160
52.3803 186
52.40042 186
52.42053 187
52.44064 170
52.46076 165
52.48087 158
52.50099 176
52.5211 199
52.54121 181
52.56133 165
52.58144 186
52.60155 165
52.62167 170
52.64178 174
52.6619 166
52.68201 166
52.70212 198
52.72224 185
52.74235 174
52.76246 165
52.78258 161
52.80269 190
52.8228 187
52.84292 192
52.86303 215
52.88315 173
52.90326 223
52.92337 183
52.94349 203
52.9636 195
52.98371 212
53.00383 172
53.02394 197
53.04406 194
53.06417 171
53.08428 202
53.1044 197
53.12451 209
53.14462 203
53.16474 202
53.18485 222
53.20497 224
53.22508 208
53.24519 189
53.26531 180
53.28542 206
53.30553 201
53.32565 190
53.34576 195
53.36587 199
53.38599 209
53.4061 206
53.42622 223
53.44633 207
53.46644 196
53.48656 188
53.50667 192
53.52678 186
53.5469 203
53.56701 170
53.58713 202
53.60724 184
53.62735 205
53.64747 207
53.66758 208
53.68769 218
53.70781 224
53.72792 191
53.74804 204
53.76815 242
53.78826 196
53.80838 221
53.82849 206
53.8486 231
53.86872 211
53.88883 193
53.90894 217
53.92906 213
53.94917 225
53.96929 215
53.9894 207
54.00951 207
54.02963 216
54.04974 243
54.06985 232
54.08997 238
54.11008 217
54.1302 226
54.15031 216
54.17042 208
54.19054 221
54.21065 252
54.23076 246
54.25088 223
54.27099 236
54.29111 216
54.31122 251
54.33133 269
54.35145 244
54.37156 260
54.39167 239
54.41179 241
54.4319 254
54.45201 267
54.47213 257
54.49224 283
54.51236 313
54.53247 296
54.55258 336
54.5727 327
54.59281 371
54.61292 414
54.63304 416
54.65315 461
54.67327 515
54.69338 547
54.71349 653
54.73361 693
54.75372 749
54.77383 849
54.79395 894
54.81406 910
54.83417 932
54.85429 886
54.8744 861
54.89452 730
54.91463 703
54.93474 660
54.95486 621
54.97497 608
54.99508 576
55.0152 556
55.03531 452
55.05543 447
55.07554 412
55.09565 401
55.11577 381
55.13588 380
55.15599 452
55.17611 460
55.19622 486
55.21634 477
55.23645 531
55.25656 556
55.27668 562
55.29679 580
55.3169 526
55.33702 466
55.35713 410
55.37724 371
55.39736 407
55.41747 409
55.43759 352
55.4577 351
55.47781 342
55.49793 309
55.51804 279
55.53815 250
55.55827 236
55.57838 252
55.5985 238
55.61861 266
55.63872 226
55.65884 230
55.67895 224
55.69906 206
55.71918 220
55.73929 239
55.75941 203
55.77952 212
55.79963 232
55.81975 188
55.83986 226
55.85997 222
55.88009 233
55.9002 188
55.92031 186
55.94043 208
55.96054 227
55.98066 201
56.00077 203
56.02088 212
56.041 202
56.06111 232
56.08122 220
56.10134 200
56.12145 201
56.14157 221
56.16168 204
56.18179 215
56.20191 215
56.22202 192
56.24213 213
56.26225 201
56.28236 190
56.30248 194
56.32259 187
56.3427 189
56.36282 201
56.38293 208
56.40304 186
56.42316 197
56.44327 202
56.46338 214
56.4835 194
56.50361 216
56.52373 198
56.54384 222
56.56395 208
56.58407 201
56.60418 202
56.62429 191
56.64441 202
56.66452 207
56.68464 217
56.70475 222
56.72486 193
56.74498 206
56.76509 213
56.7852 198
56.80532 210
56.82543 207
56.84554 215
56.86566 198
56.88577 230
56.90589 209
56.926 217
56.94611 202
56.96623 211
56.98634 221
57.00645 215
57.02657 213
57.04668 210
57.0668 202
57.08691 265
57.10702 238
57.12714 242
57.14725 237
57.16736 222
57.18748 237
57.20759 228
57.22771 233
57.24782 226
57.26793 232
57.28805 214
57.30816 222
57.32827 243
57.34839 252
57.3685 221
57.38861 209
57.40873 211
57.42884 213
57.44896 158
57.46907 195
57.48918 212
57.5093 199
57.52941 204
57.54952 201
57.56964 202
57.58975 196
57.60987 189
57.62998 224
57.65009 193
57.67021 205
57.69032 199
57.71043 198
57.73055 177
57.75066 179
57.77078 175
57.79089 196
57.811 173
57.83112 176
57.85123 201
57.87134 195
57.89146 183
57.91157 171
57.93168 189
57.9518 172
57.97191 166
57.99203 182
58.01214 181
58.03225 173
58.05237 186
58.07248 203
58.09259 193
58.11271 179
58.13282 169
58.15294 167
58.17305 211
58.19316 182
58.21328 159
58.23339 173
58.2535 182
58.27362 197
58.29373 160
58.31385 184
58.33396 170
58.35407 163
58.37419 195
58.3943 207
58.41441 184
58.43453 180
58.45464 201
58.47475 176
58.49487 153
58.51498 200
58.5351 187
58.55521 174
58.57532 168
58.59544 174
58.61555 191
58.63566 195
58.65578 188
58.67589 198
58.69601 202
58.71612 201
58.73623 176
58.75635 167
58.77646 217
58.79657 196
58.81669 191
58.8368 188
58.85691 192
58.87703 170
58.89714 185
58.91726 187
58.93737 184
58.95748 191
58.9776 174
58.99771 197
59.01782 197
59.03794 205
59.05805 190
59.07817 199
59.09828 186
59.11839 183
59.13851 210
59.15862 192
59.17873 204
59.19885 180
59.21896 182
59.23908 207
59.25919 183
59.2793 204
59.29942 221
59.31953 224
59.33964 236
59.35976 272
59.37987 226
59.39998 258
59.4201 259
59.44021 240
59.46033 253
59.48044 291
59.50055 273
59.52067 292
59.54078 306
59.56089 318
59.58101 363
59.60112 413
59.62124 401
59.64135 435
59.66146 516
59.68158 560
59.70169 654
59.7218 727
59.74192 785
59.76203 954
59.78215 1067
59.80226 1221
59.82237 1369
59.84249 1485
59.8626 1715
59.88271 1780
59.90283 1874
59.92294 1715
59.94305 1619
59.96317 1389
59.98328 1225
60.0034 1112
60.02351 1065
60.04362 1020
60.06374 963
60.08385 914
60.10396 786
60.12408 674
60.14419 554
60.16431 404
60.18442 343
60.20453 313
60.22465 290
60.24476 252
60.26487 286
60.28499 253
60.3051 256
60.32522 241
60.34533 240
60.36544 213
60.38556 216
60.40567 228
60.42578 236
60.4459 224
60.46601 222
60.48612 211
60.50624 203
60.52635 202
60.54647 196
60.56658 213
60.58669 184
60.60681 220
60.62692 212
60.64703 241
60.66715 192
60.68726 200
60.70738 207
60.72749 208
60.7476 227
60.76772 239
60.78783 174
60.80794 199
60.82806 200
60.84817 222
60.86828 198
60.8884 217
60.90851 226
60.92863 209
60.94874 198
60.96885 233
60.98897 220
61.00908 192
61.02919 230
61.04931 213
61.06942 232
61.08954 223
61.10965 226
61.12976 205
61.14988 227
61.16999 234
61.1901 201
61.21022 201
61.23033 198
61.25045 198
61.27056 200
61.29067 233
61.31079 210
61.3309 225
61.35101 206
61.37113 210
61.39124 198
61.41135 202
61.43147 207
61.45158 178
61.4717 196
61.49181 227
61.51192 203
61.53204 216
61.55215 212
61.57226 204
61.59238 219
61.61249 193
61.63261 204
61.65272 201
61.67283 220
61.69295 227
61.71306 217
61.73317 212
61.75329 213
61.7734 215
61.79352 245
61.81363 209
61.83374 234
61.85386 235
61.87397 228
61.89408 222
61.9142 249
61.93431 226
61.95442 244
61.97454 230
61.99465 239
62.01477 237
62.03488 235
62.05499 241
62.07511 250
62.09522 251
62.11533 253
62.13545 239
62.15556 224
62.17568 245
62.19579 260
62.2159 245
62.23602 242
62.25613 245
62.27624 253
62.29636 236
62.31647 238
62.33659 203
62.3567 251
62.37681 239
62.39693 201
62.41704 194
62.43715 200
62.45727 204
62.47738 180
62.49749 189
62.51761 199
62.53772 172
62.55784 199
62.57795 205
62.59806 206
62.61818 186
62.63829 181
62.6584 204
62.67852 190
62.69863 201
62.71875 192
62.73886 189
62.75897 201
62.77909 174
62.7992 194
62.81931 175
62.83943 197
62.85954 188
62.87965 193
62.89977 191
62.91988 187
62.94 213
62.96011 187
62.98022 191
63.00034 163
63.02045 190
63.04056 197
63.06068 200
63.08079 176
63.10091 165
63.12102 223
63.14113 179
63.16125 159
63.18136 189
63.20147 202
63.22159 187
63.2417 195
63.26182 175
63.28193 198
63.30204 195
63.32216 169
63.34227 192
63.36238 186
63.3825 188
63.40261 201
63.42272 197
63.44284 188
63.46295 196
63.48307 184
63.50318 206
63.52329 218
63.54341 209
63.56352 188
63.58363 209
63.60375 182
63.62386 213
63.64398 215
63.66409 230
63.6842 240
63.70432 223
63.72443 246
63.74454 251
63.76466 251
63.78477 274
63.80489 313
63.825 262
63.84511 316
63.86523 351
63.88534 376
63.90545 399
63.92557 449
63.94568 386
63.96579 428
63.98591 458
64.00602 439
64.02614 458
64.04625 412
64.06636 378
64.08648 318
64.10659 336
64.1267 325
64.14682 302
64.16693 328
64.18705 279
64.20716 295
64.22727 277
64.24739 225
64.2675 205
64.28761 205
64.30773 206
64.32784 214
64.34796 187
64.36807 177
64.38818 181
64.4083 185
64.42841 165
64.44852 185
64.46864 185
64.48875 169
64.50886 172
64.52898 183
64.54909 193
64.56921 183
64.58932 151
64.60943 190
64.62955 189
64.64966 186
64.66977 186
64.68989 175
64.71 163
64.73012 187
64.75023 193
64.77034 164
64.79046 160
64.81057 188
64.83068 180
64.8508 168
64.87091 182
64.89102 159
64.91114 163
64.93125 170
64.95137 168
64.97148 171
64.99159 167
65.01171 167
65.03182 182
65.05193 174
65.07205 184
65.09216 190
65.11228 176
65.13239 191
65.1525 195
65.17262 180
65.19273 164
65.21284 167
65.23296 169
65.25307 183
65.27319 178
65.2933 163
65.31341 183
65.33353 162
65.35364 177
65.37375 171
65.39387 179
65.41398 175
65.43409 173
65.45421 194
65.47432 165
65.49444 173
65.51455 191
65.53466 192
65.55478 204
65.57489 203
65.595 220
65.61512 213
65.63523 219
65.65535 244
65.67546 240
65.69557 253
65.71569 252
65.7358 245
65.75591 239
65.77603 246
65.79614 269
65.81626 212
65.83637 232
65.85648 266
65.8766 224
65.89671 244
65.91682 247
65.93694 239
65.95705 239
65.97716 211
65.99728 200
66.01739 190
66.03751 179
66.05762 201
66.07773 203
66.09785 192
66.11796 204
66.13807 201
66.15819 176
66.1783 201
66.19842 190
66.21853 190
66.23864 173
66.25876 181
66.27887 180
66.29898 182
66.3191 186
66.33921 197
66.35933 167
66.37944 203
66.39955 184
66.41967 179
66.43978 177
66.45989 182
66.48001 185
66.50012 182
66.52023 187
66.54035 173
66.56046 183
66.58058 194
66.60069 181
66.6208 209
66.64092 205
66.66103 171
66.68114 213
66.70126 225
66.72137 215
66.74149 203
66.7616 196
66.78171 222
66.80183 222
66.82194 242
66.84205 221
66.86217 267
66.88228 271
66.90239 291
66.92251 277
66.94262 315
66.96274 308
66.98285 271
67.00296 294
67.02308 275
67.04319 230
67.0633 283
67.08342 250
67.10353 243
67.12365 298
67.14376 237
67.16387 263
67.18399 294
67.2041 261
67.22421 253
67.24433 263
67.26444 270
67.28456 284
67.30467 246
67.32478 309
67.3449 268
67.36501 345
67.38512 348
67.40524 355
67.42535 386
67.44546 422
67.46558 462
67.48569 501
67.50581 549
67.52592 614
67.54603 642
67.56615 740
67.58626 855
67.60637 905
67.62649 976
67.6466 1085
67.66672 1160
67.68683 1131
67.70694 1156
67.72706 1052
67.74717 994
67.76728 950
67.7874 880
67.80751 837
67.82763 874
67.84774 924
67.86785 975
67.88797 995
67.90808 990
67.92819 985
67.94831 1009
67.96842 1042
67.98853 1175
68.00865 1232
68.02876 1287
68.04888 1442
68.06899 1509
68.0891 1548
68.10922 1552
68.12933 1437
68.14944 1398
68.16956 1378
68.18967 1287
68.20979 1292
68.2299 1366
68.25001 1356
68.27013 1368
68.29024 1224
68.31035 1057
68.33047 986
68.35058 871
68.3707 731
68.39081 633
68.41092 619
68.43104 554
68.45115 509
68.47126 498
68.49138 475
68.51149 388
68.5316 347
68.55172 296
68.57183 259
68.59195 261
68.61206 237
68.63217 204
68.65229 237
68.6724 229
68.69251 200
68.71263 197
68.73274 223
68.75286 192
68.77297 214
68.79308 177
68.8132 223
68.83331 183
68.85342 211
68.87354 178
68.89365 209
68.91376 198
68.93388 188
68.95399 183
68.97411 166
68.99422 163
69.01433 193
69.03445 203
69.05456 191
69.07467 184
69.09479 165
69.1149 195
69.13502 191
69.15513 150
69.17524 193
69.19536 197
69.21547 186
69.23558 195
69.2557 196
69.27581 189
69.29593 206
69.31604 170
69.33615 198
69.35627 175
69.37638 160
69.39649 184
69.41661 209
69.43672 182
69.45683 187
69.47695 170
69.49706 194
69.51718 163
69.53729 172
69.5574 216
69.57752 192
69.59763 170
69.61774 171
69.63786 183
69.65797 189
69.67809 187
69.6982 171
69.71831 158
69.73843 179
69.75854 177
69.77865 177
69.79877 172
69.81888 184
69.839 203
69.85911 181
69.87922 181
69.89934 194
69.91945 183
69.93956 186
69.95968 164
69.97979 196
69.9999 168
70.02002 175
70.04013 169
70.06025 183
70.08036 196
70.10047 175
70.12059 163
70.1407 183
70.16081 178
70.18093 179
70.20104 174
70.22116 195
70.24127 188
70.26138 172
70.2815 171
70.30161 181
70.32172 172
70.34184 167
70.36195 178
70.38207 189
70.40218 177
70.42229 146
70.44241 173
70.46252 178
70.48263 164
70.50275 175
70.52286 181
70.54297 156
70.56309 185
70.5832 186
70.60332 163
70.62343 146
70.64354 157
70.66366 176
70.68377 172
70.70388 171
70.724 172
70.74411 170
70.76423 183
70.78434 156
70.80445 146
70.82457 164
70.84468 184
70.86479 155
70.88491 176
70.90502 151
70.92513 154
70.94525 158
70.96536 173
70.98548 163
71.00559 160
71.0257 183
71.04582 155
71.06593 152
71.08604 157
71.10616 146
71.12627 151
71.14639 150
71.1665 157
71.18661 155
71.20673 167
71.22684 144
71.24695 164
71.26707 159
71.28718 163
71.3073 181
71.32741 169
71.34752 153
71.36764 153
71.38775 138
71.40786 169
71.42798 166
71.44809 159
71.4682 139
71.48832 162
71.50843 143
71.52855 157
71.54866 170
71.56877 161
71.58889 176
71.609 191
71.62911 158
71.64923 170
71.66934 148
71.68946 161
71.70957 163
71.72968 157
71.7498 168
71.76991 176
71.79002 165
71.81014 168
71.83025 160
71.85037 158
71.87048 143
71.89059 164
71.91071 182
71.93082 181
71.95093 159
71.97105 174
71.99116 189
72.01127 167
72.03139 161
72.0515 179
72.07162 165
72.09173 159
72.11184 172
72.13196 183
72.15207 171
72.17218 168
72.1923 153
72.21241 188
72.23253 164
72.25264 175
72.27275 163
72.29287 160
72.31298 176
72.33309 178
72.35321 173
72.37332 174
72.39344 135
72.41355 167
72.43366 172
72.45378 147
72.47389 152
72.494 165
72.51412 171
72.53423 177
72.55434 181
72.57446 155
72.59457 158
72.61469 172
72.6348 186
72.65491 159
72.67503 180
72.69514 166
72.71525 185
72.73537 160
72.75548 171
72.7756 184
72.79571 183
72.81582 175
72.83594 182
72.85605 181
72.87616 165
72.89628 189
72.91639 168
72.9365 192
72.95662 193
72.97673 193
72.99685 199
73.01696 211
73.03707 194
73.05719 197
73.0773 225
73.09741 216
73.11753 235
73.13764 246
73.15776 238
73.17787 220
73.19798 271
73.2181 296
73.23821 298
73.25832 298
73.27844 367
73.29855 341
73.31867 415
73.33878 402
73.35889 449
73.37901 486
73.39912 504
73.41923 514
73.43935 460
73.45946 437
73.47957 385
73.49969 346
73.5198 326
73.53992 335
73.56003 324
73.58014 334
73.60026 326
73.62037 315
73.64048 292
73.6606 299
73.68071 264
73.70083 251
73.72094 223
73.74105 203
73.76117 189
73.78128 190
73.80139 178
73.82151 197
73.84162 160
73.86174 172
73.88185 185
73.90196 163
73.92208 161
73.94219 178
73.9623 182
73.98242 172
74.00253 170
74.02264 171
74.04276 189
74.06287 178
74.08299 162
74.1031 168
74.12321 174
74.14333 158
74.16344 145
74.18355 155
74.20367 155
74.22378 178
74.2439 172
74.26401 165
74.28412 174
74.30424 190
74.32435 171
74.34446 134
74.36458 182
74.38469 179
74.40481 188
74.42492 165
74.44503 167
74.46515 155
74.48526 148
74.50537 162
74.52549 180
74.5456 191
74.56571 185
74.58583 175
74.60594 162
74.62606 173
74.64617 176
74.66628 151
74.6864 160
74.70651 167
74.72662 169
74.74674 176
74.76685 168
74.78697 173
74.80708 168
74.82719 165
74.84731 171
74.86742 174
74.88753 167
74.90765 139
74.92776 196
74.94787 174
74.96799 167
74.9881 170
75.00822 177
