3.00117 20032
3.02128 19296
3.0414 18912
3.06151 18339
3.08162 18097
3.10174 17038
3.12185 16629
3.14197 16593
3.16208 15566
3.18219 15348
3.20231 14815
3.22242 14347
3.24253 14066
3.26265 13405
3.28276 13475
3.30288 12700
3.32299 12197
3.3431 11906
3.36322 11650
3.38333 11300
3.40344 10474
3.42356 10659
3.44367 10112
3.46379 9627
3.4839 9533
3.50401 9191
3.52413 8727
3.54424 8691
3.56435 8089
3.58447 8026
3.60458 7320
3.62469 7098
3.64481 7150
3.66492 6526
3.68504 6792
3.70515 6206
3.72526 6018
3.74538 5976
3.76549 5546
3.7856 5347
3.80572 5086
3.82583 4858
3.84595 4579
3.86606 4500
3.88617 4529
3.90629 4095
3.9264 3988
3.94651 3739
3.96663 3611
3.98674 3448
4.00686 3293
4.02697 3133
4.04708 3139
4.0672 2918
4.08731 2866
4.10742 2605
4.12754 2614
4.14765 2664
4.16776 2450
4.18788 2408
4.20799 2239
4.22811 2202
4.24822 2233
4.26833 2157
4.28845 2039
4.30856 1925
4.32867 1825
4.34879 1802
4.3689 1851
4.38902 1825
4.40913 1715
4.42924 1606
4.44936 1767
4.46947 1679
4.48958 1510
4.5097 1563
4.52981 1556
4.54992 1548
4.57004 1489
4.59015 1501
4.61027 1522
4.63038 1399
4.65049 1407
4.67061 1329
4.69072 1359
4.71083 1366
4.73095 1309
4.75106 1343
4.77118 1315
4.79129 1238
4.8114 1180
4.83152 1193
4.85163 1226
4.87174 1263
4.89186 1073
4.91197 1162
4.93209 1078
4.9522 1055
4.97231 1064
4.99243 1044
5.01254 1098
5.03265 984
5.05277 1024
5.07288 999
5.09299 937
5.11311 999
5.13322 997
5.15334 901
5.17345 983
5.19356 916
5.21368 945
5.23379 976
5.2539 865
5.27402 868
5.29413 920
5.31425 869
5.33436 841
5.35447 824
5.37459 914
5.3947 698
5.41481 812
5.43493 845
5.45504 795
5.47516 852
5.49527 761
5.51538 778
5.5355 740
5.55561 738
5.57572 791
5.59584 761
5.61595 671
5.63606 781
5.65618 709
5.67629 727
5.69641 757
5.71652 730
5.73663 699
5.75675 710
5.77686 736
5.79697 654
5.81709 663
5.8372 690
5.85732 678
5.87743 660
5.89754 664
5.91766 714
5.93777 630
5.95788 653
5.978 661
5.99811 621
6.01823 633
6.03834 583
6.05845 638
6.07857 597
6.09868 627
6.11879 614
6.13891 601
6.15902 631
6.17913 569
6.19925 578
6.21936 582
6.23948 638
6.25959 556
6.2797 553
6.29982 524
6.31993 542
6.34004 541
6.36016 572
6.38027 525
6.40039 522
6.4205 517
6.44061 505
6.46073 459
6.48084 502
6.50095 498
6.52107 456
6.54118 540
6.56129 514
6.58141 485
6.60152 475
6.62164 496
6.64175 472
6.66186 486
6.68198 472
6.70209 466
6.7222 469
6.74232 451
6.76243 421
6.78255 408
6.80266 482
6.82277 442
6.84289 410
6.863 496
6.88311 401
6.90323 436
6.92334 430
6.94346 425
6.96357 445
6.98368 392
7.0038 459
7.02391 416
7.04402 464
7.06414 418
7.08425 429
7.10436 457
7.12448 394
7.14459 380
7.16471 385
7.18482 397
7.20493 410
7.22505 398
7.24516 405
7.26527 421
7.28539 414
7.3055 426
7.32562 410
7.34573 402
7.36584 378
7.38596 393
7.40607 419
7.42618 420
7.4463 398
7.46641 394
7.48653 402
7.50664 378
7.52675 384
7.54687 345
7.56698 399
7.58709 379
7.60721 404
7.62732 373
7.64743 378
7.66755 387
7.68766 393
7.70778 366
7.72789 369
7.748 399
7.76812 350
7.78823 343
7.80834 401
7.82846 343
7.84857 375
7.86869 347
7.8888 398
7.90891 336
7.92903 366
7.94914 350
7.96925 401
7.98937 390
8.00948 374
8.0296 355
8.04971 345
8.06982 375
8.08994 351
8.11005 339
8.13016 350
8.15028 389
8.17039 396
8.1905 342
8.21062 378
8.23073 351
8.25085 365
8.27096 346
8.29107 348
8.31119 308
8.3313 382
8.35141 347
8.37153 423
8.39164 350
8.41176 371
8.43187 355
8.45198 327
8.4721 353
8.49221 392
8.51232 376
8.53244 368
8.55255 374
8.57266 374
8.59278 360
8.61289 340
8.63301 422
8.65312 364
8.67323 393
8.69335 442
8.71346 406
8.73357 405
8.75369 429
8.7738 411
8.79392 440
8.81403 449
8.83414 453
8.85426 409
8.87437 442
8.89448 464
8.9146 379
8.93471 423
8.95483 406
8.97494 384
8.99505 362
9.01517 394
9.03528 346
9.05539 337
9.07551 357
9.09562 368
9.11573 335
9.13585 355
9.15596 376
9.17608 331
9.19619 378
9.2163 354
9.23642 356
9.25653 359
9.27664 344
9.29676 339
9.31687 311
9.33699 323
9.3571 323
9.37721 304
9.39733 342
9.41744 352
9.43755 335
9.45767 309
9.47778 323
9.4979 345
9.51801 311
9.53812 366
9.55824 305
9.57835 310
9.59846 319
9.61858 285
9.63869 350
9.6588 347
9.67892 347
9.69903 349
9.71915 322
9.73926 286
9.75937 299
9.77949 332
9.7996 302
9.81971 285
9.83983 318
9.85994 340
9.88006 316
9.90017 326
9.92028 321
9.9404 328
9.96051 293
9.98062 338
10.00074 282
10.02085 317
10.04097 322
10.06108 344
10.08119 343
10.10131 342
10.12142 323
10.14153 356
10.16165 303
10.18176 299
10.20187 312
10.22199 301
10.2421 278
10.26222 357
10.28233 304
10.30244 311
10.32256 307
10.34267 317
10.36278 301
10.3829 300
10.40301 297
10.42313 317
10.44324 319
10.46335 321
10.48347 341
10.50358 305
10.52369 345
10.54381 318
10.56392 316
10.58403 361
10.60415 332
10.62426 312
10.64438 316
10.66449 306
10.6846 277
10.70472 316
10.72483 325
10.74494 301
10.76506 281
10.78517 322
10.80529 328
10.8254 332
10.84551 298
10.86563 357
10.88574 315
10.90585 313
10.92597 310
10.94608 299
10.9662 287
10.98631 299
11.00642 294
11.02654 299
11.04665 318
11.06676 304
11.08688 310
11.10699 306
11.1271 298
11.14722 286
11.16733 329
11.18745 320
11.20756 316
11.22767 283
11.24779 340
11.2679 337
11.28801 313
11.30813 306
11.32824 327
11.34836 314
11.36847 332
11.38858 272
11.4087 278
11.42881 297
11.44892 307
11.46904 308
11.48915 288
11.50927 285
11.52938 309
11.54949 324
11.56961 294
11.58972 328
11.60983 346
11.62995 294
11.65006 315
11.67017 336
11.69029 286
11.7104 313
11.73052 323
11.75063 300
11.77074 316
11.79086 307
11.81097 333
11.83108 313
11.8512 350
11.87131 313
11.89143 297
11.91154 348
11.93165 329
11.95177 319
11.97188 325
11.99199 321
12.01211 317
12.03222 322
12.05234 345
12.07245 352
12.09256 311
12.11268 344
12.13279 329
12.1529 330
12.17302 345
12.19313 309
12.21324 317
12.23336 334
12.25347 335
12.27359 358
12.2937 337
12.31381 339
12.33393 353
12.35404 300
12.37415 311
12.39427 331
12.41438 316
12.4345 336
12.45461 355
12.47472 351
12.49484 326
12.51495 333
12.53506 354
12.55518 317
12.57529 338
12.5954 342
12.61552 337
12.63563 317
12.65575 304
12.67586 293
12.69597 315
12.71609 307
12.7362 300
12.75631 299
12.77643 332
12.79654 289
12.81666 285
12.83677 309
12.85688 271
12.877 289
12.89711 289
12.91722 312
12.93734 322
12.95745 297
12.97757 256
12.99768 334
13.01779 281
13.03791 291
13.05802 310
13.07813 307
13.09825 287
13.11836 318
13.13847 270
13.15859 286
13.1787 279
13.19882 264
13.21893 299
13.23904 286
13.25916 281
13.27927 299
13.29938 295
13.3195 277
13.33961 290
13.35973 232
13.37984 279
13.39995 295
13.42007 302
13.44018 305
13.46029 263
13.48041 265
13.50052 311
13.52064 275
13.54075 283
13.56086 298
13.58098 286
13.60109 304
13.6212 279
13.64132 275
13.66143 309
13.68154 309
13.70166 260
13.72177 287
13.74189 290
13.762 319
13.78211 313
13.80223 317
13.82234 327
13.84245 327
13.86257 347
13.88268 335
13.9028 315
13.92291 303
13.94302 345
13.96314 307
13.98325 292
14.00336 303
14.02348 278
14.04359 258
14.06371 295
14.08382 288
14.10393 281
14.12405 290
14.14416 315
14.16427 261
14.18439 261
14.2045 273
14.22461 250
14.24473 267
14.26484 288
14.28496 274
14.30507 262
14.32518 221
14.3453 243
14.36541 275
14.38552 281
14.40564 267
14.42575 252
14.44587 260
14.46598 268
14.48609 273
14.50621 249
14.52632 273
14.54643 256
14.56655 254
14.58666 266
14.60677 265
14.62689 271
14.647 241
14.66712 278
14.68723 302
14.70734 271
14.72746 250
14.74757 283
14.76768 249
14.7878 269
14.80791 261
14.82803 277
14.84814 260
14.86825 300
14.88837 285
14.90848 267
14.92859 274
14.94871 270
14.96882 286
14.98894 286
15.00905 262
15.02916 264
15.04928 247
15.06939 284
15.0895 264
15.10962 302
15.12973 245
15.14984 204
15.16996 279
15.19007 277
15.21019 282
15.2303 269
15.25041 318
15.27053 267
15.29064 270
15.31075 248
15.33087 235
15.35098 250
15.3711 267
15.39121 256
15.41132 261
15.43144 234
15.45155 265
15.47166 257
15.49178 258
15.51189 259
15.53201 285
15.55212 259
15.57223 262
15.59235 261
15.61246 266
15.63257 269
15.65269 245
15.6728 261
15.69291 283
15.71303 281
15.73314 259
15.75326 242
15.77337 273
15.79348 284
15.8136 251
15.83371 268
15.85382 265
15.87394 252
15.89405 268
15.91417 250
15.93428 249
15.95439 255
15.97451 264
15.99462 253
16.01473 288
16.03485 267
16.05496 262
16.07508 273
16.09519 273
16.1153 258
16.13542 246
16.15553 219
16.17564 251
16.19576 269
16.21587 238
16.23598 241
16.2561 233
16.27621 236
16.29633 278
16.31644 273
16.33655 250
16.35667 273
16.37678 251
16.39689 248
16.41701 268
16.43712 239
16.45724 252
16.47735 253
16.49746 269
16.51758 270
16.53769 275
16.5578 288
16.57792 256
16.59803 247
16.61814 246
16.63826 251
16.65837 246
16.67849 302
16.6986 265
16.71871 243
16.73883 254
16.75894 243
16.77905 267
16.79917 270
16.81928 274
16.8394 259
16.85951 283
16.87962 211
16.89974 227
16.91985 270
16.93996 260
16.96008 260
16.98019 275
17.00031 266
17.02042 236
17.04053 272
17.06065 242
17.08076 258
17.10087 280
17.12099 259
17.1411 248
17.16121 268
17.18133 277
17.20144 291
17.22156 255
17.24167 274
17.26178 260
17.2819 289
17.30201 259
17.32212 254
17.34224 273
17.36235 258
17.38247 254
17.40258 268
17.42269 254
17.44281 293
17.46292 271
17.48303 276
17.50315 233
17.52326 284
17.54338 277
17.56349 272
17.5836 284
17.60372 286
17.62383 271
17.64394 261
17.66406 287
17.68417 308
17.70428 311
17.7244 289
17.74451 306
17.76463 308
17.78474 311
17.80485 306
17.82497 302
17.84508 292
17.86519 321
17.88531 271
17.90542 297
17.92554 274
17.94565 245
17.96576 297
17.98588 285
18.00599 294
18.0261 264
18.04622 254
18.06633 295
18.08645 257
18.10656 272
18.12667 260
18.14679 296
18.1669 276
18.18701 248
18.20713 277
18.22724 255
18.24735 270
18.26747 273
18.28758 232
18.3077 246
18.32781 258
18.34792 245
18.36804 300
18.38815 250
18.40826 278
18.42838 284
18.44849 248
18.46861 268
18.48872 262
18.50883 287
18.52895 269
18.54906 278
18.56917 259
18.58929 276
18.6094 275
18.62951 250
18.64963 301
18.66974 263
18.68986 271
18.70997 277
18.73008 245
18.7502 282
18.77031 269
18.79042 316
18.81054 302
18.83065 253
18.85077 262
18.87088 265
18.89099 266
18.91111 270
18.93122 264
18.95133 287
18.97145 246
18.99156 289
19.01168 273
19.03179 269
19.0519 291
19.07202 247
19.09213 261
19.11224 316
19.13236 284
19.15247 297
19.17258 307
19.1927 284
19.21281 279
19.23293 329
19.25304 301
19.27315 305
19.29327 333
19.31338 350
19.33349 335
19.35361 362
19.37372 313
19.39384 340
19.41395 348
19.43406 385
19.45418 369
19.47429 378
19.4944 395
19.51452 404
19.53463 433
19.55475 462
19.57486 476
19.59497 520
19.61509 576
19.6352 602
19.65531 592
19.67543 667
19.69554 668
19.71565 667
19.73577 727
19.75588 773
19.776 744
19.79611 772
19.81622 722
19.83634 772
19.85645 743
19.87656 678
19.89668 686
19.91679 683
19.93691 628
19.95702 614
19.97713 531
19.99725 524
20.01736 541
20.03747 497
20.05759 576
20.0777 551
20.09782 499
20.11793 475
20.13804 493
20.15816 506
20.17827 558
20.19838 496
20.2185 494
20.23861 505
20.25872 510
20.27884 521
20.29895 506
20.31907 530
20.33918 484
20.35929 491
20.37941 488
20.39952 512
20.41963 506
20.43975 485
20.45986 511
20.47998 512
20.50009 495
20.5202 577
20.54032 529
20.56043 588
20.58054 575
20.60066 604
20.62077 668
20.64088 723
20.661 760
20.68111 950
20.70123 1112
20.72134 1561
20.74145 1969
20.76157 2559
20.78168 3188
20.80179 3959
20.82191 4539
20.84202 4773
20.86214 4518
20.88225 3792
20.90236 2914
20.92248 2084
20.94259 1465
20.9627 1007
20.98282 788
21.00293 682
21.02305 651
21.04316 634
21.06327 603
21.08339 581
21.1035 581
21.12361 549
21.14373 475
21.16384 492
21.18395 500
21.20407 497
21.22418 462
21.2443 518
21.26441 461
21.28452 437
21.30464 477
21.32475 434
21.34486 442
21.36498 435
21.38509 428
21.40521 434
21.42532 435
21.44543 455
21.46555 397
21.48566 444
21.50577 421
21.52589 414
21.546 445
21.56612 452
21.58623 438
21.60634 447
21.62646 422
21.64657 416
21.66668 444
21.6868 406
21.70691 409
21.72702 386
21.74714 409
21.76725 424
21.78737 391
21.80748 421
21.82759 367
21.84771 405
21.86782 413
21.88793 429
21.90805 456
21.92816 480
21.94828 529
21.96839 531
21.9885 631
22.00862 640
22.02873 648
22.04884 620
22.06896 555
22.08907 510
22.10919 445
22.1293 457
22.14941 432
22.16953 393
22.18964 369
22.20975 381
22.22987 374
22.24998 460
22.27009 385
22.29021 382
22.31032 379
22.33044 391
22.35055 381
22.37066 406
22.39078 350
22.41089 372
22.431 391
22.45112 392
22.47123 325
22.49135 372
22.51146 373
22.53157 374
22.55169 360
22.5718 346
22.59191 379
22.61203 393
22.63214 380
22.65225 382
22.67237 405
22.69248 399
22.7126 390
22.73271 398
22.75282 352
22.77294 425
22.79305 382
22.81316 442
22.83328 436
22.85339 434
22.87351 434
22.89362 416
22.91373 447
22.93385 434
22.95396 400
22.97407 398
22.99419 430
23.0143 377
23.03442 409
23.05453 405
23.07464 436
23.09476 399
23.11487 420
23.13498 431
23.1551 382
23.17521 431
23.19532 401
23.21544 397
23.23555 358
23.25567 386
23.27578 446
23.29589 376
23.31601 388
23.33612 389
23.35623 408
23.37635 409
23.39646 373
23.41658 421
23.43669 429
23.4568 434
23.47692 485
23.49703 483
23.51714 459
23.53726 503
23.55737 485
23.57749 500
23.5976 459
23.61771 402
23.63783 413
23.65794 430
23.67805 415
23.69817 394
23.71828 412
23.73839 395
23.75851 383
23.77862 402
23.79874 420
23.81885 406
23.83896 425
23.85908 402
23.87919 435
23.8993 413
23.91942 464
23.93953 464
23.95965 453
23.97976 467
23.99987 408
24.01999 415
24.0401 436
24.06021 407
24.08033 418
24.10044 479
24.12056 470
24.14067 453
24.16078 475
24.1809 506
24.20101 489
24.22112 517
24.24124 530
24.26135 528
24.28146 510
24.30158 483
24.32169 474
24.34181 495
24.36192 426
24.38203 413
24.40215 385
24.42226 374
24.44237 369
24.46249 357
24.4826 374
24.50272 352
24.52283 386
24.54294 361
24.56306 371
24.58317 371
24.60328 363
24.6234 386
24.64351 418
24.66362 430
24.68374 412
24.70385 369
24.72397 393
24.74408 399
24.76419 414
24.78431 408
24.80442 414
24.82453 405
24.84465 357
24.86476 410
24.88488 363
24.90499 370
24.9251 384
24.94522 356
24.96533 402
24.98544 413
25.00556 399
25.02567 417
25.04579 388
25.0659 395
25.08601 364
25.10613 393
25.12624 426
25.14635 426
25.16647 426
25.18658 372
25.20669 425
25.22681 414
25.24692 405
25.26704 418
25.28715 448
25.30726 446
25.32738 454
25.34749 481
25.3676 472
25.38772 470
25.40783 489
25.42795 542
25.44806 485
25.46817 517
25.48829 549
25.5084 507
25.52851 543
25.54863 505
25.56874 521
25.58886 523
25.60897 521
25.62908 466
25.6492 508
25.66931 489
25.68942 496
25.70954 507
25.72965 531
25.74976 480
25.76988 508
25.78999 507
25.81011 529
25.83022 501
25.85033 502
25.87045 513
25.89056 506
25.91067 497
25.93079 500
25.9509 469
25.97102 537
25.99113 507
26.01124 519
26.03136 533
26.05147 558
26.07158 620
26.0917 591
26.11181 642
26.13193 583
26.15204 641
26.17215 687
26.19227 726
26.21238 773
26.23249 827
26.25261 845
26.27272 917
26.29283 1024
26.31295 1093
26.33306 1170
26.35318 1340
26.37329 1546
26.3934 1833
26.41352 2101
26.43363 2620
26.45374 3361
26.47386 4493
26.49397 6099
26.51409 8328
26.5342 11009
26.55431 13839
26.57443 16966
26.59454 19111
26.61465 19704
26.63477 18668
26.65488 16191
26.67499 13014
26.69511 9395
26.71522 6835
26.73534 4486
26.75545 2777
26.77556 1892
26.79568 1449
26.81579 1256
26.8359 1176
26.85602 1036
26.87613 978
26.89625 948
26.91636 863
26.93647 858
26.95659 761
26.9767 732
26.99681 772
27.01693 705
27.03704 669
27.05716 637
27.07727 636
27.09738 636
27.1175 585
27.13761 594
27.15772 589
27.17784 541
27.19795 542
27.21806 539
27.23818 537
27.25829 536
27.27841 603
27.29852 592
27.31863 578
27.33875 615
27.35886 653
27.37897 700
27.39909 659
27.4192 673
27.43932 679
27.45943 688
27.47954 693
27.49966 641
27.51977 586
27.53988 574
27.56 554
27.58011 512
27.60023 600
27.62034 604
27.64045 598
27.66057 628
27.68068 658
27.70079 669
27.72091 702
27.74102 668
27.76113 695
27.78125 733
27.80136 718
27.82148 777
27.84159 783
27.8617 850
27.88182 840
27.90193 843
27.92204 786
27.94216 787
27.96227 767
27.98239 703
28.0025 591
28.02261 627
28.04273 525
28.06284 556
28.08295 508
28.10307 540
28.12318 524
28.1433 490
28.16341 480
28.18352 517
28.20364 522
28.22375 506
28.24386 501
28.26398 474
28.28409 459
28.3042 440
28.32432 415
28.34443 436
28.36455 440
28.38466 379
28.40477 398
28.42489 397
28.445 370
28.46511 356
28.48523 398
28.50534 364
28.52546 394
28.54557 358
28.56568 430
28.5858 326
28.60591 342
28.62602 363
28.64614 383
28.66625 355
28.68636 330
28.70648 368
28.72659 365
28.74671 386
28.76682 325
28.78693 347
28.80705 329
28.82716 349
28.84727 360
28.86739 348
28.8875 354
28.90762 344
28.92773 350
28.94784 354
28.96796 356
28.98807 323
29.00818 332
29.0283 339
29.04841 352
29.06853 341
29.08864 370
29.10875 376
29.12887 339
29.14898 367
29.16909 341
29.18921 356
29.20932 397
29.22943 359
29.24955 370
29.26966 385
29.28978 378
29.30989 434
29.33 413
29.35012 394
29.37023 430
29.39034 451
29.41046 437
29.43057 416
29.45069 424
29.4708 442
29.49091 442
29.51103 425
29.53114 424
29.55125 423
29.57137 396
29.59148 375
29.6116 393
29.63171 421
29.65182 366
29.67194 386
29.69205 426
29.71216 371
29.73228 384
29.75239 429
29.7725 421
29.79262 436
29.81273 443
29.83285 384
29.85296 418
29.87307 386
29.89319 393
29.9133 410
29.93341 433
29.95353 419
29.97364 408
29.99376 396
30.01387 446
30.03398 469
30.0541 455
30.07421 409
30.09432 420
30.11444 424
30.13455 419
30.15467 417
30.17478 457
30.19489 419
30.21501 421
30.23512 433
30.25523 395
30.27535 394
30.29546 365
30.31557 373
30.33569 414
30.3558 399
30.37592 375
30.39603 410
30.41614 414
30.43626 427
30.45637 403
30.47648 408
30.4966 433
30.51671 372
30.53683 409
30.55694 397
30.57705 361
30.59717 368
30.61728 379
30.63739 357
30.65751 375
30.67762 363
30.69773 403
30.71785 388
30.73796 383
30.75808 435
30.77819 402
30.7983 404
30.81842 399
30.83853 355
30.85864 359
30.87876 396
30.89887 370
30.91899 346
30.9391 331
30.95921 317
30.97933 341
30.99944 355
31.01955 345
31.03967 318
31.05978 351
31.0799 361
31.10001 305
31.12012 382
31.14024 366
31.16035 346
31.18046 373
31.20058 370
31.22069 360
31.2408 404
31.26092 382
31.28103 387
31.30115 363
31.32126 385
31.34137 349
31.36149 313
31.3816 323
31.40171 315
31.42183 348
31.44194 289
31.46206 344
31.48217 317
31.50228 376
31.5224 339
31.54251 328
31.56262 320
31.58274 349
31.60285 317
31.62297 311
31.64308 311
31.66319 299
31.68331 320
31.70342 322
31.72353 306
31.74365 333
31.76376 312
31.78387 318
31.80399 334
31.8241 313
31.84422 316
31.86433 322
31.88444 312
31.90456 327
31.92467 325
31.94478 317
31.9649 372
31.98501 327
32.00513 320
32.02524 342
32.04535 325
32.06547 358
32.08558 349
32.10569 348
32.12581 291
32.14592 337
32.16604 313
32.18615 306
32.20626 297
32.22638 296
32.24649 311
32.2666 283
32.28672 281
32.30683 307
32.32694 311
32.34706 317
32.36717 319
32.38729 281
32.4074 329
32.42751 308
32.44763 290
32.46774 307
32.48785 292
32.50797 313
32.52808 284
32.5482 282
32.56831 325
32.58842 296
32.60854 316
32.62865 302
32.64876 265
32.66888 296
32.68899 294
32.7091 313
32.72922 282
32.74933 282
32.76945 291
32.78956 274
32.80967 285
32.82979 281
32.8499 319
32.87001 254
32.89013 297
32.91024 312
32.93036 319
32.95047 291
32.97058 308
32.9907 269
33.01081 306
33.03092 297
33.05104 319
33.07115 280
33.09127 314
33.11138 311
33.13149 307
33.15161 297
33.17172 283
33.19183 318
33.21195 285
33.23206 300
33.25217 324
33.27229 327
33.2924 314
33.31252 314
33.33263 326
33.35274 300
33.37286 303
33.39297 334
33.41308 317
33.4332 304
33.45331 301
33.47343 302
33.49354 307
33.51365 332
33.53377 293
33.55388 311
33.57399 320
33.59411 306
33.61422 299
33.63434 273
33.65445 304
33.67456 308
33.69468 339
33.71479 282
33.7349 262
33.75502 301
33.77513 334
33.79524 311
33.81536 303
33.83547 326
33.85559 286
33.8757 275
33.89581 316
33.91593 301
33.93604 306
33.95615 290
33.97627 329
33.99638 304
34.0165 330
34.03661 302
34.05672 331
34.07684 352
34.09695 327
34.11706 330
34.13718 326
34.15729 323
34.17741 328
34.19752 344
34.21763 351
34.23775 335
34.25786 368
34.27797 355
34.29809 374
34.3182 413
34.33831 426
34.35843 393
34.37854 442
34.39866 411
34.41877 466
34.43888 465
34.459 468
34.47911 449
34.49922 452
34.51934 481
34.53945 509
34.55957 476
34.57968 481
34.59979 494
34.61991 508
34.64002 528
34.66013 513
34.68025 496
34.70036 501
34.72047 520
34.74059 571
34.7607 551
34.78082 587
34.80093 593
34.82104 596
34.84116 616
34.86127 619
34.88138 606
34.9015 637
34.92161 646
34.94173 623
34.96184 645
34.98195 633
35.00207 654
35.02218 550
35.04229 571
35.06241 554
35.08252 491
35.10264 506
35.12275 503
35.14286 414
35.16298 423
35.18309 440
35.2032 429
35.22332 487
35.24343 454
35.26354 419
35.28366 431
35.30377 399
35.32389 393
35.344 426
35.36411 386
35.38423 439
35.40434 386
35.42445 443
35.44457 418
35.46468 420
35.4848 401
35.50491 394
35.52502 418
35.54514 431
35.56525 416
35.58536 407
35.60548 384
35.62559 374
35.64571 462
35.66582 372
35.68593 397
35.70605 398
35.72616 414
35.74627 363
35.76639 366
35.7865 379
35.80661 408
35.82673 418
35.84684 430
35.86696 428
35.88707 396
35.90718 408
35.9273 404
35.94741 418
35.96752 401
35.98764 403
36.00775 455
36.02787 387
36.04798 425
36.06809 436
36.08821 386
36.10832 394
36.12843 405
36.14855 436
36.16866 386
36.18878 448
36.20889 423
36.229 459
36.24912 433
36.26923 463
36.28934 533
36.30946 566
36.32957 539
36.34968 660
36.3698 724
36.38991 854
36.41003 1004
36.43014 1094
36.45025 1303
36.47037 1410
36.49048 1598
36.51059 1548
36.53071 1531
36.55082 1431
36.57094 1214
36.59105 1089
36.61116 997
36.63128 865
36.65139 775
36.6715 617
36.69162 528
36.71173 485
36.73184 441
36.75196 441
36.77207 465
36.79219 435
36.8123 415
36.83241 439
36.85253 417
36.87264 408
36.89275 434
36.91287 443
36.93298 384
36.9531 395
36.97321 379
36.99332 401
37.01344 388
37.03355 413
37.05366 348
37.07378 388
37.09389 355
37.11401 389
37.13412 402
37.15423 366
37.17435 352
37.19446 348
37.21457 369
37.23469 363
37.2548 337
37.27491 360
37.29503 404
37.31514 393
37.33526 359
37.35537 421
37.37548 425
37.3956 380
37.41571 387
37.43582 400
37.45594 387
37.47605 395
37.49617 422
37.51628 394
37.53639 384
37.55651 396
37.57662 398
37.59673 394
37.61685 382
37.63696 441
37.65708 402
37.67719 396
37.6973 390
37.71742 389
37.73753 337
37.75764 391
37.77776 369
37.79787 369
37.81798 349
37.8381 333
37.85821 340
37.87833 339
37.89844 373
37.91855 345
37.93867 369
37.95878 353
37.97889 336
37.99901 337
38.01912 334
38.03924 372
38.05935 353
38.07946 309
38.09958 346
38.11969 342
38.1398 348
38.15992 352
38.18003 329
38.20015 329
38.22026 341
38.24037 344
38.26049 345
38.2806 316
38.30071 346
38.32083 362
38.34094 381
38.36105 336
38.38117 348
38.40128 326
38.4214 341
38.44151 317
38.46162 329
38.48174 284
38.50185 366
38.52196 327
38.54208 333
38.56219 332
38.58231 317
38.60242 338
38.62253 347
38.64265 314
38.66276 316
38.68287 293
38.70299 291
38.7231 339
38.74321 343
38.76333 338
38.78344 337
38.80356 339
38.82367 320
38.84378 332
38.8639 311
38.88401 339
38.90412 335
38.92424 334
38.94435 333
38.96447 314
38.98458 302
39.00469 351
39.02481 367
39.04492 299
39.06503 336
39.08515 366
39.10526 372
39.12538 357
39.14549 398
39.1656 389
39.18572 388
39.20583 388
39.22594 469
39.24606 499
39.26617 529
39.28628 629
39.3064 728
39.32651 830
39.34663 1014
39.36674 1164
39.38685 1277
39.40697 1384
39.42708 1503
39.44719 1423
39.46731 1310
39.48742 1151
39.50754 1039
39.52765 925
39.54776 795
39.56788 705
39.58799 576
39.6081 452
39.62822 385
39.64833 383
39.66845 352
39.68856 384
39.70867 356
39.72879 342
39.7489 337
39.76901 344
39.78913 353
39.80924 339
39.82935 344
39.84947 307
39.86958 349
39.8897 347
39.90981 350
39.92992 339
39.95004 376
39.97015 371
39.99026 347
40.01038 390
40.03049 377
40.05061 378
40.07072 419
40.09083 452
40.11095 476
40.13106 542
40.15117 610
40.17129 672
40.1914 732
40.21152 799
40.23163 855
40.25174 802
40.27186 777
40.29197 802
40.31208 668
40.3322 685
40.35231 593
40.37242 561
40.39254 509
40.41265 427
40.43277 408
40.45288 358
40.47299 330
40.49311 336
40.51322 344
40.53333 335
40.55345 331
40.57356 324
40.59368 302
40.61379 286
40.6339 309
40.65402 320
40.67413 307
40.69424 332
40.71436 302
40.73447 311
40.75458 317
40.7747 291
40.79481 317
40.81493 318
40.83504 332
40.85515 307
40.87527 302
40.89538 327
40.91549 347
40.93561 330
40.95572 337
40.97584 336
40.99595 338
41.01606 350
41.03618 337
41.05629 327
41.0764 314
41.09652 326
41.11663 364
41.13675 350
41.15686 351
41.17697 337
41.19709 354
41.2172 366
41.23731 355
41.25743 328
41.27754 350
41.29765 333
41.31777 353
41.33788 320
41.358 307
41.37811 310
41.39822 297
41.41834 301
41.43845 316
41.45856 318
41.47868 323
41.49879 313
41.51891 327
41.53902 337
41.55913 327
41.57925 307
41.59936 380
41.61947 327
41.63959 314
41.6597 333
41.67982 329
41.69993 308
41.72004 372
41.74016 378
41.76027 339
41.78038 363
41.8005 364
41.82061 368
41.84072 354
41.86084 339
41.88095 333
41.90107 364
41.92118 340
41.94129 351
41.96141 352
41.98152 332
42.00163 307
42.02175 321
42.04186 360
42.06198 311
42.08209 349
42.1022 357
42.12232 343
42.14243 380
42.16254 389
42.18266 419
42.20277 464
42.22289 472
42.243 481
42.26311 556
42.28323 624
42.30334 695
42.32345 782
42.34357 876
42.36368 1013
42.38379 1084
42.40391 1176
42.42402 1160
42.44414 1078
42.46425 1032
42.48436 872
42.50448 794
42.52459 710
42.5447 590
42.56482 573
42.58493 498
42.60505 411
42.62516 372
42.64527 349
42.66539 333
42.6855 320
42.70561 317
42.72573 314
42.74584 321
42.76595 325
42.78607 292
42.80618 334
42.8263 308
42.84641 291
42.86652 305
42.88664 304
42.90675 266
42.92686 287
42.94698 299
42.96709 327
42.98721 276
43.00732 261
43.02743 302
43.04755 270
43.06766 282
43.08777 259
43.10789 292
43.128 290
43.14812 284
43.16823 299
43.18834 249
43.20846 291
43.22857 281
43.24868 311
43.2688 274
43.28891 309
43.30902 289
43.32914 311
43.34925 300
43.36937 272
43.38948 281
43.40959 300
43.42971 279
43.44982 302
43.46993 294
43.49005 274
43.51016 301
43.53028 281
43.55039 274
43.5705 250
43.59062 289
43.61073 279
43.63084 259
43.65096 296
43.67107 279
43.69119 279
43.7113 266
43.73141 302
43.75153 262
43.77164 258
43.79175 289
43.81187 299
43.83198 270
43.85209 257
43.87221 260
43.89232 309
43.91244 278
43.93255 295
43.95266 273
43.97278 240
43.99289 270
44.013 271
44.03312 341
44.05323 260
44.07335 286
44.09346 298
44.11357 285
44.13369 291
44.1538 272
44.17391 276
44.19403 290
44.21414 288
44.23426 263
44.25437 244
44.27448 300
44.2946 306
44.31471 277
44.33482 267
44.35494 252
44.37505 251
44.39516 281
44.41528 266
44.43539 282
44.45551 304
44.47562 266
44.49573 268
44.51585 284
44.53596 282
44.55607 260
44.57619 268
44.5963 299
44.61642 284
44.63653 260
44.65664 271
44.67676 266
44.69687 267
44.71698 266
44.7371 275
44.75721 285
44.77732 278
44.79744 259
44.81755 266
44.83767 270
44.85778 242
44.87789 264
44.89801 296
44.91812 252
44.93823 294
44.95835 311
44.97846 306
44.99858 277
45.01869 305
45.0388 299
45.05892 312
45.07903 303
45.09914 273
45.11926 310
45.13937 306
45.15949 290
45.1796 295
45.19971 350
45.21983 290
45.23994 277
45.26005 328
45.28017 320
45.30028 322
45.32039 332
45.34051 345
45.36062 352
45.38074 311
45.40085 337
45.42096 348
45.44108 382
45.46119 346
45.4813 377
45.50142 354
45.52153 347
45.54165 367
45.56176 437
45.58187 456
45.60199 478
45.6221 500
45.64221 540
45.66233 612
45.68244 637
45.70256 694
45.72267 794
45.74278 810
45.7629 786
45.78301 762
45.80312 684
45.82324 621
45.84335 596
45.86346 540
45.88358 542
45.90369 487
45.92381 415
45.94392 381
45.96403 335
45.98415 321
46.00426 306
46.02437 324
46.04449 295
46.0646 322
46.08472 283
46.10483 304
46.12494 310
46.14506 261
46.16517 279
46.18528 290
46.2054 297
46.22551 282
46.24563 254
46.26574 276
46.28585 273
46.30597 306
46.32608 253
46.34619 263
46.36631 263
46.38642 258
46.40653 273
46.42665 278
46.44676 236
46.46688 235
46.48699 274
46.5071 218
46.52722 243
46.54733 280
46.56744 261
46.58756 227
46.60767 251
46.62779 250
46.6479 268
46.66801 258
46.68813 291
46.70824 243
46.72835 280
46.74847 253
46.76858 258
46.78869 280
46.80881 280
46.82892 263
46.84904 240
46.86915 282
46.88926 271
46.90938 290
46.92949 233
46.9496 253
46.96972 262
46.98983 270
47.00995 291
47.03006 267
47.05017 261
47.07029 269
47.0904 258
47.11051 289
47.13063 301
47.15074 272
47.17086 249
47.19097 266
47.21108 271
47.2312 280
47.25131 245
47.27142 279
47.29154 237
47.31165 259
47.33176 288
47.35188 244
47.37199 256
47.39211 277
47.41222 264
47.43233 253
47.45245 267
47.47256 273
47.49267 253
47.51279 253
47.5329 271
47.55302 253
47.57313 258
47.59324 258
47.61336 276
47.63347 240
47.65358 259
47.6737 275
47.69381 278
47.71393 260
47.73404 282
47.75415 273
47.77427 286
47.79438 252
47.81449 257
47.83461 266
47.85472 251
47.87483 260
47.89495 248
47.91506 284
47.93518 321
47.95529 285
47.9754 290
47.99552 287
48.01563 293
48.03574 255
48.05586 286
48.07597 291
48.09609 295
48.1162 276
48.13631 259
48.15643 295
48.17654 254
48.19665 284
48.21677 263
48.23688 274
48.257 271
48.27711 263
48.29722 283
48.31734 287
48.33745 295
48.35756 263
48.37768 269
48.39779 283
48.4179 251
48.43802 264
48.45813 276
48.47825 250
48.49836 241
48.51847 265
48.53859 262
48.5587 270
48.57881 261
48.59893 287
48.61904 305
48.63916 284
48.65927 253
48.67938 268
48.6995 278
48.71961 289
48.73972 295
48.75984 273
48.77995 266
48.80006 266
48.82018 288
48.84029 241
48.86041 304
48.88052 264
48.90063 277
48.92075 281
48.94086 295
48.96097 277
48.98109 264
49.0012 239
49.02132 261
49.04143 300
49.06154 257
49.08166 287
49.10177 323
49.12188 308
49.142 286
49.16211 280
49.18223 284
49.20234 297
49.22245 262
49.24257 255
49.26268 267
49.28279 306
49.30291 311
49.32302 310
49.34313 293
49.36325 272
49.38336 270
49.40348 319
49.42359 271
49.4437 275
49.46382 284
49.48393 310
49.50404 292
49.52416 311
49.54427 272
49.56439 258
49.5845 305
49.60461 303
49.62473 329
49.64484 302
49.66495 347
49.68507 343
49.70518 333
49.7253 364
49.74541 407
49.76552 375
49.78564 381
49.80575 426
49.82586 482
49.84598 476
49.86609 546
49.8862 601
49.90632 680
49.92643 719
49.94655 880
49.96666 987
49.98677 1237
50.00689 1427
50.027 1568
50.04711 1890
50.06723 2110
50.08734 2178
50.10746 2160
50.12757 1995
50.14768 1722
50.1678 1597
50.18791 1400
50.20802 1278
50.22814 1209
50.24825 1044
50.26837 957
50.28848 701
50.30859 546
50.32871 483
50.34882 469
50.36893 364
50.38905 356
50.40916 351
50.42927 369
50.44939 370
50.4695 336
50.48962 387
50.50973 349
50.52984 378
50.54996 347
50.57007 357
50.59018 343
50.6103 347
50.63041 343
50.65053 319
50.67064 319
50.69075 296
50.71087 305
50.73098 314
50.75109 293
50.77121 293
50.79132 284
50.81143 281
50.83155 271
50.85166 274
50.87178 278
50.89189 236
50.912 285
50.93212 277
50.95223 256
50.97234 267
50.99246 297
51.01257 281
51.03269 282
51.0528 274
51.07291 311
51.09303 280
51.11314 276
51.13325 290
51.15337 281
51.17348 290
51.1936 282
51.21371 262
51.23382 288
51.25394 261
51.27405 262
51.29416 268
51.31428 250
51.33439 239
51.3545 241
51.37462 236
51.39473 255
51.41485 260
51.43496 239
51.45507 237
51.47519 216
51.4953 238
51.51541 247
51.53553 254
51.55564 276
51.57576 224
51.59587 244
51.61598 228
51.6361 282
51.65621 234
51.67632 262
51.69644 235
51.71655 256
51.73667 257
51.75678 254
51.77689 226
51.79701 235
51.81712 242
51.83723 270
51.85735 242
51.87746 273
51.89757 255
51.91769 239
51.9378 248
51.95792 242
51.97803 278
51.99814 234
52.01826 272
52.03837 243
52.05848 262
52.0786 269
52.09871 228
52.11883 254
52.13894 270
52.15905 266
52.17917 243
52.19928 246
52.21939 269
52.23951 271
52.25962 246
52.27974 242
52.29985 248
52.31996 266
52.34008 275
52.36019 263
52.3803 253
52.40042 254
52.42053 265
52.44064 247
52.46076 255
52.48087 239
52.50099 287
52.5211 239
52.54121 269
52.56133 277
52.58144 268
52.60155 258
52.62167 279
52.64178 258
52.6619 263
52.68201 295
52.70212 282
52.72224 231
52.74235 262
52.76246 266
52.78258 268
52.80269 269
52.8228 280
52.84292 264
52.86303 261
52.88315 228
52.90326 303
52.92337 281
52.94349 285
52.9636 271
52.98371 296
53.00383 300
53.02394 295
53.04406 257
53.06417 280
53.08428 277
53.1044 311
53.12451 297
53.14462 297
53.16474 307
53.18485 314
53.20497 279
53.22508 294
53.24519 266
53.26531 262
53.28542 287
53.30553 286
53.32565 290
53.34576 275
53.36587 289
53.38599 300
53.4061 301
53.42622 294
53.44633 311
53.46644 286
53.48656 307
53.50667 294
53.52678 321
53.5469 298
53.56701 310
53.58713 312
53.60724 325
53.62735 293
53.64747 303
53.66758 302
53.68769 306
53.70781 316
53.72792 256
53.74804 313
53.76815 309
53.78826 288
53.80838 292
53.82849 287
53.8486 318
53.86872 265
53.88883 325
53.90894 280
53.92906 302
53.94917 300
53.96929 290
53.9894 294
54.00951 338
54.02963 317
54.04974 301
54.06985 334
54.08997 313
54.11008 330
54.1302 318
54.15031 315
54.17042 330
54.19054 355
54.21065 326
54.23076 328
54.25088 333
54.27099 308
54.29111 328
54.31122 327
54.33133 311
54.35145 320
54.37156 325
54.39167 347
54.41179 334
54.4319 350
54.45201 343
54.47213 319
54.49224 343
54.51236 343
54.53247 361
54.55258 379
54.5727 351
54.59281 368
54.61292 423
54.63304 396
54.65315 436
54.67327 472
54.69338 479
54.71349 547
54.73361 582
54.75372 682
54.77383 752
54.79395 799
54.81406 801
54.83417 841
54.85429 808
54.8744 728
54.89452 686
54.91463 578
54.93474 594
54.95486 584
54.97497 599
54.99508 579
55.0152 518
55.03531 503
55.05543 408
55.07554 416
55.09565 376
55.11577 406
55.13588 418
55.15599 439
55.17611 411
55.19622 468
55.21634 482
55.23645 519
55.25656 534
55.27668 549
55.29679 496
55.3169 492
55.33702 459
55.35713 424
55.37724 436
55.39736 428
55.41747 388
55.43759 430
55.4577 401
55.47781 405
55.49793 389
55.51804 337
55.53815 359
55.55827 325
55.57838 311
55.5985 335
55.61861 317
55.63872 294
55.65884 308
55.67895 326
55.69906 305
55.71918 325
55.73929 319
55.75941 316
55.77952 345
55.79963 354
55.81975 313
55.83986 312
55.85997 293
55.88009 317
55.9002 296
55.92031 322
55.94043 319
55.96054 265
55.98066 307
56.00077 289
56.02088 297
56.041 318
56.06111 303
56.08122 303
56.10134 297
56.12145 320
56.14157 281
56.16168 302
56.18179 266
56.20191 272
56.22202 295
56.24213 303
56.26225 266
56.28236 295
56.30248 280
56.32259 294
56.3427 285
56.36282 286
56.38293 289
56.40304 280
56.42316 256
56.44327 279
56.46338 281
56.4835 279
56.50361 291
56.52373 266
56.54384 258
56.56395 285
56.58407 291
56.60418 308
56.62429 283
56.64441 296
56.66452 304
56.68464 273
56.70475 286
56.72486 265
56.74498 264
56.76509 314
56.7852 265
56.80532 287
56.82543 258
56.84554 263
56.86566 304
56.88577 271
56.90589 210
56.926 279
56.94611 261
56.96623 283
56.98634 289
57.00645 294
57.02657 296
57.04668 274
57.0668 283
57.08691 258
57.10702 282
57.12714 315
57.14725 289
57.16736 256
57.18748 286
57.20759 283
57.22771 290
57.24782 296
57.26793 262
57.28805 280
57.30816 274
57.32827 291
57.34839 295
57.3685 281
57.38861 262
57.40873 282
57.42884 310
57.44896 279
57.46907 259
57.48918 300
57.5093 266
57.52941 278
57.54952 281
57.56964 284
57.58975 260
57.60987 270
57.62998 265
57.65009 249
57.67021 247
57.69032 265
57.71043 249
57.73055 253
57.75066 268
57.77078 259
57.79089 295
57.811 271
57.83112 257
57.85123 267
57.87134 291
57.89146 259
57.91157 229
57.93168 275
57.9518 252
57.97191 270
57.99203 266
58.01214 261
58.03225 281
58.05237 292
58.07248 234
58.09259 263
58.11271 263
58.13282 273
58.15294 283
58.17305 254
58.19316 255
58.21328 237
58.23339 274
58.2535 263
58.27362 255
58.29373 240
58.31385 245
58.33396 251
58.35407 253
58.37419 272
58.3943 261
58.41441 263
58.43453 262
58.45464 259
58.47475 263
58.49487 269
58.51498 293
58.5351 247
58.55521 260
58.57532 265
58.59544 257
58.61555 267
58.63566 249
58.65578 277
58.67589 270
58.69601 282
58.71612 284
58.73623 265
58.75635 296
58.77646 256
58.79657 236
58.81669 277
58.8368 237
58.85691 273
58.87703 249
58.89714 273
58.91726 269
58.93737 247
58.95748 245
58.9776 272
58.99771 252
59.01782 267
59.03794 250
59.05805 272
59.07817 260
59.09828 273
59.11839 283
59.13851 314
59.15862 256
59.17873 302
59.19885 261
59.21896 256
59.23908 286
59.25919 310
59.2793 301
59.29942 273
59.31953 304
59.33964 272
59.35976 290
59.37987 280
59.39998 317
59.4201 298
59.44021 289
59.46033 356
59.48044 327
59.50055 318
59.52067 314
59.54078 337
59.56089 335
59.58101 361
59.60112 409
59.62124 401
59.64135 412
59.66146 448
59.68158 430
59.70169 523
59.7218 556
59.74192 604
59.76203 692
59.78215 789
59.80226 898
59.82237 1043
59.84249 1258
59.8626 1383
59.88271 1429
59.90283 1509
59.92294 1389
59.94305 1352
59.96317 1178
59.98328 1058
60.0034 909
60.02351 893
60.04362 853
60.06374 867
60.08385 807
60.10396 718
60.12408 646
60.14419 524
60.16431 418
60.18442 395
60.20453 360
60.22465 341
60.24476 321
60.26487 307
60.28499 297
60.3051 322
60.32522 303
60.34533 283
60.36544 290
60.38556 313
60.40567 298
60.42578 287
60.4459 280
60.46601 291
60.48612 271
60.50624 280
60.52635 291
60.54647 303
60.56658 307
60.58669 293
60.60681 276
60.62692 304
60.64703 308
60.66715 268
60.68726 268
60.70738 277
60.72749 275
60.7476 304
60.76772 325
60.78783 281
60.80794 274
60.82806 280
60.84817 273
60.86828 272
60.8884 276
60.90851 278
60.92863 249
60.94874 301
60.96885 296
60.98897 295
61.00908 313
61.02919 305
61.04931 304
61.06942 281
61.08954 297
61.10965 283
61.12976 346
61.14988 311
61.16999 313
61.1901 306
61.21022 309
61.23033 320
61.25045 331
61.27056 339
61.29067 306
61.31079 336
61.3309 314
61.35101 364
61.37113 378
61.39124 398
61.41135 366
61.43147 361
61.45158 377
61.4717 381
61.49181 344
61.51192 371
61.53204 367
61.55215 408
61.57226 396
61.59238 371
61.61249 343
61.63261 386
61.65272 388
61.67283 374
61.69295 357
61.71306 378
61.73317 386
61.75329 342
61.7734 327
61.79352 376
61.81363 354
61.83374 340
61.85386 343
61.87397 356
61.89408 365
61.9142 331
61.93431 332
61.95442 340
61.97454 332
61.99465 333
62.01477 325
62.03488 332
62.05499 303
62.07511 318
62.09522 331
62.11533 294
62.13545 335
62.15556 311
62.17568 297
62.19579 297
62.2159 310
62.23602 315
62.25613 283
62.27624 294
62.29636 299
62.31647 299
62.33659 308
62.3567 292
62.37681 285
62.39693 272
62.41704 287
62.43715 297
62.45727 306
62.47738 280
62.49749 289
62.51761 303
62.53772 281
62.55784 278
62.57795 278
62.59806 254
62.61818 258
62.63829 261
62.6584 244
62.67852 279
62.69863 276
62.71875 265
62.73886 286
62.75897 255
62.77909 271
62.7992 266
62.81931 248
62.83943 268
62.85954 267
62.87965 251
62.89977 240
62.91988 247
62.94 285
62.96011 266
62.98022 251
63.00034 238
63.02045 249
63.04056 289
63.06068 276
63.08079 258
63.10091 250
63.12102 247
63.14113 250
63.16125 235
63.18136 238
63.20147 247
63.22159 245
63.2417 238
63.26182 248
63.28193 256
63.30204 250
63.32216 257
63.34227 264
63.36238 268
63.3825 267
63.40261 250
63.42272 244
63.44284 263
63.46295 300
63.48307 252
63.50318 266
63.52329 282
63.54341 293
63.56352 293
63.58363 274
63.60375 300
63.62386 307
63.64398 290
63.66409 291
63.6842 310
63.70432 306
63.72443 314
63.74454 312
63.76466 301
63.78477 298
63.80489 321
63.825 329
63.84511 366
63.86523 362
63.88534 412
63.90545 412
63.92557 424
63.94568 472
63.96579 483
63.98591 489
64.00602 450
64.02614 427
64.04625 382
64.06636 394
64.08648 364
64.10659 332
64.1267 358
64.14682 363
64.16693 383
64.18705 358
64.20716 313
64.22727 266
64.24739 289
64.2675 276
64.28761 263
64.30773 273
64.32784 267
64.34796 257
64.36807 229
64.38818 244
64.4083 249
64.42841 232
64.44852 245
64.46864 258
64.48875 234
64.50886 243
64.52898 268
64.54909 241
64.56921 266
64.58932 238
64.60943 238
64.62955 241
64.64966 238
64.66977 245
64.68989 256
64.71 254
64.73012 283
64.75023 231
64.77034 279
64.79046 269
64.81057 239
64.83068 248
64.8508 253
64.87091 262
64.89102 249
64.91114 246
64.93125 268
64.95137 239
64.97148 240
64.99159 257
65.01171 238
65.03182 251
65.05193 264
65.07205 247
65.09216 267
65.11228 285
65.13239 261
65.1525 239
65.17262 267
65.19273 254
65.21284 276
65.23296 268
65.25307 288
65.27319 307
65.2933 265
65.31341 294
65.33353 274
65.35364 277
65.37375 269
65.39387 248
65.41398 273
65.43409 248
65.45421 269
65.47432 256
65.49444 240
65.51455 237
65.53466 290
65.55478 264
65.57489 254
65.595 268
65.61512 292
65.63523 281
65.65535 305
65.67546 287
65.69557 307
65.71569 339
65.7358 306
65.75591 338
65.77603 296
65.79614 285
65.81626 308
65.83637 269
65.85648 270
65.8766 264
65.89671 270
65.91682 278
65.93694 296
65.95705 264
65.97716 267
65.99728 272
66.01739 247
66.03751 264
66.05762 244
66.07773 268
66.09785 252
66.11796 229
66.13807 241
66.15819 236
66.1783 230
66.19842 244
66.21853 238
66.23864 276
66.25876 258
66.27887 243
66.29898 239
66.3191 258
66.33921 279
66.35933 233
66.37944 261
66.39955 271
66.41967 277
66.43978 260
66.45989 224
66.48001 249
66.50012 253
66.52023 247
66.54035 252
66.56046 247
66.58058 250
66.60069 236
66.6208 261
66.64092 244
66.66103 247
66.68114 233
66.70126 268
66.72137 235
66.74149 254
66.7616 261
66.78171 229
66.80183 254
66.82194 232
66.84205 258
66.86217 259
66.88228 240
66.90239 255
66.92251 278
66.94262 264
66.96274 242
66.98285 257
67.00296 242
67.02308 278
67.04319 268
67.0633 263
67.08342 267
67.10353 293
67.12365 260
67.14376 271
67.16387 272
67.18399 273
67.2041 287
67.22421 290
67.24433 324
67.26444 274
67.28456 287
67.30467 314
67.32478 272
67.3449 308
67.36501 347
67.38512 324
67.40524 336
67.42535 353
67.44546 378
67.46558 405
67.48569 401
67.50581 445
67.52592 537
67.54603 561
67.56615 578
67.58626 643
67.60637 704
67.62649 834
67.6466 881
67.66672 1012
67.68683 1031
67.70694 979
67.72706 862
67.74717 835
67.76728 732
67.7874 722
67.80751 699
67.82763 707
67.84774 783
67.86785 768
67.88797 770
67.90808 822
67.92819 792
67.94831 787
67.96842 778
67.98853 860
68.00865 933
68.02876 1050
68.04888 1150
68.06899 1247
68.0891 1195
68.10922 1256
68.12933 1201
68.14944 1210
68.16956 1114
68.18967 1061
68.20979 1153
68.2299 1133
68.25001 1150
68.27013 1156
68.29024 1066
68.31035 1019
68.33047 844
68.35058 748
68.3707 635
68.39081 655
68.41092 560
68.43104 505
68.45115 559
68.47126 516
68.49138 522
68.51149 400
68.5316 377
68.55172 342
68.57183 305
68.59195 296
68.61206 294
68.63217 287
68.65229 297
68.6724 315
68.69251 279
68.71263 280
68.73274 249
68.75286 239
68.77297 273
68.79308 290
68.8132 295
68.83331 236
68.85342 296
68.87354 253
68.89365 261
68.91376 277
68.93388 287
68.95399 295
68.97411 273
68.99422 247
69.01433 266
69.03445 258
69.05456 250
69.07467 264
69.09479 253
69.1149 280
69.13502 240
69.15513 251
69.17524 287
69.19536 261
69.21547 266
69.23558 257
69.2557 273
69.27581 260
69.29593 295
69.31604 273
69.33615 275
69.35627 273
69.37638 284
69.39649 284
69.41661 273
69.43672 265
69.45683 259
69.47695 281
69.49706 271
69.51718 258
69.53729 270
69.5574 271
69.57752 261
69.59763 298
69.61774 261
69.63786 274
69.65797 241
69.67809 270
69.6982 256
69.71831 262
69.73843 277
69.75854 282
69.77865 262
69.79877 242
69.81888 265
69.839 248
69.85911 261
69.87922 248
69.89934 256
69.91945 228
69.93956 253
69.95968 264
69.97979 255
69.9999 258
70.02002 245
70.04013 273
70.06025 256
70.08036 278
70.10047 260
70.12059 270
70.1407 251
70.16081 244
70.18093 250
70.20104 289
70.22116 255
70.24127 259
70.26138 240
70.2815 275
70.30161 274
70.32172 244
70.34184 250
70.36195 225
70.38207 240
70.40218 247
70.42229 242
70.44241 253
70.46252 215
70.48263 233
70.50275 250
70.52286 235
70.54297 255
70.56309 246
70.5832 257
70.60332 237
70.62343 248
70.64354 280
70.66366 244
70.68377 244
70.70388 255
70.724 234
70.74411 267
70.76423 244
70.78434 242
70.80445 242
70.82457 226
70.84468 246
70.86479 240
70.88491 257
70.90502 238
70.92513 247
70.94525 240
70.96536 260
70.98548 229
71.00559 246
71.0257 262
71.04582 223
71.06593 266
71.08604 234
71.10616 223
71.12627 247
71.14639 222
71.1665 220
71.18661 251
71.20673 238
71.22684 248
71.24695 231
71.26707 261
71.28718 257
71.3073 240
71.32741 242
71.34752 252
71.36764 224
71.38775 259
71.40786 249
71.42798 248
71.44809 225
71.4682 283
71.48832 245
71.50843 243
71.52855 234
71.54866 240
71.56877 249
71.58889 261
71.609 249
71.62911 242
71.64923 219
71.66934 220
71.68946 234
71.70957 282
71.72968 247
71.7498 235
71.76991 219
71.79002 263
71.81014 226
71.83025 268
71.85037 206
71.87048 274
71.89059 224
71.91071 271
71.93082 223
71.95093 235
71.97105 247
71.99116 258
72.01127 248
72.03139 270
72.0515 233
72.07162 256
72.09173 255
72.11184 231
72.13196 263
72.15207 251
72.17218 247
72.1923 244
72.21241 243
72.23253 254
72.25264 255
72.27275 269
72.29287 238
72.31298 266
72.33309 244
72.35321 251
72.37332 288
72.39344 269
72.41355 277
72.43366 273
72.45378 272
72.47389 273
72.494 271
72.51412 259
72.53423 244
72.55434 259
72.57446 286
72.59457 279
72.61469 260
72.6348 278
72.65491 292
72.67503 291
72.69514 259
72.71525 281
72.73537 288
72.75548 269
72.7756 286
72.79571 293
72.81582 271
72.83594 262
72.85605 267
72.87616 317
72.89628 310
72.91639 261
72.9365 283
72.95662 274
72.97673 267
72.99685 268
73.01696 300
73.03707 261
73.05719 310
73.0773 273
73.09741 313
73.11753 325
73.13764 310
73.15776 310
73.17787 306
73.19798 320
73.2181 324
73.23821 332
73.25832 362
73.27844 369
73.29855 427
73.31867 411
73.33878 432
73.35889 438
73.37901 494
73.39912 518
73.41923 491
73.43935 491
73.45946 437
73.47957 427
73.49969 402
73.5198 413
73.53992 367
73.56003 362
73.58014 374
73.60026 376
73.62037 376
73.64048 393
73.6606 363
73.68071 312
73.70083 271
73.72094 300
73.74105 290
73.76117 263
73.78128 258
73.80139 257
73.82151 271
73.84162 268
73.86174 285
73.88185 274
73.90196 260
73.92208 286
73.94219 253
73.9623 262
73.98242 231
74.00253 267
74.02264 248
74.04276 244
74.06287 261
74.08299 245
74.1031 244
74.12321 236
74.14333 242
74.16344 248
74.18355 246
74.20367 252
74.22378 243
74.2439 246
74.26401 211
74.28412 260
74.30424 258
74.32435 256
74.34446 211
74.36458 269
74.38469 236
74.40481 232
74.42492 239
74.44503 243
74.46515 252
74.48526 251
74.50537 265
74.52549 231
74.5456 229
74.56571 237
74.58583 250
74.60594 242
74.62606 238
74.64617 262
74.66628 255
74.6864 267
74.70651 227
74.72662 261
74.74674 264
74.76685 263
74.78697 237
74.80708 289
74.82719 267
74.84731 270
74.86742 234
74.88753 260
74.90765 258
74.92776 248
74.94787 268
74.96799 252
74.9881 243
75.00822 223
