3.00117 21260.1917396071
3.02128 20435.8706395318
3.0414 19754
3.06151 19719.798330516
3.08162 18825.0569371296
3.10174 18245.5546375632
3.12185 18032.3329040649
3.14197 17327.5731055938
3.16208 17167.5199055585
3.18219 16405.1442868332
3.20231 16473.8017502479
3.22242 15396.8660020053
3.24253 14759.7273226586
3.26265 14712.545798359
3.28276 14256.1871431509
3.30288 13777.2326400854
3.32299 13544.2996708961
3.3431 12753
3.36322 12706.8029684125
3.38333 12197.3324337923
3.40344 11891.09079128
3.42356 11262.0512529087
3.44367 11021.0535741152
3.46379 10872.2469340817
3.4839 10227
3.50401 10154.8927634008
3.52413 9632.16292346048
3.54424 9273.63638936321
3.56435 9067.00623117251
3.58447 8559.50699963243
3.60458 8396.2468443736
3.62469 8011.15493030276
3.64481 7832.90269372579
3.66492 7553.72374317829
3.68504 7327.58480171057
3.70515 7066.13141940379
3.72526 6668.73554135415
3.74538 6456.00034235012
3.76549 6433.16665654666
3.7856 5899
3.80572 5816.80699710186
3.82583 5356.22091988609
3.84595 5090.25492255693
3.86606 5293.15727896057
3.88617 4914.46990428094
3.90629 4780.1003503144
3.9264 4455
3.94651 4356.97724632092
3.96663 4213.57449895384
3.98674 3900.63684225183
4.00686 3878.97785415107
4.02697 3775.3561407179
4.04708 3548.0486587001
4.0672 3588
4.08731 3261.85192200032
4.10742 3133.95718724101
4.12754 3037.59712399408
4.14765 2823.19446824566
4.16776 2839.15882642348
4.18788 2647.12860430816
4.20799 2628.01816135702
4.22811 2544.98477227649
4.24822 2538.89261802816
4.26833 2353.8340084356
4.28845 2363.06385885426
4.30856 2298.31524398001
4.32867 2136.10785973658
4.34879 2138.01659468091
4.3689 2057
4.38902 2081.99054278717
4.40913 1984.78029793834
4.42924 1869.92507183001
4.44936 1903.89113431902
4.46947 1916.06453849731
4.48958 1843.0640031586
4.5097 1800
4.52981 1718.9415253423
4.54992 1639.03462738851
4.57004 1765.23255221031
4.59015 1768.28633541787
4.61027 1622.12733143165
4.63038 1615.00316440627
4.65049 1588.00196440232
4.67061 1618.01387369236
4.69072 1596.91962511458
4.71083 1495.89409110129
4.73095 1461.90024580592
4.75106 1414.02825002529
4.77118 1449.93905309222
4.79129 1495.99250667184
4.8114 1481
4.83152 1442.93984980755
4.85163 1367.89717782588
4.87174 1341.06026412153
4.89186 1379.03842270897
4.91197 1313.05562175808
4.93209 1309.02087138217
4.9522 1246
4.97231 1303.00367833276
4.99243 1227.86876710298
5.01254 1178.94543319802
5.03265 1145.12618233
5.05277 1121.91079992421
5.07288 1221.95814108378
5.09299 1160.05652833893
5.11311 1064.97094567453
5.13322 1041.99335738152
5.15334 1052.09199805867
5.17345 1093.94500432959
5.19356 1039.98765609916
5.21368 1086.02634335425
5.23379 971.053194448903
5.2539 943
5.27402 985.048087568321
5.29413 1000.93344016294
5.31425 934.949750007345
5.33436 967.947334099913
5.35447 938.114353825897
5.37459 876.996370358511
5.3947 919
5.41481 859.990403684541
5.43493 896.026903277777
5.45504 884.037593637478
5.47516 927.995801008322
5.49527 882.050132417682
5.51538 885.993971641933
5.5355 871
5.55561 844.982811830818
5.57572 811.984894088712
5.59584 802.938913166513
5.61595 772.947642823885
5.63606 825.969026156265
5.65618 793.022660682473
5.67629 820.969918906373
5.69641 853.981975104519
5.71652 773.943601280593
5.73663 774.034688962896
5.75675 769.87957873721
5.77686 713.024417575663
5.79697 736.005930167136
5.81709 710.988833726782
5.8372 775
5.85732 736.931452440534
5.87743 684.962007773147
5.89754 688.047678958826
5.91766 722.914064918985
5.93777 742.05234805764
5.95788 679.034311683142
5.978 691
5.99811 697.004594071101
6.01823 711.004882470192
6.03834 702.991187036616
6.05845 707.986553357226
6.07857 698.047978628111
6.09868 655.035476530812
6.11879 643.993685758377
6.13891 670.014832762454
6.15902 683.988054159015
6.17913 657.973293894835
6.19925 661.036636882716
6.21936 652.11677216806
6.23948 585.007738177856
6.25959 634.980859947345
6.2797 630
6.29982 644.032716159448
6.31993 671.003793929791
6.34004 638.883926946409
6.36016 594.993744143633
6.38027 626.984713203186
6.40039 613.993470324801
6.4205 661
6.44061 662.988538758262
6.46073 633.958085568059
6.48084 623.030803734403
6.50095 641.031899238997
6.52107 611.995795455645
6.54118 640.001669821873
6.56129 621.983058186475
6.58141 691.009075952012
6.60152 633.929046402239
6.62164 605.018260196991
6.64175 617.967118287638
6.66186 576.085455735336
6.68198 563.976765218501
6.70209 617.962527099563
6.7222 656
6.74232 569.975741066589
6.76243 610.012934109934
6.78255 567.958633779242
6.80266 598.95060344557
6.82277 604.957886730906
6.84289 637.011884030809
6.863 567
6.88311 580.019438676479
6.90323 601.99280108967
6.92334 584.990193498083
6.94346 599.963401264076
6.96357 608.995141408537
6.98368 602.025220906644
7.0038 578
7.02391 599.999192027584
7.04402 557.941427006121
7.06414 542.12599281563
7.08425 628.955034302274
7.10436 574.07977628403
7.12448 589.975230973602
7.14459 580.020657993761
7.16471 536.991202677914
7.18482 550.022247500792
7.20493 576.067578894766
7.22505 611.956427178509
7.24516 560.045877808701
7.26527 572.014767217222
7.28539 541.995587440088
7.3055 594
7.32562 604.015684953861
7.34573 617.953194381875
7.36584 551.907131079294
7.38596 542.019239232077
7.40607 549.881266353568
7.42618 652.976155175075
7.4463 594
7.46641 589.979428033175
7.48653 520.983969935399
7.50664 559.989726767155
7.52675 502.06277886255
7.54687 543.913184785204
7.56698 576.982594451393
7.58709 580.009972881652
7.60721 558.002879008398
7.62732 578.993989547726
7.64743 541.95551663983
7.66755 551.103288329696
7.68766 572.091888647792
7.70778 499.012817364614
7.72789 561.966480813591
7.748 571
7.76812 535.014187003992
7.78823 590.06100285623
7.80834 589.974065796666
7.82846 580.037042135365
7.84857 562.990064014493
7.86869 582.001104556896
7.8888 550
7.90891 539.010054173804
7.92903 570.023749580256
7.94914 566.999932232548
7.96925 562.098332210467
7.98937 514.996364657904
8.00948 552.000576872049
8.0296 512
8.04971 555.022398231258
8.06982 567.996678003731
8.08994 556.948785195901
8.11005 536.025497998972
8.13016 583.870110412364
8.15028 628.992871034419
8.17039 597.027213313454
8.1905 555
8.21062 574.026761873999
8.23073 572.935195168647
8.25085 532.051564052449
8.27096 583.018788330991
8.29107 520.028634486139
8.31119 574.969319305155
8.3313 581
8.35141 522.980446685892
8.37153 525.050628003731
8.39164 556.00531689385
8.41176 546.957697728638
8.43187 587.987700407746
8.45198 562.008877494135
8.4721 573
8.49221 541.008309045674
8.51232 597.022896196783
8.53244 562.914369783198
8.55255 559.905328811575
8.57266 599.002242799623
8.59278 558.038855900574
8.61289 545.002328114833
8.63301 534.994400409289
8.65312 545.049520697834
8.67323 603.024295926146
8.69335 574.937199877109
8.71346 590.903423620373
8.73357 627.019299817968
8.75369 571.028041977433
8.7738 551
8.79392 585.056355418289
8.81403 617.946171805042
8.83414 546.946681650031
8.85426 577.953998154055
8.87437 549.089037814794
8.89448 530.925806852658
8.9146 633
8.93471 557.977613124894
8.95483 579.007908064393
8.97494 544.969052590174
8.99505 561.985396496167
9.01517 549.989321487278
9.03528 571.007579822119
9.05539 542.000260461668
9.07551 577.01373220554
9.09562 570.977091801114
9.11573 537.921521204767
9.13585 500.050808537591
9.15596 560.921192853228
9.17608 535.073834684704
9.19619 465.015191320767
9.2163 501
9.23642 583.007427566358
9.25653 532.957497551897
9.27664 552.027442194062
9.29676 533.052652001841
9.31687 531.952097579576
9.33699 565.003064968788
9.3571 530
9.37721 550.007263956328
9.39733 537.968474827639
9.41744 533.037766865823
9.43755 549.054081833753
9.45767 509.005917595409
9.47778 538.992717088836
9.4979 521
9.51801 559.004599268424
9.53812 517.943287131965
9.55824 485.999698495793
9.57835 521.166662123625
9.59846 566.055813634855
9.61858 496.030013573837
9.63869 519.994774710735
9.6588 507
9.67892 547.98869947069
9.69903 489.959555980342
9.71915 513.037576878612
9.73926 498.018607098455
9.75937 494.051745127548
9.77949 456.98742271522
9.7996 535
9.81971 529.984119572665
9.83983 507.985553079632
9.85994 508.009409408065
9.88006 510.006421422361
9.90017 510.974433393277
9.92028 532.996420525001
9.9404 523
9.96051 536.995022855727
9.98062 506.98741447933
10.00074 510.965510628755
10.02085 482.974995808268
10.04097 518.998304060375
10.06108 495.975481970026
10.08119 561.98555921988
10.10131 521.96884469628
10.12142 505.050404159763
10.14153 562.974823069482
10.16165 483.883796449803
10.18176 514.881200200836
10.20187 545.013564568467
10.22199 516.009966316409
10.2421 518
10.26222 524.01111102888
10.28233 531.98375694555
10.30244 509.980581183104
10.32256 520.966520419325
10.34267 536.965112485494
10.36278 555.00830854505
10.3829 536
10.40301 568.009257490014
10.42313 556.972085617072
10.44324 538.938726199039
10.46335 514.960244267535
10.48347 547.013504395201
10.50358 498.030310214859
10.52369 516.979732315027
10.54381 530.983288918028
10.56392 488.00656099691
10.58403 551.100807138865
10.60415 570.930220661643
10.62426 524.071696588497
10.64438 514.995403436236
10.66449 528.983853535762
10.6846 556
10.70472 511.962732526844
10.72483 519.075450620858
10.74494 563.982772187761
10.76506 519.031207496059
10.78517 546.969168735269
10.80529 536.007859040277
10.8254 542
10.84551 559.988785239334
10.86563 501.914187921272
10.88574 484.049335288921
10.90585 530.888340629758
10.92597 541.050357319504
10.94608 508.975781691916
10.9662 566
10.98631 523.988318420875
11.00642 546.022922440409
11.02654 543.982540933758
11.04665 538.029423075057
11.06676 525.001555201275
11.08688 543.967384899578
11.10699 561.011135389086
11.1271 518
11.14722 529.010855246291
11.16733 530.020025953337
11.18745 564.100938109044
11.20756 581.045478735094
11.22767 525.098937660591
11.24779 492.98805777736
11.2679 553
11.28801 561.98335340145
11.30813 528.007128849313
11.32824 561.023201003313
11.34836 552.95333282173
11.36847 602.969550393672
11.38858 576.035559079836
11.4087 559
11.42881 552.000742362073
11.44892 553.988534724015
11.46904 550.07691567292
11.48915 603.983594108628
11.50927 574.985528472718
11.52938 626.976797985977
11.54949 597.018288468613
11.56961 599.019780910996
11.58972 644.018624101031
11.60983 621.93156693796
11.62995 578.924478775316
11.65006 583.894141620673
11.67017 636.017057445296
11.69029 580.00940747879
11.7104 628
11.73052 651.982827472722
11.75063 633.031292679436
11.77074 677.017215783869
11.79086 648.020783581074
11.81097 669.981753541974
11.83108 648.03810561385
11.8512 630
11.87131 670.010020961287
11.89143 640.897371575641
11.91154 604.113437092683
11.93165 709.883065250223
11.95177 675.048664802814
11.97188 702.938009135512
11.99199 739.012294595621
12.01211 699.012338809485
12.03222 772.024576656253
12.05234 726.920509413807
12.07245 731.031092679848
12.09256 752.8657060336
12.11268 831.980038300298
12.13279 791.016623945378
12.1529 782
12.17302 738.020121618488
12.19313 815.081982877406
12.21324 811.963486076252
12.23336 811.981304195288
12.25347 821.983849145603
12.27359 828.002327221514
12.2937 818
12.31381 826.007463803461
12.33393 825.952240049171
12.35404 779.949879252035
12.37415 779.020038820496
12.39427 749.05267642219
12.41438 728.003744900332
12.4345 737
12.45461 727.973487386869
12.47472 666.988943226171
12.49484 696.003873102111
12.51495 669.969449048111
12.53506 703.059895276925
12.55518 618.046875844541
12.57529 637.98838739491
12.5954 622
12.61552 604.011732901821
12.63563 622.985334528803
12.65575 583.918587782405
12.67586 579.976317480284
12.69597 582.030846565002
12.71609 555.002015650027
12.7362 570
12.75631 549.992911964954
12.77643 548.989840260602
12.79654 546.058635382976
12.81666 576.059925393185
12.83677 504.052467294733
12.85688 531.961874370603
12.877 535
12.89711 509.998114409973
12.91722 522.001316509076
12.93734 504.966983373233
12.95745 505.957687210306
12.97757 510.054321355795
12.99768 462.003144043547
13.01779 506.980218132222
13.03791 508.992602616453
13.05802 495.986814065962
13.07813 487.002828106513
13.09825 485.93946823781
13.11836 455.994913314998
13.13847 479.009915717011
13.15859 439.013271390763
13.1787 467
13.19882 519.960302749589
13.21893 420.916137636291
13.23904 443.068142775922
13.25916 455.952244842602
13.27927 491.975496042705
13.29938 480.01737884254
13.3195 483
13.33961 513.005282567039
13.35973 497.964183728011
13.37984 489.026772848923
13.39995 506.014545466395
13.42007 485.998653281777
13.44018 507.991965599329
13.46029 485.017956104517
13.48041 463.000670530177
13.50052 482.021642825344
13.52064 504.068986372879
13.54075 541.041458696935
13.56086 526.070156830275
13.58098 503.986632239694
13.60109 545.979443522642
13.6212 555
13.64132 544.055363598839
13.66143 612.966153623147
13.68154 533.002888947587
13.70166 615.949477485477
13.72177 527.181029287769
13.74189 466.993620517548
13.762 523
13.78211 533.978645971308
13.80223 467.923711993267
13.82234 455.021245539334
13.84245 467.979227397743
13.86257 466.016693034571
13.88268 451.014468983171
13.9028 440
13.92291 433.999088515343
13.94302 442.021905276017
13.96314 469.037423986997
13.98325 475.988567382824
14.00336 475.038425748348
14.02348 455.987257023325
14.04359 484.002521174896
14.06371 444.987359559687
14.08382 441.980899633719
14.10393 399.950842411023
14.12405 401.070094634835
14.14416 440.914821584785
14.16427 466.007240116017
14.18439 453.992123275459
14.2045 476
14.22461 419.998190639702
14.24473 473.051059706261
14.26484 451.925065388746
14.28496 448.911920706718
14.30507 490.037733221974
14.32518 414.047350805222
14.3453 427
14.36541 438.006917104536
14.38552 449.987048662414
14.40564 429.022136499114
14.42575 474.892774381013
14.44587 490.001310562031
14.46598 470.054149925138
14.48609 405.018044372163
14.50621 413.014134272467
14.52632 435.012514075296
14.54643 435.985399410993
14.56655 420.961422040044
14.58666 406.035706203371
14.60677 404.941141687544
14.62689 455.995084879083
14.647 436
14.66712 476.996516290533
14.68723 438.008345905773
14.70734 479.981064217955
14.72746 419.047961405053
14.74757 458.935429070437
14.76768 461.022732053428
14.7878 433
14.80791 430.024344463578
14.82803 486.994015247921
14.84814 424.903562242611
14.86825 428.940593426531
14.88837 444.980442511254
14.90848 454.998271398195
14.92859 444.011441023791
14.94871 419.992683654904
14.96882 435.054640933011
14.98894 478.944267316024
15.00905 417.006237946492
15.02916 479.958471685473
15.04928 446.996228763549
15.06939 498.989648654665
15.0895 465
15.10962 466.011863956127
15.12973 468.995785906196
15.14984 477.064512769512
15.16996 503.049623995496
15.19007 452.011744896796
15.21019 486.996030517258
15.2303 461
15.25041 495.002043229108
15.27053 458.961945580395
15.29064 469.040134141184
15.31075 471.047506724484
15.33087 450.001165096844
15.35098 458.016830725749
15.3711 437
15.39121 481.985298769769
15.41132 390.950650755438
15.43144 420.084222103942
15.45155 429.014539649306
15.47166 423.020260953453
15.49178 415.99243832178
15.51189 430.9981538267
15.53201 414.987358934742
15.55212 413.043789161808
15.57223 463.994740619324
15.59235 417.96199485774
15.61246 447.966817584318
15.63257 445.951529343223
15.65269 495.00293217834
15.6728 431
15.69291 420.999534570034
15.71303 405.973857828472
15.73314 410.075881092545
15.75326 461.935367930678
15.77337 458.036653880948
15.79348 434.018033937508
15.8136 425
15.83371 428.004003587419
15.85382 442.020708298036
15.87394 446.931569606583
15.89405 401.014897129992
15.91417 440.939530714719
15.93428 448.014942542998
15.95439 418.024539540555
15.97451 383.008665598647
15.99462 428.009698823758
16.01473 397.982630072453
16.03485 435.144641968301
16.05496 461.063851057552
16.07508 406.016972185226
16.09519 441.978554401082
16.1153 449
16.13542 426.014459294591
16.15553 462.011086349142
16.17564 428.929214376454
16.19576 414.017752634762
16.21587 412.964910852976
16.23598 449.977417842541
16.2561 451
16.27621 446.984605787334
16.29633 415.023877946034
16.31644 465.042429108033
16.33655 423.190964014714
16.35667 377.962591471007
16.37678 441.967182654144
16.39689 425.007848674226
16.41701 428.995569912253
16.43712 413.015270083832
16.45724 449.015163792655
16.47735 423.967087527013
16.49746 436.981489278008
16.51758 429.008900734033
16.53769 422.00920535988
16.5578 404
16.57792 419.980571049915
16.59803 382.005898831549
16.61814 438.115727946222
16.63826 457.023469836308
16.65837 436.025842999359
16.67849 439.985083305578
16.6986 460
16.71871 402.990974525861
16.73883 438.055822126656
16.75894 448.006626241239
16.77905 451.029159213143
16.79917 432.00652000894
16.81928 438.009858986664
16.8394 418
16.85951 440.003714593772
16.87962 422.983031510575
16.89974 414.971695317148
16.91985 402.96527016982
16.93996 427.011134138566
16.96008 399.003208773223
16.98019 425.992352014308
17.00031 432.020303002786
17.02042 483.995474138977
17.04053 415.894054117195
17.06065 398.076649299518
17.08076 442.943359935387
17.10087 445.006119590459
17.12099 444.004499261176
17.1411 428
17.16121 437.015373269012
17.18133 466.001604980451
17.20144 429.887525724374
17.22156 387.022988652965
17.24167 414.913164033795
17.26178 463.990369656105
17.2819 451
17.30201 478.994994569518
17.32212 439.995826630334
17.34224 476.035884996459
17.36235 449.10125606561
17.38247 427.003104184393
17.40258 439.978257043655
17.42269 455.000674786503
17.44281 433.982894985559
17.46292 414.015857128024
17.48303 449.023544031572
17.50315 432.944596930197
17.52326 425.991218355365
17.54338 431.998248201968
17.56349 427.004193839928
17.5836 430
17.60372 463.012447179673
17.62383 454.998290331518
17.64394 467.008301429162
17.66406 452.048463427136
17.68417 433.012862930354
17.70428 440.974413976748
17.7244 461
17.74451 440.00629315979
17.76463 476.007113583846
17.78474 447.983997333747
17.80485 472.954648649449
17.82497 478.958156952426
17.84508 494.067104925348
17.86519 394.006395535858
17.88531 479.036587164614
17.90542 473.958563917687
17.92554 444.982185796046
17.94565 446.991588744515
17.96576 437.002934151675
17.98588 446.990729977193
18.00599 457.986468754487
18.0261 480
18.04622 433.977596132399
18.06633 460.073895896412
18.08645 488.973615878904
18.10656 457.031854160571
18.12667 464.000206818364
18.14679 452.99768305665
18.1669 473
18.18701 468.003189945882
18.20713 478.975903525566
18.22724 438.942139777603
18.24735 437.976307262505
18.26747 440.008761548584
18.28758 432.003966872812
18.3077 434
18.32781 436.000408195062
18.34792 432.98996792101
18.36804 431.04886830081
18.38815 463.988430931719
18.40826 449.972907975786
18.42838 475.02628821112
18.44849 406.019740235564
18.46861 427.020414555249
18.48872 443.989475390398
18.50883 432.024221003876
18.52895 463.006971056642
18.54906 449.947656132332
18.56917 490.040382544885
18.58929 414.01266485024
18.6094 463
18.62951 467.998098274194
18.64963 468.978331872069
18.66974 437.9437529383
18.68986 436.937261129158
18.70997 478.962431383542
18.73008 485.98512981209
18.7502 496
18.77031 424.969215848022
18.79042 418.047449881574
18.81054 475.042210933856
18.83065 461.009074092961
18.85077 483.969852268724
18.87088 484.008058445113
18.89099 468.017789058204
18.91111 428.993138529758
18.93122 455.051797790016
18.95133 485.964938943024
18.97145 439.991698921424
18.99156 471.015913899752
19.01168 441.958902680335
19.03179 520.005238186666
19.0519 431
19.07202 487.039012375986
19.09213 464.9652215018
19.11224 478.054152901028
19.13236 480.080385616124
19.15247 440.965207773939
19.17258 500.990379182722
19.1927 449
19.21281 474.029834424096
19.23293 520.015948449528
19.25304 514.033994503519
19.27315 553.943692126837
19.29327 541.040034318497
19.31338 513.038039207412
19.33349 488.988176492238
19.35361 533.001480060532
19.37372 504.009153242281
19.39384 567.124377925863
19.41395 583.951257968375
19.43406 569.950849084482
19.45418 589.063793575887
19.47429 495.99495929496
19.4944 616
19.51452 627.968804211222
19.53463 606.991316247119
19.55475 625.113998365231
19.57486 658.048940714074
19.59497 623.926608103078
19.61509 726.983010060764
19.6352 682
19.65531 737.021150981342
19.67543 731.987280071993
19.69554 753.079178775409
19.71565 807.809530092675
19.73577 881.940162913267
19.75588 890.987712683899
19.776 914
19.79611 931.040709957425
19.81622 1035.02915108178
19.83634 986.937477664965
19.85645 1022.85063844862
19.87656 1058.98589120744
19.89668 1068.95040912439
19.91679 1125.00428646302
19.93691 1066.98949180772
19.95702 1088.98537106599
19.97713 1027.94427986155
19.99725 1038.02826717187
20.01736 1036.96276735249
20.03747 1053.06161754339
20.05759 973.022419240227
20.0777 994
20.09782 1019.00502046276
20.11793 997.921186739254
20.13804 954.022152253896
20.15816 982.078787520675
20.17827 905.995258120656
20.19838 994.935170819003
20.2185 982
20.23861 982.019005504649
20.25872 1001.94297699229
20.27884 928.057614161395
20.29895 1023.98207098281
20.31907 933.063951406954
20.33918 969.998231779766
20.35929 916.007472387549
20.37941 939.984134060497
20.39952 849.944618417215
20.41963 875.089458369028
20.43975 913.012093030373
20.45986 898.020800522807
20.47998 900.00199447089
20.50009 891.001251658603
20.5202 899
20.54032 891.969434030057
20.56043 856.981755766735
20.58054 861.979670188894
20.60066 841.98371057901
20.62077 891.899267964053
20.64088 928.020057483668
20.661 873
20.68111 879.023563848903
20.70123 942.091210190985
20.72134 973.986064505463
20.74145 962.926175418442
20.76157 1032.90296862845
20.78168 1060.99564538629
20.80179 1089.95594405419
20.82191 1201.03043547329
20.84202 1198.99354283976
20.86214 1200.92989623357
20.88225 1132.8730342067
20.90236 1097.14276342225
20.92248 1001.05686327268
20.94259 1003.98949834807
20.9627 982
20.98282 896.995445364657
21.00293 961.059876501395
21.02305 944.969486106617
21.04316 973.905139457096
21.06327 978.118628461378
21.08339 863.030879741099
21.1035 884
21.12361 904.001175726157
21.14373 896.975906488116
21.16384 904.124025922666
21.18395 983.932308499775
21.20407 929.144145517548
21.22418 865.994719620989
21.2443 914
21.26441 900.989969399085
21.28452 894.993777891989
21.30464 887.006324416516
21.32475 884.097494774876
21.34486 845.938819481711
21.36498 914.991585642668
21.38509 850.025997922594
21.40521 852.005726956776
21.42532 841.982186727322
21.44543 824.968791786868
21.46555 830.163508691583
21.48566 918.921661043536
21.50577 886.083515759264
21.52589 865.98730641137
21.546 918
21.56612 947.018365468678
21.58623 950.963217215405
21.60634 902.896309730776
21.62646 877.971515764693
21.64657 889.069749419216
21.66668 811.027807697433
21.6868 835
21.70691 794.997618913323
21.72702 820.981166417597
21.74714 749.89102192943
21.76725 753.907891092403
21.78737 781.995844460688
21.80748 763.02084848797
21.82759 754.001483780225
21.84771 753.00142648396
21.86782 761.012466398179
21.88793 761.961153811704
21.90805 747.123438730215
21.92816 806.080411428114
21.94828 707.008160242741
21.96839 799.972758253808
21.9885 760
22.00862 750.002137101189
22.02873 743.992631588784
22.04884 733.939447962211
22.06896 713.927066424451
22.08907 778.971743766072
22.10919 730.031780608382
22.1293 693
22.14941 683.004038691295
22.16953 686.956413706842
22.18964 654.042904015707
22.20975 713.94131456127
22.22987 682.047950413128
22.24998 671.023972112215
22.27009 635.006183483166
22.29021 655.012799164338
22.31032 668.00841404933
22.33044 666.952999910451
22.35055 645.042097274229
22.37066 687.962707583466
22.39078 674.005134998164
22.41089 681.009511350783
22.431 639
22.45112 652.025172387306
22.47123 659.977623785075
22.49135 648.056348002604
22.51146 682.019185561439
22.53157 630.05707746976
22.55169 643.975931082394
22.5718 686
22.59191 670.991175222395
22.61203 667.002089987047
22.63214 668.006247438513
22.65225 664.056748614786
22.67237 654.926597754266
22.69248 732.967486022703
22.7126 697
22.73271 684.017275340841
22.75282 733.022599386111
22.77294 696.827072041794
22.79305 639.885348197519
22.81316 740.930747842316
22.83328 680.063999879273
22.85339 674.987811148421
22.87351 711.029478059448
22.89362 754.978558674743
22.91373 690.950231528714
22.93385 706.020591271377
22.95396 676.088536863074
22.97407 639.046357198414
22.99419 643.963863962344
23.0143 728
23.03442 661.952378584485
23.05453 675.038057297879
23.07464 676.981617662006
23.09476 666.030691477496
23.11487 655.987958020126
23.13498 674.990040393291
23.1551 665
23.17521 656.00855020655
23.19532 676.988362609745
23.21544 640.969096440644
23.23555 655.973108824743
23.25567 647.014389119935
23.27578 650.987328481303
23.29589 671.983258820576
23.31601 695.993829292865
23.33612 658.976995762689
23.35623 678.076253011579
23.37635 717.989434267087
23.39646 692.978628079541
23.41658 742.963917908374
23.43669 751.989419267457
23.4568 790
23.47692 800.04403754701
23.49703 875.087392278747
23.51714 891.994494747433
23.53726 881.058419168428
23.55737 845.030767433239
23.57749 877.948953680751
23.5976 972
23.61771 870.956473727926
23.63783 875.101891669789
23.65794 933.000974033562
23.67805 875.173395882967
23.69817 842.98694158041
23.71828 879.950881645792
23.73839 894.026471421491
23.75851 796.957562373841
23.77862 768.016540801094
23.79874 782.953889638013
23.81885 734.94200225822
23.83896 756.923685264084
23.85908 768.030972052955
23.87919 726.003298227071
23.8993 762
23.91942 758.947638423826
23.93953 687.923605759273
23.95965 697.178633436576
23.97976 763.022559994458
23.99987 683.10295333657
24.01999 685.972145424153
24.0401 739
24.06021 706.977963331603
24.08033 685.003626542935
24.10044 706.063180727824
24.12056 731.977542187281
24.14067 733.989892102026
24.16078 743.005382455927
24.1809 717
24.20101 701.011754614934
24.22112 737.001561393297
24.24124 716.029832110639
24.26135 770.900439254316
24.28146 770.02667092702
24.30158 756.031180690023
24.32169 722.002575991703
24.34181 739.0004649191
24.36192 725.010313553228
24.38203 757.017519987265
24.40215 748.028675208338
24.42226 776.995870591953
24.44237 739.07004051296
24.46249 730.976315091135
24.4826 795
24.50272 778.999137914623
24.52283 818.072225245879
24.54294 835.956515990857
24.56306 805.993765122608
24.58317 844.945511553227
24.60328 839.049771436005
24.6234 798
24.64351 868.022762113058
24.66362 849.950234456398
24.68374 821.026633804995
24.70385 860.927378842146
24.72397 864.997641321391
24.74408 889.948802765758
24.76419 909.037543903657
24.78431 790.977002160923
24.80442 831.026568558265
24.82453 812.003276637331
24.84465 844.009243656575
24.86476 828.933058996525
24.88488 882.024308194746
24.90499 797.015691057178
24.9251 841
24.94522 809.960988413881
24.96533 795.991873590535
24.98544 801.06780742126
25.00556 832.045715535363
25.02567 771.048331830433
25.04579 779.003395464651
25.0659 757
25.08601 809.012985751204
25.10613 779.920528935888
25.12624 726.882294848298
25.14635 704.838819146054
25.16647 811.918190000878
25.18658 773.079125828736
25.20669 738.977917114328
25.22681 815.013769791718
25.24692 769.937942075743
25.26704 742.005845100877
25.28715 746.954613601601
25.30726 728.938442171298
25.32738 772.03031865603
25.34749 677.032176429992
25.3676 681
25.38772 687.030207490063
25.40783 715.951552751568
25.42795 639.895750853308
25.44806 653.971411368356
25.46817 663.915623829054
25.48829 739.991491715067
25.5084 691
25.52851 703.023491785219
25.54863 742.011770053582
25.56874 724.974107567109
25.58886 742.906756931341
25.60897 769.063456974841
25.62908 714.960543709877
25.6492 838
25.66931 831.975132775709
25.68942 827.07640075783
25.70954 915.989910211127
25.72965 823.16900004295
25.74976 836.920028953705
25.76988 849.014811733916
25.78999 808.033566397947
25.81011 741.982023694517
25.83022 722.957276189917
25.85033 673.001215818474
25.87045 706.980027481674
25.89056 656.038941828726
25.91067 675.014031997313
25.93079 612.037055275979
25.9509 585
25.97102 649.03557572502
25.99113 632.94516967173
26.01124 626.084193602249
26.03136 668.054970113339
26.05147 587.073235847807
26.07158 611.944793294346
26.0917 640
26.11181 608.995774519715
26.13193 630.026910253682
26.15204 628.992478327174
26.17215 626.036862299856
26.19227 612.977364786589
26.21238 645.986122444483
26.23249 645.985993606131
26.25261 692.005628951443
26.27272 663.98053529882
26.29283 683.059879393205
26.31295 689.843029399035
26.33306 616.971172727657
26.35318 702.955636697315
26.37329 666.022691560696
26.3934 678
26.41352 763.084610717078
26.43363 799.944399021175
26.45374 752.061076736293
26.47386 873.731040071834
26.49397 1003.72650406179
26.51409 1237.88886912112
26.5342 1418
26.55431 1656.18397545261
26.57443 2047.36194256526
26.59454 2120.10080134438
26.61465 2199.96765992856
26.63477 2086.30553419512
26.65488 1855.22733158266
26.67499 1622.1360316456
26.69511 1335.88325407721
26.71522 1150.80024598923
26.73534 937.688864038152
26.75545 862.908052926366
26.77556 825.067729355028
26.79568 796.027237639034
26.81579 755.03306557761
26.8359 704
26.85602 774.053938550716
26.87613 772.959013125415
26.89625 769.101318898201
26.91636 817.007214347872
26.93647 783.972611080041
26.95659 839.002124566723
26.9767 771
26.99681 783.999969458761
27.01693 753.984101078358
27.03704 780.061664787865
27.05716 795.975174529957
27.07727 807.000253097449
27.09738 786.041460279208
27.1175 752
27.13761 779.006392841174
27.15772 765.988628214304
27.17784 781.077604538602
27.19795 810.031625176419
27.21806 759.107923568136
27.23818 750.947766879914
27.25829 812.997038037736
27.27841 774.997967404933
27.29852 824.043390679302
27.31863 841.041086154603
27.33875 908.245174758662
27.35886 1005.85659286439
27.37897 1063.88081136727
27.39909 1176.93966433059
27.4192 1271
27.43932 1303.03263000873
27.45943 1332.998281892
27.47954 1290.87159084492
27.49966 1227.11525954616
27.51977 1159.14748519621
27.53988 1062.04143590288
27.56 1089
27.58011 1107.97978625547
27.60023 1040.94545107637
27.62034 1054.0502466401
27.64045 1066.96671328787
27.66057 1081.99261207149
27.68068 1068.0299212528
27.70079 1044.99781345308
27.72091 1064.0001907726
27.74102 1043.99103140121
27.76113 1050.99516188118
27.78125 1018.86758825766
27.80136 955.141300395575
27.82148 881.07544960061
27.84159 820.015274139035
27.8617 805
27.88182 779.02548804914
27.90193 805.895676459631
27.92204 668.847326494263
27.94216 691.930652851713
27.96227 666.106519813368
27.98239 603.008002733671
28.0025 636
28.02261 642.976949533896
28.04273 594.020591082009
28.06284 639.965295531669
28.08295 561.105672105176
28.10307 587.952769892097
28.12318 594.982205846692
28.1433 617
28.16341 565.980192174936
28.18352 573.043449235094
28.20364 601.946445582274
28.22375 552.001348500867
28.24386 588.03400995686
28.26398 538.971319149693
28.28409 631.983373873014
28.3042 561
28.32432 512.995015786898
28.34443 538.070938195191
28.36455 576.009641937466
28.38466 548.065528315975
28.40477 526.03274907364
28.42489 513.990700923638
28.445 544
28.46511 514.99002147214
28.48523 525.033169177248
28.50534 535.988276791152
28.52546 528.973559224408
28.54557 550.007805384011
28.56568 513.039916965883
28.5858 498
28.60591 508.994692414261
28.62602 489.005931098074
28.64614 525.069617263672
28.66625 539.982981391593
28.68636 537.052895317508
28.70648 502.014212238503
28.72659 505.006162647467
28.74671 488.010904446077
28.76682 534.011752303857
28.78693 492.918731621106
28.80705 470.035216565187
28.82716 502.944995975127
28.84727 519.962764695809
28.86739 538.011190922965
28.8875 491
28.90762 510.025834084454
28.92773 514.984912160365
28.94784 509.02278912974
28.96796 518.052969385387
28.98807 484.965713752251
29.00818 547.975844631917
29.0283 509
29.04841 490.99800125705
29.06853 485.992317920868
29.08864 495.073015573401
29.10875 530.024362787593
29.12887 489.023345268696
29.14898 512.978972360489
29.16909 509.004397678394
29.18921 507.999619552085
29.20932 502.993908285083
29.22943 510.046732033403
29.24955 548.039720541362
29.26966 524.105446476643
29.28978 478.013723521777
29.30989 498.983597861038
29.33 516
29.35012 515.031408629834
29.37023 562.023858134036
29.39034 541.970521296321
29.41046 539.050850837862
29.43057 499.017576856184
29.45069 520.99086132791
29.4708 527
29.49091 557.000253565762
29.51103 530.981539610249
29.53114 535.972421525534
29.55125 511.972944139804
29.57137 542.017377085175
29.59148 497.008952284282
29.6116 540
29.63171 547.998228716456
29.65182 544.987938713118
29.67194 519.936268424831
29.69205 516.132858481702
29.71216 584.974047175516
29.73228 552.995150278585
29.75239 617.967029539347
29.7725 631
29.79262 597.014620216615
29.81273 649.046938774752
29.83285 641.985671805995
29.85296 664.921737175561
29.87307 676.074122080924
29.89319 586.03839026123
29.9133 571
29.93341 624.008846755612
29.95353 608.999219758668
29.97364 625.981088111478
29.99376 589.042087580087
30.01387 598.980043854617
30.03398 599.99932001343
30.0541 614
30.07421 643.006341620636
30.09432 619.938329491267
30.11444 565.002375915748
30.13455 599.014310802448
30.15467 545.056779521679
30.17478 555.971407102061
30.19489 568.003957983748
30.21501 559.006053453419
30.23512 576.986382904645
30.25523 547.009631050213
30.27535 584.02269283383
30.29546 544.102872289423
30.31557 518.995653116165
30.33569 534.993617742982
30.3558 535
30.37592 526.988157901134
30.39603 529.053570514704
30.41614 557.923169162817
30.43626 500.930975567578
30.45637 606.929634714001
30.47648 551.072243058431
30.4966 532
30.51671 563.017624377303
30.53683 580.980520744504
30.55694 561.021188289635
30.57705 595.962098191527
30.59717 578.030901996113
30.61728 582.971590344818
30.63739 604.007759538387
30.65751 583.016916228344
30.67762 653.02659749246
30.69773 618.95035787758
30.71785 632.108448278599
30.73796 668.982904908738
30.75808 659.994396941333
30.77819 678.002076592313
30.7983 644
30.81842 629.004672169747
30.83853 620.923951503448
30.85864 549.924112518463
30.87876 568.905769664608
30.89887 603.984069756805
30.91899 589.014837804033
30.9391 566
30.95921 561.985104187295
30.97933 520.985194777824
30.99944 549.06162032435
31.01955 550.066852567232
31.03967 518.024581847284
31.05978 528.970555042664
31.0799 558
31.10001 549.980770239371
31.12012 510.995619986184
31.14024 532.00476415909
31.16035 512.005317454699
31.18046 533.975861955406
31.20058 529.992252960722
31.22069 553.991705343274
31.2408 537
31.26092 480.978333453127
31.28103 496.026548929337
31.30115 493.973918711842
31.32126 492.969972988065
31.34137 510.998299115524
31.36149 490.014167476663
31.3816 479
31.40171 511.012053723722
31.42183 507.959983918349
31.44194 481.991968466033
31.46206 495.986253594183
31.48217 485.021846847338
31.50228 479.996383174702
31.5224 476
31.54251 454.013033374084
31.56262 514.036080828091
31.58274 500.939321378285
31.60285 489.965785941532
31.62297 501.036388035089
31.64308 468.979119285091
31.66319 521.998430702063
31.68331 465.978900280194
31.70342 480.040518859547
31.72353 511.021673062069
31.74365 510.985224101309
31.76376 498.058781498723
31.78387 460.042794174956
31.80399 461.982041018911
31.8241 510
31.84422 507.965361372443
31.86433 481.02699449427
31.88444 524.021392920696
31.90456 483.108791727203
31.92467 474.908738940363
31.94478 539.02222216145
31.9649 449
31.98501 476.01516082838
32.00513 468.980981823478
32.02524 478.053020057432
32.04535 501.987609036764
32.06547 503.953454576252
32.08558 538.021779348459
32.10569 477.012101309964
32.12581 518.02938241595
32.14592 542.986001388176
32.16604 520.006264014406
32.18615 543.004390618762
32.20626 521.014275918617
32.22638 526.023867077933
32.24649 493.988937909697
32.2666 561
32.28672 544.971339964078
32.30683 544.036541542018
32.32694 575.041765201184
32.34706 589.941824748388
32.36717 611.045010811426
32.38729 542.02594354892
32.4074 552
32.42751 604.997063166492
32.44763 545.916033981523
32.46774 538.060263719898
32.48785 564.027155136264
32.50797 529.020452640616
32.52808 550.973601956343
32.5482 563
32.56831 558.979656148241
32.58842 526.042784662572
32.60854 606.020076805398
32.62865 531.168819629879
32.64876 525.95688165245
32.66888 527.030776476956
32.68899 501.984978517256
32.7091 565
32.72922 539.987918319403
32.74933 548.965290657098
32.76945 518.097247464908
32.78956 593.996572672989
32.80967 526.033486949255
32.82979 578.978866910096
32.8499 564
32.87001 554.008295416442
32.89013 579.017663737789
32.91024 569.967778739672
32.93036 552.055321608669
32.95047 543.926001574276
32.97058 617.973068176264
32.9907 583
33.01081 580.010508949598
33.03092 591.983082041436
33.05104 563.997664961549
33.07115 603.85756058558
33.09127 635.022695413018
33.11138 580.06770071381
33.13149 568.95555418965
33.15161 679.003623351483
33.17172 574.899630055715
33.19183 558.050126350142
33.21195 589.021512166839
33.23206 579.010479528876
33.25217 567.07986419076
33.27229 502.005650077418
33.2924 544
33.31252 536.997103320069
33.33263 558.035795810527
33.35274 577.053646629336
33.37286 592.059396375539
33.39297 544.009958106534
33.41308 584.965029588319
33.4332 576
33.45331 538.989165740058
33.47343 542.034347237141
33.49354 568.03341110938
33.51365 565.05254855238
33.53377 543.010824416166
33.55388 546.006941803369
33.57399 525.009341264483
33.59411 524.008000871747
33.61422 532.978526022314
33.63434 495.97245656753
33.65445 509.013120743177
33.67456 500.98470507556
33.69468 522.994119141073
33.71479 513.996146516339
33.7349 534
33.75502 503.978150818576
33.77513 508.020797363029
33.79524 511.980481186561
33.81536 493.038799124035
33.83547 491.958270101756
33.85559 532.986353941893
33.8757 531
33.89581 512.99761841438
33.91593 528.046067662898
33.93604 534.894962722437
33.95615 467.998458365118
33.97627 534.924599473048
33.99638 533.007474312244
34.0165 540
34.03661 524.001217631244
34.05672 538.992772263221
34.07684 503.933265219932
34.09695 492.991087790996
34.11706 506.943564229172
34.13718 532.997151434105
34.15729 518.003327874687
34.17741 531.008887316797
34.19752 541.004173496918
34.21763 535.970610773139
34.23775 518.013824372846
34.25786 535.010916101768
34.27797 530.91755785256
34.29809 614.988046397485
34.3182 577
34.33831 616.015872215986
34.35843 601.941000043941
34.37854 581.042356550605
34.39866 621.971905641032
34.41877 595.053804784764
34.43888 581.989985442848
34.459 606
34.47911 607.976726252225
34.49922 562.026327176892
34.51934 652.145850273677
34.53945 657.086591043377
34.55957 624.027318605695
34.57968 626.98221114904
34.59979 655.978751718158
34.61991 684.992640978643
34.64002 642.977480657504
34.66013 663.059013823886
34.68025 680.94620925188
34.70036 644.019744364309
34.72047 687.876900310098
34.74059 759.986180576079
34.7607 745
34.78082 740.002105898235
34.80093 755.065751013817
34.82104 797.991545060134
34.84116 774.934697369615
34.86127 840.001485312748
34.88138 771.040036504581
34.9015 804
34.92161 826.996689755235
34.94173 808.981946465864
34.96184 810.008252954337
34.98195 806.033314642614
35.00207 788.024611282156
35.02218 805.921150143874
35.04229 879.013806933164
35.06241 783.983163558856
35.08252 825.001430617826
35.10264 773.995761999038
35.12275 839.124071592419
35.14286 824.094209216793
35.16298 793.995608453198
35.18309 820.989801870495
35.2032 824
35.22332 817.95622055542
35.24343 772.024336253702
35.26354 839.084111209851
35.28366 808.15319449674
35.30377 744.028568877137
35.32389 770.979039071053
35.344 789
35.36411 772.009346063857
35.38423 813.01694291648
35.40434 782.937184343172
35.42445 780.952985576156
35.44457 798.993953538778
35.46468 787.016894723099
35.4848 771
35.50491 772.026112546406
35.52502 851.05000244722
35.54514 843.924781105165
35.56525 824.94287867877
35.58536 854.047520481398
35.60548 778.067447375059
35.62559 764.986092290797
35.64571 790.997420086309
35.66582 773.016652853148
35.68593 818.028984601618
35.70605 795.936015574739
35.72616 794.971104374356
35.74627 813.967581246241
35.76639 815.020591374844
35.7865 758
35.80661 784.022175783237
35.82673 811.006985890646
35.84684 767.7778303261
35.86696 676.919505937044
35.88707 802.916952158622
35.90718 751.040074570273
35.9273 765
35.94741 723.997063691629
35.96752 741.963587099792
35.98764 662.938465517632
36.00775 711.826059467225
36.02787 747.991049888569
36.04798 728.04540811928
36.06809 691.995699222915
36.08821 729.006908717337
36.10832 706.980758699103
36.12843 714.027739497085
36.14855 719.96004847704
36.16866 690.051941773179
36.18878 685.981348983804
36.20889 695.016902620758
36.229 646
36.24912 686.017712534848
36.26923 676.031795730935
36.28934 714.968528511213
36.30946 654.047004021677
36.32957 696.915447667993
36.34968 709.037740215071
36.3698 659
36.38991 691.029158104747
36.41003 747.071955580545
36.43014 780.03071811168
36.45025 778.042217099249
36.47037 753.042536918573
36.49048 737.989097420506
36.51059 754.006195248605
36.53071 716.988041183333
36.55082 733.045524098137
36.57094 779.0538446572
36.59105 768.884699974509
36.61116 706.119429469581
36.63128 680.97698921081
36.65139 727.983458742645
36.6715 719
36.69162 683.000148398108
36.71173 711.026373927589
36.73184 694.930222558554
36.75196 674.970772431937
36.77207 694.039424577216
36.79219 642.003793301314
36.8123 679
36.83241 657.002637910269
36.85253 707.076233175917
36.87264 712.916583063434
36.89275 665.022675396419
36.91287 689.985559524901
36.93298 665.029284799674
36.9531 656
36.97321 678.02201208614
36.99332 715.996975471311
37.01344 663.852011858456
37.03355 623.938326672623
37.05366 670.012781806598
37.07378 621.007419917669
37.09389 665.988035266145
37.11401 657.009635736622
37.13412 691.976689827215
37.15423 616.931374218578
37.17435 628.039172385076
37.19446 622.998154207703
37.21457 646.944184300278
37.23469 690.973436419984
37.2548 712
37.27491 617.975948287747
37.29503 647.081479692848
37.31514 653.876032596703
37.33526 587.964346170724
37.35537 665.959457786306
37.37548 628.00604078577
37.3956 666
37.41571 637.022703571625
37.43582 710.955919761823
37.45594 569.86084930698
37.47605 640.717605991614
37.49617 695.013990576605
37.51628 653.039328055889
37.53639 641.995811527681
37.55651 652.001384809278
37.57662 642.983489517437
37.59673 635.018829554302
37.61685 656.012989582062
37.63696 660.912202886512
37.65708 704.037752063649
37.67719 606.028329069756
37.6973 630
37.71742 662.050332257183
37.73753 703.964314469557
37.75764 643.981374907362
37.77776 678.033130767699
37.79787 618.003118108664
37.81798 677.975648366883
37.8381 628
37.85821 602.004838091551
37.87833 630.048752640733
37.89844 637.935261995435
37.91855 594.025528551393
37.93867 620.965967684413
37.95878 619.005854629864
37.97889 618.004107463217
37.99901 593.982052453802
38.01912 590.068318007395
38.03924 675.009015458532
38.05935 608.923573458123
38.07946 646.931747088949
38.09958 641.010433229683
38.11969 652.987229596147
38.1398 671
38.15992 649.974384089585
38.18003 638.009367405324
38.20015 644.96437050106
38.22026 635.910911491512
38.24037 704.977351233676
38.26049 651.029805605924
38.2806 645
38.30071 688.997836240129
38.32083 649.981777949333
38.34094 668.987061563056
38.36105 630.053445761346
38.38117 649.946953525125
38.40128 669.003737349286
38.4214 648
38.44151 637.006639848413
38.46162 657.000021584165
38.48174 644.014936657112
38.50185 672.955852267131
38.52196 670.995340997839
38.54208 686.985287096608
38.56219 691.000736093654
38.58231 673.976181644062
38.60242 614.96512035272
38.62253 610.998904507171
38.64265 622.147043184455
38.66276 693.974411526289
38.68287 642.076293201014
38.70299 617.019653268228
38.7231 572
38.74321 618.022861086895
38.76333 625.96855884643
38.78344 582.866899970346
38.80356 542.920751929317
38.82367 621.962740834132
38.84378 572.051870883197
38.8639 562
38.88401 566.009995229598
38.90412 599.0270453469
38.92424 597.934397578357
38.94435 567.970655637171
38.96447 616.936074892189
38.98458 610.056686561526
39.00469 545.015280622454
39.02481 565.022250330655
39.04492 588.983802439617
39.06503 567.039261454087
39.08515 628.070546718378
39.10526 599.086987131603
39.12538 580.994463721534
39.14549 591.001328676837
39.1656 582
39.18572 599.997023105941
39.20583 578.992057313274
39.22594 593.006846625935
39.24606 583.98694406013
39.26617 598.02188353022
39.28628 569.989752924706
39.3064 612
39.32651 589.994433751061
39.34663 617.06665350104
39.36674 647.006950609554
39.38685 629.055994532129
39.40697 631.937910724134
39.42708 675.006099755037
39.44719 619.027753354798
39.46731 610.017057852572
39.48742 637.975716848958
39.50754 580.952550433369
39.52765 593.970772394016
39.54776 543.085058755622
39.56788 539.979016283927
39.58799 541.023740171931
39.6081 487
39.62822 555.045715857137
39.64833 542.959603256762
39.66845 537.020904222568
39.68856 545.001103604175
39.70867 540.991447573649
39.72879 535.02608429224
39.7489 475
39.76901 539.019879413597
39.78913 515.935638622419
39.80924 495.001304689218
39.82935 504.981385070299
39.84947 510.974120029761
39.86958 533.989969255742
39.8897 537
39.90981 551.981192102546
39.92992 496.007696409371
39.95004 567.103866432573
39.97015 545.172347887888
39.99026 498.958306406495
40.01038 570.937594962089
40.03049 573.024747353032
40.05061 516.987283319121
40.07072 524.005077526314
40.09083 517.007599726704
40.11095 553.15363305959
40.13106 592.054409794335
40.15117 516.0950881059
40.17129 516.971674582624
40.1914 581
40.21152 573.99104335359
40.23163 570.96312978365
40.25174 550.071185727329
40.27186 611.99157993736
40.29197 553.065847286851
40.31208 569.954260420755
40.3322 586
40.35231 532.001804314892
40.37242 583.0174297771
40.39254 539.900512698519
40.41265 532.919172833478
40.43277 568.989355240913
40.45288 559.97991818444
40.47299 600.996031220145
40.49311 560.975633023649
40.51322 526.966190267874
40.53333 508.038745986371
40.55345 561.080600566686
40.57356 549.064915064779
40.59368 519.027784603734
40.61379 512.981955008589
40.6339 557
40.65402 502.947152589
40.67413 507.098565706128
40.69424 581.046145759849
40.71436 543.100546311233
40.73447 525.978943371676
40.75458 541.012035433578
40.7747 523
40.79481 574.00462338057
40.81493 538.978040148923
40.83504 565.045606497163
40.85515 561.027219162684
40.87527 556.009305263902
40.89538 550.994151740149
40.91549 552.014585546368
40.93561 518.006233535685
40.95572 563.012262822105
40.97584 534.978072329543
40.99595 558.04260944853
41.01606 554.001140210305
41.03618 564.993983215532
41.05629 557.007256324404
41.0764 550
41.09652 562.000300897112
41.11663 541.951280465884
41.13675 519.003246516656
41.15686 544.927903281034
41.17697 576.95894116832
41.19709 580.020496597117
41.2172 523
41.23731 528.99329601627
41.25743 491.9782776426
41.27754 513.047770739085
41.29765 513.045820045415
41.31777 489.033335048609
41.33788 490.95852593486
41.358 536
41.37811 503.004385961494
41.39822 550.010422880301
41.41834 515.976267132212
41.43845 533.033950479415
41.45856 497.974814021698
41.47868 546.995578678063
41.49879 507.001602807665
41.51891 556.01755902576
41.53902 544.975970271074
41.55913 545.042379688021
41.57925 575.001584547041
41.59936 571.90122059794
41.61947 641.002049531846
41.63959 568.02759043351
41.6597 578
41.67982 600.014419207813
41.69993 599.960805548476
41.72004 566.982947565687
41.74016 577.016705707859
41.76027 550.013147310975
41.78038 565.989605315197
41.8005 556
41.82061 550.000627215874
41.84072 541.968006751202
41.86084 500.96079974726
41.88095 498.051656338766
41.90107 474.962655356165
41.92118 524.998659972156
41.94129 475.01498165897
41.96141 486.00100347188
41.98152 472.012887583048
42.00163 512.036322900619
42.02175 486.836680594929
42.04186 438.961156942113
42.06198 496.982104898734
42.08209 469.000630302574
42.1022 508
42.12232 490.987313642823
42.14243 499.006170563955
42.16254 484.956403692982
42.18266 475.971094202834
42.20277 509.942002813674
42.22289 525.011413618037
42.243 489
42.26311 513.013358825673
42.28323 517.9843280443
42.30334 517.054077776723
42.32345 553.976270477857
42.34357 532.030627326936
42.36368 540.96668964529
42.38379 572.995271005088
42.40391 553.983865657025
42.42402 530.994293166966
42.44414 530.972948824028
42.46425 526.112186361922
42.48436 572.087048400132
42.50448 476.020155188859
42.52459 554.963498840206
42.5447 556
42.56482 526.975599743825
42.58493 503.963129782678
42.60505 480.96354956613
42.62516 472.024794035187
42.64527 457.010938868783
42.66539 468.983739980882
42.6855 495
42.70561 453.98020494057
42.72573 446.032437435955
42.74584 484.085621327295
42.76595 510.005222241672
42.78607 492.016236156826
42.80618 500.981562517267
42.8263 519
42.84641 531.000294504267
42.86652 511.959060740437
42.88664 475.998021660701
42.90675 496.999666369147
42.92686 477.987164464496
42.94698 503.008207843155
42.96709 461.012084449159
42.98721 479.01659161027
43.00732 486.968938454557
43.02743 446.993164648946
43.04755 469.996936712761
43.06766 448.969399695844
43.08777 493.982511253672
43.10789 455.021828838655
43.128 453
43.14812 500.015315379076
43.16823 475.949758215436
43.18834 459.99867201368
43.20846 462.011133594604
43.22857 456.97904646458
43.24868 475.011628267859
43.2688 454
43.28891 504.001531335852
43.30902 458.978747674755
43.32914 480.020995349164
43.34925 465.999647209453
43.36937 483.003304413922
43.38948 451.035928780646
43.40959 434.000180354154
43.42971 437.999254319686
43.44982 436.012287751092
43.46993 456.009190739235
43.49005 453.034688692282
43.51016 481.968410795285
43.53028 463.047382263269
43.55039 423.999632456494
43.5705 459
43.59062 465.995070502996
43.61073 456.972021930167
43.63084 447.045688522678
43.65096 488.955128022917
43.67107 473.052970395748
43.69119 442.010685214704
43.7113 437
43.73141 447.993015761474
43.75153 428.023586040323
43.77164 462.992185113285
43.79175 427.007401614446
43.81187 471.936172750288
43.83198 478.01493227151
43.85209 461.007780857163
43.87221 459.010237130367
43.89232 481.996356160614
43.91244 462.005949089839
43.93255 495.077261045287
43.95266 503.008727510519
43.97278 501.992764207547
43.99289 506.007827710411
44.013 474
44.03312 467.011821888658
44.05323 488.034046945604
44.07335 491.929710789974
44.09346 454.023042760418
44.11357 470.982243637522
44.13369 462.005924237971
44.1538 460
44.17391 464.003410173125
44.19403 464.977297919201
44.21414 450.023756740359
44.23426 482.957856865661
44.25437 465.077395096873
44.27448 420.999581405535
44.2946 456
44.31471 453.001965063386
44.33482 473.012295215456
44.35494 468.989145102112
44.37505 468.01363497821
44.39516 470.933564998518
44.41528 500.032158388307
44.43539 436.004383524659
44.45551 473.994689652329
44.47562 407.967432919649
44.49573 446.086507497876
44.51585 483.064237528421
44.53596 504.969383888207
44.55607 504.036744369398
44.57619 465.018266800629
44.5963 450
44.61642 463.995718002611
44.63653 436.953102588939
44.65664 435.085872553413
44.67676 492.947640095445
44.69687 474.047662323483
44.71698 467.973707458974
44.7371 487
44.75721 428.998203010387
44.77732 482.034391340071
44.79744 468.97042751427
44.81755 471.019958127817
44.83767 452.005773408445
44.85778 468.9827248535
44.87789 486.980388276167
44.89801 523.994950534615
44.91812 474.965214969564
44.93823 470.986783575155
44.95835 466.108042870648
44.97846 518.047630837274
44.99858 442.019826344172
45.01869 493.98439949093
45.0388 475
45.05892 497.003380458425
45.07903 482.020453101025
45.09914 517.003982574815
45.11926 480.054567319332
45.13937 493.94198315984
45.15949 520.004080978413
45.1796 490
45.19971 486.990575299496
45.21983 459.001108622796
45.23994 494.074201362868
45.26005 507.015015846999
45.28017 486.055669960098
45.30028 464.970858324554
45.32039 512.001045970949
45.34051 473.001656370975
45.36062 525.027849052994
45.38074 513.009031987282
45.40085 536.975434502782
45.42096 487.084952805304
45.44108 470.019873078995
45.46119 457.982311840891
45.4813 516
45.50142 488.995043898715
45.52153 508.975379318463
45.54165 458.951995596314
45.56176 494.897465548323
45.58187 518.014879429643
45.60199 491.011635319796
45.6221 495
45.64221 522.990662399679
45.66233 466.935028131063
45.68244 473.086108453501
45.70256 530.877072882314
45.72267 577.964327083804
45.74278 560.069762482582
45.7629 485
45.78301 520.019297802227
45.80312 526.992945933182
45.82324 525.009103483871
45.84335 528.020333983525
45.86346 516.991779182984
45.88358 524.020402154592
45.90369 492.997010869418
45.92381 516.987713267195
45.94392 455.981718019477
45.96403 498.061976143934
45.98415 492.907934225443
46.00426 475.919590721272
46.02437 530.020092850774
46.04449 458.019859810253
46.0646 477
46.08472 470.019381599213
46.10483 518.046528914806
46.12494 509.951322939923
46.14506 491.028125250214
46.16517 487.977258327441
46.18528 507.995958122003
46.2054 492
46.22551 490.009699691231
46.24563 509.993087626502
46.26574 494.021640845478
46.28585 509.103679253255
46.30597 439.013275013838
46.32608 492.971381483494
46.34619 466.012415791964
46.36631 476.00997401376
46.38642 487.007669565206
46.40653 499.027066969526
46.42665 510.979396182415
46.44676 486.047419175814
46.46688 465.033975433819
46.48699 438.990324948742
46.5071 494
46.52722 490.963784097221
46.54733 458.996067166772
46.56744 484.052118794862
46.58756 496.976781147843
46.60767 506.010583032294
46.62779 480.016990596562
46.6479 463
46.66801 485.996606901857
46.68813 454.982844033052
46.70824 471.016028552059
46.72835 468.947432752189
46.74847 508.968409167398
46.76858 492.036414927514
46.78869 467.000351947547
46.80881 498.028539586698
46.82892 538.987245683568
46.84904 481.89184886676
46.86915 465.021238372911
46.88926 471.025194377804
46.90938 457.979022372003
46.92949 498.993947815111
46.9496 473
46.96972 477.020399629673
46.98983 483.963572107372
47.00995 458.049920449036
47.03006 496.039355422634
47.05017 430.037449942781
47.07029 461.991201696833
47.0904 450
47.11051 500.019402996688
47.13063 496.956025028987
47.15074 474.001673926916
47.17086 487.007756100624
47.19097 473.978093818553
47.21108 505.00102010835
47.2312 474
47.25131 484.991281962583
47.27142 456.026279848109
47.29154 515.004048890963
47.31165 452.114852215782
47.33176 466.922719113438
47.35188 485.010215317802
47.37199 473.988375047544
47.39211 513.000325003535
47.41222 473.973997763676
47.43233 468.958193627816
47.45245 436.060034038349
47.47256 503.928026190224
47.49267 488.019827453559
47.51279 501.994598841058
47.5329 489
47.55302 468.998836564275
47.57313 481.011830402589
47.59324 467.932988390426
47.61336 438.003945658784
47.63347 463.955395782108
47.65358 475.006491004001
47.6737 464
47.69381 472.006131107211
47.71393 486.030466769772
47.73404 491.932259021591
47.75415 441.046950477025
47.77427 468.939111343912
47.79438 486.009306336908
47.81449 464.009078132699
47.83461 467.01260770324
47.85472 492.000865790221
47.87483 478.006082610991
47.89495 499.00984655751
47.91506 479.033527586478
47.93518 474.011404787302
47.95529 466.986715278845
47.9754 496
47.99552 427.974308966031
48.01563 459.03298933658
48.03574 454.030287651292
48.05586 490.974730938574
48.07597 463.058574616551
48.09609 449.989406884907
48.1162 489
48.13631 486.980998878696
48.15643 443.978836686402
48.17654 461.0342313667
48.19665 459.023891971499
48.21677 453.999765231433
48.23688 461.982169907285
48.257 473
48.27711 451.004311231057
48.29722 485.016222992071
48.31734 466.948153181408
48.33745 466.077336098324
48.35756 502.981102349329
48.37768 481.024251811611
48.39779 486.980103748921
48.4179 517
48.43802 454.974999155065
48.45813 477.012710991421
48.47825 472.104458660682
48.49836 541.963870693691
48.51847 482.126922926231
48.53859 448.978585822975
48.5587 515
48.57881 466.982308294463
48.59893 479.033944663166
48.61904 476.949116360024
48.63916 455.978857423843
48.65927 488.971282393637
48.67938 485.99745150314
48.6995 495
48.71961 460.984375716982
48.73972 457.023129369714
48.75984 478.984937756815
48.77995 445.071394934238
48.80006 450.92334371405
48.82018 483.011574269707
48.84029 447.001877901737
48.86041 483.01323636064
48.88052 480.99922846068
48.90063 495.01875303869
48.92075 494.981185807682
48.94086 491.982771361352
48.96097 501.0134764692
48.98109 472.016102789156
49.0012 463
49.02132 500.018124503837
49.04143 488.970798526496
49.06154 472.958289817982
49.08166 462.949431690179
49.10177 506.968124628114
49.12188 495.014529126129
49.142 496
49.16211 493.997730152884
49.18223 495.016775167069
49.20234 498.949436533715
49.22245 460.035605637014
49.24257 488.921160629285
49.26268 526.996124468388
49.28279 516.992153491742
49.30291 542.990493664388
49.32302 480.952735077371
49.34313 482.03933083721
49.36325 507.050144120705
49.38336 502.093196640062
49.40348 451.997723439267
49.42359 499.984375070686
49.4437 493
49.46382 516.035902821707
49.48393 532.970815307154
49.50404 492.946072421452
49.52416 485.031456088061
49.54427 464.990217922817
49.56439 493.991869978766
49.5845 493
49.60461 522.009604214107
49.62473 512.956121550105
49.64484 477.932763253291
49.66495 462.963501218231
49.68507 492.96987018109
49.70518 494.00231304554
49.7253 509
49.74541 531.983984544423
49.76552 473.986640040599
49.78564 521.105893632327
49.80575 539.99576075469
49.82586 529.04444803749
49.84598 497.037579415995
49.86609 477.989846297787
49.8862 509
49.90632 465.975698930235
49.92643 487.05962943778
49.94655 519.058757017256
49.96666 527.028952308367
49.98677 512.975476965086
50.00689 567.96441429972
50.027 615
50.04711 597.000985657128
50.06723 633.063859069558
50.08734 651.983530780376
50.10746 628.048709169813
50.12757 602.064949346077
50.14768 561.002350477631
50.1678 579
50.18791 534.994759078577
50.20802 566.01944661509
50.22814 555.99050568932
50.24825 552.104862021238
50.26837 492.027224512695
50.28848 509.014129442517
50.30859 463.005856655256
50.32871 498.014007590859
50.34882 498.003996863526
50.36893 505.969852622332
50.38905 464.944274779923
50.40916 482.918956148915
50.42927 500.053006447152
50.44939 451.995648625211
50.4695 513
50.48962 491.953830445601
50.50973 473.03930382828
50.52984 507.978613609004
50.54996 477.937087804699
50.57007 560.93535442557
50.59018 540.018342730573
50.6103 547
50.63041 513.993541345324
50.65053 529.01439932455
50.67064 521.996509014103
50.69075 529.999164997681
50.71087 519.01276651844
50.73098 536.945475493799
50.75109 583.009346598628
50.77121 507.966954967902
50.79132 501.038513700522
50.81143 539.006956051754
50.83155 522.01357103547
50.85166 562.910064750946
50.87178 588.985657986287
50.89189 595.00336802217
50.912 585
50.93212 590.991971924496
50.95223 566.966365565616
50.97234 565.040468638378
50.99246 585.009764642534
51.01257 542.104161387802
51.03269 487.00486926628
51.0528 514
51.07291 507.986818597578
51.09303 483.986850660652
51.11314 491.021650979982
51.13325 483.093215169117
51.15337 438.029513271843
51.17348 446.991690056621
51.1936 453
51.21371 500.012460481094
51.23382 485.967462996412
51.25394 465.00157892514
51.27405 471.038179274689
51.29416 434.064182095972
51.31428 423.996794834364
51.33439 436.985931591593
51.3545 472
51.37462 475.97830020355
51.39473 442.959003068531
51.41485 442.074308534839
51.43496 478.968686649864
51.45507 462.049445634921
51.47519 444.992611333651
51.4953 474
51.51541 452.985382257619
51.53553 443.022345121367
51.55564 469.035084957628
51.57576 458.08021113799
51.59587 423.987053742333
51.61598 462.979836068602
51.6361 446
51.65621 441.004045903743
51.67632 457.023956080579
51.69644 476.001070416844
51.71655 465.998120491592
51.73667 481.978515980523
51.75678 476.028137423659
51.77689 431.026943836005
51.79701 404.014415932424
51.81712 457.016244430798
51.83723 429.975332011359
51.85735 435.967463900095
51.87746 410.976431222211
51.89757 447.997289326178
51.91769 416.001866626768
51.9378 446
51.95792 417.981235575605
51.97803 430.030551900607
51.99814 427.934070302772
52.01826 405.920370861883
52.03837 472.987755246671
52.05848 412.05400181659
52.0786 412
52.09871 419.987603425426
52.11883 398.047699048417
52.13894 470.094542659217
52.15905 455.126496971627
52.17917 425.964378037982
52.19928 464.017878897358
52.21939 394.023713979563
52.23951 411.024657773336
52.25962 442.996334455331
52.27974 431.049997210653
52.29985 481.043701307183
52.31996 447.093970532531
52.34008 426.990556922403
52.36019 451.98801416008
52.3803 460
52.40042 445.985410695729
52.42053 445.030701005553
52.44064 465.98497622011
52.46076 441.004481232424
52.48087 451.042148853698
52.50099 395.011159590402
52.5211 434
52.54121 473.995881778496
52.56133 441.985323352207
52.58144 452.969823464163
52.60155 413.040329121338
52.62167 431.974383580472
52.64178 437.977543324822
52.6619 466
52.68201 439.001321543844
52.70212 471.009969954627
52.72224 458.028192456625
52.74235 492.009450034992
52.76246 448.057693037611
52.78258 454.991569728716
52.80269 457.987528424977
52.8228 486
52.84292 449.011207606461
52.86303 508.055352582422
52.88315 487.89301154987
52.90326 465.981858558416
52.92337 487.989787532948
52.94349 471.010605120616
52.9636 463
52.98371 464.994760408009
53.00383 446.986058424082
53.02394 457.047856882815
53.04406 480.970367808222
53.06417 485.995379065374
53.08428 487.009210603283
53.1044 472
53.12451 474.001139572344
53.14462 479.019752201695
53.16474 509.046490842014
53.18485 517.991250881637
53.20497 518.015823086935
53.22508 503.006006512637
53.24519 500.009600523384
53.26531 476.001145230749
53.28542 503.019085501988
53.30553 508.025222546439
53.32565 530.99319932509
53.34576 496.083002166071
53.36587 479.974879088619
53.38599 506.996451074327
53.4061 488
53.42622 489.024094769941
53.44633 511.994750105981
53.46644 491.997366896867
53.48656 517.947148102764
53.50667 516.049345282536
53.52678 483.996149643391
53.5469 522
53.56701 520.982904544711
53.58713 478.959838396297
53.60724 497.139946712931
53.62735 567.969935669729
53.64747 537.994303338028
53.66758 574.009544912828
53.68769 524.003572890715
53.70781 557.995087886595
53.72792 499.974595406004
53.74804 530.056254549975
53.76815 537.057804173078
53.78826 574.973148133508
53.80838 551.035290433743
53.82849 531.001774064587
53.8486 548
53.86872 581.993789777582
53.88883 556.012122055287
53.90894 592.008005199645
53.92906 565.988364741233
53.94917 596.022853566872
53.96929 529.027431205698
53.9894 536
54.00951 590.007233629655
54.02963 577.01330495226
54.04974 613.037947413859
54.06985 595.077172118704
54.08997 584.968573810686
54.11008 598.044145036193
54.1302 536
54.15031 611.022052377005
54.17042 592.98382261417
54.19054 609.02952796902
54.21065 600.054704441002
54.23076 583.009622635906
54.25088 578.024653662526
54.27099 550.996007268701
54.29111 590.014201474584
54.31122 589.994700006165
54.33133 580.94886073922
54.35145 549.048177445974
54.37156 594.008363425266
54.39167 546.017586187873
54.41179 582.991080376648
54.4319 563
54.45201 563.980495918633
54.47213 514.028038316658
54.49224 587.066934365005
54.51236 554.065948463077
54.53247 557.982114078486
54.55258 559.996828777501
54.5727 563
54.59281 538.986469054222
54.61292 532.025471283669
54.63304 561.987727671386
54.65315 535.972538676559
54.67327 585.949425891853
54.69338 576.026265924391
54.71349 569.988185424745
54.73361 599.000143341636
54.75372 572.98408180999
54.77383 588.046054960428
54.79395 622.098608063275
54.81406 640.066635394444
54.83417 579.051982883795
54.85429 590.987317137217
54.8744 599
54.89452 579.970541655083
54.91463 554.990530480608
54.93474 578.097939830662
54.95486 601.104462491839
54.97497 518.028964689453
54.99508 566.972603222577
55.0152 537
55.03531 548.024715965559
55.05543 584.968232652301
55.07554 531.97428391788
55.09565 567.945752333605
55.11577 549.034756932972
55.13588 535.027485604677
55.15599 507.994607237449
55.17611 549.012996226674
55.19622 536.971661376391
55.21634 529.055505090637
55.23645 570.040226279265
55.25656 557.017245757443
55.27668 560.01148358858
55.29679 537.002540497646
55.3169 539
55.33702 497.009496036626
55.35713 536.980839963872
55.37724 484.004791510345
55.39736 558.863668923002
55.41747 553.104352326873
55.43759 496.98727749561
55.4577 575
55.47781 530.971511467749
55.49793 520.045961501939
55.51804 554.006375627251
55.53815 533.011381363823
55.55827 541.035652207905
55.57838 497.007616327655
55.5985 525
55.61861 498.994326312873
55.63872 516.012390187121
55.65884 510.995068078387
55.67895 519.976658483591
55.69906 521.010116838668
55.71918 530.956262926829
55.73929 561.02530782111
55.75941 480.003414397255
55.77952 555.005665871599
55.79963 472.923677340649
55.81975 499.078036221091
55.83986 500.981234469908
55.85997 516.027324925934
55.88009 475.006912392487
55.9002 496
55.92031 487.998765682734
55.94043 503.025569129013
55.96054 507.987807451548
55.98066 489.068369974668
56.00077 460.000315798505
56.02088 493.950320194461
56.041 522
56.06111 490.997706519653
56.08122 512.002076042175
56.10134 490.992360016573
56.12145 509.982064810471
56.14157 498.005958712905
56.16168 505.006267021442
56.18179 482.009318249892
56.20191 488.015032874288
56.22202 512.990882882424
56.24213 475.955610478868
56.26225 477.05058649099
56.28236 494.989496962217
56.30248 489.005610633443
56.32259 489.998867276306
56.3427 493
56.36282 494.978680690156
56.38293 475.034540340241
56.40304 522.020157444457
56.42316 492.0249252531
56.44327 509.993899260149
56.46338 488.015586057505
56.4835 498
56.50361 515.003289715968
56.52373 501.944741340896
56.54384 469.006847337772
56.56395 502.935244438531
56.58407 506.990667486073
56.60418 516.01198182665
56.62429 480.019380978969
56.64441 458.998448982788
56.66452 470.0213523877
56.68464 497.062334071654
56.70475 520.007967957722
56.72486 499.075526868774
56.74498 482.962403159296
56.76509 536.001216798256
56.7852 480
56.80532 505.056571911116
56.82543 533.957155499714
56.84554 476.947516954672
56.86566 501.924355854585
56.88577 516.013073119711
56.90589 485.026758524418
56.926 446
56.94611 494.012363691486
56.96623 474.960452149534
56.98634 478.066330146908
57.00645 514.967943352781
57.02657 492.064334530508
57.04668 454.023223747694
57.0668 449
57.08691 467.016333356791
57.10702 494.999295168481
57.12714 474.987855453735
57.14725 487.989789316007
57.16736 474.026412634279
57.18748 477.981185859808
57.20759 491.00568563739
57.22771 473.005925497832
57.24782 495.978946987437
57.26793 444.982870408604
57.28805 486.093202723243
57.30816 487.024994551439
57.32827 487.972315222468
57.34839 496.017286569993
57.3685 444
57.38861 482.019179435807
57.40873 493.006223521073
57.42884 495.973665639307
57.44896 476.004172724632
57.46907 480.039061752119
57.48918 448.974152276667
57.5093 519
57.52941 480.957381479186
57.54952 426.024731011343
57.56964 496.062697662419
57.58975 458.135911017365
57.60987 441.96250925721
57.62998 473.001114183454
57.65009 446.004207591257
57.67021 473.017355013861
57.69032 484.985893848742
57.71043 466.00113796259
57.73055 485.028055162405
57.75066 475.037481392523
57.77078 459.01381819608
57.79089 447.004791267871
57.811 440
57.83112 438.001019350362
57.85123 447.032148273631
57.87134 469.011658404083
57.89146 456.035560777987
57.91157 449.987023665495
57.93168 467.981117210724
57.9518 475
57.97191 466.00669263584
57.99203 498.037060206256
58.01214 500.984184291772
58.03225 484.086494917442
58.05237 451.999516434473
58.07248 476.987839241426
58.09259 470.996082462859
58.11271 497.008070266646
58.13282 491.990203531061
58.15294 482.962481571193
58.17305 458.965595167227
58.19316 457.007320704562
58.21328 455.980452666899
58.23339 473.013424194134
58.2535 425
58.27362 468.030134564714
58.29373 461.991353722962
58.31385 468.989916891792
58.33396 451.021690365208
58.35407 456.98245244508
58.37419 460.004549253867
58.3943 458
58.41441 486.989387550651
58.43453 429.960309358942
58.45464 454.058000916703
58.47475 460.000204690413
58.49487 464.994074540593
58.51498 454.033584658668
58.5351 427
58.55521 478.018438602601
58.57532 470.966616274435
58.59544 443.990347008773
58.61555 459.950619908872
58.63566 472.975447103329
58.65578 483.00019477659
58.67589 474.004228224131
58.69601 457.979685682288
58.71612 421.012768498003
58.73623 476.065322007059
58.75635 480.979715579015
58.77646 461.110978831556
58.79657 413.95446309358
58.81669 498.976598231142
58.8368 476
58.85691 461.986309330133
58.87703 432.016009528297
58.89714 478.065607232896
58.91726 479.997498224428
58.93737 496.971966266286
58.95748 496.028198106126
58.9776 462
58.99771 469.99573330242
59.01782 441.984592137839
59.03794 450.021155276127
59.05805 447.029830506466
59.07817 435.01141181873
59.09828 438.981575143697
59.11839 471.977865001458
59.13851 499.993258816417
59.15862 453.955827452882
59.17873 440.016808927539
59.19885 463.065891823418
59.21896 469.060092403283
59.23908 431.001720963137
59.25919 465.986107915607
59.2793 468
59.29942 480.009804408063
59.31953 474.970815218911
59.33964 454.986697944581
59.35976 470.932168242748
59.37987 484.063801626182
59.39998 426.994747844109
59.4201 488
59.44021 467.992413391652
59.46033 484.023668859358
59.48044 481.987419444033
59.50055 477.028559143149
59.52067 464.997958168985
59.54078 468.020964111219
59.56089 440.994515217946
59.58101 481.007870281709
59.60112 456.973670426509
59.62124 453.012181951311
59.64135 447.937613188074
59.66146 424.979575693508
59.68158 467.956083706832
59.70169 485.003384629745
59.7218 472
59.74192 482.01713679533
59.76203 486.971503547551
59.78215 468.042567872817
59.80226 516.919770413274
59.82237 532.975843556783
59.84249 562.983632340838
59.8626 577
59.88271 544.988222866139
59.90283 545.021736113502
59.92294 553.984901851647
59.94305 537.020159885273
59.96317 530.047546689057
59.98328 488.01124896775
60.0034 510
60.02351 499.989932465333
60.04362 499.030977251117
60.06374 524.94165194986
60.08385 466.031211713923
60.10396 504.960696554828
60.12408 482.018001689353
60.14419 492.991743290591
60.16431 487.984913762898
60.18442 454.990744496734
60.20453 479.060768608242
60.22465 490.886262678554
60.24476 429.015082994192
60.26487 475.952979943027
60.28499 463.008054835297
60.3051 469
60.32522 479.014871577824
60.34533 483.959514209415
60.36544 438.946971887128
60.38556 451.925211322475
60.40567 481.992133785506
60.42578 471.001459260776
60.4459 487
60.46601 484.990722345346
60.48612 459.978164622979
60.50624 442.961090759522
60.52635 433.944924603406
60.54647 468.986649022481
60.56658 451.006677130522
60.58669 474.982188837706
60.60681 497.000726377025
60.62692 479.973440664947
60.64703 452.960138370868
60.66715 446.078776651064
60.68726 484.014037471073
60.70738 446.003670062035
60.72749 490.978791718373
60.7476 484
60.76772 438.009729193583
60.78783 481.00740409155
60.80794 444.982131193034
60.82806 472.986435485932
60.84817 451.996104456944
60.86828 480.993508565373
60.8884 460
60.90851 478.001321081712
60.92863 454.968433010447
60.94874 458.044020553383
60.96885 475.018385064413
60.98897 452.015860315627
61.00908 467.971378472029
61.02919 487.998246863589
61.04931 471.984668816181
61.06942 452.011724583516
61.08954 472.97359850259
61.10965 446.057218260714
61.12976 508.942396973807
61.14988 482.031010887631
61.16999 481.99266489546
61.1901 501
61.21022 519.982690709709
61.23033 476.952624750289
61.25045 470.993879793659
61.27056 466.977001744873
61.29067 485.002658775646
61.31079 478.984209307991
61.3309 521
61.35101 461.993208688391
61.37113 506.040290475236
61.39124 490.984685837099
61.41135 503.012998348374
61.43147 477.01980593403
61.45158 488.983899944263
61.4717 498
61.49181 505.994345861722
61.51192 503.048694790314
61.53204 566.997382678669
61.55215 507.078133960646
61.57226 535.932168449475
61.59238 536.017729096289
61.61249 522.002346020377
61.63261 532.012268300305
61.65272 537.954244172235
61.67283 489.045056529309
61.69295 571.061434594152
61.71306 522.059802132615
61.73317 552.937984599988
61.75329 567.999071754273
61.7734 573
61.79352 578.98698426699
61.81363 563.016763711552
61.83374 606.098358280411
61.85386 627.034070946463
61.87397 595.021232680073
61.89408 603.99517533363
61.9142 593
61.93431 589.998833835743
61.95442 593.020409048739
61.97454 609.960747319026
61.99465 573.996224183917
62.01477 621.925877143066
62.03488 636.014045477272
62.05499 628.9861115554
62.07511 682.020061332442
62.09522 694.005647040345
62.11533 692.955128894482
62.13545 659.023666371578
62.15556 695.997954131804
62.17568 659.013671754369
62.19579 674.006052564752
62.2159 633
62.23602 670.061959369447
62.25613 705.978089235598
62.27624 660.938545914725
62.29636 662.981547977948
62.31647 661.009061903766
62.33659 655.004460290185
62.3567 659
62.37681 684.977683853631
62.39693 603.96783737541
62.41704 655.08303981028
62.43715 643.070337305897
62.45727 627.018990669101
62.47738 607.028694141177
62.49749 588.992986267819
62.51761 622.008620086571
62.53772 605.967632636698
62.55784 572.931866119504
62.57795 554.033796844865
62.59806 576.021979957487
62.61818 546.990530917919
62.63829 575.015016986287
62.6584 508
62.67852 560.007492302063
62.69863 505.95382913568
62.71875 552.230707437964
62.73886 607.074287377077
62.75897 523.046263140663
62.77909 564.982718017238
62.7992 545
62.81931 515.993201565755
62.83943 514.005520917912
62.85954 505.937924824465
62.87965 477.96719134892
62.89977 518.973874660131
62.91988 511.98112500603
62.94 550
62.96011 506.984220517588
62.98022 509.004519260582
63.00034 498.979093897554
63.02045 498.981392559115
63.04056 490.092128739075
63.06068 452.960191617965
63.08079 540.980658056337
63.10091 505.981923144603
63.12102 512.019561984639
63.14113 519.999497659598
63.16125 509.939289746946
63.18136 485.013620811598
63.20147 489.016329283923
63.22159 477.985205511149
63.2417 526
63.26182 492.000758425022
63.28193 524.987029899613
63.30204 477.983371791785
63.32216 518.952556762796
63.34227 489.080814281472
63.36238 471.948482260723
63.3825 538
63.40261 457.965984571859
63.42272 459.042841071453
63.44284 495.014240934774
63.46295 485.977143664617
63.48307 503.029871304057
63.50318 455.021745792717
63.52329 486.970530208636
63.54341 520.991441684724
63.56352 475.976608104546
63.58363 490.02751906476
63.60375 489.97925818248
63.62386 488.976398382776
63.64398 500.009051938641
63.66409 487.989246643833
63.6842 528
63.70432 494.973376467932
63.72443 495.002475328252
63.74454 498.057981380628
63.76466 533.008830787349
63.78477 497.021887666145
63.80489 521.985156362398
63.825 533
63.84511 534.998055435563
63.86523 527.996060144582
63.88534 536.034923729424
63.90545 552.981891984056
63.92557 542.042961338622
63.94568 513.011967057072
63.96579 522.990157832912
63.98591 536.000924861268
64.00602 521.969885803336
64.02614 506.05826344918
64.04625 561.076015080057
64.06636 545.06867483512
64.08648 523.006482749539
64.10659 524.001251465043
64.1267 510
64.14682 514.061952522744
64.16693 587.006718276406
64.18705 526.896002167993
64.20716 527.033518585817
64.22727 486.020095416084
64.24739 508.991840420779
64.2675 482
64.28761 456.040470858512
64.30773 568.999611749183
64.32784 477.969604372225
64.34796 545.021559291292
64.36807 442.073878342099
64.38818 489.956998280671
64.4083 469
64.42841 454.008890242252
64.44852 472.982851802096
64.46864 435.993964369686
64.48875 477.890473676616
64.50886 486.046331505676
64.52898 463.992683535016
64.54909 488.000136135832
64.56921 456.986484125562
64.58932 465.039879284789
64.60943 492.962456787386
64.62955 439.963342537583
64.64966 466.987584279711
64.66977 446.983949373132
64.68989 481.003761506424
64.71 439
64.73012 489.049036188656
64.75023 495.967254321391
64.77034 475.998810401247
64.79046 483.029027612885
64.81057 453.014954473434
64.83068 467.990576799956
64.8508 456
64.87091 442.995408163185
64.89102 436.998735341146
64.91114 447.052500826819
64.93125 477.954162614226
64.95137 479.006522895376
64.97148 473.015814704037
64.99159 457.997518174487
65.01171 473.999431686173
65.03182 453.987567141381
65.05193 461.018240213107
65.07205 462.97651622379
65.09216 446.038384143364
65.11228 439.982316909988
65.13239 466.994487374341
65.1525 457
65.17262 458.006089597069
65.19273 456.979897922096
65.21284 445.017363304923
65.23296 468.971399376577
65.25307 451.072157141322
65.27319 406.004868683387
65.2933 431
65.31341 438.999581886932
65.33353 441.008916611108
65.35364 437.948062420501
65.37375 411.971346775906
65.39387 445.993896722514
65.41398 425.985733173627
65.43409 474.987386816032
65.45421 450.979766414377
65.47432 436.020341196963
65.49444 461.983958821888
65.51455 426.961253601201
65.53466 447.943729093553
65.55478 458.004578720556
65.57489 450.001884783666
65.595 449
65.61512 429.972942453807
65.63523 426.070340043039
65.65535 490.046970105061
65.67546 462.029446581613
65.69557 466.047203353242
65.71569 410.00714375078
65.7358 456
65.75591 467.976288597234
65.77603 411.999539743692
65.79614 456.026587495222
65.81626 416.081146387771
65.83637 415.95530250831
65.85648 454.962406981473
65.8766 464
65.89671 419.001243337538
65.91682 460.015097521377
65.93694 429.939482370617
65.95705 426.981168807089
65.97716 426.02324547871
65.99728 420.978879773069
66.01739 450.000669239222
66.03751 421.993668621395
66.05762 442.028240067233
66.07773 452.988262196148
66.09785 446.037428532475
66.11796 481.93159170198
66.13807 482.066897508611
66.15819 425.012810286481
66.1783 440
66.19842 439.983780839682
66.21853 424.99768026671
66.23864 433.003212718095
66.25876 434.950351552766
66.27887 463.017156282622
66.29898 423.014575620593
66.3191 448
66.33921 440.984565799534
66.35933 418.013801139834
66.37944 454.066268051753
66.39955 457.06327388149
66.41967 434.983024842661
66.43978 455.026138515779
66.45989 403.999528490492
66.48001 458.015559262545
66.50012 429.951955006465
66.52023 420.071653617221
66.54035 489.083349355539
66.56046 457.141041308859
66.58058 396.028639456321
66.60069 406.982185835072
66.6208 440
66.64092 444.005247416211
66.66103 441.951352369955
66.68114 392.944104841273
66.70126 394.991924509755
66.72137 396.964253811043
66.74149 436.987093903329
66.7616 439
66.78171 444.000924135615
66.80183 446.022804799427
66.82194 453.934384711948
66.84205 407.000354863301
66.86217 452.954216259981
66.88228 437.03221898431
66.90239 415.007510943685
66.92251 414.011823426675
66.94262 449.021958715492
66.96274 444.961836175001
66.98285 422.941717073372
67.00296 410.978113652487
67.02308 429.002426200217
67.04319 411.999078766307
67.0633 437
67.08342 444.018164645026
67.10353 461.974680726031
67.12365 423.973650737543
67.14376 437.030703887421
67.16387 401.99046556638
67.18399 449.985838369968
67.2041 446
67.22421 471.995270192554
67.24433 423.940567065109
67.26444 429.079844040293
67.28456 471.954356552925
67.30467 464.040769579666
67.32478 440.009520277753
67.3449 443
67.36501 433.990821253713
67.38512 425.017242091217
67.40524 463.072151193667
67.42535 474.038498239815
67.44546 452.014917822957
67.46558 463.984816669048
67.48569 469.999780703219
67.50581 471.001988503535
67.52592 481.016507960139
67.54603 498.015899662509
67.56615 495.964423025215
67.58626 486.973071172105
67.60637 508.005602468467
67.62649 478.012573737105
67.6466 498
67.66672 566.992703513479
67.68683 498.935900515327
67.70694 521.082750752557
67.72706 528.072230029037
67.74717 469.078289838407
67.76728 459.958265037479
67.7874 510
67.80751 484.000233191543
67.82763 510.990694526519
67.84774 473.988346355322
67.86785 499.015779020008
67.88797 463.002450807386
67.90808 501.978476591696
67.92819 487.006343019606
67.94831 500.011620677745
67.96842 518.012221672126
67.98853 521.990247290724
68.00865 509.974614276892
68.02876 514.947757171376
68.04888 541.00187162923
68.06899 522.997309789974
68.0891 552
68.10922 536.983940400178
68.12933 530.982759783346
68.14944 511.974691781552
68.16956 511.989150270917
68.18967 508.03135626209
68.20979 488.995171176717
68.2299 514
68.25001 493.000922329299
68.27013 520.015700551296
68.29024 503.977766881096
68.31035 512.967447148635
68.33047 511.030065552263
68.35058 487.010333143029
68.3707 493
68.39081 485.988547553776
68.41092 461.991525924804
68.43104 461.970403221971
68.45115 446.049539973254
68.47126 480.021498952518
68.49138 433.015738685623
68.51149 463.987107291335
68.5316 454
68.55172 427.965569106896
68.57183 404.019803580396
68.59195 436.01422231766
68.61206 415.006381484548
68.63217 443.953579359835
68.65229 446.014000902905
68.6724 420
68.69251 451.002409720722
68.71263 430.001513319236
68.73274 458.024605591515
68.75286 444.016729696312
68.77297 448.01298511821
68.79308 422.022552892751
68.8132 422
68.83331 446.004642139728
68.85342 431.97142659676
68.87354 420.054961421684
68.89365 457.017130228524
68.91376 415.030239000519
68.93388 442.974876428761
68.95399 443.000893353135
68.97411 447.998471285007
68.99422 436.996071703232
69.01433 447.023787263545
69.03445 451.963025473618
69.05456 423.056173979469
69.07467 412.983504858803
69.09479 432.993105736597
69.1149 429
69.13502 410.994106821737
69.15513 415.000348980184
69.17524 421.069672576657
69.19536 456.034744881565
69.21547 405.020061263564
69.23558 441.971294953211
69.2557 435
69.27581 442.009263920441
69.29593 462.027417943998
69.31604 469.983742112595
69.33615 443.105304722479
69.35627 410.003224597837
69.37638 441.952542927018
69.39649 465.01176636372
69.41661 424.998054972845
69.43672 462.030293326638
69.45683 457.971591328693
69.47695 428.867082083715
69.49706 381.989878666052
69.51718 428.966695844821
69.53729 428.998958330769
69.5574 446
69.57752 447.015255874133
69.59763 474.020316817712
69.61774 446.860569864049
69.63786 387.981930160378
69.65797 436.993503459197
69.67809 391.008467689935
69.6982 433
69.71831 446.989118823724
69.73843 424.013146520692
69.75854 450.997729351224
69.77865 414.08438499962
69.79877 410.974605897878
69.81888 435.968455076819
69.839 463
69.85911 456.991408076897
69.87922 437.982023899525
69.89934 428.00513372185
69.91945 447.086876077716
69.93956 466.056305500075
69.95968 419.005832338491
69.97979 446.00420644898
69.9999 406
70.02002 452.023151481498
70.04013 422.93555129219
70.06025 396.961486424132
70.08036 389.987594772444
70.10047 418.915582542841
70.12059 471.993365235089
70.1407 442
70.16081 425.004437450069
70.18093 446.025597105554
70.20104 447.982815150793
70.22116 447.953693847812
70.24127 473.014118297845
70.26138 433.029984895388
70.2815 418
70.30161 382.008717240629
70.32172 441.033963313107
70.34184 424.949651312248
70.36195 431.900786406632
70.38207 452.079483431597
70.40218 373.003353786091
70.42229 441.981945674325
70.44241 424.005655593371
70.46252 465.990447711963
70.48263 405.959297864276
70.50275 444.132218658516
70.52286 462.034896040051
70.54297 425.060116857048
70.56309 410.987255703363
70.5832 440
70.60332 392.98975331949
70.62343 436.069915705088
70.64354 454.011468526135
70.66366 449.061283112145
70.68377 410.021589066115
70.70388 426.977698499247
70.724 437
70.74411 441.999684792005
70.76423 434.986130105675
70.78434 420.949801332719
70.80445 398.994137326512
70.82457 427.944953689446
70.84468 441.023760357684
70.86479 403.008048815789
70.88491 420.012695734576
70.90502 426.986089953309
70.92513 418.036404289378
70.94525 452.986402796381
70.96536 409.05844234815
70.98548 414.990854899563
71.00559 416.99175765734
71.0257 437
71.04582 408.997507480238
71.06593 432.007024102962
71.08604 405.949139042523
71.10616 399.996768383742
71.12627 392.033945078387
71.14639 384.977893868105
71.1665 442
71.18661 390.997077724223
71.20673 449.074298368276
71.22684 446.948960705867
71.24695 439.936090785145
71.26707 468.021056688797
71.28718 423.019839836965
71.3073 451
71.32741 471.998089752654
71.34752 446.960820077001
71.36764 421.016733805207
71.38775 452.941486958982
71.40786 449.037134737745
71.42798 442.978913306187
71.44809 465.009069822394
71.4682 414
71.48832 423.032713067205
71.50843 449.012860917994
71.52855 435.929031266304
71.54866 420.957177325973
71.56877 452.01400922126
71.58889 415.000796583913
71.609 465
71.62911 478.98737014707
71.64923 446.989286950311
71.66934 459.994647766955
71.68946 436.029562849143
71.70957 436.014478695339
71.72968 420.991311392381
71.7498 445
71.76991 419.990935952678
71.79002 429.0232265629
71.81014 442.987685948644
71.83025 427.01125688957
71.85037 430.021839750357
71.87048 414.972988960985
71.89059 462.997597879697
71.91071 425.993390143281
71.93082 440.982540193956
71.95093 405.030362477584
71.97105 478.118425709957
71.99116 464.067509646562
72.01127 450.989632745766
72.03139 461.001494145377
72.0515 448
72.07162 452.994630175677
72.09173 438.997645314938
72.11184 448.999628905783
72.13196 446.947875250174
72.15207 490.968204051949
72.17218 471.038952209301
72.1923 437
72.21241 424.002330975928
72.23253 447.056644675969
72.25264 470.969069675447
72.27275 428.080693168711
72.29287 427.975272770287
72.31298 442.989003365628
72.33309 448.000371655778
72.35321 448.003462785357
72.37332 452.987963309116
72.39344 433.998790852343
72.41355 442.961933565115
72.43366 406.043652428294
72.45378 417.971842827265
72.47389 439.994699276432
72.494 430
72.51412 404.02086143304
72.53423 455.039161394391
72.55434 440.969686576678
72.57446 459.90178946572
72.59457 493.039260400572
72.61469 429.01821905373
72.6348 450
72.65491 462.981851450904
72.67503 412.986815816159
72.69514 441.012316415593
72.71525 418.002137490728
72.73537 437.022093580651
72.75548 408.966890438997
72.7756 491
72.79571 459.973350854553
72.81582 422.967180474293
72.83594 408.058947259189
72.85605 460.930111093217
72.87616 450.032527261612
72.89628 443.016648539163
72.91639 419.004819626948
72.9365 433
72.95662 458.024790659594
72.97673 465.960936271303
72.99685 433.011626728516
73.01696 464.99105668216
73.03707 431.042912141111
73.05719 442.97792563406
73.0773 480
73.09741 449.992058358525
73.11753 463.022048363251
73.13764 456.955674467584
73.15776 443.965490981967
73.17787 480.96269696979
73.19798 467.047885395066
73.2181 430
73.23821 482.01709677417
73.25832 470.970863751791
73.27844 451.985648892131
73.29855 455.967415364427
73.31867 464.013744594767
73.33878 446.006107452552
73.35889 459.989215113122
73.37901 471.9987039276
73.39912 480.048534083727
73.41923 532.985937278332
73.43935 467.881686240093
73.45946 475.942616302766
73.47957 488.011341865231
73.49969 465.015560585944
73.5198 457
73.53992 509.004181250264
73.56003 467.964387310524
73.58014 479.002983679782
73.60026 462.994130132148
73.62037 485.988441428552
73.64048 466.024629458221
73.6606 465
73.68071 492.996329538258
73.70083 462.99285044334
73.72094 488.023535568549
73.74105 467.075366622276
73.76117 458.966512868723
73.78128 481.017547772745
73.80139 444.996860366697
73.82151 489.008069710436
73.84162 457.967777675926
73.86174 450.998843913835
73.88185 442.974274774282
73.90196 438.988122504557
73.92208 447.001477960695
73.94219 437.002974402712
73.9623 434
73.98242 420.009420099754
74.00253 448.026677299655
74.02264 444.987826264817
74.04276 441.028485724236
74.06287 435.945641696573
74.08299 496.981952113448
74.1031 482
74.12321 438.981949351073
74.14333 416.990546460286
74.16344 428.057236024408
74.18355 453.994792461853
74.20367 434.028803164988
74.22378 428.999925989795
74.2439 428
74.26401 440.014434373596
74.28412 471.011912021437
74.30424 456.948172738819
74.32435 439.008995627964
74.34446 446.978726261631
74.36458 453.994176017555
74.38469 469.982641497442
74.40481 487.978345960421
74.42492 415.97722287131
74.44503 459.072324179092
74.46515 468.969765923035
74.48526 452.041180690431
74.50537 432.023638235119
74.52549 428.992541228486
74.5456 446
74.56571 430.999886141342
74.58583 452.031577470858
74.60594 458.998997073157
74.62606 441.103099364677
74.64617 389.002985677164
74.66628 439.943928140307
74.6864 461
74.70651 430.973253036875
74.72662 391.012414840488
74.74674 439.055828669432
74.76685 428.034193566355
74.78697 430.995816900265
74.80708 430.988529230696
74.82719 448.997500751193
74.84731 440.999218681441
74.86742 458.028188946725
74.88753 474.985398596339
74.90765 443.921904094941
74.92776 443.915831956088
74.94787 485.0219792666
74.96799 426.018348801385
74.9881 434
75.00822 414.967045186986
