3.00117 20385
3.02128 19985
3.0414 19689
3.06151 19198
3.08162 18678
3.10174 18237
3.12185 17670
3.14197 17119
3.16208 16393
3.18219 16427
3.20231 15366
3.22242 14981
3.24253 14865
3.26265 14286
3.28276 13975
3.30288 13315
3.32299 13288
3.3431 12716
3.36322 12142
3.38333 12089
3.40344 11347
3.42356 10971
3.44367 10774
3.46379 10461
3.4839 10289
3.50401 9748
3.52413 9241
3.54424 9165
3.56435 8758
3.58447 8523
3.60458 7852
3.62469 7819
3.64481 7534
3.66492 7193
3.68504 7152
3.70515 6607
3.72526 6579
3.74538 6315
3.76549 5989
3.7856 5792
3.80572 5485
3.82583 5276
3.84595 5058
3.86606 4804
3.88617 4817
3.90629 4422
3.9264 4346
3.94651 4201
3.96663 3883
3.98674 3862
4.00686 3561
4.02697 3384
4.04708 3275
4.0672 3140
4.08731 3169
4.10742 2948
4.12754 2861
4.14765 2678
4.16776 2598
4.18788 2602
4.20799 2285
4.22811 2312
4.24822 2226
4.26833 2202
4.28845 2121
4.30856 1843
4.32867 1886
4.34879 1899
4.3689 1884
4.38902 1806
4.40913 1626
4.42924 1607
4.44936 1678
4.46947 1605
4.48958 1646
4.5097 1534
4.52981 1519
4.54992 1515
4.57004 1413
4.59015 1396
4.61027 1299
4.63038 1371
4.65049 1311
4.67061 1277
4.69072 1211
4.71083 1139
4.73095 1188
4.75106 1276
4.77118 1133
4.79129 1142
4.8114 1026
4.83152 1032
4.85163 1060
4.87174 1054
4.89186 1069
4.91197 1028
4.93209 924
4.9522 937
4.97231 969
4.99243 885
5.01254 883
5.03265 865
5.05277 812
5.07288 826
5.09299 857
5.11311 858
5.13322 764
5.15334 742
5.17345 759
5.19356 752
5.21368 706
5.23379 718
5.2539 693
5.27402 671
5.29413 615
5.31425 652
5.33436 607
5.35447 637
5.37459 629
5.3947 592
5.41481 607
5.43493 532
5.45504 568
5.47516 565
5.49527 528
5.51538 528
5.5355 539
5.55561 580
5.57572 538
5.59584 529
5.61595 488
5.63606 497
5.65618 518
5.67629 499
5.69641 433
5.71652 472
5.73663 467
5.75675 467
5.77686 451
5.79697 462
5.81709 482
5.8372 463
5.85732 444
5.87743 394
5.89754 399
5.91766 424
5.93777 497
5.95788 430
5.978 397
5.99811 400
6.01823 391
6.03834 411
6.05845 386
6.07857 387
6.09868 403
6.11879 374
6.13891 382
6.15902 410
6.17913 393
6.19925 399
6.21936 382
6.23948 357
6.25959 377
6.2797 398
6.29982 366
6.31993 369
6.34004 357
6.36016 375
6.38027 347
6.40039 384
6.4205 375
6.44061 350
6.46073 398
6.48084 358
6.50095 372
6.52107 368
6.54118 345
6.56129 359
6.58141 352
6.60152 378
6.62164 355
6.64175 337
6.66186 376
6.68198 368
6.70209 313
6.7222 350
6.74232 337
6.76243 334
6.78255 336
6.80266 343
6.82277 306
6.84289 307
6.863 324
6.88311 321
6.90323 331
6.92334 321
6.94346 313
6.96357 331
6.98368 355
7.0038 321
7.02391 317
7.04402 342
7.06414 344
7.08425 331
7.10436 356
7.12448 327
7.14459 341
7.16471 324
7.18482 292
7.20493 376
7.22505 336
7.24516 303
7.26527 323
7.28539 322
7.3055 369
7.32562 338
7.34573 330
7.36584 357
7.38596 318
7.40607 339
7.42618 325
7.4463 318
7.46641 312
7.48653 322
7.50664 317
7.52675 321
7.54687 322
7.56698 357
7.58709 324
7.60721 343
7.62732 301
7.64743 337
7.66755 303
7.68766 297
7.70778 299
7.72789 318
7.748 306
7.76812 316
7.78823 306
7.80834 297
7.82846 326
7.84857 317
7.86869 283
7.8888 353
7.90891 282
7.92903 322
7.94914 307
7.96925 324
7.98937 271
8.00948 322
8.0296 303
8.04971 349
8.06982 314
8.08994 313
8.11005 326
8.13016 319
8.15028 279
8.17039 329
8.1905 316
8.21062 339
8.23073 342
8.25085 332
8.27096 352
8.29107 282
8.31119 324
8.3313 318
8.35141 307
8.37153 309
8.39164 310
8.41176 296
8.43187 340
8.45198 333
8.4721 304
8.49221 295
8.51232 335
8.53244 335
8.55255 343
8.57266 353
8.59278 313
8.61289 336
8.63301 329
8.65312 306
8.67323 300
8.69335 311
8.71346 298
8.73357 321
8.75369 299
8.7738 345
8.79392 359
8.81403 308
8.83414 356
8.85426 325
8.87437 343
8.89448 313
8.9146 275
8.93471 285
8.95483 320
8.97494 316
8.99505 283
9.01517 310
9.03528 290
9.05539 305
9.07551 333
9.09562 295
9.11573 313
9.13585 316
9.15596 346
9.17608 306
9.19619 331
9.2163 296
9.23642 338
9.25653 309
9.27664 312
9.29676 303
9.31687 282
9.33699 343
9.3571 301
9.37721 307
9.39733 309
9.41744 348
9.43755 315
9.45767 323
9.47778 313
9.4979 299
9.51801 289
9.53812 311
9.55824 291
9.57835 337
9.59846 353
9.61858 325
9.63869 307
9.6588 301
9.67892 308
9.69903 333
9.71915 303
9.73926 277
9.75937 292
9.77949 313
9.7996 282
9.81971 266
9.83983 312
9.85994 312
9.88006 333
9.90017 296
9.92028 310
9.9404 319
9.96051 303
9.98062 302
10.00074 306
10.02085 282
10.04097 330
10.06108 318
10.08119 272
10.10131 293
10.12142 327
10.14153 299
10.16165 311
10.18176 307
10.20187 330
10.22199 328
10.2421 335
10.26222 320
10.28233 307
10.30244 299
10.32256 298
10.34267 309
10.36278 314
10.3829 295
10.40301 321
10.42313 326
10.44324 288
10.46335 309
10.48347 292
10.50358 337
10.52369 350
10.54381 339
10.56392 301
10.58403 283
10.60415 294
10.62426 338
10.64438 329
10.66449 300
10.6846 311
10.70472 303
10.72483 354
10.74494 312
10.76506 295
10.78517 323
10.80529 333
10.8254 355
10.84551 296
10.86563 341
10.88574 306
10.90585 363
10.92597 293
10.94608 298
10.9662 357
10.98631 309
11.00642 317
11.02654 303
11.04665 300
11.06676 336
11.08688 339
11.10699 355
11.1271 320
11.14722 344
11.16733 308
11.18745 301
11.20756 340
11.22767 314
11.24779 318
11.2679 298
11.28801 352
11.30813 309
11.32824 325
11.34836 331
11.36847 320
11.38858 309
11.4087 306
11.42881 302
11.44892 361
11.46904 345
11.48915 326
11.50927 341
11.52938 380
11.54949 373
11.56961 352
11.58972 363
11.60983 388
11.62995 403
11.65006 354
11.67017 377
11.69029 386
11.7104 408
11.73052 360
11.75063 326
11.77074 393
11.79086 379
11.81097 351
11.83108 415
11.8512 427
11.87131 448
11.89143 423
11.91154 464
11.93165 455
11.95177 478
11.97188 507
11.99199 510
12.01211 544
12.03222 575
12.05234 598
12.07245 566
12.09256 650
12.11268 608
12.13279 725
12.1529 712
12.17302 754
12.19313 786
12.21324 781
12.23336 762
12.25347 774
12.27359 831
12.2937 782
12.31381 783
12.33393 732
12.35404 747
12.37415 712
12.39427 650
12.41438 638
12.4345 651
12.45461 589
12.47472 572
12.49484 508
12.51495 519
12.53506 543
12.55518 441
12.57529 446
12.5954 441
12.61552 491
12.63563 409
12.65575 401
12.67586 390
12.69597 400
12.71609 399
12.7362 406
12.75631 365
12.77643 388
12.79654 353
12.81666 352
12.83677 346
12.85688 319
12.877 302
12.89711 312
12.91722 305
12.93734 310
12.95745 303
12.97757 279
12.99768 325
13.01779 305
13.03791 315
13.05802 284
13.07813 289
13.09825 314
13.11836 319
13.13847 287
13.15859 288
13.1787 280
13.19882 279
13.21893 304
13.23904 285
13.25916 282
13.27927 316
13.29938 279
13.3195 284
13.33961 291
13.35973 281
13.37984 264
13.39995 276
13.42007 290
13.44018 286
13.46029 273
13.48041 289
13.50052 287
13.52064 293
13.54075 257
13.56086 275
13.58098 290
13.60109 255
13.6212 271
13.64132 289
13.66143 265
13.68154 271
13.70166 290
13.72177 292
13.74189 264
13.762 247
13.78211 247
13.80223 266
13.82234 284
13.84245 255
13.86257 305
13.88268 304
13.9028 251
13.92291 271
13.94302 255
13.96314 254
13.98325 252
14.00336 257
14.02348 278
14.04359 261
14.06371 254
14.08382 276
14.10393 296
14.12405 251
14.14416 247
14.16427 275
14.18439 296
14.2045 271
14.22461 281
14.24473 272
14.26484 275
14.28496 260
14.30507 269
14.32518 237
14.3453 240
14.36541 224
14.38552 272
14.40564 265
14.42575 252
14.44587 240
14.46598 234
14.48609 231
14.50621 260
14.52632 251
14.54643 258
14.56655 246
14.58666 266
14.60677 271
14.62689 241
14.647 298
14.66712 245
14.68723 253
14.70734 279
14.72746 225
14.74757 228
14.76768 257
14.7878 236
14.80791 243
14.82803 259
14.84814 233
14.86825 246
14.88837 250
14.90848 221
14.92859 229
14.94871 261
14.96882 255
14.98894 269
15.00905 246
15.02916 249
15.04928 264
15.06939 234
15.0895 229
15.10962 249
15.12973 263
15.14984 234
15.16996 245
15.19007 247
15.21019 247
15.2303 268
15.25041 245
15.27053 258
15.29064 260
15.31075 255
15.33087 239
15.35098 277
15.3711 257
15.39121 237
15.41132 254
15.43144 261
15.45155 233
15.47166 217
15.49178 252
15.51189 253
15.53201 225
15.55212 260
15.57223 230
15.59235 231
15.61246 259
15.63257 224
15.65269 260
15.6728 247
15.69291 243
15.71303 244
15.73314 240
15.75326 255
15.77337 243
15.79348 230
15.8136 271
15.83371 222
15.85382 271
15.87394 211
15.89405 231
15.91417 227
15.93428 256
15.95439 251
15.97451 235
15.99462 230
16.01473 263
16.03485 261
16.05496 237
16.07508 252
16.09519 265
16.1153 234
16.13542 240
16.15553 256
16.17564 259
16.19576 261
16.21587 241
16.23598 252
16.2561 267
16.27621 226
16.29633 260
16.31644 226
16.33655 240
16.35667 232
16.37678 240
16.39689 240
16.41701 263
16.43712 259
16.45724 243
16.47735 246
16.49746 225
16.51758 258
16.53769 214
16.5578 265
16.57792 246
16.59803 257
16.61814 244
16.63826 239
16.65837 223
16.67849 263
16.6986 263
16.71871 247
16.73883 277
16.75894 247
16.77905 231
16.79917 253
16.81928 267
16.8394 245
16.85951 237
16.87962 228
16.89974 262
16.91985 226
16.93996 276
16.96008 261
16.98019 223
17.00031 249
17.02042 246
17.04053 244
17.06065 237
17.08076 237
17.10087 237
17.12099 229
17.1411 269
17.16121 240
17.18133 228
17.20144 234
17.22156 226
17.24167 239
17.26178 261
17.2819 226
17.30201 259
17.32212 264
17.34224 256
17.36235 257
17.38247 266
17.40258 247
17.42269 252
17.44281 262
17.46292 292
17.48303 253
17.50315 245
17.52326 275
17.54338 228
17.56349 237
17.5836 271
17.60372 248
17.62383 246
17.64394 247
17.66406 271
17.68417 289
17.70428 277
17.7244 290
17.74451 271
17.76463 261
17.78474 269
17.80485 263
17.82497 265
17.84508 282
17.86519 271
17.88531 268
17.90542 266
17.92554 255
17.94565 328
17.96576 310
17.98588 279
18.00599 311
18.0261 293
18.04622 296
18.06633 315
18.08645 331
18.10656 389
18.12667 406
18.14679 492
18.1669 463
18.18701 534
18.20713 559
18.22724 561
18.24735 617
18.26747 636
18.28758 681
18.3077 586
18.32781 547
18.34792 515
18.36804 431
18.38815 388
18.40826 361
18.42838 347
18.44849 314
18.46861 327
18.48872 287
18.50883 300
18.52895 285
18.54906 330
18.56917 265
18.58929 268
18.6094 276
18.62951 271
18.64963 301
18.66974 274
18.68986 275
18.70997 279
18.73008 273
18.7502 288
18.77031 291
18.79042 286
18.81054 290
18.83065 255
18.85077 256
18.87088 282
18.89099 262
18.91111 274
18.93122 255
18.95133 261
18.97145 282
18.99156 277
19.01168 327
19.03179 256
19.0519 268
19.07202 312
19.09213 254
19.11224 269
19.13236 286
19.15247 264
19.17258 262
19.1927 270
19.21281 292
19.23293 268
19.25304 285
19.27315 286
19.29327 286
19.31338 284
19.33349 281
19.35361 277
19.37372 308
19.39384 265
19.41395 302
19.43406 306
19.45418 282
19.47429 300
19.4944 320
19.51452 329
19.53463 351
19.55475 376
19.57486 404
19.59497 389
19.61509 423
19.6352 434
19.65531 474
19.67543 545
19.69554 572
19.71565 599
19.73577 683
19.75588 694
19.776 737
19.79611 679
19.81622 730
19.83634 770
19.85645 743
19.87656 771
19.89668 735
19.91679 764
19.93691 706
19.95702 733
19.97713 680
19.99725 724
20.01736 718
20.03747 684
20.05759 707
20.0777 689
20.09782 735
20.11793 733
20.13804 702
20.15816 765
20.17827 745
20.19838 697
20.2185 774
20.23861 783
20.25872 752
20.27884 821
20.29895 758
20.31907 732
20.33918 756
20.35929 730
20.37941 747
20.39952 769
20.41963 768
20.43975 766
20.45986 755
20.47998 816
20.50009 821
20.5202 823
20.54032 799
20.56043 854
20.58054 909
20.60066 1034
20.62077 1075
20.64088 1214
20.661 1412
20.68111 1847
20.70123 2322
20.72134 2756
20.74145 3703
20.76157 4225
20.78168 4790
20.80179 4969
20.82191 4554
20.84202 4060
20.86214 3397
20.88225 2486
20.90236 1877
20.92248 1367
20.94259 1045
20.9627 846
20.98282 818
21.00293 742
21.02305 733
21.04316 596
21.06327 656
21.08339 624
21.1035 657
21.12361 579
21.14373 627
21.16384 570
21.18395 564
21.20407 567
21.22418 618
21.2443 582
21.26441 575
21.28452 621
21.30464 574
21.32475 547
21.34486 562
21.36498 571
21.38509 574
21.40521 605
21.42532 551
21.44543 589
21.46555 543
21.48566 582
21.50577 583
21.52589 557
21.546 550
21.56612 591
21.58623 562
21.60634 538
21.62646 540
21.64657 447
21.66668 523
21.6868 493
21.70691 494
21.72702 502
21.74714 532
21.76725 447
21.78737 465
21.80748 498
21.82759 448
21.84771 509
21.86782 474
21.88793 444
21.90805 464
21.92816 428
21.94828 479
21.96839 467
21.9885 403
22.00862 443
22.02873 447
22.04884 408
22.06896 425
22.08907 435
22.10919 422
22.1293 474
22.14941 409
22.16953 408
22.18964 431
22.20975 394
22.22987 378
22.24998 422
22.27009 418
22.29021 424
22.31032 405
22.33044 409
22.35055 406
22.37066 400
22.39078 387
22.41089 373
22.431 411
22.45112 394
22.47123 377
22.49135 371
22.51146 427
22.53157 388
22.55169 408
22.5718 394
22.59191 390
22.61203 390
22.63214 388
22.65225 428
22.67237 394
22.69248 413
22.7126 348
22.73271 399
22.75282 414
22.77294 374
22.79305 352
22.81316 387
22.83328 372
22.85339 378
22.87351 375
22.89362 401
22.91373 407
22.93385 374
22.95396 360
22.97407 332
22.99419 343
23.0143 383
23.03442 382
23.05453 348
23.07464 363
23.09476 364
23.11487 357
23.13498 337
23.1551 396
23.17521 362
23.19532 373
23.21544 397
23.23555 352
23.25567 340
23.27578 397
23.29589 365
23.31601 328
23.33612 335
23.35623 339
23.37635 340
23.39646 354
23.41658 351
23.43669 389
23.4568 360
23.47692 377
23.49703 378
23.51714 336
23.53726 394
23.55737 357
23.57749 408
23.5976 337
23.61771 380
23.63783 350
23.65794 373
23.67805 352
23.69817 396
23.71828 365
23.73839 376
23.75851 430
23.77862 393
23.79874 373
23.81885 380
23.83896 400
23.85908 435
23.87919 384
23.8993 409
23.91942 414
23.93953 434
23.95965 399
23.97976 412
23.99987 422
24.01999 384
24.0401 347
24.06021 393
24.08033 373
24.10044 373
24.12056 351
24.14067 387
24.16078 412
24.1809 391
24.20101 388
24.22112 390
24.24124 420
24.26135 415
24.28146 416
24.30158 401
24.32169 442
24.34181 392
24.36192 421
24.38203 407
24.40215 443
24.42226 443
24.44237 430
24.46249 454
24.4826 504
24.50272 464
24.52283 490
24.54294 443
24.56306 511
24.58317 545
24.60328 526
24.6234 574
24.64351 614
24.66362 575
24.68374 625
24.70385 634
24.72397 688
24.74408 675
24.76419 658
24.78431 730
24.80442 692
24.82453 674
24.84465 673
24.86476 693
24.88488 663
24.90499 683
24.9251 674
24.94522 662
24.96533 590
24.98544 629
25.00556 608
25.02567 622
25.04579 513
25.0659 560
25.08601 572
25.10613 568
25.12624 597
25.14635 491
25.16647 511
25.18658 553
25.20669 619
25.22681 562
25.24692 555
25.26704 534
25.28715 544
25.30726 463
25.32738 459
25.34749 492
25.3676 465
25.38772 442
25.40783 433
25.42795 393
25.44806 395
25.46817 452
25.48829 396
25.5084 367
25.52851 439
25.54863 475
25.56874 456
25.58886 462
25.60897 447
25.62908 500
25.6492 437
25.66931 498
25.68942 526
25.70954 511
25.72965 519
25.74976 514
25.76988 504
25.78999 532
25.81011 509
25.83022 493
25.85033 511
25.87045 530
25.89056 594
25.91067 582
25.93079 529
25.9509 548
25.97102 553
25.99113 598
26.01124 633
26.03136 686
26.05147 653
26.07158 633
26.0917 718
26.11181 731
26.13193 761
26.15204 820
26.17215 870
26.19227 934
26.21238 1029
26.23249 1093
26.25261 1175
26.27272 1230
26.29283 1496
26.31295 1611
26.33306 1948
26.35318 2133
26.37329 2851
26.3934 3456
26.41352 4402
26.43363 5593
26.45374 7181
26.47386 9264
26.49397 11983
26.51409 14871
26.5342 17941
26.55431 19937
26.57443 21197
26.59454 20052
26.61465 17609
26.63477 15124
26.65488 11481
26.67499 8216
26.69511 5716
26.71522 3910
26.73534 2633
26.75545 1879
26.77556 1591
26.79568 1302
26.81579 1231
26.8359 1146
26.85602 1037
26.87613 919
26.89625 833
26.91636 762
26.93647 748
26.95659 759
26.9767 655
26.99681 585
27.01693 612
27.03704 596
27.05716 508
27.07727 554
27.09738 545
27.1175 508
27.13761 484
27.15772 497
27.17784 455
27.19795 498
27.21806 518
27.23818 466
27.25829 471
27.27841 428
27.29852 461
27.31863 476
27.33875 475
27.35886 451
27.37897 446
27.39909 415
27.4192 423
27.43932 393
27.45943 398
27.47954 403
27.49966 420
27.51977 392
27.53988 413
27.56 341
27.58011 390
27.60023 389
27.62034 387
27.64045 391
27.66057 373
27.68068 403
27.70079 332
27.72091 388
27.74102 415
27.76113 380
27.78125 404
27.80136 361
27.82148 386
27.84159 378
27.8617 383
27.88182 387
27.90193 367
27.92204 365
27.94216 361
27.96227 346
27.98239 383
28.0025 355
28.02261 385
28.04273 341
28.06284 369
28.08295 349
28.10307 326
28.12318 354
28.1433 325
28.16341 371
28.18352 328
28.20364 364
28.22375 329
28.24386 341
28.26398 321
28.28409 362
28.3042 332
28.32432 294
28.34443 329
28.36455 344
28.38466 324
28.40477 327
28.42489 317
28.445 338
28.46511 315
28.48523 346
28.50534 300
28.52546 329
28.54557 332
28.56568 312
28.5858 334
28.60591 332
28.62602 288
28.64614 310
28.66625 300
28.68636 352
28.70648 288
28.72659 284
28.74671 320
28.76682 294
28.78693 329
28.80705 333
28.82716 273
28.84727 274
28.86739 312
28.8875 283
28.90762 268
28.92773 289
28.94784 282
28.96796 345
28.98807 295
29.00818 305
29.0283 308
29.04841 300
29.06853 285
29.08864 298
29.10875 298
29.12887 272
29.14898 284
29.16909 274
29.18921 302
29.20932 288
29.22943 318
29.24955 329
29.26966 280
29.28978 312
29.30989 308
29.33 296
29.35012 304
29.37023 291
29.39034 284
29.41046 302
29.43057 310
29.45069 348
29.4708 319
29.49091 341
29.51103 288
29.53114 286
29.55125 313
29.57137 304
29.59148 333
29.6116 312
29.63171 288
29.65182 264
29.67194 289
29.69205 303
29.71216 279
29.73228 281
29.75239 311
29.7725 313
29.79262 303
29.81273 293
29.83285 294
29.85296 319
29.87307 317
29.89319 274
29.9133 292
29.93341 282
29.95353 299
29.97364 264
29.99376 323
30.01387 276
30.03398 313
30.0541 262
30.07421 287
30.09432 269
30.11444 274
30.13455 286
30.15467 296
30.17478 278
30.19489 248
30.21501 269
30.23512 273
30.25523 293
30.27535 289
30.29546 286
30.31557 268
30.33569 275
30.3558 277
30.37592 277
30.39603 334
30.41614 264
30.43626 282
30.45637 284
30.47648 273
30.4966 245
30.51671 266
30.53683 287
30.55694 257
30.57705 280
30.59717 267
30.61728 271
30.63739 273
30.65751 275
30.67762 283
30.69773 285
30.71785 273
30.73796 278
30.75808 294
30.77819 271
30.7983 282
30.81842 314
30.83853 287
30.85864 271
30.87876 292
30.89887 252
30.91899 266
30.9391 291
30.95921 255
30.97933 263
30.99944 266
31.01955 250
31.03967 266
31.05978 286
31.0799 274
31.10001 287
31.12012 277
31.14024 276
31.16035 286
31.18046 289
31.20058 254
31.22069 285
31.2408 263
31.26092 264
31.28103 272
31.30115 260
31.32126 267
31.34137 261
31.36149 251
31.3816 256
31.40171 256
31.42183 285
31.44194 253
31.46206 230
31.48217 260
31.50228 245
31.5224 269
31.54251 278
31.56262 274
31.58274 285
31.60285 269
31.62297 246
31.64308 266
31.66319 293
31.68331 268
31.70342 262
31.72353 236
31.74365 261
31.76376 262
31.78387 258
31.80399 290
31.8241 265
31.84422 263
31.86433 266
31.88444 257
31.90456 249
31.92467 265
31.94478 265
31.9649 263
31.98501 279
32.00513 264
32.02524 287
32.04535 270
32.06547 249
32.08558 271
32.10569 271
32.12581 230
32.14592 251
32.16604 239
32.18615 269
32.20626 269
32.22638 287
32.24649 270
32.2666 244
32.28672 278
32.30683 218
32.32694 267
32.34706 247
32.36717 251
32.38729 291
32.4074 247
32.42751 268
32.44763 263
32.46774 272
32.48785 258
32.50797 281
32.52808 272
32.5482 251
32.56831 283
32.58842 246
32.60854 274
32.62865 286
32.64876 305
32.66888 256
32.68899 272
32.7091 248
32.72922 265
32.74933 248
32.76945 281
32.78956 271
32.80967 263
32.82979 271
32.8499 224
32.87001 246
32.89013 286
32.91024 243
32.93036 257
32.95047 241
32.97058 279
32.9907 204
33.01081 277
33.03092 279
33.05104 259
33.07115 272
33.09127 301
33.11138 294
33.13149 243
33.15161 297
33.17172 261
33.19183 255
33.21195 278
33.23206 276
33.25217 256
33.27229 274
33.2924 280
33.31252 253
33.33263 297
33.35274 257
33.37286 254
33.39297 252
33.41308 260
33.4332 258
33.45331 282
33.47343 306
33.49354 247
33.51365 271
33.53377 301
33.55388 258
33.57399 299
33.59411 279
33.61422 271
33.63434 296
33.65445 286
33.67456 279
33.69468 284
33.71479 292
33.7349 275
33.75502 265
33.77513 261
33.79524 250
33.81536 297
33.83547 258
33.85559 243
33.8757 252
33.89581 259
33.91593 249
33.93604 239
33.95615 279
33.97627 283
33.99638 262
34.0165 254
34.03661 242
34.05672 252
34.07684 262
34.09695 269
34.11706 271
34.13718 281
34.15729 236
34.17741 255
34.19752 233
34.21763 265
34.23775 277
34.25786 275
34.27797 263
34.29809 250
34.3182 285
34.33831 284
34.35843 295
34.37854 268
34.39866 309
34.41877 283
34.43888 281
34.459 318
34.47911 284
34.49922 304
34.51934 310
34.53945 349
34.55957 328
34.57968 305
34.59979 393
34.61991 363
34.64002 370
34.66013 393
34.68025 391
34.70036 400
34.72047 411
34.74059 438
34.7607 427
34.78082 449
34.80093 423
34.82104 422
34.84116 439
34.86127 482
34.88138 514
34.9015 486
34.92161 467
34.94173 482
34.96184 474
34.98195 495
35.00207 441
35.02218 463
35.04229 468
35.06241 423
35.08252 408
35.10264 410
35.12275 412
35.14286 397
35.16298 451
35.18309 384
35.2032 363
35.22332 383
35.24343 383
35.26354 400
35.28366 405
35.30377 367
35.32389 369
35.344 378
35.36411 408
35.38423 396
35.40434 427
35.42445 373
35.44457 389
35.46468 466
35.4848 399
35.50491 422
35.52502 400
35.54514 414
35.56525 429
35.58536 403
35.60548 405
35.62559 429
35.64571 447
35.66582 383
35.68593 449
35.70605 465
35.72616 462
35.74627 449
35.76639 426
35.7865 428
35.80661 444
35.82673 470
35.84684 448
35.86696 428
35.88707 448
35.90718 472
35.9273 448
35.94741 459
35.96752 439
35.98764 423
36.00775 456
36.02787 469
36.04798 441
36.06809 437
36.08821 416
36.10832 450
36.12843 453
36.14855 433
36.16866 467
36.18878 520
36.20889 471
36.229 502
36.24912 589
36.26923 619
36.28934 650
36.30946 710
36.32957 792
36.34968 893
36.3698 977
36.38991 1189
36.41003 1287
36.43014 1480
36.45025 1666
36.47037 1772
36.49048 1658
36.51059 1608
36.53071 1425
36.55082 1218
36.57094 1121
36.59105 905
36.61116 776
36.63128 622
36.65139 541
36.6715 494
36.69162 427
36.71173 464
36.73184 389
36.75196 380
36.77207 378
36.79219 378
36.8123 412
36.83241 363
36.85253 377
36.87264 384
36.89275 384
36.91287 372
36.93298 371
36.9531 395
36.97321 401
36.99332 388
37.01344 386
37.03355 425
37.05366 406
37.07378 382
37.09389 377
37.11401 401
37.13412 403
37.15423 418
37.17435 335
37.19446 386
37.21457 398
37.23469 401
37.2548 370
37.27491 403
37.29503 373
37.31514 417
37.33526 416
37.35537 415
37.37548 396
37.3956 417
37.41571 432
37.43582 423
37.45594 452
37.47605 416
37.49617 439
37.51628 440
37.53639 414
37.55651 427
37.57662 452
37.59673 425
37.61685 426
37.63696 454
37.65708 438
37.67719 449
37.6973 460
37.71742 446
37.73753 453
37.75764 402
37.77776 426
37.79787 405
37.81798 397
37.8381 407
37.85821 408
37.87833 430
37.89844 373
37.91855 361
37.93867 375
37.95878 402
37.97889 374
37.99901 391
38.01912 410
38.03924 423
38.05935 394
38.07946 376
38.09958 423
38.11969 395
38.1398 410
38.15992 393
38.18003 434
38.20015 408
38.22026 425
38.24037 470
38.26049 425
38.2806 437
38.30071 435
38.32083 452
38.34094 438
38.36105 455
38.38117 456
38.40128 478
38.4214 440
38.44151 450
38.46162 416
38.48174 420
38.50185 418
38.52196 407
38.54208 404
38.56219 401
38.58231 383
38.60242 421
38.62253 369
38.64265 371
38.66276 403
38.68287 365
38.70299 401
38.7231 384
38.74321 361
38.76333 370
38.78344 378
38.80356 393
38.82367 407
38.84378 357
38.8639 344
38.88401 375
38.90412 391
38.92424 359
38.94435 383
38.96447 432
38.98458 371
39.00469 392
39.02481 412
39.04492 425
39.06503 449
39.08515 419
39.10526 444
39.12538 454
39.14549 462
39.1656 497
39.18572 528
39.20583 598
39.22594 620
39.24606 757
39.26617 828
39.28628 891
39.3064 1009
39.32651 1190
39.34663 1354
39.36674 1588
39.38685 1590
39.40697 1505
39.42708 1405
39.44719 1277
39.46731 1156
39.48742 1047
39.50754 901
39.52765 725
39.54776 658
39.56788 536
39.58799 436
39.6081 412
39.62822 379
39.64833 365
39.66845 360
39.68856 364
39.70867 340
39.72879 326
39.7489 359
39.76901 323
39.78913 340
39.80924 297
39.82935 316
39.84947 322
39.86958 332
39.8897 362
39.90981 308
39.92992 362
39.95004 403
39.97015 375
39.99026 404
40.01038 402
40.03049 429
40.05061 454
40.07072 509
40.09083 549
40.11095 595
40.13106 707
40.15117 716
40.17129 795
40.1914 906
40.21152 926
40.23163 882
40.25174 831
40.27186 745
40.29197 664
40.31208 630
40.3322 583
40.35231 510
40.37242 471
40.39254 425
40.41265 370
40.43277 349
40.45288 297
40.47299 295
40.49311 295
40.51322 315
40.53333 339
40.55345 306
40.57356 328
40.59368 329
40.61379 297
40.6339 294
40.65402 294
40.67413 299
40.69424 308
40.71436 319
40.73447 314
40.75458 307
40.7747 314
40.79481 294
40.81493 283
40.83504 290
40.85515 306
40.87527 282
40.89538 287
40.91549 297
40.93561 274
40.95572 314
40.97584 326
40.99595 284
41.01606 309
41.03618 295
41.05629 277
41.0764 280
41.09652 305
41.11663 344
41.13675 295
41.15686 317
41.17697 287
41.19709 277
41.2172 323
41.23731 321
41.25743 296
41.27754 274
41.29765 289
41.31777 266
41.33788 319
41.358 306
41.37811 299
41.39822 306
41.41834 304
41.43845 297
41.45856 280
41.47868 292
41.49879 339
41.51891 305
41.53902 291
41.55913 277
41.57925 263
41.59936 309
41.61947 279
41.63959 343
41.6597 294
41.67982 283
41.69993 311
41.72004 272
41.74016 287
41.76027 284
41.78038 305
41.8005 300
41.82061 302
41.84072 296
41.86084 297
41.88095 306
41.90107 321
41.92118 285
41.94129 293
41.96141 316
41.98152 325
42.00163 306
42.02175 340
42.04186 321
42.06198 354
42.08209 325
42.1022 349
42.12232 354
42.14243 383
42.16254 399
42.18266 444
42.20277 510
42.22289 543
42.243 614
42.26311 747
42.28323 772
42.30334 862
42.32345 937
42.34357 1024
42.36368 1043
42.38379 1083
42.40391 948
42.42402 923
42.44414 788
42.46425 766
42.48436 677
42.50448 552
42.52459 495
42.5447 449
42.56482 398
42.58493 341
42.60505 305
42.62516 291
42.64527 280
42.66539 267
42.6855 276
42.70561 272
42.72573 262
42.74584 267
42.76595 269
42.78607 221
42.80618 250
42.8263 228
42.84641 254
42.86652 264
42.88664 244
42.90675 253
42.92686 271
42.94698 233
42.96709 248
42.98721 238
43.00732 243
43.02743 229
43.04755 242
43.06766 252
43.08777 251
43.10789 239
43.128 256
43.14812 222
43.16823 244
43.18834 225
43.20846 203
43.22857 250
43.24868 241
43.2688 254
43.28891 262
43.30902 246
43.32914 251
43.34925 255
43.36937 263
43.38948 240
43.40959 245
43.42971 247
43.44982 223
43.46993 246
43.49005 283
43.51016 263
43.53028 247
43.55039 276
43.5705 223
43.59062 246
43.61073 229
43.63084 218
43.65096 249
43.67107 243
43.69119 247
43.7113 260
43.73141 268
43.75153 243
43.77164 230
43.79175 238
43.81187 237
43.83198 238
43.85209 251
43.87221 230
43.89232 230
43.91244 246
43.93255 263
43.95266 232
43.97278 252
43.99289 250
44.013 252
44.03312 267
44.05323 283
44.07335 259
44.09346 284
44.11357 303
44.13369 265
44.1538 270
44.17391 240
44.19403 250
44.21414 303
44.23426 259
44.25437 274
44.27448 278
44.2946 292
44.31471 255
44.33482 266
44.35494 253
44.37505 235
44.39516 266
44.41528 252
44.43539 249
44.45551 225
44.47562 254
44.49573 236
44.51585 266
44.53596 237
44.55607 240
44.57619 240
44.5963 243
44.61642 230
44.63653 250
44.65664 238
44.67676 252
44.69687 257
44.71698 267
44.7371 240
44.75721 271
44.77732 246
44.79744 234
44.81755 237
44.83767 242
44.85778 252
44.87789 232
44.89801 231
44.91812 254
44.93823 273
44.95835 249
44.97846 262
44.99858 285
45.01869 240
45.0388 263
45.05892 256
45.07903 302
45.09914 262
45.11926 301
45.13937 312
45.15949 263
45.1796 282
45.19971 284
45.21983 298
45.23994 306
45.26005 290
45.28017 310
45.30028 329
45.32039 327
45.34051 316
45.36062 317
45.38074 318
45.40085 366
45.42096 343
45.44108 330
45.46119 346
45.4813 401
45.50142 358
45.52153 423
45.54165 392
45.56176 471
45.58187 499
45.60199 544
45.6221 616
45.64221 625
45.66233 684
45.68244 841
45.70256 773
45.72267 809
45.74278 745
45.7629 713
45.78301 683
45.80312 572
45.82324 560
45.84335 524
45.86346 515
45.88358 456
45.90369 418
45.92381 352
45.94392 306
45.96403 310
45.98415 267
46.00426 275
46.02437 294
46.04449 277
46.0646 307
46.08472 296
46.10483 308
46.12494 257
46.14506 224
46.16517 256
46.18528 259
46.2054 296
46.22551 264
46.24563 258
46.26574 254
46.28585 265
46.30597 261
46.32608 274
46.34619 259
46.36631 245
46.38642 241
46.40653 256
46.42665 256
46.44676 249
46.46688 278
46.48699 278
46.5071 250
46.52722 260
46.54733 254
46.56744 259
46.58756 244
46.60767 277
46.62779 234
46.6479 256
46.66801 269
46.68813 280
46.70824 257
46.72835 245
46.74847 262
46.76858 263
46.78869 243
46.80881 263
46.82892 257
46.84904 257
46.86915 270
46.88926 262
46.90938 237
46.92949 251
46.9496 274
46.96972 245
46.98983 284
47.00995 271
47.03006 248
47.05017 264
47.07029 250
47.0904 227
47.11051 266
47.13063 234
47.15074 289
47.17086 250
47.19097 247
47.21108 255
47.2312 265
47.25131 299
47.27142 248
47.29154 260
47.31165 260
47.33176 264
47.35188 279
47.37199 211
47.39211 203
47.41222 256
47.43233 261
47.45245 248
47.47256 245
47.49267 236
47.51279 249
47.5329 248
47.55302 258
47.57313 249
47.59324 274
47.61336 256
47.63347 222
47.65358 246
47.6737 262
47.69381 271
47.71393 239
47.73404 247
47.75415 257
47.77427 261
47.79438 277
47.81449 252
47.83461 243
47.85472 257
47.87483 255
47.89495 278
47.91506 271
47.93518 269
47.95529 254
47.9754 251
47.99552 237
48.01563 248
48.03574 237
48.05586 250
48.07597 244
48.09609 237
48.1162 260
48.13631 249
48.15643 230
48.17654 251
48.19665 245
48.21677 248
48.23688 231
48.257 239
48.27711 261
48.29722 228
48.31734 234
48.33745 259
48.35756 242
48.37768 247
48.39779 230
48.4179 240
48.43802 236
48.45813 265
48.47825 230
48.49836 258
48.51847 258
48.53859 271
48.5587 239
48.57881 236
48.59893 241
48.61904 257
48.63916 270
48.65927 231
48.67938 254
48.6995 223
48.71961 277
48.73972 268
48.75984 256
48.77995 232
48.80006 252
48.82018 212
48.84029 259
48.86041 248
48.88052 266
48.90063 247
48.92075 272
48.94086 252
48.96097 258
48.98109 231
49.0012 279
49.02132 264
49.04143 254
49.06154 256
49.08166 247
49.10177 245
49.12188 252
49.142 249
49.16211 245
49.18223 234
49.20234 255
49.22245 227
49.24257 250
49.26268 259
49.28279 226
49.30291 282
49.32302 289
49.34313 263
49.36325 298
49.38336 270
49.40348 289
49.42359 261
49.4437 268
49.46382 252
49.48393 283
49.50404 290
49.52416 302
49.54427 313
49.56439 272
49.5845 325
49.60461 317
49.62473 347
49.64484 360
49.66495 343
49.68507 372
49.70518 348
49.7253 375
49.74541 416
49.76552 419
49.78564 476
49.80575 509
49.82586 556
49.84598 616
49.86609 695
49.8862 839
49.90632 972
49.92643 1111
49.94655 1260
49.96666 1498
49.98677 1640
50.00689 1866
50.027 1956
50.04711 2152
50.06723 2246
50.08734 2050
50.10746 1863
50.12757 1606
50.14768 1485
50.1678 1358
50.18791 1172
50.20802 1118
50.22814 984
50.24825 821
50.26837 652
50.28848 510
50.30859 446
50.32871 410
50.34882 372
50.36893 353
50.38905 349
50.40916 322
50.42927 368
50.44939 286
50.4695 320
50.48962 384
50.50973 311
50.52984 299
50.54996 334
50.57007 342
50.59018 316
50.6103 286
50.63041 312
50.65053 290
50.67064 279
50.69075 303
50.71087 266
50.73098 269
50.75109 285
50.77121 282
50.79132 282
50.81143 264
50.83155 244
50.85166 245
50.87178 235
50.89189 275
50.912 246
50.93212 220
50.95223 250
50.97234 247
50.99246 237
51.01257 248
51.03269 215
51.0528 232
51.07291 244
51.09303 238
51.11314 203
51.13325 235
51.15337 249
51.17348 249
51.1936 218
51.21371 212
51.23382 231
51.25394 236
51.27405 224
51.29416 228
51.31428 222
51.33439 252
51.3545 223
51.37462 242
51.39473 246
51.41485 234
51.43496 216
51.45507 213
51.47519 233
51.4953 232
51.51541 219
51.53553 216
51.55564 238
51.57576 237
51.59587 209
51.61598 253
51.6361 234
51.65621 227
51.67632 228
51.69644 228
51.71655 235
51.73667 215
51.75678 222
51.77689 209
51.79701 221
51.81712 263
51.83723 253
51.85735 250
51.87746 231
51.89757 232
51.91769 210
51.9378 240
51.95792 239
51.97803 248
51.99814 245
52.01826 253
52.03837 245
52.05848 204
52.0786 236
52.09871 244
52.11883 254
52.13894 275
52.15905 246
52.17917 256
52.19928 234
52.21939 252
52.23951 227
52.25962 253
52.27974 237
52.29985 225
52.31996 234
52.34008 251
52.36019 224
52.3803 220
52.40042 217
52.42053 247
52.44064 228
52.46076 233
52.48087 252
52.50099 219
52.5211 205
52.54121 208
52.56133 212
52.58144 216
52.60155 231
52.62167 201
52.64178 225
52.6619 223
52.68201 200
52.70212 213
52.72224 213
52.74235 211
52.76246 223
52.78258 265
52.80269 207
52.8228 225
52.84292 219
52.86303 261
52.88315 220
52.90326 263
52.92337 224
52.94349 258
52.9636 240
52.98371 223
53.00383 234
53.02394 211
53.04406 216
53.06417 230
53.08428 275
53.1044 239
53.12451 247
53.14462 223
53.16474 267
53.18485 231
53.20497 244
53.22508 253
53.24519 230
53.26531 227
53.28542 242
53.30553 228
53.32565 256
53.34576 245
53.36587 252
53.38599 233
53.4061 258
53.42622 255
53.44633 259
53.46644 265
53.48656 244
53.50667 243
53.52678 267
53.5469 256
53.56701 256
53.58713 282
53.60724 234
53.62735 251
53.64747 284
53.66758 267
53.68769 266
53.70781 247
53.72792 247
53.74804 297
53.76815 261
53.78826 247
53.80838 266
53.82849 298
53.8486 306
53.86872 279
53.88883 284
53.90894 284
53.92906 280
53.94917 277
53.96929 285
53.9894 312
54.00951 330
54.02963 310
54.04974 299
54.06985 332
54.08997 332
54.11008 344
54.1302 328
54.15031 331
54.17042 356
54.19054 354
54.21065 335
54.23076 347
54.25088 378
54.27099 318
54.29111 336
54.31122 330
54.33133 365
54.35145 330
54.37156 344
54.39167 381
54.41179 359
54.4319 337
54.45201 396
54.47213 389
54.49224 372
54.51236 365
54.53247 402
54.55258 432
54.5727 409
54.59281 439
54.61292 511
54.63304 502
54.65315 545
54.67327 572
54.69338 700
54.71349 683
54.73361 780
54.75372 820
54.77383 857
54.79395 872
54.81406 865
54.83417 781
54.85429 745
54.8744 715
54.89452 672
54.91463 652
54.93474 646
54.95486 613
54.97497 581
54.99508 536
55.0152 438
55.03531 478
55.05543 416
55.07554 402
55.09565 425
55.11577 449
55.13588 432
55.15599 479
55.17611 522
55.19622 530
55.21634 542
55.23645 513
55.25656 519
55.27668 499
55.29679 485
55.3169 477
55.33702 461
55.35713 415
55.37724 417
55.39736 397
55.41747 387
55.43759 367
55.4577 310
55.47781 334
55.49793 321
55.51804 309
55.53815 282
55.55827 275
55.57838 275
55.5985 291
55.61861 295
55.63872 317
55.65884 320
55.67895 297
55.69906 306
55.71918 263
55.73929 290
55.75941 316
55.77952 255
55.79963 280
55.81975 300
55.83986 290
55.85997 265
55.88009 267
55.9002 263
55.92031 274
55.94043 281
55.96054 283
55.98066 281
56.00077 288
56.02088 280
56.041 286
56.06111 259
56.08122 254
56.10134 278
56.12145 273
56.14157 272
56.16168 285
56.18179 245
56.20191 261
56.22202 255
56.24213 289
56.26225 246
56.28236 273
56.30248 242
56.32259 251
56.3427 274
56.36282 241
56.38293 265
56.40304 244
56.42316 258
56.44327 291
56.46338 241
56.4835 242
56.50361 238
56.52373 223
56.54384 244
56.56395 238
56.58407 247
56.60418 238
56.62429 243
56.64441 245
56.66452 277
56.68464 235
56.70475 232
56.72486 240
56.74498 235
56.76509 240
56.7852 248
56.80532 238
56.82543 248
56.84554 274
56.86566 292
56.88577 225
56.90589 239
56.926 243
56.94611 257
56.96623 232
56.98634 245
57.00645 237
57.02657 251
57.04668 257
57.0668 227
57.08691 249
57.10702 224
57.12714 271
57.14725 272
57.16736 263
57.18748 243
57.20759 261
57.22771 254
57.24782 246
57.26793 231
57.28805 228
57.30816 249
57.32827 244
57.34839 250
57.3685 217
57.38861 253
57.40873 229
57.42884 223
57.44896 215
57.46907 254
57.48918 241
57.5093 233
57.52941 214
57.54952 241
57.56964 212
57.58975 207
57.60987 235
57.62998 208
57.65009 251
57.67021 248
57.69032 227
57.71043 232
57.73055 197
57.75066 220
57.77078 206
57.79089 258
57.811 236
57.83112 247
57.85123 229
57.87134 256
57.89146 214
57.91157 238
57.93168 220
57.9518 200
57.97191 230
57.99203 239
58.01214 236
58.03225 222
58.05237 213
58.07248 245
58.09259 243
58.11271 229
58.13282 225
58.15294 229
58.17305 236
58.19316 260
58.21328 257
58.23339 238
58.2535 240
58.27362 210
58.29373 216
58.31385 229
58.33396 252
58.35407 217
58.37419 239
58.3943 221
58.41441 233
58.43453 268
58.45464 224
58.47475 229
58.49487 240
58.51498 263
58.5351 239
58.55521 250
58.57532 234
58.59544 247
58.61555 244
58.63566 229
58.65578 228
58.67589 237
58.69601 234
58.71612 244
58.73623 237
58.75635 242
58.77646 252
58.79657 241
58.81669 230
58.8368 248
58.85691 248
58.87703 213
58.89714 242
58.91726 252
58.93737 241
58.95748 245
58.9776 205
58.99771 245
59.01782 257
59.03794 216
59.05805 257
59.07817 231
59.09828 221
59.11839 238
59.13851 212
59.15862 253
59.17873 215
59.19885 260
59.21896 226
59.23908 246
59.25919 258
59.2793 255
59.29942 260
59.31953 253
59.33964 244
59.35976 254
59.37987 263
59.39998 242
59.4201 273
59.44021 310
59.46033 295
59.48044 305
59.50055 310
59.52067 351
59.54078 376
59.56089 417
59.58101 365
59.60112 417
59.62124 479
59.64135 488
59.66146 536
59.68158 548
59.70169 687
59.7218 715
59.74192 795
59.76203 915
59.78215 1025
59.80226 1159
59.82237 1322
59.84249 1390
59.8626 1467
59.88271 1424
59.90283 1200
59.92294 1133
59.94305 1086
59.96317 916
59.98328 856
60.0034 817
60.02351 811
60.04362 801
60.06374 730
60.08385 583
60.10396 503
60.12408 424
60.14419 366
60.16431 335
60.18442 312
60.20453 291
60.22465 290
60.24476 273
60.26487 285
60.28499 268
60.3051 239
60.32522 252
60.34533 252
60.36544 259
60.38556 247
60.40567 253
60.42578 225
60.4459 248
60.46601 240
60.48612 250
60.50624 245
60.52635 214
60.54647 220
60.56658 238
60.58669 206
60.60681 264
60.62692 226
60.64703 229
60.66715 246
60.68726 246
60.70738 258
60.72749 239
60.7476 249
60.76772 256
60.78783 214
60.80794 255
60.82806 221
60.84817 238
60.86828 219
60.8884 226
60.90851 231
60.92863 232
60.94874 255
60.96885 221
60.98897 231
61.00908 222
61.02919 251
61.04931 206
61.06942 231
61.08954 242
61.10965 223
61.12976 240
61.14988 222
61.16999 232
61.1901 226
61.21022 203
61.23033 191
61.25045 209
61.27056 221
61.29067 229
61.31079 211
61.3309 233
61.35101 224
61.37113 216
61.39124 231
61.41135 240
61.43147 245
61.45158 240
61.4717 225
61.49181 281
61.51192 239
61.53204 217
61.55215 245
61.57226 274
61.59238 252
61.61249 266
61.63261 284
61.65272 255
61.67283 256
61.69295 267
61.71306 257
61.73317 249
61.75329 252
61.7734 290
61.79352 280
61.81363 252
61.83374 286
61.85386 280
61.87397 291
61.89408 315
61.9142 304
61.93431 322
61.95442 306
61.97454 292
61.99465 337
62.01477 340
62.03488 328
62.05499 384
62.07511 397
62.09522 360
62.11533 377
62.13545 381
62.15556 356
62.17568 391
62.19579 352
62.2159 357
62.23602 383
62.25613 380
62.27624 374
62.29636 345
62.31647 366
62.33659 336
62.3567 359
62.37681 312
62.39693 321
62.41704 311
62.43715 317
62.45727 318
62.47738 296
62.49749 333
62.51761 272
62.53772 277
62.55784 243
62.57795 285
62.59806 263
62.61818 246
62.63829 248
62.6584 301
62.67852 263
62.69863 233
62.71875 261
62.73886 235
62.75897 259
62.77909 255
62.7992 269
62.81931 268
62.83943 243
62.85954 243
62.87965 246
62.89977 200
62.91988 255
62.94 233
62.96011 232
62.98022 240
63.00034 261
63.02045 202
63.04056 274
63.06068 253
63.08079 246
63.10091 271
63.12102 224
63.14113 247
63.16125 242
63.18136 240
63.20147 258
63.22159 251
63.2417 260
63.26182 240
63.28193 265
63.30204 262
63.32216 249
63.34227 247
63.36238 233
63.3825 245
63.40261 269
63.42272 254
63.44284 241
63.46295 267
63.48307 251
63.50318 256
63.52329 254
63.54341 282
63.56352 277
63.58363 269
63.60375 293
63.62386 274
63.64398 282
63.66409 284
63.6842 310
63.70432 308
63.72443 308
63.74454 297
63.76466 310
63.78477 338
63.80489 352
63.825 355
63.84511 374
63.86523 388
63.88534 401
63.90545 418
63.92557 417
63.94568 394
63.96579 436
63.98591 420
64.00602 387
64.02614 354
64.04625 359
64.06636 326
64.08648 351
64.10659 322
64.1267 338
64.14682 314
64.16693 319
64.18705 290
64.20716 282
64.22727 261
64.24739 242
64.2675 215
64.28761 239
64.30773 203
64.32784 235
64.34796 234
64.36807 242
64.38818 229
64.4083 253
64.42841 212
64.44852 238
64.46864 227
64.48875 187
64.50886 223
64.52898 211
64.54909 221
64.56921 234
64.58932 192
64.60943 217
64.62955 217
64.64966 252
64.66977 221
64.68989 238
64.71 206
64.73012 213
64.75023 208
64.77034 221
64.79046 200
64.81057 239
64.83068 235
64.8508 230
64.87091 231
64.89102 207
64.91114 228
64.93125 210
64.95137 231
64.97148 198
64.99159 210
65.01171 201
65.03182 223
65.05193 211
65.07205 220
65.09216 207
65.11228 198
65.13239 229
65.1525 216
65.17262 231
65.19273 220
65.21284 191
65.23296 228
65.25307 224
65.27319 205
65.2933 195
65.31341 197
65.33353 234
65.35364 203
65.37375 236
65.39387 248
65.41398 203
65.43409 219
65.45421 230
65.47432 243
65.49444 227
65.51455 231
65.53466 240
65.55478 242
65.57489 268
65.595 255
65.61512 240
65.63523 259
65.65535 251
65.67546 278
65.69557 251
65.71569 288
65.7358 279
65.75591 211
65.77603 211
65.79614 240
65.81626 251
65.83637 230
65.85648 238
65.8766 254
65.89671 221
65.91682 248
65.93694 237
65.95705 224
65.97716 204
65.99728 241
66.01739 227
66.03751 237
66.05762 212
66.07773 247
66.09785 205
66.11796 199
66.13807 219
66.15819 219
66.1783 212
66.19842 223
66.21853 209
66.23864 216
66.25876 251
66.27887 197
66.29898 224
66.3191 211
66.33921 225
66.35933 182
66.37944 227
66.39955 226
66.41967 229
66.43978 220
66.45989 218
66.48001 222
66.50012 205
66.52023 221
66.54035 214
66.56046 221
66.58058 220
66.60069 208
66.6208 229
66.64092 229
66.66103 230
66.68114 217
66.70126 198
66.72137 211
66.74149 200
66.7616 209
66.78171 219
66.80183 219
66.82194 227
66.84205 208
66.86217 203
66.88228 219
66.90239 251
66.92251 233
66.94262 236
66.96274 233
66.98285 231
67.00296 219
67.02308 193
67.04319 250
67.0633 232
67.08342 260
67.10353 243
67.12365 267
67.14376 239
67.16387 256
67.18399 266
67.2041 245
67.22421 266
67.24433 292
67.26444 280
67.28456 308
67.30467 254
67.32478 344
67.3449 317
67.36501 332
67.38512 352
67.40524 389
67.42535 352
67.44546 387
67.46558 491
67.48569 532
67.50581 562
67.52592 608
67.54603 662
67.56615 809
67.58626 819
67.60637 882
67.62649 986
67.6466 998
67.66672 903
67.68683 866
67.70694 814
67.72706 798
67.74717 731
67.76728 727
67.7874 718
67.80751 797
67.82763 909
67.84774 803
67.86785 791
67.88797 865
67.90808 877
67.92819 834
67.94831 946
67.96842 1011
67.98853 1078
68.00865 1144
68.02876 1231
68.04888 1229
68.06899 1216
68.0891 1251
68.10922 1165
68.12933 1126
68.14944 1084
68.16956 1003
68.18967 1177
68.20979 1189
68.2299 1079
68.25001 1044
68.27013 909
68.29024 829
68.31035 755
68.33047 702
68.35058 585
68.3707 599
68.39081 512
68.41092 530
68.43104 491
68.45115 455
68.47126 451
68.49138 360
68.51149 319
68.5316 293
68.55172 292
68.57183 282
68.59195 254
68.61206 287
68.63217 240
68.65229 259
68.6724 237
68.69251 252
68.71263 235
68.73274 256
68.75286 258
68.77297 220
68.79308 253
68.8132 259
68.83331 233
68.85342 213
68.87354 235
68.89365 225
68.91376 239
68.93388 239
68.95399 234
68.97411 199
68.99422 238
69.01433 170
69.03445 237
69.05456 237
69.07467 193
69.09479 223
69.1149 231
69.13502 218
69.15513 211
69.17524 183
69.19536 218
69.21547 204
69.23558 189
69.2557 206
69.27581 216
69.29593 232
69.31604 192
69.33615 207
69.35627 225
69.37638 219
69.39649 198
69.41661 215
69.43672 198
69.45683 217
69.47695 185
69.49706 191
69.51718 221
69.53729 152
69.5574 199
69.57752 203
69.59763 174
69.61774 214
69.63786 212
69.65797 190
69.67809 205
69.6982 221
69.71831 228
69.73843 186
69.75854 195
69.77865 198
69.79877 188
69.81888 226
69.839 199
69.85911 209
69.87922 230
69.89934 207
69.91945 182
69.93956 181
69.95968 205
69.97979 226
69.9999 231
70.02002 214
70.04013 230
70.06025 201
70.08036 200
70.10047 221
70.12059 204
70.1407 201
70.16081 200
70.18093 210
70.20104 210
70.22116 194
70.24127 193
70.26138 222
70.2815 211
70.30161 199
70.32172 211
70.34184 236
70.36195 182
70.38207 228
70.40218 217
70.42229 224
70.44241 213
70.46252 190
70.48263 210
70.50275 199
70.52286 216
70.54297 217
70.56309 204
70.5832 201
70.60332 187
70.62343 208
70.64354 207
70.66366 217
70.68377 210
70.70388 188
70.724 214
70.74411 219
70.76423 179
70.78434 219
70.80445 200
70.82457 189
70.84468 185
70.86479 199
70.88491 195
70.90502 182
70.92513 216
70.94525 202
70.96536 189
70.98548 188
71.00559 189
71.0257 204
71.04582 177
71.06593 200
71.08604 192
71.10616 194
71.12627 201
71.14639 201
71.1665 199
71.18661 168
71.20673 186
71.22684 211
71.24695 192
71.26707 186
71.28718 207
71.3073 204
71.32741 199
71.34752 209
71.36764 209
71.38775 204
71.40786 202
71.42798 180
71.44809 236
71.4682 212
71.48832 192
71.50843 203
71.52855 194
71.54866 214
71.56877 204
71.58889 207
71.609 190
71.62911 180
71.64923 194
71.66934 236
71.68946 221
71.70957 201
71.72968 210
71.7498 173
71.76991 197
71.79002 192
71.81014 190
71.83025 193
71.85037 186
71.87048 203
71.89059 208
71.91071 208
71.93082 173
71.95093 233
71.97105 206
71.99116 187
72.01127 191
72.03139 186
72.0515 185
72.07162 168
72.09173 174
72.11184 202
72.13196 185
72.15207 171
72.17218 206
72.1923 180
72.21241 176
72.23253 194
72.25264 175
72.27275 182
72.29287 176
72.31298 191
72.33309 188
72.35321 202
72.37332 211
72.39344 182
72.41355 200
72.43366 212
72.45378 202
72.47389 209
72.494 219
72.51412 192
72.53423 197
72.55434 196
72.57446 187
72.59457 213
72.61469 200
72.6348 183
72.65491 163
72.67503 212
72.69514 198
72.71525 200
72.73537 241
72.75548 198
72.7756 197
72.79571 190
72.81582 225
72.83594 185
72.85605 201
72.87616 192
72.89628 191
72.91639 220
72.9365 222
72.95662 222
72.97673 220
72.99685 223
73.01696 223
73.03707 223
73.05719 235
73.0773 248
73.09741 243
73.11753 266
73.13764 282
73.15776 300
73.17787 272
73.19798 273
73.2181 295
73.23821 336
73.25832 395
73.27844 403
73.29855 393
73.31867 406
73.33878 441
73.35889 447
73.37901 449
73.39912 423
73.41923 413
73.43935 365
73.45946 364
73.47957 340
73.49969 323
73.5198 293
73.53992 369
73.56003 317
73.58014 315
73.60026 343
73.62037 330
73.64048 307
73.6606 308
73.68071 227
73.70083 220
73.72094 225
73.74105 226
73.76117 225
73.78128 236
73.80139 204
73.82151 199
73.84162 219
73.86174 211
73.88185 230
73.90196 222
73.92208 190
73.94219 191
73.9623 200
73.98242 197
74.00253 197
74.02264 221
74.04276 196
74.06287 209
74.08299 212
74.1031 191
74.12321 229
74.14333 204
74.16344 200
74.18355 199
74.20367 214
74.22378 201
74.2439 195
74.26401 218
74.28412 196
74.30424 229
74.32435 186
74.34446 212
74.36458 205
74.38469 211
74.40481 179
74.42492 167
74.44503 220
74.46515 190
74.48526 195
74.50537 183
74.52549 199
74.5456 205
74.56571 190
74.58583 221
74.60594 214
74.62606 193
74.64617 211
74.66628 196
74.6864 192
74.70651 200
74.72662 205
74.74674 175
74.76685 213
74.78697 195
74.80708 206
74.82719 204
74.84731 196
74.86742 231
74.88753 188
74.90765 210
74.92776 209
74.94787 195
74.96799 223
74.9881 212
75.00822 203
