3.00117 20943
3.02128 20556
3.0414 19658
3.06151 19304
3.08162 19010
3.10174 18060
3.12185 17999
3.14197 17181
3.16208 16808
3.18219 16512
3.20231 15691
3.22242 15483
3.24253 14853
3.26265 14535
3.28276 14246
3.30288 13535
3.32299 13063
3.3431 12608
3.36322 12104
3.38333 12102
3.40344 11364
3.42356 11051
3.44367 10588
3.46379 10336
3.4839 10214
3.50401 9392
3.52413 9568
3.54424 9040
3.56435 8777
3.58447 8484
3.60458 7988
3.62469 7701
3.64481 7360
3.66492 7065
3.68504 7123
3.70515 6428
3.72526 6361
3.74538 6221
3.76549 5881
3.7856 5697
3.80572 5163
3.82583 5174
3.84595 5111
3.86606 4706
3.88617 4713
3.90629 4131
3.9264 4143
3.94651 4029
3.96663 3816
3.98674 3692
4.00686 3341
4.02697 3301
4.04708 3072
4.0672 3005
4.08731 2947
4.10742 2615
4.12754 2594
4.14765 2565
4.16776 2428
4.18788 2432
4.20799 2077
4.22811 2088
4.24822 2056
4.26833 1858
4.28845 2040
4.30856 1731
4.32867 1697
4.34879 1757
4.3689 1591
4.38902 1645
4.40913 1451
4.42924 1453
4.44936 1437
4.46947 1347
4.48958 1390
4.5097 1309
4.52981 1274
4.54992 1224
4.57004 1181
4.59015 1237
4.61027 1054
4.63038 1089
4.65049 1160
4.67061 1129
4.69072 1079
4.71083 883
4.73095 923
4.75106 964
4.77118 963
4.79129 892
4.8114 878
4.83152 857
4.85163 811
4.87174 792
4.89186 854
4.91197 725
4.93209 767
4.9522 769
4.97231 717
4.99243 680
5.01254 738
5.03265 618
5.05277 672
5.07288 680
5.09299 607
5.11311 549
5.13322 558
5.15334 581
5.17345 605
5.19356 554
5.21368 527
5.23379 458
5.2539 502
5.27402 510
5.29413 444
5.31425 466
5.33436 447
5.35447 432
5.37459 450
5.3947 402
5.41481 440
5.43493 394
5.45504 380
5.47516 360
5.49527 352
5.51538 360
5.5355 370
5.55561 352
5.57572 344
5.59584 301
5.61595 307
5.63606 330
5.65618 323
5.67629 294
5.69641 296
5.71652 311
5.73663 257
5.75675 318
5.77686 281
5.79697 275
5.81709 243
5.8372 235
5.85732 247
5.87743 262
5.89754 254
5.91766 255
5.93777 240
5.95788 230
5.978 234
5.99811 217
6.01823 198
6.03834 210
6.05845 194
6.07857 242
6.09868 220
6.11879 228
6.13891 233
6.15902 199
6.17913 237
6.19925 204
6.21936 211
6.23948 187
6.25959 198
6.2797 192
6.29982 220
6.31993 146
6.34004 180
6.36016 181
6.38027 182
6.40039 166
6.4205 182
6.44061 156
6.46073 207
6.48084 141
6.50095 201
6.52107 177
6.54118 166
6.56129 185
6.58141 199
6.60152 194
6.62164 197
6.64175 175
6.66186 178
6.68198 186
6.70209 161
6.7222 159
6.74232 157
6.76243 189
6.78255 189
6.80266 184
6.82277 189
6.84289 180
6.863 182
6.88311 177
6.90323 181
6.92334 188
6.94346 168
6.96357 186
6.98368 187
7.0038 183
7.02391 177
7.04402 170
7.06414 224
7.08425 182
7.10436 190
7.12448 199
7.14459 196
7.16471 168
7.18482 192
7.20493 173
7.22505 168
7.24516 199
7.26527 170
7.28539 163
7.3055 160
7.32562 181
7.34573 194
7.36584 177
7.38596 179
7.40607 182
7.42618 200
7.4463 186
7.46641 180
7.48653 179
7.50664 199
7.52675 193
7.54687 169
7.56698 165
7.58709 191
7.60721 190
7.62732 200
7.64743 189
7.66755 171
7.68766 191
7.70778 191
7.72789 240
7.748 180
7.76812 179
7.78823 190
7.80834 188
7.82846 180
7.84857 210
7.86869 165
7.8888 174
7.90891 203
7.92903 190
7.94914 200
7.96925 168
7.98937 184
8.00948 165
8.0296 222
8.04971 204
8.06982 172
8.08994 191
8.11005 237
8.13016 208
8.15028 197
8.17039 229
8.1905 200
8.21062 165
8.23073 170
8.25085 211
8.27096 210
8.29107 193
8.31119 187
8.3313 212
8.35141 165
8.37153 198
8.39164 214
8.41176 204
8.43187 209
8.45198 198
8.4721 225
8.49221 228
8.51232 211
8.53244 223
8.55255 192
8.57266 218
8.59278 222
8.61289 180
8.63301 221
8.65312 204
8.67323 195
8.69335 213
8.71346 240
8.73357 213
8.75369 223
8.7738 205
8.79392 257
8.81403 216
8.83414 220
8.85426 199
8.87437 186
8.89448 160
8.9146 216
8.93471 227
8.95483 189
8.97494 207
8.99505 223
9.01517 217
9.03528 191
9.05539 229
9.07551 205
9.09562 211
9.11573 199
9.13585 186
9.15596 197
9.17608 182
9.19619 195
9.2163 202
9.23642 205
9.25653 212
9.27664 208
9.29676 212
9.31687 224
9.33699 213
9.3571 214
9.37721 205
9.39733 198
9.41744 203
9.43755 218
9.45767 235
9.47778 235
9.4979 238
9.51801 228
9.53812 223
9.55824 211
9.57835 234
9.59846 233
9.61858 174
9.63869 185
9.6588 236
9.67892 193
9.69903 226
9.71915 222
9.73926 212
9.75937 210
9.77949 241
9.7996 239
9.81971 188
9.83983 213
9.85994 233
9.88006 198
9.90017 230
9.92028 200
9.9404 210
9.96051 214
9.98062 210
10.00074 230
10.02085 208
10.04097 241
10.06108 213
10.08119 205
10.10131 219
10.12142 214
10.14153 214
10.16165 232
10.18176 220
10.20187 221
10.22199 233
10.2421 179
10.26222 214
10.28233 223
10.30244 212
10.32256 256
10.34267 208
10.36278 248
10.3829 189
10.40301 229
10.42313 185
10.44324 228
10.46335 224
10.48347 231
10.50358 205
10.52369 199
10.54381 227
10.56392 196
10.58403 214
10.60415 227
10.62426 203
10.64438 178
10.66449 209
10.6846 193
10.70472 185
10.72483 233
10.74494 204
10.76506 220
10.78517 184
10.80529 238
10.8254 200
10.84551 255
10.86563 208
10.88574 211
10.90585 197
10.92597 218
10.94608 204
10.9662 203
10.98631 227
11.00642 228
11.02654 215
11.04665 241
11.06676 195
11.08688 211
11.10699 192
11.1271 224
11.14722 219
11.16733 216
11.18745 193
11.20756 210
11.22767 250
11.24779 190
11.2679 219
11.28801 197
11.30813 220
11.32824 216
11.34836 173
11.36847 178
11.38858 183
11.4087 233
11.42881 211
11.44892 204
11.46904 228
11.48915 210
11.50927 219
11.52938 224
11.54949 218
11.56961 181
11.58972 245
11.60983 235
11.62995 205
11.65006 245
11.67017 220
11.69029 230
11.7104 241
11.73052 211
11.75063 233
11.77074 220
11.79086 217
11.81097 230
11.83108 225
11.8512 225
11.87131 246
11.89143 226
11.91154 219
11.93165 241
11.95177 249
11.97188 240
11.99199 260
12.01211 237
12.03222 228
12.05234 258
12.07245 284
12.09256 276
12.11268 259
12.13279 277
12.1529 234
12.17302 265
12.19313 283
12.21324 256
12.23336 275
12.25347 257
12.27359 265
12.2937 256
12.31381 270
12.33393 236
12.35404 270
12.37415 268
12.39427 265
12.41438 249
12.4345 241
12.45461 268
12.47472 249
12.49484 238
12.51495 229
12.53506 222
12.55518 215
12.57529 235
12.5954 230
12.61552 221
12.63563 175
12.65575 209
12.67586 216
12.69597 204
12.71609 212
12.7362 202
12.75631 211
12.77643 173
12.79654 169
12.81666 207
12.83677 208
12.85688 185
12.877 174
12.89711 199
12.91722 181
12.93734 173
12.95745 179
12.97757 172
12.99768 180
13.01779 170
13.03791 190
13.05802 174
13.07813 208
13.09825 201
13.11836 187
13.13847 207
13.15859 237
13.1787 197
13.19882 175
13.21893 197
13.23904 195
13.25916 186
13.27927 210
13.29938 204
13.3195 207
13.33961 212
13.35973 175
13.37984 166
13.39995 228
13.42007 199
13.44018 200
13.46029 186
13.48041 216
13.50052 170
13.52064 152
13.54075 186
13.56086 232
13.58098 180
13.60109 195
13.6212 196
13.64132 191
13.66143 170
13.68154 202
13.70166 195
13.72177 201
13.74189 180
13.762 177
13.78211 191
13.80223 191
13.82234 185
13.84245 172
13.86257 170
13.88268 169
13.9028 183
13.92291 190
13.94302 190
13.96314 179
13.98325 171
14.00336 171
14.02348 201
14.04359 166
14.06371 174
14.08382 160
14.10393 193
14.12405 204
14.14416 180
14.16427 161
14.18439 196
14.2045 184
14.22461 190
14.24473 193
14.26484 200
14.28496 180
14.30507 166
14.32518 196
14.3453 149
14.36541 155
14.38552 170
14.40564 190
14.42575 171
14.44587 203
14.46598 174
14.48609 196
14.50621 197
14.52632 165
14.54643 170
14.56655 151
14.58666 154
14.60677 185
14.62689 178
14.647 190
14.66712 180
14.68723 164
14.70734 201
14.72746 163
14.74757 185
14.76768 181
14.7878 193
14.80791 205
14.82803 168
14.84814 180
14.86825 178
14.88837 162
14.90848 181
14.92859 178
14.94871 185
14.96882 169
14.98894 191
15.00905 176
15.02916 180
15.04928 173
15.06939 149
15.0895 172
15.10962 157
15.12973 185
15.14984 185
15.16996 157
15.19007 184
15.21019 146
15.2303 179
15.25041 171
15.27053 174
15.29064 194
15.31075 182
15.33087 178
15.35098 154
15.3711 183
15.39121 193
15.41132 167
15.43144 195
15.45155 176
15.47166 166
15.49178 145
15.51189 149
15.53201 170
15.55212 140
15.57223 167
15.59235 195
15.61246 185
15.63257 198
15.65269 167
15.6728 154
15.69291 182
15.71303 180
15.73314 176
15.75326 159
15.77337 160
15.79348 187
15.8136 184
15.83371 176
15.85382 186
15.87394 188
15.89405 160
15.91417 149
15.93428 141
15.95439 197
15.97451 183
15.99462 143
16.01473 166
16.03485 172
16.05496 174
16.07508 154
16.09519 150
16.1153 185
16.13542 150
16.15553 150
16.17564 159
16.19576 143
16.21587 161
16.23598 179
16.2561 144
16.27621 185
16.29633 169
16.31644 148
16.33655 137
16.35667 158
16.37678 164
16.39689 179
16.41701 128
16.43712 160
16.45724 179
16.47735 153
16.49746 168
16.51758 149
16.53769 155
16.5578 162
16.57792 179
16.59803 136
16.61814 172
16.63826 142
16.65837 154
16.67849 167
16.6986 164
16.71871 165
16.73883 153
16.75894 140
16.77905 164
16.79917 188
16.81928 136
16.8394 157
16.85951 143
16.87962 131
16.89974 168
16.91985 151
16.93996 183
16.96008 137
16.98019 154
17.00031 146
17.02042 175
17.04053 166
17.06065 164
17.08076 150
17.10087 151
17.12099 165
17.1411 156
17.16121 176
17.18133 157
17.20144 159
17.22156 169
17.24167 170
17.26178 162
17.2819 130
17.30201 126
17.32212 152
17.34224 144
17.36235 150
17.38247 163
17.40258 135
17.42269 137
17.44281 136
17.46292 153
17.48303 165
17.50315 151
17.52326 146
17.54338 148
17.56349 172
17.5836 155
17.60372 164
17.62383 141
17.64394 179
17.66406 123
17.68417 144
17.70428 172
17.7244 169
17.74451 148
17.76463 147
17.78474 170
17.80485 157
17.82497 175
17.84508 140
17.86519 143
17.88531 144
17.90542 171
17.92554 174
17.94565 174
17.96576 169
17.98588 157
18.00599 156
18.0261 158
18.04622 152
18.06633 149
18.08645 144
18.10656 173
18.12667 161
18.14679 161
18.1669 171
18.18701 171
18.20713 149
18.22724 158
18.24735 148
18.26747 152
18.28758 142
18.3077 132
18.32781 153
18.34792 135
18.36804 142
18.38815 145
18.40826 172
18.42838 159
18.44849 157
18.46861 159
18.48872 170
18.50883 167
18.52895 164
18.54906 141
18.56917 159
18.58929 166
18.6094 173
18.62951 148
18.64963 148
18.66974 143
18.68986 176
18.70997 159
18.73008 187
18.7502 181
18.77031 195
18.79042 163
18.81054 159
18.83065 171
18.85077 171
18.87088 157
18.89099 144
18.91111 155
18.93122 179
18.95133 154
18.97145 157
18.99156 168
19.01168 163
19.03179 160
19.0519 143
19.07202 150
19.09213 138
19.11224 164
19.13236 141
19.15247 176
19.17258 161
19.1927 160
19.21281 164
19.23293 143
19.25304 184
19.27315 169
19.29327 181
19.31338 148
19.33349 152
19.35361 156
19.37372 161
19.39384 157
19.41395 186
19.43406 151
19.45418 170
19.47429 187
19.4944 176
19.51452 166
19.53463 166
19.55475 196
19.57486 162
19.59497 178
19.61509 199
19.6352 203
19.65531 213
19.67543 192
19.69554 205
19.71565 205
19.73577 215
19.75588 193
19.776 215
19.79611 233
19.81622 259
19.83634 216
19.85645 241
19.87656 261
19.89668 189
19.91679 277
19.93691 252
19.95702 251
19.97713 241
19.99725 241
20.01736 252
20.03747 293
20.05759 264
20.0777 222
20.09782 271
20.11793 258
20.13804 253
20.15816 286
20.17827 264
20.19838 254
20.2185 316
20.23861 285
20.25872 296
20.27884 315
20.29895 325
20.31907 330
20.33918 348
20.35929 333
20.37941 308
20.39952 363
20.41963 337
20.43975 347
20.45986 423
20.47998 418
20.50009 415
20.5202 434
20.54032 495
20.56043 523
20.58054 625
20.60066 701
20.62077 870
20.64088 1129
20.661 1492
20.68111 1973
20.70123 2488
20.72134 3401
20.74145 4452
20.76157 5361
20.78168 6326
20.80179 7223
20.82191 7336
20.84202 6719
20.86214 6095
20.88225 4559
20.90236 3104
20.92248 2169
20.94259 1419
20.9627 940
20.98282 684
21.00293 567
21.02305 474
21.04316 459
21.06327 448
21.08339 401
21.1035 360
21.12361 359
21.14373 337
21.16384 321
21.18395 336
21.20407 277
21.22418 319
21.2443 285
21.26441 286
21.28452 251
21.30464 255
21.32475 263
21.34486 262
21.36498 236
21.38509 252
21.40521 219
21.42532 277
21.44543 242
21.46555 252
21.48566 219
21.50577 219
21.52589 203
21.546 216
21.56612 214
21.58623 223
21.60634 217
21.62646 249
21.64657 216
21.66668 180
21.6868 235
21.70691 209
21.72702 213
21.74714 223
21.76725 216
21.78737 212
21.80748 221
21.82759 227
21.84771 213
21.86782 191
21.88793 198
21.90805 199
21.92816 235
21.94828 215
21.96839 191
21.9885 217
22.00862 235
22.02873 219
22.04884 223
22.06896 227
22.08907 213
22.10919 223
22.1293 217
22.14941 210
22.16953 235
22.18964 212
22.20975 163
22.22987 213
22.24998 190
22.27009 208
22.29021 178
22.31032 204
22.33044 217
22.35055 195
22.37066 180
22.39078 201
22.41089 221
22.431 221
22.45112 220
22.47123 201
22.49135 210
22.51146 182
22.53157 183
22.55169 192
22.5718 192
22.59191 220
22.61203 207
22.63214 195
22.65225 216
22.67237 191
22.69248 183
22.7126 160
22.73271 174
22.75282 199
22.77294 182
22.79305 211
22.81316 187
22.83328 195
22.85339 211
22.87351 174
22.89362 191
22.91373 184
22.93385 173
22.95396 169
22.97407 216
22.99419 197
23.0143 178
23.03442 202
23.05453 218
23.07464 204
23.09476 219
23.11487 198
23.13498 231
23.1551 198
23.17521 219
23.19532 196
23.21544 176
23.23555 201
23.25567 194
23.27578 195
23.29589 189
23.31601 163
23.33612 189
23.35623 180
23.37635 181
23.39646 191
23.41658 189
23.43669 220
23.4568 159
23.47692 199
23.49703 180
23.51714 197
23.53726 193
23.55737 230
23.57749 187
23.5976 182
23.61771 193
23.63783 190
23.65794 206
23.67805 234
23.69817 187
23.71828 200
23.73839 191
23.75851 209
23.77862 223
23.79874 190
23.81885 206
23.83896 250
23.85908 221
23.87919 248
23.8993 253
23.91942 242
23.93953 268
23.95965 298
23.97976 270
23.99987 248
24.01999 246
24.0401 237
24.06021 215
24.08033 236
24.10044 195
24.12056 212
24.14067 178
24.16078 190
24.1809 172
24.20101 189
24.22112 193
24.24124 239
24.26135 189
24.28146 228
24.30158 204
24.32169 175
24.34181 204
24.36192 183
24.38203 180
24.40215 214
24.42226 179
24.44237 206
24.46249 193
24.4826 222
24.50272 190
24.52283 202
24.54294 228
24.56306 216
24.58317 219
24.60328 224
24.6234 246
24.64351 212
24.66362 256
24.68374 218
24.70385 263
24.72397 242
24.74408 241
24.76419 259
24.78431 239
24.80442 260
24.82453 243
24.84465 249
24.86476 238
24.88488 207
24.90499 237
24.9251 247
24.94522 240
24.96533 210
24.98544 234
25.00556 206
25.02567 196
25.04579 207
25.0659 218
25.08601 200
25.10613 226
25.12624 221
25.14635 219
25.16647 251
25.18658 212
25.20669 215
25.22681 237
25.24692 207
25.26704 214
25.28715 232
25.30726 235
25.32738 243
25.34749 209
25.3676 232
25.38772 216
25.40783 258
25.42795 226
25.44806 243
25.46817 231
25.48829 268
25.5084 282
25.52851 286
25.54863 266
25.56874 314
25.58886 334
25.60897 327
25.62908 352
25.6492 380
25.66931 395
25.68942 433
25.70954 445
25.72965 425
25.74976 457
25.76988 432
25.78999 427
25.81011 423
25.83022 451
25.85033 468
25.87045 490
25.89056 486
25.91067 548
25.93079 483
25.9509 466
25.97102 556
25.99113 559
26.01124 606
26.03136 588
26.05147 624
26.07158 645
26.0917 718
26.11181 777
26.13193 817
26.15204 916
26.17215 965
26.19227 1047
26.21238 1084
26.23249 1289
26.25261 1399
26.27272 1508
26.29283 1679
26.31295 1952
26.33306 2291
26.35318 2740
26.37329 3389
26.3934 4284
26.41352 5689
26.43363 7559
26.45374 10265
26.47386 12868
26.49397 16510
26.51409 21003
26.5342 25991
26.55431 29925
26.57443 32816
26.59454 34031
26.61465 32053
26.63477 27826
26.65488 22697
26.67499 17012
26.69511 12113
26.71522 8201
26.73534 5199
26.75545 3252
26.77556 2311
26.79568 1868
26.81579 1668
26.8359 1393
26.85602 1289
26.87613 1074
26.89625 1029
26.91636 974
26.93647 888
26.95659 789
26.9767 747
26.99681 662
27.01693 634
27.03704 582
27.05716 580
27.07727 523
27.09738 551
27.1175 483
27.13761 465
27.15772 490
27.17784 461
27.19795 471
27.21806 442
27.23818 450
27.25829 438
27.27841 401
27.29852 439
27.31863 451
27.33875 455
27.35886 421
27.37897 398
27.39909 466
27.4192 459
27.43932 456
27.45943 408
27.47954 367
27.49966 381
27.51977 394
27.53988 390
27.56 334
27.58011 315
27.60023 327
27.62034 313
27.64045 300
27.66057 297
27.68068 315
27.70079 314
27.72091 287
27.74102 303
27.76113 319
27.78125 306
27.80136 306
27.82148 266
27.84159 282
27.8617 277
27.88182 252
27.90193 279
27.92204 300
27.94216 263
27.96227 304
27.98239 271
28.0025 283
28.02261 245
28.04273 259
28.06284 274
28.08295 247
28.10307 270
28.12318 256
28.1433 230
28.16341 233
28.18352 242
28.20364 242
28.22375 264
28.24386 228
28.26398 269
28.28409 274
28.3042 234
28.32432 228
28.34443 254
28.36455 239
28.38466 238
28.40477 229
28.42489 251
28.445 225
28.46511 249
28.48523 224
28.50534 245
28.52546 235
28.54557 252
28.56568 242
28.5858 234
28.60591 250
28.62602 238
28.64614 225
28.66625 221
28.68636 230
28.70648 229
28.72659 232
28.74671 223
28.76682 222
28.78693 204
28.80705 226
28.82716 222
28.84727 213
28.86739 198
28.8875 208
28.90762 212
28.92773 224
28.94784 207
28.96796 220
28.98807 226
29.00818 227
29.0283 212
29.04841 198
29.06853 237
29.08864 215
29.10875 210
29.12887 197
29.14898 221
29.16909 222
29.18921 214
29.20932 226
29.22943 225
29.24955 211
29.26966 178
29.28978 214
29.30989 220
29.33 212
29.35012 226
29.37023 198
29.39034 223
29.41046 215
29.43057 190
29.45069 219
29.4708 221
29.49091 179
29.51103 223
29.53114 210
29.55125 213
29.57137 215
29.59148 205
29.6116 219
29.63171 182
29.65182 225
29.67194 169
29.69205 185
29.71216 206
29.73228 218
29.75239 182
29.7725 187
29.79262 201
29.81273 215
29.83285 210
29.85296 188
29.87307 225
29.89319 183
29.9133 202
29.93341 197
29.95353 211
29.97364 190
29.99376 192
30.01387 194
30.03398 185
30.0541 212
30.07421 183
30.09432 205
30.11444 213
30.13455 203
30.15467 214
30.17478 233
30.19489 227
30.21501 200
30.23512 199
30.25523 199
30.27535 174
30.29546 198
30.31557 201
30.33569 175
30.3558 173
30.37592 189
30.39603 198
30.41614 183
30.43626 204
30.45637 186
30.47648 194
30.4966 202
30.51671 166
30.53683 193
30.55694 187
30.57705 214
30.59717 192
30.61728 205
30.63739 210
30.65751 204
30.67762 181
30.69773 203
30.71785 197
30.73796 194
30.75808 199
30.77819 203
30.7983 214
30.81842 174
30.83853 189
30.85864 194
30.87876 173
30.89887 161
30.91899 168
30.9391 176
30.95921 195
30.97933 178
30.99944 175
31.01955 169
31.03967 160
31.05978 169
31.0799 192
31.10001 167
31.12012 175
31.14024 159
31.16035 145
31.18046 175
31.20058 154
31.22069 152
31.2408 164
31.26092 169
31.28103 152
31.30115 142
31.32126 166
31.34137 165
31.36149 143
31.3816 157
31.40171 146
31.42183 127
31.44194 146
31.46206 149
31.48217 152
31.50228 159
31.5224 171
31.54251 168
31.56262 136
31.58274 132
31.60285 161
31.62297 157
31.64308 151
31.66319 155
31.68331 171
31.70342 140
31.72353 143
31.74365 128
31.76376 157
31.78387 154
31.80399 129
31.8241 154
31.84422 166
31.86433 152
31.88444 144
31.90456 150
31.92467 151
31.94478 181
31.9649 142
31.98501 144
32.00513 171
32.02524 175
32.04535 155
32.06547 155
32.08558 173
32.10569 183
32.12581 159
32.14592 191
32.16604 155
32.18615 164
32.20626 175
32.22638 202
32.24649 160
32.2666 148
32.28672 159
32.30683 165
32.32694 173
32.34706 160
32.36717 167
32.38729 162
32.4074 135
32.42751 161
32.44763 138
32.46774 163
32.48785 127
32.50797 157
32.52808 138
32.5482 157
32.56831 137
32.58842 146
32.60854 167
32.62865 163
32.64876 145
32.66888 138
32.68899 167
32.7091 160
32.72922 160
32.74933 140
32.76945 152
32.78956 152
32.80967 155
32.82979 157
32.8499 125
32.87001 155
32.89013 136
32.91024 138
32.93036 149
32.95047 145
32.97058 114
32.9907 137
33.01081 138
33.03092 145
33.05104 165
33.07115 150
33.09127 151
33.11138 142
33.13149 148
33.15161 139
33.17172 145
33.19183 136
33.21195 157
33.23206 146
33.25217 141
33.27229 153
33.2924 143
33.31252 113
33.33263 127
33.35274 143
33.37286 138
33.39297 146
33.41308 136
33.4332 156
33.45331 138
33.47343 125
33.49354 153
33.51365 123
33.53377 123
33.55388 127
33.57399 145
33.59411 135
33.61422 134
33.63434 137
33.65445 111
33.67456 135
33.69468 149
33.71479 146
33.7349 126
33.75502 129
33.77513 133
33.79524 139
33.81536 140
33.83547 137
33.85559 125
33.8757 127
33.89581 146
33.91593 145
33.93604 150
33.95615 150
33.97627 140
33.99638 128
34.0165 142
34.03661 116
34.05672 150
34.07684 130
34.09695 143
34.11706 154
34.13718 145
34.15729 134
34.17741 164
34.19752 154
34.21763 153
34.23775 143
34.25786 136
34.27797 149
34.29809 144
34.3182 125
34.33831 151
34.35843 120
34.37854 151
34.39866 137
34.41877 152
34.43888 156
34.459 130
34.47911 137
34.49922 154
34.51934 129
34.53945 151
34.55957 152
34.57968 157
34.59979 148
34.61991 173
34.64002 128
34.66013 148
34.68025 163
34.70036 159
34.72047 157
34.74059 161
34.7607 145
34.78082 167
34.80093 145
34.82104 181
34.84116 167
34.86127 161
34.88138 179
34.9015 149
34.92161 196
34.94173 179
34.96184 166
34.98195 146
35.00207 162
35.02218 178
35.04229 174
35.06241 169
35.08252 165
35.10264 146
35.12275 179
35.14286 174
35.16298 166
35.18309 162
35.2032 158
35.22332 163
35.24343 165
35.26354 178
35.28366 157
35.30377 162
35.32389 155
35.344 166
35.36411 166
35.38423 169
35.40434 183
35.42445 173
35.44457 195
35.46468 188
35.4848 179
35.50491 139
35.52502 186
35.54514 181
35.56525 169
35.58536 191
35.60548 174
35.62559 165
35.64571 162
35.66582 204
35.68593 169
35.70605 175
35.72616 172
35.74627 186
35.76639 180
35.7865 168
35.80661 165
35.82673 190
35.84684 160
35.86696 199
35.88707 196
35.90718 187
35.9273 181
35.94741 184
35.96752 168
35.98764 192
36.00775 192
36.02787 200
36.04798 228
36.06809 242
36.08821 252
36.10832 228
36.12843 237
36.14855 217
36.16866 293
36.18878 269
36.20889 316
36.229 363
36.24912 384
36.26923 460
36.28934 579
36.30946 653
36.32957 753
36.34968 918
36.3698 1236
36.38991 1459
36.41003 1710
36.43014 1941
36.45025 2100
36.47037 2320
36.49048 2267
36.51059 2286
36.53071 2019
36.55082 1676
36.57094 1411
36.59105 1171
36.61116 964
36.63128 733
36.65139 550
36.6715 427
36.69162 318
36.71173 285
36.73184 255
36.75196 218
36.77207 246
36.79219 220
36.8123 198
36.83241 242
36.85253 224
36.87264 189
36.89275 180
36.91287 175
36.93298 189
36.9531 165
36.97321 188
36.99332 182
37.01344 169
37.03355 194
37.05366 172
37.07378 160
37.09389 189
37.11401 193
37.13412 127
37.15423 143
37.17435 160
37.19446 164
37.21457 155
37.23469 161
37.2548 161
37.27491 140
37.29503 146
37.31514 167
37.33526 152
37.35537 175
37.37548 131
37.3956 140
37.41571 168
37.43582 178
37.45594 160
37.47605 171
37.49617 171
37.51628 159
37.53639 178
37.55651 151
37.57662 137
37.59673 191
37.61685 151
37.63696 152
37.65708 163
37.67719 157
37.6973 173
37.71742 172
37.73753 175
37.75764 161
37.77776 157
37.79787 152
37.81798 162
37.8381 165
37.85821 161
37.87833 156
37.89844 144
37.91855 152
37.93867 153
37.95878 159
37.97889 145
37.99901 169
38.01912 158
38.03924 150
38.05935 136
38.07946 170
38.09958 146
38.11969 193
38.1398 180
38.15992 158
38.18003 187
38.20015 166
38.22026 153
38.24037 190
38.26049 167
38.2806 172
38.30071 188
38.32083 167
38.34094 185
38.36105 157
38.38117 167
38.40128 177
38.4214 184
38.44151 179
38.46162 172
38.48174 174
38.50185 169
38.52196 161
38.54208 180
38.56219 177
38.58231 179
38.60242 177
38.62253 194
38.64265 177
38.66276 159
38.68287 160
38.70299 173
38.7231 159
38.74321 192
38.76333 181
38.78344 161
38.80356 184
38.82367 208
38.84378 176
38.8639 154
38.88401 204
38.90412 215
38.92424 194
38.94435 217
38.96447 200
38.98458 190
39.00469 218
39.02481 236
39.04492 249
39.06503 261
39.08515 224
39.10526 303
39.12538 284
39.14549 350
39.1656 403
39.18572 437
39.20583 509
39.22594 562
39.24606 684
39.26617 803
39.28628 1034
39.3064 1128
39.32651 1439
39.34663 1636
39.36674 1824
39.38685 2089
39.40697 2154
39.42708 2053
39.44719 1908
39.46731 1593
39.48742 1353
39.50754 1154
39.52765 1073
39.54776 887
39.56788 689
39.58799 492
39.6081 343
39.62822 313
39.64833 275
39.66845 228
39.68856 211
39.70867 213
39.72879 241
39.7489 205
39.76901 234
39.78913 229
39.80924 197
39.82935 219
39.84947 215
39.86958 200
39.8897 206
39.90981 211
39.92992 222
39.95004 235
39.97015 268
39.99026 295
40.01038 302
40.03049 338
40.05061 376
40.07072 435
40.09083 501
40.11095 578
40.13106 698
40.15117 788
40.17129 853
40.1914 1018
40.21152 1135
40.23163 1118
40.25174 1060
40.27186 934
40.29197 865
40.31208 724
40.3322 614
40.35231 567
40.37242 503
40.39254 424
40.41265 340
40.43277 251
40.45288 223
40.47299 181
40.49311 180
40.51322 201
40.53333 180
40.55345 167
40.57356 170
40.59368 184
40.61379 159
40.6339 188
40.65402 165
40.67413 147
40.69424 160
40.71436 155
40.73447 150
40.75458 178
40.7747 132
40.79481 132
40.81493 143
40.83504 156
40.85515 157
40.87527 159
40.89538 150
40.91549 162
40.93561 143
40.95572 142
40.97584 151
40.99595 154
41.01606 183
41.03618 169
41.05629 162
41.0764 146
41.09652 160
41.11663 170
41.13675 171
41.15686 164
41.17697 177
41.19709 126
41.2172 143
41.23731 175
41.25743 154
41.27754 151
41.29765 151
41.31777 156
41.33788 145
41.358 157
41.37811 151
41.39822 138
41.41834 177
41.43845 160
41.45856 155
41.47868 142
41.49879 168
41.51891 148
41.53902 149
41.55913 181
41.57925 139
41.59936 153
41.61947 148
41.63959 161
41.6597 156
41.67982 196
41.69993 162
41.72004 151
41.74016 188
41.76027 158
41.78038 166
41.8005 169
41.82061 181
41.84072 170
41.86084 188
41.88095 184
41.90107 178
41.92118 169
41.94129 161
41.96141 192
41.98152 174
42.00163 195
42.02175 230
42.04186 219
42.06198 225
42.08209 226
42.1022 266
42.12232 276
42.14243 289
42.16254 336
42.18266 404
42.20277 456
42.22289 553
42.243 666
42.26311 793
42.28323 921
42.30334 1038
42.32345 1166
42.34357 1354
42.36368 1494
42.38379 1535
42.40391 1521
42.42402 1338
42.44414 1192
42.46425 1109
42.48436 913
42.50448 800
42.52459 719
42.5447 576
42.56482 412
42.58493 346
42.60505 271
42.62516 253
42.64527 229
42.66539 181
42.6855 199
42.70561 173
42.72573 169
42.74584 184
42.76595 164
42.78607 160
42.80618 158
42.8263 150
42.84641 155
42.86652 166
42.88664 159
42.90675 166
42.92686 127
42.94698 137
42.96709 141
42.98721 151
43.00732 134
43.02743 153
43.04755 124
43.06766 157
43.08777 157
43.10789 152
43.128 115
43.14812 169
43.16823 142
43.18834 150
43.20846 152
43.22857 130
43.24868 135
43.2688 140
43.28891 143
43.30902 172
43.32914 124
43.34925 111
43.36937 132
43.38948 142
43.40959 126
43.42971 131
43.44982 148
43.46993 146
43.49005 133
43.51016 141
43.53028 119
43.55039 132
43.5705 124
43.59062 140
43.61073 136
43.63084 134
43.65096 123
43.67107 135
43.69119 107
43.7113 139
43.73141 125
43.75153 140
43.77164 144
43.79175 137
43.81187 133
43.83198 131
43.85209 115
43.87221 125
43.89232 116
43.91244 134
43.93255 123
43.95266 125
43.97278 118
43.99289 117
44.013 131
44.03312 130
44.05323 164
44.07335 159
44.09346 127
44.11357 143
44.13369 136
44.1538 134
44.17391 138
44.19403 120
44.21414 143
44.23426 128
44.25437 113
44.27448 132
44.2946 144
44.31471 130
44.33482 144
44.35494 118
44.37505 127
44.39516 151
44.41528 130
44.43539 137
44.45551 107
44.47562 152
44.49573 133
44.51585 136
44.53596 156
44.55607 135
44.57619 139
44.5963 154
44.61642 137
44.63653 127
44.65664 111
44.67676 125
44.69687 148
44.71698 133
44.7371 143
44.75721 136
44.77732 150
44.79744 122
44.81755 136
44.83767 121
44.85778 157
44.87789 163
44.89801 150
44.91812 160
44.93823 144
44.95835 159
44.97846 138
44.99858 150
45.01869 138
45.0388 142
45.05892 171
45.07903 131
45.09914 136
45.11926 151
45.13937 146
45.15949 167
45.1796 142
45.19971 159
45.21983 145
45.23994 168
45.26005 176
45.28017 155
45.30028 149
45.32039 148
45.34051 166
45.36062 174
45.38074 177
45.40085 187
45.42096 207
45.44108 198
45.46119 221
45.4813 288
45.50142 271
45.52153 305
45.54165 388
45.56176 354
45.58187 476
45.60199 560
45.6221 622
45.64221 685
45.66233 751
45.68244 900
45.70256 992
45.72267 1057
45.74278 985
45.7629 954
45.78301 908
45.80312 724
45.82324 615
45.84335 607
45.86346 506
45.88358 459
45.90369 373
45.92381 309
45.94392 265
45.96403 199
45.98415 176
46.00426 168
46.02437 155
46.04449 176
46.0646 152
46.08472 159
46.10483 162
46.12494 158
46.14506 139
46.16517 126
46.18528 148
46.2054 145
46.22551 157
46.24563 134
46.26574 123
46.28585 132
46.30597 127
46.32608 135
46.34619 135
46.36631 144
46.38642 137
46.40653 127
46.42665 130
46.44676 128
46.46688 138
46.48699 134
46.5071 123
46.52722 137
46.54733 126
46.56744 138
46.58756 135
46.60767 119
46.62779 142
46.6479 138
46.66801 141
46.68813 120
46.70824 123
46.72835 128
46.74847 119
46.76858 135
46.78869 126
46.80881 136
46.82892 122
46.84904 136
46.86915 129
46.88926 132
46.90938 137
46.92949 124
46.9496 145
46.96972 118
46.98983 111
47.00995 156
47.03006 126
47.05017 128
47.07029 116
47.0904 125
47.11051 121
47.13063 115
47.15074 141
47.17086 117
47.19097 142
47.21108 135
47.2312 128
47.25131 130
47.27142 130
47.29154 121
47.31165 123
47.33176 123
47.35188 115
47.37199 129
47.39211 114
47.41222 120
47.43233 134
47.45245 128
47.47256 126
47.49267 112
47.51279 126
47.5329 122
47.55302 124
47.57313 116
47.59324 119
47.61336 113
47.63347 122
47.65358 123
47.6737 111
47.69381 127
47.71393 132
47.73404 126
47.75415 117
47.77427 118
47.79438 127
47.81449 120
47.83461 109
47.85472 115
47.87483 117
47.89495 122
47.91506 106
47.93518 110
47.95529 128
47.9754 114
47.99552 121
48.01563 112
48.03574 115
48.05586 120
48.07597 127
48.09609 121
48.1162 118
48.13631 134
48.15643 110
48.17654 105
48.19665 136
48.21677 135
48.23688 132
48.257 133
48.27711 133
48.29722 151
48.31734 135
48.33745 130
48.35756 145
48.37768 154
48.39779 141
48.4179 140
48.43802 130
48.45813 125
48.47825 130
48.49836 122
48.51847 132
48.53859 154
48.5587 140
48.57881 148
48.59893 130
48.61904 138
48.63916 139
48.65927 123
48.67938 139
48.6995 153
48.71961 139
48.73972 146
48.75984 157
48.77995 134
48.80006 137
48.82018 146
48.84029 132
48.86041 155
48.88052 122
48.90063 136
48.92075 143
48.94086 150
48.96097 145
48.98109 151
49.0012 153
49.02132 142
49.04143 136
49.06154 134
49.08166 164
49.10177 134
49.12188 158
49.142 130
49.16211 148
49.18223 130
49.20234 163
49.22245 147
49.24257 146
49.26268 138
49.28279 144
49.30291 156
49.32302 153
49.34313 152
49.36325 145
49.38336 160
49.40348 167
49.42359 156
49.4437 184
49.46382 183
49.48393 161
49.50404 169
49.52416 172
49.54427 203
49.56439 209
49.5845 213
49.60461 231
49.62473 232
49.64484 244
49.66495 276
49.68507 308
49.70518 301
49.7253 348
49.74541 375
49.76552 426
49.78564 482
49.80575 529
49.82586 613
49.84598 685
49.86609 857
49.8862 998
49.90632 1179
49.92643 1387
49.94655 1702
49.96666 2086
49.98677 2417
50.00689 2713
50.027 2972
50.04711 3205
50.06723 3394
50.08734 3360
50.10746 2940
50.12757 2659
50.14768 2244
50.1678 1957
50.18791 1780
50.20802 1590
50.22814 1497
50.24825 1205
50.26837 961
50.28848 776
50.30859 537
50.32871 395
50.34882 349
50.36893 288
50.38905 281
50.40916 307
50.42927 284
50.44939 298
50.4695 281
50.48962 279
50.50973 244
50.52984 259
50.54996 270
50.57007 234
50.59018 261
50.6103 241
50.63041 201
50.65053 205
50.67064 226
50.69075 203
50.71087 160
50.73098 167
50.75109 182
50.77121 178
50.79132 159
50.81143 145
50.83155 155
50.85166 155
50.87178 155
50.89189 143
50.912 142
50.93212 151
50.95223 152
50.97234 156
50.99246 141
51.01257 126
51.03269 138
51.0528 124
51.07291 155
51.09303 143
51.11314 135
51.13325 136
51.15337 140
51.17348 135
51.1936 143
51.21371 114
51.23382 135
51.25394 128
51.27405 138
51.29416 121
51.31428 127
51.33439 134
51.3545 104
51.37462 122
51.39473 110
51.41485 134
51.43496 118
51.45507 109
51.47519 128
51.4953 114
51.51541 118
51.53553 106
51.55564 125
51.57576 107
51.59587 131
51.61598 119
51.6361 120
51.65621 121
51.67632 112
51.69644 113
51.71655 107
51.73667 137
51.75678 117
51.77689 130
51.79701 136
51.81712 117
51.83723 120
51.85735 138
51.87746 100
51.89757 110
51.91769 119
51.9378 115
51.95792 112
51.97803 111
51.99814 127
52.01826 106
52.03837 108
52.05848 120
52.0786 125
52.09871 117
52.11883 118
52.13894 107
52.15905 98
52.17917 126
52.19928 126
52.21939 105
52.23951 126
52.25962 106
52.27974 119
52.29985 119
52.31996 124
52.34008 110
52.36019 123
52.3803 117
52.40042 113
52.42053 103
52.44064 121
52.46076 103
52.48087 120
52.50099 112
52.5211 119
52.54121 119
52.56133 100
52.58144 108
52.60155 114
52.62167 117
52.64178 120
52.6619 110
52.68201 123
52.70212 102
52.72224 117
52.74235 133
52.76246 111
52.78258 119
52.80269 130
52.8228 134
52.84292 123
52.86303 119
52.88315 118
52.90326 111
52.92337 113
52.94349 125
52.9636 100
52.98371 131
53.00383 118
53.02394 113
53.04406 127
53.06417 143
53.08428 123
53.1044 129
53.12451 110
53.14462 94
53.16474 125
53.18485 130
53.20497 123
53.22508 127
53.24519 138
53.26531 130
53.28542 121
53.30553 111
53.32565 122
53.34576 109
53.36587 127
53.38599 111
53.4061 119
53.42622 123
53.44633 134
53.46644 136
53.48656 138
53.50667 126
53.52678 134
53.5469 129
53.56701 126
53.58713 123
53.60724 121
53.62735 124
53.64747 132
53.66758 127
53.68769 131
53.70781 128
53.72792 126
53.74804 122
53.76815 121
53.78826 124
53.80838 123
53.82849 149
53.8486 135
53.86872 118
53.88883 130
53.90894 133
53.92906 125
53.94917 133
53.96929 134
53.9894 130
54.00951 151
54.02963 138
54.04974 147
54.06985 137
54.08997 121
54.11008 137
54.1302 168
54.15031 140
54.17042 133
54.19054 134
54.21065 145
54.23076 152
54.25088 145
54.27099 152
54.29111 155
54.31122 167
54.33133 153
54.35145 148
54.37156 166
54.39167 171
54.41179 199
54.4319 173
54.45201 191
54.47213 217
54.49224 209
54.51236 227
54.53247 233
54.55258 296
54.5727 320
54.59281 338
54.61292 378
54.63304 434
54.65315 512
54.67327 566
54.69338 670
54.71349 717
54.73361 874
54.75372 962
54.77383 990
54.79395 1076
54.81406 1073
54.83417 999
54.85429 888
54.8744 818
54.89452 668
54.91463 601
54.93474 618
54.95486 603
54.97497 520
54.99508 533
55.0152 429
55.03531 366
55.05543 319
55.07554 321
55.09565 340
55.11577 351
55.13588 393
55.15599 433
55.17611 408
55.19622 476
55.21634 542
55.23645 534
55.25656 565
55.27668 492
55.29679 471
55.3169 407
55.33702 391
55.35713 373
55.37724 350
55.39736 334
55.41747 318
55.43759 300
55.4577 243
55.47781 222
55.49793 207
55.51804 173
55.53815 155
55.55827 155
55.57838 147
55.5985 163
55.61861 143
55.63872 115
55.65884 143
55.67895 138
55.69906 153
55.71918 138
55.73929 137
55.75941 121
55.77952 137
55.79963 127
55.81975 123
55.83986 120
55.85997 124
55.88009 126
55.9002 116
55.92031 128
55.94043 120
55.96054 103
55.98066 104
56.00077 136
56.02088 152
56.041 131
56.06111 131
56.08122 125
56.10134 103
56.12145 113
56.14157 143
56.16168 131
56.18179 152
56.20191 100
56.22202 119
56.24213 103
56.26225 140
56.28236 113
56.30248 133
56.32259 135
56.3427 113
56.36282 116
56.38293 140
56.40304 123
56.42316 115
56.44327 113
56.46338 108
56.4835 119
56.50361 123
56.52373 113
56.54384 127
56.56395 123
56.58407 119
56.60418 111
56.62429 100
56.64441 117
56.66452 95
56.68464 116
56.70475 143
56.72486 118
56.74498 110
56.76509 127
56.7852 121
56.80532 104
56.82543 126
56.84554 110
56.86566 110
56.88577 116
56.90589 108
56.926 147
56.94611 137
56.96623 122
56.98634 124
57.00645 139
57.02657 146
57.04668 157
57.0668 167
57.08691 165
57.10702 187
57.12714 188
57.14725 170
57.16736 152
57.18748 165
57.20759 136
57.22771 153
57.24782 133
57.26793 126
57.28805 157
57.30816 169
57.32827 130
57.34839 123
57.3685 137
57.38861 119
57.40873 124
57.42884 126
57.44896 133
57.46907 122
57.48918 120
57.5093 125
57.52941 137
57.54952 120
57.56964 116
57.58975 141
57.60987 123
57.62998 126
57.65009 139
57.67021 122
57.69032 131
57.71043 115
57.73055 109
57.75066 125
57.77078 108
57.79089 116
57.811 116
57.83112 134
57.85123 107
57.87134 125
57.89146 146
57.91157 110
57.93168 112
57.9518 126
57.97191 104
57.99203 114
58.01214 129
58.03225 116
58.05237 121
58.07248 129
58.09259 129
58.11271 125
58.13282 121
58.15294 119
58.17305 125
58.19316 126
58.21328 114
58.23339 118
58.2535 107
58.27362 127
58.29373 127
58.31385 149
58.33396 116
58.35407 121
58.37419 123
58.3943 127
58.41441 119
58.43453 118
58.45464 112
58.47475 125
58.49487 113
58.51498 132
58.5351 123
58.55521 126
58.57532 130
58.59544 139
58.61555 97
58.63566 124
58.65578 104
58.67589 128
58.69601 115
58.71612 118
58.73623 130
58.75635 108
58.77646 140
58.79657 124
58.81669 129
58.8368 91
58.85691 110
58.87703 126
58.89714 121
58.91726 113
58.93737 126
58.95748 112
58.9776 134
58.99771 128
59.01782 136
59.03794 146
59.05805 140
59.07817 133
59.09828 147
59.11839 136
59.13851 147
59.15862 148
59.17873 129
59.19885 125
59.21896 153
59.23908 152
59.25919 157
59.2793 154
59.29942 147
59.31953 180
59.33964 183
59.35976 191
59.37987 173
59.39998 197
59.4201 194
59.44021 210
59.46033 208
59.48044 229
59.50055 243
59.52067 286
59.54078 293
59.56089 333
59.58101 355
59.60112 394
59.62124 468
59.64135 491
59.66146 551
59.68158 654
59.70169 768
59.7218 917
59.74192 1028
59.76203 1219
59.78215 1443
59.80226 1590
59.82237 1770
59.84249 1919
59.8626 2063
59.88271 2007
59.90283 2003
59.92294 1879
59.94305 1668
59.96317 1431
59.98328 1303
60.0034 1240
60.02351 1150
60.04362 1071
60.06374 962
60.08385 894
60.10396 739
60.12408 571
60.14419 416
60.16431 350
60.18442 265
60.20453 244
60.22465 214
60.24476 181
60.26487 189
60.28499 182
60.3051 152
60.32522 177
60.34533 175
60.36544 171
60.38556 166
60.40567 150
60.42578 160
60.4459 150
60.46601 170
60.48612 139
60.50624 132
60.52635 153
60.54647 142
60.56658 122
60.58669 138
60.60681 138
60.62692 130
60.64703 132
60.66715 120
60.68726 146
60.70738 133
60.72749 154
60.7476 125
60.76772 127
60.78783 129
60.80794 142
60.82806 114
60.84817 142
60.86828 114
60.8884 117
60.90851 122
60.92863 114
60.94874 146
60.96885 134
60.98897 130
61.00908 126
61.02919 111
61.04931 121
61.06942 136
61.08954 127
61.10965 113
61.12976 108
61.14988 112
61.16999 113
61.1901 138
61.21022 102
61.23033 132
61.25045 119
61.27056 108
61.29067 120
61.31079 118
61.3309 118
61.35101 128
61.37113 139
61.39124 112
61.41135 134
61.43147 110
61.45158 115
61.4717 134
61.49181 110
61.51192 108
61.53204 127
61.55215 136
61.57226 126
61.59238 141
61.61249 132
61.63261 131
61.65272 115
61.67283 121
61.69295 129
61.71306 124
61.73317 115
61.75329 135
61.7734 113
61.79352 98
61.81363 122
61.83374 127
61.85386 119
61.87397 114
61.89408 118
61.9142 128
61.93431 118
61.95442 115
61.97454 130
61.99465 139
62.01477 136
62.03488 139
62.05499 121
62.07511 128
62.09522 143
62.11533 142
62.13545 150
62.15556 163
62.17568 156
62.19579 147
62.2159 145
62.23602 146
62.25613 149
62.27624 147
62.29636 128
62.31647 107
62.33659 143
62.3567 126
62.37681 141
62.39693 133
62.41704 144
62.43715 124
62.45727 130
62.47738 118
62.49749 120
62.51761 128
62.53772 135
62.55784 103
62.57795 120
62.59806 120
62.61818 131
62.63829 125
62.6584 114
62.67852 100
62.69863 143
62.71875 115
62.73886 114
62.75897 118
62.77909 120
62.7992 108
62.81931 120
62.83943 105
62.85954 119
62.87965 122
62.89977 84
62.91988 112
62.94 132
62.96011 110
62.98022 113
63.00034 136
63.02045 118
63.04056 121
63.06068 113
63.08079 115
63.10091 125
63.12102 113
63.14113 117
63.16125 113
63.18136 115
63.20147 103
63.22159 108
63.2417 124
63.26182 145
63.28193 112
63.30204 127
63.32216 128
63.34227 140
63.36238 125
63.3825 107
63.40261 121
63.42272 133
63.44284 123
63.46295 135
63.48307 137
63.50318 116
63.52329 132
63.54341 136
63.56352 139
63.58363 136
63.60375 134
63.62386 138
63.64398 169
63.66409 145
63.6842 170
63.70432 180
63.72443 180
63.74454 195
63.76466 224
63.78477 255
63.80489 283
63.825 296
63.84511 308
63.86523 368
63.88534 390
63.90545 429
63.92557 458
63.94568 463
63.96579 465
63.98591 431
64.00602 388
64.02614 372
64.04625 310
64.06636 316
64.08648 301
64.10659 275
64.1267 276
64.14682 255
64.16693 229
64.18705 201
64.20716 223
64.22727 158
64.24739 127
64.2675 135
64.28761 114
64.30773 127
64.32784 112
64.34796 132
64.36807 117
64.38818 124
64.4083 131
64.42841 102
64.44852 110
64.46864 102
64.48875 93
64.50886 112
64.52898 96
64.54909 108
64.56921 112
64.58932 114
64.60943 110
64.62955 110
64.64966 119
64.66977 101
64.68989 98
64.71 121
64.73012 124
64.75023 109
64.77034 88
64.79046 123
64.81057 101
64.83068 116
64.8508 95
64.87091 114
64.89102 87
64.91114 108
64.93125 112
64.95137 130
64.97148 98
64.99159 120
65.01171 95
65.03182 128
65.05193 93
65.07205 118
65.09216 109
65.11228 137
65.13239 115
65.1525 118
65.17262 111
65.19273 127
65.21284 115
65.23296 126
65.25307 133
65.27319 110
65.2933 129
65.31341 119
65.33353 149
65.35364 129
65.37375 154
65.39387 121
65.41398 134
65.43409 131
65.45421 127
65.47432 128
65.49444 135
65.51455 134
65.53466 166
65.55478 152
65.57489 182
65.595 171
65.61512 182
65.63523 167
65.65535 200
65.67546 187
65.69557 207
65.71569 243
65.7358 207
65.75591 189
65.77603 182
65.79614 175
65.81626 176
65.83637 146
65.85648 144
65.8766 166
65.89671 142
65.91682 131
65.93694 163
65.95705 134
65.97716 119
65.99728 140
66.01739 126
66.03751 116
66.05762 137
66.07773 121
66.09785 134
66.11796 109
66.13807 129
66.15819 116
66.1783 118
66.19842 129
66.21853 110
66.23864 139
66.25876 124
66.27887 124
66.29898 131
66.3191 141
66.33921 134
66.35933 122
66.37944 117
66.39955 137
66.41967 141
66.43978 129
66.45989 129
66.48001 121
66.50012 135
66.52023 133
66.54035 121
66.56046 127
66.58058 114
66.60069 111
66.6208 124
66.64092 120
66.66103 137
66.68114 128
66.70126 134
66.72137 146
66.74149 128
66.7616 129
66.78171 129
66.80183 130
66.82194 139
66.84205 152
66.86217 148
66.88228 137
66.90239 131
66.92251 147
66.94262 154
66.96274 139
66.98285 153
67.00296 165
67.02308 141
67.04319 143
67.0633 166
67.08342 163
67.10353 167
67.12365 167
67.14376 151
67.16387 152
67.18399 194
67.2041 197
67.22421 164
67.24433 198
67.26444 210
67.28456 237
67.30467 242
67.32478 221
67.3449 274
67.36501 308
67.38512 300
67.40524 378
67.42535 412
67.44546 411
67.46558 471
67.48569 533
67.50581 542
67.52592 734
67.54603 830
67.56615 929
67.58626 1067
67.60637 1116
67.62649 1208
67.6466 1318
67.66672 1282
67.68683 1241
67.70694 1132
67.72706 1053
67.74717 1061
67.76728 930
67.7874 936
67.80751 982
67.82763 1044
67.84774 1008
67.86785 1095
67.88797 1128
67.90808 1142
67.92819 1228
67.94831 1197
67.96842 1297
67.98853 1400
68.00865 1526
68.02876 1689
68.04888 1734
68.06899 1809
68.0891 1823
68.10922 1815
68.12933 1595
68.14944 1566
68.16956 1517
68.18967 1564
68.20979 1576
68.2299 1675
68.25001 1581
68.27013 1508
68.29024 1313
68.31035 1100
68.33047 896
68.35058 834
68.3707 783
68.39081 617
68.41092 629
68.43104 591
68.45115 542
68.47126 484
68.49138 400
68.51149 328
68.5316 268
68.55172 238
68.57183 217
68.59195 186
68.61206 187
68.63217 173
68.65229 180
68.6724 168
68.69251 170
68.71263 159
68.73274 153
68.75286 152
68.77297 144
68.79308 140
68.8132 161
68.83331 146
68.85342 129
68.87354 127
68.89365 115
68.91376 125
68.93388 135
68.95399 111
68.97411 140
68.99422 140
69.01433 118
69.03445 150
69.05456 142
69.07467 123
69.09479 120
69.1149 122
69.13502 130
69.15513 124
69.17524 122
69.19536 133
69.21547 127
69.23558 129
69.2557 117
69.27581 113
69.29593 133
69.31604 125
69.33615 118
69.35627 95
69.37638 124
69.39649 125
69.41661 118
69.43672 115
69.45683 113
69.47695 117
69.49706 114
69.51718 108
69.53729 116
69.5574 116
69.57752 117
69.59763 116
69.61774 107
69.63786 117
69.65797 103
69.67809 101
69.6982 107
69.71831 102
69.73843 108
69.75854 96
69.77865 115
69.79877 112
69.81888 101
69.839 136
69.85911 108
69.87922 100
69.89934 119
69.91945 105
69.93956 133
69.95968 106
69.97979 123
69.9999 105
70.02002 115
70.04013 100
70.06025 97
70.08036 113
70.10047 98
70.12059 99
70.1407 115
70.16081 110
70.18093 121
70.20104 108
70.22116 101
70.24127 113
70.26138 120
70.2815 112
70.30161 103
70.32172 111
70.34184 121
70.36195 93
70.38207 110
70.40218 108
70.42229 113
70.44241 110
70.46252 125
70.48263 113
70.50275 99
70.52286 114
70.54297 123
70.56309 97
70.5832 111
70.60332 103
70.62343 106
70.64354 123
70.66366 91
70.68377 130
70.70388 115
70.724 108
70.74411 124
70.76423 99
70.78434 97
70.80445 108
70.82457 111
70.84468 111
70.86479 111
70.88491 99
70.90502 107
70.92513 94
70.94525 101
70.96536 102
70.98548 111
71.00559 106
71.0257 95
71.04582 111
71.06593 108
71.08604 89
71.10616 105
71.12627 98
71.14639 104
71.1665 103
71.18661 105
71.20673 90
71.22684 114
71.24695 102
71.26707 98
71.28718 109
71.3073 117
71.32741 113
71.34752 117
71.36764 107
71.38775 109
71.40786 111
71.42798 98
71.44809 109
71.4682 98
71.48832 108
71.50843 108
71.52855 107
71.54866 101
71.56877 103
71.58889 88
71.609 109
71.62911 111
71.64923 110
71.66934 110
71.68946 92
71.70957 83
71.72968 101
71.7498 74
71.76991 103
71.79002 110
71.81014 95
71.83025 113
71.85037 95
71.87048 111
71.89059 100
71.91071 92
71.93082 106
71.95093 98
71.97105 126
71.99116 102
72.01127 98
72.03139 100
72.0515 112
72.07162 99
72.09173 102
72.11184 90
72.13196 109
72.15207 118
72.17218 107
72.1923 97
72.21241 92
72.23253 97
72.25264 105
72.27275 113
72.29287 103
72.31298 113
72.33309 97
72.35321 126
72.37332 98
72.39344 91
72.41355 99
72.43366 97
72.45378 101
72.47389 100
72.494 114
72.51412 105
72.53423 108
72.55434 108
72.57446 96
72.59457 117
72.61469 99
72.6348 126
72.65491 111
72.67503 123
72.69514 118
72.71525 123
72.73537 116
72.75548 112
72.7756 100
72.79571 123
72.81582 124
72.83594 128
72.85605 139
72.87616 116
72.89628 101
72.91639 121
72.9365 114
72.95662 129
72.97673 146
72.99685 130
73.01696 143
73.03707 126
73.05719 136
73.0773 139
73.09741 168
73.11753 180
73.13764 183
73.15776 205
73.17787 210
73.19798 256
73.2181 245
73.23821 261
73.25832 315
73.27844 336
73.29855 364
73.31867 412
73.33878 461
73.35889 512
73.37901 475
73.39912 491
73.41923 466
73.43935 406
73.45946 362
73.47957 360
73.49969 312
73.5198 284
73.53992 322
73.56003 297
73.58014 294
73.60026 292
73.62037 259
73.64048 266
73.6606 240
73.68071 218
73.70083 185
73.72094 153
73.74105 139
73.76117 121
73.78128 129
73.80139 146
73.82151 127
73.84162 122
73.86174 127
73.88185 104
73.90196 128
73.92208 125
73.94219 121
73.9623 120
73.98242 126
74.00253 111
74.02264 104
74.04276 93
74.06287 101
74.08299 110
74.1031 117
74.12321 104
74.14333 107
74.16344 119
74.18355 90
74.20367 108
74.22378 102
74.2439 121
74.26401 108
74.28412 102
74.30424 113
74.32435 114
74.34446 92
74.36458 99
74.38469 121
74.40481 107
74.42492 122
74.44503 107
74.46515 104
74.48526 117
74.50537 110
74.52549 116
74.5456 106
74.56571 90
74.58583 97
74.60594 120
74.62606 104
74.64617 114
74.66628 106
74.6864 101
74.70651 104
74.72662 111
74.74674 105
74.76685 121
74.78697 96
74.80708 100
74.82719 112
74.84731 119
74.86742 90
74.88753 123
74.90765 110
74.92776 112
74.94787 131
74.96799 102
74.9881 99
75.00822 90
