3.00117 19533
3.02128 19414
3.0414 18541
3.06151 17775
3.08162 17227
3.10174 17251
3.12185 16581
3.14197 16339
3.16208 15641
3.18219 14954
3.20231 15081
3.22242 14561
3.24253 13908
3.26265 13572
3.28276 12918
3.30288 12460
3.32299 12476
3.3431 11957
3.36322 11596
3.38333 11099
3.40344 10957
3.42356 10556
3.44367 10124
3.46379 9997
3.4839 9373
3.50401 9175
3.52413 8942
3.54424 8306
3.56435 8096
3.58447 7855
3.60458 7692
3.62469 7414
3.64481 7101
3.66492 6750
3.68504 6486
3.70515 6227
3.72526 6164
3.74538 5719
3.76549 5573
3.7856 5310
3.80572 5159
3.82583 5155
3.84595 4649
3.86606 4696
3.88617 4240
3.90629 4189
3.9264 4126
3.94651 3645
3.96663 3613
3.98674 3363
4.00686 3453
4.02697 3210
4.04708 2937
4.0672 3015
4.08731 2734
4.10742 2597
4.12754 2701
4.14765 2382
4.16776 2458
4.18788 2290
4.20799 2328
4.22811 2272
4.24822 2007
4.26833 2006
4.28845 1836
4.30856 1851
4.32867 1838
4.34879 1773
4.3689 1753
4.38902 1633
4.40913 1700
4.42924 1678
4.44936 1445
4.46947 1538
4.48958 1392
4.5097 1454
4.52981 1499
4.54992 1295
4.57004 1396
4.59015 1296
4.61027 1289
4.63038 1333
4.65049 1178
4.67061 1229
4.69072 1207
4.71083 1176
4.73095 1113
4.75106 1066
4.77118 1103
4.79129 1073
4.8114 993
4.83152 1073
4.85163 966
4.87174 974
4.89186 949
4.91197 941
4.93209 965
4.9522 956
4.97231 895
4.99243 854
5.01254 831
5.03265 838
5.05277 817
5.07288 783
5.09299 824
5.11311 726
5.13322 798
5.15334 745
5.17345 700
5.19356 734
5.21368 717
5.23379 690
5.2539 647
5.27402 691
5.29413 681
5.31425 630
5.33436 597
5.35447 583
5.37459 595
5.3947 614
5.41481 603
5.43493 554
5.45504 549
5.47516 571
5.49527 525
5.51538 551
5.5355 557
5.55561 499
5.57572 520
5.59584 557
5.61595 507
5.63606 481
5.65618 470
5.67629 463
5.69641 485
5.71652 523
5.73663 490
5.75675 461
5.77686 435
5.79697 460
5.81709 438
5.8372 451
5.85732 480
5.87743 454
5.89754 444
5.91766 471
5.93777 396
5.95788 400
5.978 444
5.99811 439
6.01823 454
6.03834 483
6.05845 434
6.07857 423
6.09868 438
6.11879 405
6.13891 393
6.15902 395
6.17913 393
6.19925 447
6.21936 429
6.23948 413
6.25959 398
6.2797 456
6.29982 400
6.31993 403
6.34004 422
6.36016 403
6.38027 361
6.40039 383
6.4205 395
6.44061 422
6.46073 401
6.48084 379
6.50095 371
6.52107 377
6.54118 392
6.56129 379
6.58141 387
6.60152 379
6.62164 348
6.64175 374
6.66186 369
6.68198 425
6.70209 379
6.7222 400
6.74232 395
6.76243 384
6.78255 392
6.80266 376
6.82277 391
6.84289 401
6.863 404
6.88311 407
6.90323 377
6.92334 387
6.94346 368
6.96357 422
6.98368 362
7.0038 364
7.02391 396
7.04402 412
7.06414 419
7.08425 370
7.10436 370
7.12448 397
7.14459 391
7.16471 364
7.18482 399
7.20493 389
7.22505 378
7.24516 438
7.26527 376
7.28539 392
7.3055 388
7.32562 440
7.34573 378
7.36584 428
7.38596 383
7.40607 398
7.42618 373
7.4463 393
7.46641 409
7.48653 400
7.50664 376
7.52675 434
7.54687 342
7.56698 352
7.58709 391
7.60721 341
7.62732 365
7.64743 397
7.66755 407
7.68766 381
7.70778 386
7.72789 420
7.748 388
7.76812 403
7.78823 390
7.80834 410
7.82846 436
7.84857 379
7.86869 397
7.8888 376
7.90891 404
7.92903 391
7.94914 421
7.96925 450
7.98937 384
8.00948 404
8.0296 399
8.04971 394
8.06982 398
8.08994 362
8.11005 399
8.13016 453
8.15028 421
8.17039 404
8.1905 430
8.21062 397
8.23073 405
8.25085 389
8.27096 389
8.29107 451
8.31119 423
8.3313 385
8.35141 392
8.37153 414
8.39164 383
8.41176 392
8.43187 456
8.45198 439
8.4721 412
8.49221 386
8.51232 449
8.53244 407
8.55255 399
8.57266 400
8.59278 448
8.61289 418
8.63301 424
8.65312 418
8.67323 401
8.69335 445
8.71346 451
8.73357 404
8.75369 444
8.7738 484
8.79392 406
8.81403 476
8.83414 467
8.85426 415
8.87437 466
8.89448 471
8.9146 432
8.93471 426
8.95483 420
8.97494 431
8.99505 452
9.01517 441
9.03528 410
9.05539 427
9.07551 428
9.09562 371
9.11573 419
9.13585 367
9.15596 379
9.17608 393
9.19619 443
9.2163 408
9.23642 413
9.25653 395
9.27664 392
9.29676 394
9.31687 399
9.33699 418
9.3571 408
9.37721 427
9.39733 394
9.41744 388
9.43755 415
9.45767 411
9.47778 423
9.4979 405
9.51801 401
9.53812 447
9.55824 397
9.57835 379
9.59846 398
9.61858 380
9.63869 384
9.6588 415
9.67892 411
9.69903 386
9.71915 430
9.73926 402
9.75937 403
9.77949 419
9.7996 418
9.81971 401
9.83983 375
9.85994 368
9.88006 381
9.90017 345
9.92028 420
9.9404 365
9.96051 415
9.98062 421
10.00074 422
10.02085 406
10.04097 381
10.06108 402
10.08119 359
10.10131 375
10.12142 398
10.14153 405
10.16165 395
10.18176 418
10.20187 418
10.22199 399
10.2421 433
10.26222 426
10.28233 398
10.30244 379
10.32256 383
10.34267 339
10.36278 367
10.3829 443
10.40301 409
10.42313 401
10.44324 369
10.46335 378
10.48347 379
10.50358 390
10.52369 433
10.54381 395
10.56392 398
10.58403 373
10.60415 399
10.62426 360
10.64438 398
10.66449 374
10.6846 451
10.70472 404
10.72483 407
10.74494 365
10.76506 433
10.78517 424
10.80529 383
10.8254 404
10.84551 405
10.86563 383
10.88574 413
10.90585 425
10.92597 384
10.94608 429
10.9662 382
10.98631 376
11.00642 382
11.02654 397
11.04665 439
11.06676 405
11.08688 416
11.10699 401
11.1271 414
11.14722 398
11.16733 433
11.18745 409
11.20756 382
11.22767 409
11.24779 381
11.2679 414
11.28801 426
11.30813 408
11.32824 447
11.34836 432
11.36847 393
11.38858 404
11.4087 406
11.42881 433
11.44892 413
11.46904 416
11.48915 364
11.50927 391
11.52938 422
11.54949 411
11.56961 436
11.58972 429
11.60983 411
11.62995 409
11.65006 424
11.67017 466
11.69029 426
11.7104 454
11.73052 407
11.75063 425
11.77074 473
11.79086 476
11.81097 474
11.83108 469
11.8512 460
11.87131 458
11.89143 508
11.91154 509
11.93165 534
11.95177 499
11.97188 551
11.99199 573
12.01211 548
12.03222 582
12.05234 573
12.07245 596
12.09256 564
12.11268 620
12.13279 635
12.1529 695
12.17302 668
12.19313 756
12.21324 741
12.23336 727
12.25347 834
12.27359 834
12.2937 792
12.31381 852
12.33393 835
12.35404 841
12.37415 781
12.39427 771
12.41438 776
12.4345 670
12.45461 728
12.47472 661
12.49484 614
12.51495 590
12.53506 567
12.55518 509
12.57529 472
12.5954 513
12.61552 496
12.63563 485
12.65575 449
12.67586 485
12.69597 454
12.71609 467
12.7362 432
12.75631 448
12.77643 448
12.79654 405
12.81666 413
12.83677 408
12.85688 424
12.877 376
12.89711 423
12.91722 414
12.93734 424
12.95745 407
12.97757 371
12.99768 425
13.01779 424
13.03791 405
13.05802 398
13.07813 400
13.09825 387
13.11836 354
13.13847 414
13.15859 384
13.1787 386
13.19882 386
13.21893 374
13.23904 408
13.25916 385
13.27927 348
13.29938 407
13.3195 375
13.33961 383
13.35973 422
13.37984 397
13.39995 375
13.42007 384
13.44018 377
13.46029 369
13.48041 392
13.50052 377
13.52064 401
13.54075 406
13.56086 393
13.58098 371
13.60109 420
13.6212 426
13.64132 368
13.66143 403
13.68154 397
13.70166 386
13.72177 376
13.74189 354
13.762 371
13.78211 356
13.80223 359
13.82234 377
13.84245 408
13.86257 374
13.88268 368
13.9028 360
13.92291 341
13.94302 326
13.96314 368
13.98325 368
14.00336 362
14.02348 358
14.04359 333
14.06371 364
14.08382 334
14.10393 385
14.12405 343
14.14416 346
14.16427 393
14.18439 372
14.2045 429
14.22461 381
14.24473 389
14.26484 318
14.28496 328
14.30507 404
14.32518 345
14.3453 330
14.36541 367
14.38552 357
14.40564 366
14.42575 378
14.44587 371
14.46598 307
14.48609 394
14.50621 348
14.52632 311
14.54643 374
14.56655 334
14.58666 378
14.60677 320
14.62689 391
14.647 423
14.66712 330
14.68723 401
14.70734 380
14.72746 340
14.74757 356
14.76768 386
14.7878 399
14.80791 358
14.82803 340
14.84814 362
14.86825 381
14.88837 330
14.90848 347
14.92859 348
14.94871 369
14.96882 402
14.98894 405
15.00905 370
15.02916 349
15.04928 333
15.06939 347
15.0895 361
15.10962 363
15.12973 369
15.14984 364
15.16996 378
15.19007 339
15.21019 386
15.2303 330
15.25041 378
15.27053 361
15.29064 364
15.31075 355
15.33087 361
15.35098 353
15.3711 336
15.39121 367
15.41132 344
15.43144 356
15.45155 400
15.47166 356
15.49178 380
15.51189 369
15.53201 370
15.55212 377
15.57223 381
15.59235 366
15.61246 369
15.63257 358
15.65269 351
15.6728 339
15.69291 385
15.71303 360
15.73314 345
15.75326 369
15.77337 352
15.79348 341
15.8136 367
15.83371 372
15.85382 343
15.87394 350
15.89405 378
15.91417 332
15.93428 378
15.95439 343
15.97451 337
15.99462 346
16.01473 338
16.03485 369
16.05496 351
16.07508 356
16.09519 326
16.1153 350
16.13542 350
16.15553 383
16.17564 373
16.19576 346
16.21587 349
16.23598 336
16.2561 356
16.27621 382
16.29633 338
16.31644 361
16.33655 338
16.35667 357
16.37678 384
16.39689 352
16.41701 397
16.43712 345
16.45724 385
16.47735 384
16.49746 397
16.51758 358
16.53769 348
16.5578 368
16.57792 375
16.59803 373
16.61814 375
16.63826 356
16.65837 350
16.67849 360
16.6986 345
16.71871 309
16.73883 347
16.75894 343
16.77905 342
16.79917 405
16.81928 365
16.8394 349
16.85951 342
16.87962 375
16.89974 353
16.91985 371
16.93996 331
16.96008 342
16.98019 376
17.00031 312
17.02042 354
17.04053 359
17.06065 391
17.08076 386
17.10087 353
17.12099 381
17.1411 340
17.16121 356
17.18133 345
17.20144 340
17.22156 375
17.24167 342
17.26178 401
17.2819 359
17.30201 379
17.32212 338
17.34224 320
17.36235 341
17.38247 368
17.40258 346
17.42269 376
17.44281 359
17.46292 361
17.48303 349
17.50315 376
17.52326 367
17.54338 375
17.56349 336
17.5836 347
17.60372 347
17.62383 338
17.64394 407
17.66406 334
17.68417 376
17.70428 432
17.7244 379
17.74451 359
17.76463 364
17.78474 374
17.80485 350
17.82497 372
17.84508 360
17.86519 369
17.88531 351
17.90542 354
17.92554 366
17.94565 392
17.96576 331
17.98588 410
18.00599 376
18.0261 420
18.04622 383
18.06633 390
18.08645 416
18.10656 402
18.12667 456
18.14679 439
18.1669 499
18.18701 502
18.20713 530
18.22724 598
18.24735 585
18.26747 614
18.28758 639
18.3077 602
18.32781 538
18.34792 483
18.36804 446
18.38815 417
18.40826 417
18.42838 391
18.44849 412
18.46861 384
18.48872 365
18.50883 354
18.52895 380
18.54906 360
18.56917 376
18.58929 408
18.6094 354
18.62951 383
18.64963 375
18.66974 378
18.68986 404
18.70997 339
18.73008 354
18.7502 381
18.77031 397
18.79042 363
18.81054 373
18.83065 394
18.85077 368
18.87088 411
18.89099 350
18.91111 369
18.93122 374
18.95133 346
18.97145 369
18.99156 345
19.01168 381
19.03179 371
19.0519 372
19.07202 371
19.09213 390
19.11224 391
19.13236 363
19.15247 362
19.17258 398
19.1927 395
19.21281 364
19.23293 397
19.25304 380
19.27315 394
19.29327 415
19.31338 419
19.33349 362
19.35361 417
19.37372 411
19.39384 370
19.41395 395
19.43406 416
19.45418 427
19.47429 398
19.4944 418
19.51452 381
19.53463 471
19.55475 440
19.57486 461
19.59497 400
19.61509 412
19.6352 450
19.65531 476
19.67543 495
19.69554 513
19.71565 524
19.73577 565
19.75588 567
19.776 622
19.79611 603
19.81622 669
19.83634 675
19.85645 703
19.87656 662
19.89668 687
19.91679 647
19.93691 708
19.95702 618
19.97713 653
19.99725 604
20.01736 599
20.03747 644
20.05759 581
20.0777 661
20.09782 586
20.11793 632
20.13804 565
20.15816 620
20.17827 652
20.19838 635
20.2185 684
20.23861 675
20.25872 708
20.27884 674
20.29895 680
20.31907 667
20.33918 665
20.35929 700
20.37941 667
20.39952 718
20.41963 698
20.43975 699
20.45986 718
20.47998 667
20.50009 678
20.5202 728
20.54032 713
20.56043 762
20.58054 765
20.60066 828
20.62077 860
20.64088 966
20.661 1126
20.68111 1311
20.70123 1569
20.72134 1784
20.74145 2293
20.76157 2446
20.78168 2869
20.80179 3170
20.82191 3397
20.84202 3399
20.86214 3144
20.88225 2669
20.90236 2112
20.92248 1587
20.94259 1220
20.9627 893
20.98282 872
21.00293 763
21.02305 711
21.04316 707
21.06327 692
21.08339 653
21.1035 634
21.12361 666
21.14373 603
21.16384 634
21.18395 635
21.20407 623
21.22418 602
21.2443 608
21.26441 576
21.28452 589
21.30464 630
21.32475 582
21.34486 588
21.36498 594
21.38509 581
21.40521 558
21.42532 605
21.44543 545
21.46555 578
21.48566 560
21.50577 555
21.52589 530
21.546 556
21.56612 524
21.58623 514
21.60634 571
21.62646 554
21.64657 518
21.66668 519
21.6868 538
21.70691 487
21.72702 503
21.74714 517
21.76725 505
21.78737 478
21.80748 514
21.82759 496
21.84771 472
21.86782 526
21.88793 473
21.90805 492
21.92816 505
21.94828 515
21.96839 470
21.9885 498
22.00862 485
22.02873 487
22.04884 481
22.06896 494
22.08907 504
22.10919 507
22.1293 498
22.14941 449
22.16953 490
22.18964 490
22.20975 476
22.22987 505
22.24998 517
22.27009 519
22.29021 453
22.31032 498
22.33044 462
22.35055 482
22.37066 498
22.39078 488
22.41089 458
22.431 472
22.45112 474
22.47123 507
22.49135 498
22.51146 506
22.53157 474
22.55169 484
22.5718 496
22.59191 484
22.61203 474
22.63214 490
22.65225 464
22.67237 513
22.69248 497
22.7126 466
22.73271 485
22.75282 459
22.77294 478
22.79305 491
22.81316 457
22.83328 497
22.85339 512
22.87351 492
22.89362 468
22.91373 443
22.93385 479
22.95396 455
22.97407 478
22.99419 454
23.0143 446
23.03442 483
23.05453 494
23.07464 439
23.09476 431
23.11487 474
23.13498 467
23.1551 489
23.17521 483
23.19532 478
23.21544 465
23.23555 472
23.25567 450
23.27578 444
23.29589 440
23.31601 452
23.33612 468
23.35623 504
23.37635 461
23.39646 466
23.41658 482
23.43669 476
23.4568 465
23.47692 462
23.49703 484
23.51714 458
23.53726 491
23.55737 474
23.57749 490
23.5976 455
23.61771 459
23.63783 461
23.65794 473
23.67805 499
23.69817 496
23.71828 491
23.73839 524
23.75851 504
23.77862 478
23.79874 531
23.81885 442
23.83896 542
23.85908 455
23.87919 526
23.8993 511
23.91942 528
23.93953 532
23.95965 520
23.97976 549
23.99987 582
24.01999 552
24.0401 562
24.06021 550
24.08033 551
24.10044 521
24.12056 555
24.14067 532
24.16078 526
24.1809 523
24.20101 573
24.22112 527
24.24124 546
24.26135 515
24.28146 542
24.30158 552
24.32169 504
24.34181 476
24.36192 495
24.38203 492
24.40215 503
24.42226 530
24.44237 514
24.46249 518
24.4826 564
24.50272 593
24.52283 591
24.54294 557
24.56306 539
24.58317 598
24.60328 563
24.6234 622
24.64351 629
24.66362 640
24.68374 692
24.70385 678
24.72397 710
24.74408 723
24.76419 688
24.78431 716
24.80442 705
24.82453 662
24.84465 727
24.86476 711
24.88488 677
24.90499 651
24.9251 690
24.94522 718
24.96533 648
24.98544 621
25.00556 638
25.02567 652
25.04579 588
25.0659 554
25.08601 594
25.10613 585
25.12624 575
25.14635 542
25.16647 549
25.18658 549
25.20669 534
25.22681 558
25.24692 511
25.26704 526
25.28715 522
25.30726 505
25.32738 567
25.34749 496
25.3676 503
25.38772 493
25.40783 536
25.42795 503
25.44806 527
25.46817 497
25.48829 545
25.5084 491
25.52851 598
25.54863 560
25.56874 560
25.58886 566
25.60897 574
25.62908 527
25.6492 560
25.66931 561
25.68942 565
25.70954 537
25.72965 536
25.74976 505
25.76988 556
25.78999 602
25.81011 584
25.83022 548
25.85033 543
25.87045 529
25.89056 553
25.91067 523
25.93079 575
25.9509 577
25.97102 604
25.99113 581
26.01124 638
26.03136 606
26.05147 616
26.07158 624
26.0917 644
26.11181 719
26.13193 721
26.15204 811
26.17215 776
26.19227 845
26.21238 752
26.23249 854
26.25261 962
26.27272 1069
26.29283 1142
26.31295 1260
26.33306 1506
26.35318 1646
26.37329 1981
26.3934 2528
26.41352 3037
26.43363 3704
26.45374 4614
26.47386 5661
26.49397 7112
26.51409 8591
26.5342 10226
26.55431 11596
26.57443 12870
26.59454 13431
26.61465 13570
26.63477 12077
26.65488 10457
26.67499 8088
26.69511 6082
26.71522 4349
26.73534 2875
26.75545 1897
26.77556 1511
26.79568 1175
26.81579 1056
26.8359 1048
26.85602 929
26.87613 914
26.89625 904
26.91636 866
26.93647 809
26.95659 778
26.9767 732
26.99681 676
27.01693 700
27.03704 620
27.05716 679
27.07727 639
27.09738 630
27.1175 595
27.13761 583
27.15772 625
27.17784 554
27.19795 524
27.21806 583
27.23818 550
27.25829 541
27.27841 508
27.29852 569
27.31863 545
27.33875 582
27.35886 611
27.37897 622
27.39909 613
27.4192 681
27.43932 640
27.45943 697
27.47954 634
27.49966 582
27.51977 588
27.53988 569
27.56 601
27.58011 542
27.60023 512
27.62034 499
27.64045 485
27.66057 489
27.68068 483
27.70079 481
27.72091 456
27.74102 464
27.76113 479
27.78125 440
27.80136 518
27.82148 495
27.84159 498
27.8617 498
27.88182 486
27.90193 467
27.92204 435
27.94216 465
27.96227 454
27.98239 456
28.0025 452
28.02261 443
28.04273 440
28.06284 458
28.08295 455
28.10307 435
28.12318 420
28.1433 443
28.16341 455
28.18352 434
28.20364 462
28.22375 400
28.24386 438
28.26398 449
28.28409 442
28.3042 442
28.32432 453
28.34443 414
28.36455 453
28.38466 427
28.40477 420
28.42489 430
28.445 462
28.46511 393
28.48523 400
28.50534 400
28.52546 442
28.54557 431
28.56568 432
28.5858 436
28.60591 386
28.62602 383
28.64614 418
28.66625 438
28.68636 447
28.70648 424
28.72659 402
28.74671 437
28.76682 409
28.78693 428
28.80705 403
28.82716 440
28.84727 387
28.86739 416
28.8875 376
28.90762 432
28.92773 378
28.94784 422
28.96796 411
28.98807 443
29.00818 410
29.0283 404
29.04841 446
29.06853 435
29.08864 440
29.10875 428
29.12887 444
29.14898 392
29.16909 394
29.18921 423
29.20932 381
29.22943 432
29.24955 397
29.26966 415
29.28978 411
29.30989 409
29.33 393
29.35012 424
29.37023 462
29.39034 399
29.41046 432
29.43057 401
29.45069 438
29.4708 472
29.49091 464
29.51103 385
29.53114 396
29.55125 390
29.57137 400
29.59148 422
29.6116 423
29.63171 409
29.65182 403
29.67194 441
29.69205 472
29.71216 457
29.73228 428
29.75239 403
29.7725 471
29.79262 396
29.81273 429
29.83285 465
29.85296 475
29.87307 508
29.89319 479
29.9133 523
29.93341 508
29.95353 560
29.97364 515
29.99376 541
30.01387 518
30.03398 528
30.0541 545
30.07421 550
30.09432 540
30.11444 458
30.13455 469
30.15467 455
30.17478 499
30.19489 496
30.21501 486
30.23512 458
30.25523 494
30.27535 433
30.29546 397
30.31557 396
30.33569 434
30.3558 412
30.37592 406
30.39603 423
30.41614 440
30.43626 436
30.45637 433
30.47648 418
30.4966 410
30.51671 443
30.53683 394
30.55694 407
30.57705 383
30.59717 422
30.61728 440
30.63739 400
30.65751 461
30.67762 418
30.69773 439
30.71785 446
30.73796 458
30.75808 406
30.77819 410
30.7983 458
30.81842 414
30.83853 433
30.85864 403
30.87876 420
30.89887 413
30.91899 395
30.9391 404
30.95921 361
30.97933 382
30.99944 386
31.01955 397
31.03967 399
31.05978 366
31.0799 372
31.10001 394
31.12012 404
31.14024 374
31.16035 375
31.18046 410
31.20058 397
31.22069 407
31.2408 397
31.26092 375
31.28103 412
31.30115 385
31.32126 403
31.34137 371
31.36149 390
31.3816 393
31.40171 366
31.42183 447
31.44194 383
31.46206 378
31.48217 370
31.50228 395
31.5224 399
31.54251 437
31.56262 388
31.58274 378
31.60285 391
31.62297 388
31.64308 393
31.66319 430
31.68331 425
31.70342 424
31.72353 388
31.74365 418
31.76376 406
31.78387 397
31.80399 404
31.8241 399
31.84422 407
31.86433 397
31.88444 397
31.90456 388
31.92467 426
31.94478 342
31.9649 375
31.98501 422
32.00513 406
32.02524 394
32.04535 400
32.06547 424
32.08558 430
32.10569 395
32.12581 411
32.14592 441
32.16604 379
32.18615 423
32.20626 376
32.22638 416
32.24649 433
32.2666 428
32.28672 443
32.30683 454
32.32694 415
32.34706 435
32.36717 425
32.38729 400
32.4074 391
32.42751 446
32.44763 423
32.46774 411
32.48785 416
32.50797 415
32.52808 387
32.5482 399
32.56831 416
32.58842 407
32.60854 395
32.62865 397
32.64876 464
32.66888 405
32.68899 420
32.7091 438
32.72922 432
32.74933 438
32.76945 448
32.78956 450
32.80967 420
32.82979 434
32.8499 447
32.87001 486
32.89013 490
32.91024 469
32.93036 503
32.95047 501
32.97058 556
32.9907 520
33.01081 559
33.03092 539
33.05104 594
33.07115 574
33.09127 591
33.11138 578
33.13149 576
33.15161 604
33.17172 540
33.19183 584
33.21195 547
33.23206 554
33.25217 531
33.27229 501
33.2924 476
33.31252 452
33.33263 493
33.35274 474
33.37286 413
33.39297 446
33.41308 435
33.4332 432
33.45331 401
33.47343 452
33.49354 424
33.51365 446
33.53377 416
33.55388 408
33.57399 406
33.59411 446
33.61422 399
33.63434 395
33.65445 422
33.67456 401
33.69468 415
33.71479 403
33.7349 426
33.75502 389
33.77513 416
33.79524 391
33.81536 394
33.83547 446
33.85559 417
33.8757 426
33.89581 441
33.91593 432
33.93604 426
33.95615 393
33.97627 372
33.99638 453
34.0165 412
34.03661 436
34.05672 439
34.07684 455
34.09695 443
34.11706 451
34.13718 487
34.15729 505
34.17741 492
34.19752 481
34.21763 468
34.23775 524
34.25786 442
34.27797 449
34.29809 491
34.3182 485
34.33831 452
34.35843 495
34.37854 438
34.39866 473
34.41877 434
34.43888 432
34.459 436
34.47911 461
34.49922 455
34.51934 466
34.53945 471
34.55957 450
34.57968 400
34.59979 450
34.61991 522
34.64002 481
34.66013 481
34.68025 494
34.70036 505
34.72047 501
34.74059 522
34.7607 483
34.78082 579
34.80093 554
34.82104 583
34.84116 573
34.86127 577
34.88138 597
34.9015 617
34.92161 611
34.94173 604
34.96184 659
34.98195 607
35.00207 631
35.02218 602
35.04229 571
35.06241 594
35.08252 575
35.10264 584
35.12275 611
35.14286 623
35.16298 654
35.18309 655
35.2032 703
35.22332 734
35.24343 806
35.26354 797
35.28366 876
35.30377 869
35.32389 885
35.344 895
35.36411 969
35.38423 965
35.40434 950
35.42445 990
35.44457 898
35.46468 920
35.4848 896
35.50491 836
35.52502 766
35.54514 810
35.56525 784
35.58536 769
35.60548 725
35.62559 777
35.64571 722
35.66582 687
35.68593 707
35.70605 712
35.72616 704
35.74627 696
35.76639 644
35.7865 683
35.80661 668
35.82673 597
35.84684 595
35.86696 627
35.88707 568
35.90718 580
35.9273 573
35.94741 528
35.96752 517
35.98764 548
36.00775 552
36.02787 535
36.04798 509
36.06809 495
36.08821 489
36.10832 494
36.12843 534
36.14855 515
36.16866 484
36.18878 540
36.20889 545
36.229 552
36.24912 589
36.26923 608
36.28934 641
36.30946 669
36.32957 744
36.34968 764
36.3698 840
36.38991 913
36.41003 983
36.43014 1128
36.45025 1211
36.47037 1258
36.49048 1201
36.51059 1269
36.53071 1243
36.55082 1065
36.57094 1002
36.59105 937
36.61116 817
36.63128 737
36.65139 645
36.6715 604
36.69162 504
36.71173 511
36.73184 548
36.75196 451
36.77207 517
36.79219 454
36.8123 463
36.83241 476
36.85253 465
36.87264 505
36.89275 493
36.91287 456
36.93298 493
36.9531 506
36.97321 491
36.99332 472
37.01344 509
37.03355 522
37.05366 492
37.07378 509
37.09389 496
37.11401 501
37.13412 494
37.15423 485
37.17435 479
37.19446 411
37.21457 416
37.23469 466
37.2548 444
37.27491 481
37.29503 467
37.31514 417
37.33526 442
37.35537 450
37.37548 426
37.3956 449
37.41571 463
37.43582 464
37.45594 425
37.47605 489
37.49617 479
37.51628 456
37.53639 484
37.55651 510
37.57662 484
37.59673 492
37.61685 481
37.63696 459
37.65708 472
37.67719 462
37.6973 437
37.71742 462
37.73753 465
37.75764 439
37.77776 487
37.79787 439
37.81798 464
37.8381 457
37.85821 425
37.87833 472
37.89844 481
37.91855 479
37.93867 489
37.95878 427
37.97889 465
37.99901 445
38.01912 481
38.03924 470
38.05935 479
38.07946 495
38.09958 495
38.11969 480
38.1398 502
38.15992 528
38.18003 528
38.20015 506
38.22026 529
38.24037 530
38.26049 529
38.2806 524
38.30071 519
38.32083 562
38.34094 570
38.36105 571
38.38117 501
38.40128 529
38.4214 553
38.44151 539
38.46162 549
38.48174 566
38.50185 543
38.52196 486
38.54208 521
38.56219 530
38.58231 482
38.60242 504
38.62253 526
38.64265 525
38.66276 487
38.68287 440
38.70299 515
38.7231 513
38.74321 512
38.76333 489
38.78344 503
38.80356 470
38.82367 497
38.84378 523
38.8639 486
38.88401 489
38.90412 482
38.92424 485
38.94435 501
38.96447 517
38.98458 496
39.00469 544
39.02481 554
39.04492 547
39.06503 551
39.08515 512
39.10526 526
39.12538 543
39.14549 581
39.1656 535
39.18572 640
39.20583 670
39.22594 678
39.24606 763
39.26617 794
39.28628 889
39.3064 877
39.32651 948
39.34663 1020
39.36674 1110
39.38685 1207
39.40697 1249
39.42708 1176
39.44719 1149
39.46731 1136
39.48742 937
39.50754 831
39.52765 769
39.54776 752
39.56788 700
39.58799 562
39.6081 525
39.62822 494
39.64833 502
39.66845 461
39.68856 439
39.70867 440
39.72879 432
39.7489 444
39.76901 447
39.78913 459
39.80924 389
39.82935 470
39.84947 441
39.86958 478
39.8897 430
39.90981 418
39.92992 451
39.95004 488
39.97015 493
39.99026 507
40.01038 471
40.03049 455
40.05061 568
40.07072 535
40.09083 566
40.11095 596
40.13106 661
40.15117 641
40.17129 678
40.1914 734
40.21152 756
40.23163 743
40.25174 778
40.27186 718
40.29197 715
40.31208 675
40.3322 627
40.35231 599
40.37242 562
40.39254 513
40.41265 485
40.43277 479
40.45288 438
40.47299 436
40.49311 433
40.51322 434
40.53333 422
40.55345 445
40.57356 472
40.59368 467
40.61379 426
40.6339 454
40.65402 468
40.67413 406
40.69424 451
40.71436 422
40.73447 435
40.75458 477
40.7747 472
40.79481 494
40.81493 450
40.83504 471
40.85515 473
40.87527 478
40.89538 437
40.91549 467
40.93561 434
40.95572 448
40.97584 437
40.99595 418
41.01606 449
41.03618 447
41.05629 440
41.0764 414
41.09652 401
41.11663 426
41.13675 404
41.15686 419
41.17697 443
41.19709 399
41.2172 428
41.23731 395
41.25743 422
41.27754 403
41.29765 422
41.31777 437
41.33788 402
41.358 426
41.37811 383
41.39822 426
41.41834 423
41.43845 409
41.45856 429
41.47868 400
41.49879 424
41.51891 442
41.53902 410
41.55913 414
41.57925 416
41.59936 428
41.61947 439
41.63959 436
41.6597 448
41.67982 419
41.69993 436
41.72004 400
41.74016 432
41.76027 424
41.78038 424
41.8005 458
41.82061 461
41.84072 421
41.86084 369
41.88095 419
41.90107 413
41.92118 389
41.94129 408
41.96141 428
41.98152 416
42.00163 399
42.02175 427
42.04186 452
42.06198 460
42.08209 441
42.1022 436
42.12232 473
42.14243 454
42.16254 481
42.18266 486
42.20277 521
42.22289 569
42.243 631
42.26311 673
42.28323 697
42.30334 738
42.32345 755
42.34357 861
42.36368 860
42.38379 936
42.40391 876
42.42402 847
42.44414 854
42.46425 833
42.48436 722
42.50448 716
42.52459 648
42.5447 574
42.56482 519
42.58493 475
42.60505 430
42.62516 406
42.64527 432
42.66539 408
42.6855 395
42.70561 396
42.72573 417
42.74584 411
42.76595 418
42.78607 439
42.80618 409
42.8263 419
42.84641 436
42.86652 431
42.88664 429
42.90675 420
42.92686 447
42.94698 422
42.96709 449
42.98721 443
43.00732 455
43.02743 452
43.04755 441
43.06766 428
43.08777 463
43.10789 418
43.128 427
43.14812 404
43.16823 370
43.18834 388
43.20846 376
43.22857 393
43.24868 332
43.2688 402
43.28891 381
43.30902 393
43.32914 380
43.34925 393
43.36937 390
43.38948 380
43.40959 411
43.42971 366
43.44982 361
43.46993 378
43.49005 397
43.51016 401
43.53028 360
43.55039 376
43.5705 371
43.59062 394
43.61073 361
43.63084 354
43.65096 365
43.67107 368
43.69119 386
43.7113 370
43.73141 357
43.75153 353
43.77164 362
43.79175 380
43.81187 358
43.83198 387
43.85209 369
43.87221 413
43.89232 377
43.91244 389
43.93255 407
43.95266 377
43.97278 417
43.99289 362
44.013 390
44.03312 414
44.05323 365
44.07335 383
44.09346 393
44.11357 377
44.13369 359
44.1538 401
44.17391 373
44.19403 388
44.21414 353
44.23426 402
44.25437 369
44.27448 381
44.2946 376
44.31471 415
44.33482 435
44.35494 353
44.37505 354
44.39516 414
44.41528 359
44.43539 390
44.45551 368
44.47562 396
44.49573 401
44.51585 421
44.53596 389
44.55607 371
44.57619 390
44.5963 374
44.61642 362
44.63653 371
44.65664 408
44.67676 383
44.69687 385
44.71698 424
44.7371 374
44.75721 378
44.77732 334
44.79744 369
44.81755 399
44.83767 395
44.85778 357
44.87789 371
44.89801 410
44.91812 389
44.93823 409
44.95835 376
44.97846 412
44.99858 385
45.01869 432
45.0388 385
45.05892 413
45.07903 417
45.09914 389
45.11926 387
45.13937 409
45.15949 398
45.1796 402
45.19971 382
45.21983 433
45.23994 439
45.26005 414
45.28017 447
45.30028 433
45.32039 445
45.34051 428
45.36062 443
45.38074 426
45.40085 451
45.42096 485
45.44108 472
45.46119 453
45.4813 515
45.50142 494
45.52153 492
45.54165 520
45.56176 544
45.58187 569
45.60199 574
45.6221 565
45.64221 678
45.66233 669
45.68244 678
45.70256 712
45.72267 763
45.74278 712
45.7629 731
45.78301 672
45.80312 658
45.82324 615
45.84335 596
45.86346 602
45.88358 526
45.90369 534
45.92381 468
45.94392 480
45.96403 432
45.98415 406
46.00426 412
46.02437 436
46.04449 423
46.0646 359
46.08472 410
46.10483 377
46.12494 400
46.14506 424
46.16517 379
46.18528 403
46.2054 377
46.22551 377
46.24563 426
46.26574 390
46.28585 378
46.30597 425
46.32608 348
46.34619 375
46.36631 392
46.38642 368
46.40653 386
46.42665 372
46.44676 359
46.46688 377
46.48699 396
46.5071 380
46.52722 360
46.54733 375
46.56744 391
46.58756 384
46.60767 360
46.62779 395
46.6479 359
46.66801 424
46.68813 384
46.70824 362
46.72835 353
46.74847 386
46.76858 389
46.78869 371
46.80881 400
46.82892 377
46.84904 399
46.86915 387
46.88926 390
46.90938 388
46.92949 379
46.9496 347
46.96972 438
46.98983 410
47.00995 393
47.03006 344
47.05017 383
47.07029 393
47.0904 372
47.11051 375
47.13063 394
47.15074 395
47.17086 377
47.19097 404
47.21108 389
47.2312 369
47.25131 375
47.27142 369
47.29154 371
47.31165 398
47.33176 399
47.35188 376
47.37199 369
47.39211 392
47.41222 415
47.43233 349
47.45245 363
47.47256 366
47.49267 365
47.51279 385
47.5329 362
47.55302 392
47.57313 390
47.59324 409
47.61336 372
47.63347 375
47.65358 398
47.6737 367
47.69381 376
47.71393 359
47.73404 419
47.75415 384
47.77427 373
47.79438 376
47.81449 343
47.83461 384
47.85472 374
47.87483 374
47.89495 393
47.91506 377
47.93518 361
47.95529 358
47.9754 366
47.99552 376
48.01563 378
48.03574 362
48.05586 393
48.07597 365
48.09609 367
48.1162 383
48.13631 352
48.15643 365
48.17654 401
48.19665 360
48.21677 373
48.23688 362
48.257 352
48.27711 359
48.29722 363
48.31734 391
48.33745 359
48.35756 406
48.37768 346
48.39779 402
48.4179 406
48.43802 397
48.45813 408
48.47825 398
48.49836 365
48.51847 392
48.53859 372
48.5587 407
48.57881 400
48.59893 397
48.61904 387
48.63916 388
48.65927 396
48.67938 378
48.6995 363
48.71961 385
48.73972 379
48.75984 369
48.77995 393
48.80006 405
48.82018 396
48.84029 391
48.86041 352
48.88052 403
48.90063 371
48.92075 406
48.94086 369
48.96097 384
48.98109 419
49.0012 361
49.02132 402
49.04143 395
49.06154 390
49.08166 380
49.10177 381
49.12188 439
49.142 407
49.16211 398
49.18223 420
49.20234 412
49.22245 427
49.24257 436
49.26268 435
49.28279 452
49.30291 399
49.32302 430
49.34313 475
49.36325 446
49.38336 432
49.40348 449
49.42359 441
49.4437 419
49.46382 452
49.48393 471
49.50404 458
49.52416 466
49.54427 425
49.56439 433
49.5845 429
49.60461 463
49.62473 427
49.64484 481
49.66495 486
49.68507 451
49.70518 456
49.7253 466
49.74541 552
49.76552 518
49.78564 541
49.80575 580
49.82586 597
49.84598 640
49.86609 728
49.8862 765
49.90632 872
49.92643 959
49.94655 1081
49.96666 1075
49.98677 1250
50.00689 1385
50.027 1509
50.04711 1595
50.06723 1653
50.08734 1696
50.10746 1620
50.12757 1452
50.14768 1338
50.1678 1184
50.18791 1034
50.20802 957
50.22814 914
50.24825 839
50.26837 787
50.28848 651
50.30859 568
50.32871 478
50.34882 453
50.36893 488
50.38905 458
50.40916 448
50.42927 478
50.44939 475
50.4695 490
50.48962 459
50.50973 423
50.52984 451
50.54996 476
50.57007 457
50.59018 451
50.6103 434
50.63041 414
50.65053 442
50.67064 408
50.69075 402
50.71087 410
50.73098 394
50.75109 396
50.77121 373
50.79132 408
50.81143 365
50.83155 405
50.85166 382
50.87178 357
50.89189 384
50.912 397
50.93212 404
50.95223 391
50.97234 406
50.99246 399
51.01257 379
51.03269 356
51.0528 371
51.07291 361
51.09303 400
51.11314 385
51.13325 346
51.15337 411
51.17348 384
51.1936 382
51.21371 381
51.23382 385
51.25394 364
51.27405 347
51.29416 359
51.31428 368
51.33439 336
51.3545 325
51.37462 348
51.39473 331
51.41485 358
51.43496 331
51.45507 376
51.47519 339
51.4953 360
51.51541 323
51.53553 363
51.55564 348
51.57576 354
51.59587 351
51.61598 358
51.6361 375
51.65621 333
51.67632 350
51.69644 339
51.71655 316
51.73667 335
51.75678 353
51.77689 366
51.79701 376
51.81712 368
51.83723 382
51.85735 345
51.87746 354
51.89757 365
51.91769 334
51.9378 335
51.95792 373
51.97803 361
51.99814 359
52.01826 375
52.03837 352
52.05848 371
52.0786 362
52.09871 362
52.11883 384
52.13894 348
52.15905 352
52.17917 361
52.19928 394
52.21939 350
52.23951 397
52.25962 345
52.27974 367
52.29985 335
52.31996 351
52.34008 386
52.36019 373
52.3803 364
52.40042 380
52.42053 376
52.44064 344
52.46076 348
52.48087 362
52.50099 364
52.5211 377
52.54121 360
52.56133 329
52.58144 362
52.60155 379
52.62167 393
52.64178 371
52.6619 365
52.68201 380
52.70212 361
52.72224 341
52.74235 377
52.76246 365
52.78258 343
52.80269 375
52.8228 390
52.84292 369
52.86303 356
52.88315 350
52.90326 348
52.92337 369
52.94349 378
52.9636 369
52.98371 381
53.00383 363
53.02394 393
53.04406 351
53.06417 386
53.08428 349
53.1044 384
53.12451 383
53.14462 383
53.16474 388
53.18485 358
53.20497 409
53.22508 393
53.24519 387
53.26531 379
53.28542 392
53.30553 381
53.32565 418
53.34576 410
53.36587 376
53.38599 419
53.4061 404
53.42622 403
53.44633 389
53.46644 414
53.48656 408
53.50667 395
53.52678 385
53.5469 415
53.56701 436
53.58713 388
53.60724 413
53.62735 424
53.64747 422
53.66758 444
53.68769 425
53.70781 405
53.72792 401
53.74804 447
53.76815 395
53.78826 412
53.80838 442
53.82849 461
53.8486 454
53.86872 470
53.88883 463
53.90894 450
53.92906 471
53.94917 453
53.96929 474
53.9894 508
54.00951 477
54.02963 465
54.04974 523
54.06985 465
54.08997 488
54.11008 440
54.1302 464
54.15031 511
54.17042 500
54.19054 518
54.21065 488
54.23076 469
54.25088 486
54.27099 461
54.29111 458
54.31122 450
54.33133 461
54.35145 453
54.37156 449
54.39167 453
54.41179 450
54.4319 516
54.45201 484
54.47213 494
54.49224 454
54.51236 493
54.53247 499
54.55258 467
54.5727 511
54.59281 562
54.61292 544
54.63304 602
54.65315 552
54.67327 603
54.69338 619
54.71349 635
54.73361 743
54.75372 724
54.77383 739
54.79395 801
54.81406 782
54.83417 798
54.85429 783
54.8744 743
54.89452 674
54.91463 628
54.93474 618
54.95486 629
54.97497 625
54.99508 583
55.0152 563
55.03531 569
55.05543 535
55.07554 532
55.09565 511
55.11577 540
55.13588 561
55.15599 565
55.17611 579
55.19622 576
55.21634 534
55.23645 578
55.25656 568
55.27668 539
55.29679 559
55.3169 570
55.33702 581
55.35713 526
55.37724 490
55.39736 454
55.41747 471
55.43759 503
55.4577 461
55.47781 463
55.49793 425
55.51804 455
55.53815 434
55.55827 397
55.57838 406
55.5985 395
55.61861 401
55.63872 417
55.65884 407
55.67895 416
55.69906 381
55.71918 410
55.73929 412
55.75941 412
55.77952 384
55.79963 410
55.81975 390
55.83986 424
55.85997 366
55.88009 392
55.9002 364
55.92031 383
55.94043 427
55.96054 415
55.98066 409
56.00077 403
56.02088 392
56.041 402
56.06111 364
56.08122 405
56.10134 445
56.12145 365
56.14157 364
56.16168 402
56.18179 417
56.20191 377
56.22202 368
56.24213 384
56.26225 420
56.28236 400
56.30248 375
56.32259 416
56.3427 399
56.36282 398
56.38293 412
56.40304 406
56.42316 407
56.44327 428
56.46338 361
56.4835 411
56.50361 425
56.52373 415
56.54384 393
56.56395 390
56.58407 431
56.60418 392
56.62429 435
56.64441 416
56.66452 432
56.68464 420
56.70475 434
56.72486 458
56.74498 460
56.76509 436
56.7852 452
56.80532 465
56.82543 433
56.84554 470
56.86566 470
56.88577 468
56.90589 472
56.926 477
56.94611 457
56.96623 440
56.98634 457
57.00645 452
57.02657 463
57.04668 452
57.0668 455
57.08691 411
57.10702 417
57.12714 436
57.14725 403
57.16736 430
57.18748 399
57.20759 421
57.22771 461
57.24782 423
57.26793 398
57.28805 416
57.30816 381
57.32827 407
57.34839 427
57.3685 388
57.38861 387
57.40873 430
57.42884 371
57.44896 371
57.46907 395
57.48918 400
57.5093 409
57.52941 369
57.54952 385
57.56964 396
57.58975 384
57.60987 379
57.62998 379
57.65009 380
57.67021 387
57.69032 381
57.71043 350
57.73055 402
57.75066 404
57.77078 375
57.79089 375
57.811 357
57.83112 382
57.85123 388
57.87134 372
57.89146 361
57.91157 366
57.93168 348
57.9518 364
57.97191 372
57.99203 393
58.01214 380
58.03225 351
58.05237 350
58.07248 368
58.09259 345
58.11271 383
58.13282 372
58.15294 371
58.17305 337
58.19316 338
58.21328 354
58.23339 345
58.2535 389
58.27362 371
58.29373 363
58.31385 339
58.33396 378
58.35407 344
58.37419 398
58.3943 349
58.41441 341
58.43453 369
58.45464 365
58.47475 410
58.49487 384
58.51498 402
58.5351 366
58.55521 376
58.57532 354
58.59544 357
58.61555 351
58.63566 366
58.65578 366
58.67589 379
58.69601 349
58.71612 402
58.73623 352
58.75635 389
58.77646 366
58.79657 339
58.81669 370
58.8368 361
58.85691 357
58.87703 328
58.89714 371
58.91726 383
58.93737 359
58.95748 350
58.9776 375
58.99771 363
59.01782 396
59.03794 354
59.05805 376
59.07817 356
59.09828 369
59.11839 344
59.13851 333
59.15862 363
59.17873 360
59.19885 377
59.21896 379
59.23908 392
59.25919 399
59.2793 400
59.29942 401
59.31953 403
59.33964 394
59.35976 354
59.37987 402
59.39998 395
59.4201 366
59.44021 409
59.46033 427
59.48044 446
59.50055 412
59.52067 459
59.54078 442
59.56089 472
59.58101 497
59.60112 514
59.62124 543
59.64135 546
59.66146 602
59.68158 669
59.70169 686
59.7218 722
59.74192 757
59.76203 781
59.78215 881
59.80226 948
59.82237 979
59.84249 1149
59.8626 1163
59.88271 1117
59.90283 1095
59.92294 1117
59.94305 1063
59.96317 941
59.98328 895
60.0034 820
60.02351 795
60.04362 784
60.06374 778
60.08385 755
60.10396 662
60.12408 620
60.14419 545
60.16431 493
60.18442 462
60.20453 450
60.22465 420
60.24476 450
60.26487 420
60.28499 424
60.3051 460
60.32522 428
60.34533 426
60.36544 396
60.38556 439
60.40567 425
60.42578 416
60.4459 414
60.46601 388
60.48612 409
60.50624 414
60.52635 388
60.54647 382
60.56658 391
60.58669 389
60.60681 376
60.62692 373
60.64703 372
60.66715 364
60.68726 371
60.70738 362
60.72749 376
60.7476 363
60.76772 374
60.78783 370
60.80794 374
60.82806 370
60.84817 358
60.86828 397
60.8884 389
60.90851 357
60.92863 376
60.94874 364
60.96885 380
60.98897 379
61.00908 382
61.02919 362
61.04931 387
61.06942 344
61.08954 399
61.10965 386
61.12976 401
61.14988 378
61.16999 379
61.1901 386
61.21022 426
61.23033 353
61.25045 377
61.27056 372
61.29067 381
61.31079 345
61.3309 364
61.35101 379
61.37113 406
61.39124 385
61.41135 351
61.43147 388
61.45158 381
61.4717 389
61.49181 358
61.51192 400
61.53204 415
61.55215 373
61.57226 385
61.59238 407
61.61249 386
61.63261 389
61.65272 385
61.67283 405
61.69295 333
61.71306 390
61.73317 424
61.75329 392
61.7734 408
61.79352 388
61.81363 407
61.83374 414
61.85386 395
61.87397 410
61.89408 418
61.9142 447
61.93431 412
61.95442 454
61.97454 447
61.99465 475
62.01477 432
62.03488 502
62.05499 460
62.07511 521
62.09522 494
62.11533 483
62.13545 506
62.15556 491
62.17568 521
62.19579 518
62.2159 580
62.23602 560
62.25613 528
62.27624 540
62.29636 576
62.31647 560
62.33659 566
62.3567 568
62.37681 569
62.39693 520
62.41704 580
62.43715 563
62.45727 514
62.47738 581
62.49749 528
62.51761 519
62.53772 513
62.55784 512
62.57795 488
62.59806 498
62.61818 508
62.63829 488
62.6584 467
62.67852 433
62.69863 465
62.71875 424
62.73886 450
62.75897 427
62.77909 383
62.7992 437
62.81931 434
62.83943 387
62.85954 407
62.87965 395
62.89977 399
62.91988 382
62.94 386
62.96011 393
62.98022 401
63.00034 378
63.02045 374
63.04056 430
63.06068 385
63.08079 389
63.10091 343
63.12102 374
63.14113 406
63.16125 361
63.18136 388
63.20147 417
63.22159 380
63.2417 408
63.26182 407
63.28193 357
63.30204 396
63.32216 367
63.34227 350
63.36238 394
63.3825 410
63.40261 362
63.42272 396
63.44284 382
63.46295 354
63.48307 370
63.50318 369
63.52329 377
63.54341 444
63.56352 414
63.58363 382
63.60375 398
63.62386 406
63.64398 408
63.66409 422
63.6842 443
63.70432 436
63.72443 423
63.74454 425
63.76466 432
63.78477 461
63.80489 503
63.825 507
63.84511 525
63.86523 506
63.88534 529
63.90545 524
63.92557 536
63.94568 565
63.96579 590
63.98591 539
64.00602 523
64.02614 569
64.04625 503
64.06636 487
64.08648 480
64.10659 475
64.1267 509
64.14682 489
64.16693 492
64.18705 437
64.20716 439
64.22727 411
64.24739 426
64.2675 390
64.28761 371
64.30773 373
64.32784 377
64.34796 411
64.36807 391
64.38818 359
64.4083 370
64.42841 410
64.44852 370
64.46864 379
64.48875 383
64.50886 355
64.52898 373
64.54909 363
64.56921 373
64.58932 366
64.60943 377
64.62955 364
64.64966 352
64.66977 352
64.68989 371
64.71 364
64.73012 333
64.75023 367
64.77034 380
64.79046 356
64.81057 342
64.83068 345
64.8508 371
64.87091 349
64.89102 344
64.91114 380
64.93125 359
64.95137 333
64.97148 372
64.99159 369
65.01171 382
65.03182 362
65.05193 342
65.07205 351
65.09216 365
65.11228 339
65.13239 342
65.1525 379
65.17262 364
65.19273 356
65.21284 353
65.23296 351
65.25307 368
65.27319 362
65.2933 334
65.31341 342
65.33353 341
65.35364 375
65.37375 329
65.39387 352
65.41398 389
65.43409 368
65.45421 387
65.47432 333
65.49444 336
65.51455 362
65.53466 423
65.55478 393
65.57489 383
65.595 335
65.61512 366
65.63523 373
65.65535 368
65.67546 351
65.69557 388
65.71569 372
65.7358 372
65.75591 387
65.77603 409
65.79614 348
65.81626 397
65.83637 383
65.85648 392
65.8766 386
65.89671 336
65.91682 383
65.93694 359
65.95705 370
65.97716 340
65.99728 348
66.01739 353
66.03751 346
66.05762 345
66.07773 339
66.09785 333
66.11796 364
66.13807 332
66.15819 372
66.1783 372
66.19842 363
66.21853 361
66.23864 339
66.25876 336
66.27887 372
66.29898 372
66.3191 367
66.33921 355
66.35933 339
66.37944 328
66.39955 359
66.41967 349
66.43978 346
66.45989 348
66.48001 398
66.50012 371
66.52023 341
66.54035 353
66.56046 336
66.58058 340
66.60069 347
66.6208 347
66.64092 355
66.66103 383
66.68114 357
66.70126 338
66.72137 353
66.74149 361
66.7616 345
66.78171 403
66.80183 343
66.82194 345
66.84205 375
66.86217 391
66.88228 336
66.90239 353
66.92251 326
66.94262 353
66.96274 343
66.98285 357
67.00296 378
67.02308 377
67.04319 367
67.0633 368
67.08342 376
67.10353 377
67.12365 370
67.14376 411
67.16387 394
67.18399 340
67.2041 401
67.22421 369
67.24433 367
67.26444 365
67.28456 422
67.30467 385
67.32478 365
67.3449 422
67.36501 427
67.38512 447
67.40524 454
67.42535 504
67.44546 537
67.46558 515
67.48569 501
67.50581 553
67.52592 600
67.54603 591
67.56615 716
67.58626 690
67.60637 763
67.62649 796
67.6466 811
67.66672 848
67.68683 791
67.70694 873
67.72706 831
67.74717 808
67.76728 735
67.7874 724
67.80751 746
67.82763 732
67.84774 723
67.86785 740
67.88797 832
67.90808 809
67.92819 847
67.94831 845
67.96842 841
67.98853 845
68.00865 882
68.02876 1005
68.04888 991
68.06899 1017
68.0891 998
68.10922 1010
68.12933 991
68.14944 953
68.16956 999
68.18967 961
68.20979 920
68.2299 958
68.25001 924
68.27013 924
68.29024 826
68.31035 767
68.33047 731
68.35058 626
68.3707 571
68.39081 568
68.41092 537
68.43104 519
68.45115 472
68.47126 512
68.49138 477
68.51149 423
68.5316 423
68.55172 393
68.57183 353
68.59195 390
68.61206 372
68.63217 394
68.65229 411
68.6724 376
68.69251 366
68.71263 407
68.73274 342
68.75286 375
68.77297 376
68.79308 384
68.8132 373
68.83331 395
68.85342 403
68.87354 352
68.89365 352
68.91376 322
68.93388 338
68.95399 357
68.97411 327
68.99422 362
69.01433 340
69.03445 351
69.05456 348
69.07467 356
69.09479 344
69.1149 380
69.13502 346
69.15513 352
69.17524 323
69.19536 352
69.21547 368
69.23558 357
69.2557 349
69.27581 355
69.29593 338
69.31604 383
69.33615 349
69.35627 340
69.37638 352
69.39649 341
69.41661 309
69.43672 393
69.45683 324
69.47695 350
69.49706 337
69.51718 312
69.53729 342
69.5574 348
69.57752 329
69.59763 342
69.61774 366
69.63786 381
69.65797 336
69.67809 387
69.6982 321
69.71831 335
69.73843 358
69.75854 341
69.77865 329
69.79877 369
69.81888 335
69.839 350
69.85911 343
69.87922 363
69.89934 359
69.91945 372
69.93956 336
69.95968 312
69.97979 352
69.9999 352
70.02002 370
70.04013 336
70.06025 351
70.08036 349
70.10047 331
70.12059 367
70.1407 359
70.16081 337
70.18093 351
70.20104 375
70.22116 359
70.24127 374
70.26138 340
70.2815 349
70.30161 366
70.32172 353
70.34184 355
70.36195 334
70.38207 357
70.40218 312
70.42229 351
70.44241 347
70.46252 365
70.48263 345
70.50275 309
70.52286 360
70.54297 321
70.56309 317
70.5832 325
70.60332 331
70.62343 355
70.64354 358
70.66366 346
70.68377 371
70.70388 311
70.724 359
70.74411 343
70.76423 337
70.78434 381
70.80445 327
70.82457 341
70.84468 335
70.86479 325
70.88491 336
70.90502 347
70.92513 334
70.94525 324
70.96536 361
70.98548 359
71.00559 331
71.0257 342
71.04582 381
71.06593 337
71.08604 339
71.10616 335
71.12627 312
71.14639 394
71.1665 354
71.18661 317
71.20673 378
71.22684 330
71.24695 339
71.26707 368
71.28718 347
71.3073 373
71.32741 361
71.34752 366
71.36764 378
71.38775 327
71.40786 361
71.42798 341
71.44809 347
71.4682 340
71.48832 339
71.50843 349
71.52855 376
71.54866 347
71.56877 342
71.58889 381
71.609 374
71.62911 350
71.64923 325
71.66934 371
71.68946 366
71.70957 379
71.72968 375
71.7498 351
71.76991 355
71.79002 352
71.81014 391
71.83025 394
71.85037 377
71.87048 325
71.89059 358
71.91071 354
71.93082 361
71.95093 329
71.97105 367
71.99116 368
72.01127 350
72.03139 355
72.0515 379
72.07162 350
72.09173 348
72.11184 356
72.13196 343
72.15207 368
72.17218 343
72.1923 386
72.21241 337
72.23253 368
72.25264 330
72.27275 380
72.29287 381
72.31298 346
72.33309 325
72.35321 353
72.37332 350
72.39344 333
72.41355 345
72.43366 355
72.45378 349
72.47389 356
72.494 338
72.51412 361
72.53423 362
72.55434 343
72.57446 348
72.59457 367
72.61469 352
72.6348 352
72.65491 331
72.67503 323
72.69514 341
72.71525 348
72.73537 347
72.75548 333
72.7756 356
72.79571 365
72.81582 339
72.83594 356
72.85605 369
72.87616 364
72.89628 348
72.91639 355
72.9365 387
72.95662 345
72.97673 368
72.99685 353
73.01696 388
73.03707 336
73.05719 379
73.0773 368
73.09741 383
73.11753 401
73.13764 389
73.15776 337
73.17787 423
73.19798 427
73.2181 429
73.23821 443
73.25832 437
73.27844 479
73.29855 471
73.31867 454
73.33878 458
73.35889 516
73.37901 512
73.39912 520
73.41923 493
73.43935 500
73.45946 532
73.47957 466
73.49969 444
73.5198 439
73.53992 418
73.56003 430
73.58014 441
73.60026 439
73.62037 393
73.64048 449
73.6606 388
73.68071 380
73.70083 421
73.72094 397
73.74105 394
73.76117 378
73.78128 388
73.80139 372
73.82151 361
73.84162 343
73.86174 363
73.88185 376
73.90196 327
73.92208 382
73.94219 355
73.9623 318
73.98242 371
74.00253 331
74.02264 356
74.04276 345
74.06287 336
74.08299 325
74.1031 348
74.12321 331
74.14333 339
74.16344 342
74.18355 346
74.20367 355
74.22378 317
74.2439 310
74.26401 336
74.28412 341
74.30424 344
74.32435 388
74.34446 336
74.36458 359
74.38469 311
74.40481 290
74.42492 365
74.44503 352
74.46515 336
74.48526 345
74.50537 321
74.52549 369
74.5456 355
74.56571 345
74.58583 352
74.60594 337
74.62606 300
74.64617 365
74.66628 366
74.6864 330
74.70651 367
74.72662 340
74.74674 372
74.76685 362
74.78697 349
74.80708 365
74.82719 349
74.84731 365
74.86742 345
74.88753 362
74.90765 335
74.92776 362
74.94787 323
74.96799 322
74.9881 344
75.00822 356
