3.00117 21229
3.02128 20391
3.0414 20235
3.06151 19347
3.08162 18594
3.10174 18622
3.12185 17834
3.14197 17410
3.16208 16577
3.18219 16387
3.20231 15895
3.22242 15182
3.24253 15084
3.26265 14388
3.28276 13756
3.30288 13591
3.32299 12977
3.3431 12651
3.36322 12270
3.38333 11802
3.40344 11626
3.42356 10875
3.44367 10884
3.46379 10028
3.4839 10108
3.50401 9563
3.52413 9286
3.54424 9140
3.56435 8621
3.58447 8390
3.60458 7924
3.62469 7663
3.64481 7837
3.66492 6873
3.68504 6873
3.70515 6811
3.72526 6363
3.74538 6160
3.76549 5852
3.7856 5454
3.80572 5394
3.82583 5124
3.84595 4872
3.86606 4779
3.88617 4502
3.90629 4331
3.9264 4154
3.94651 4003
3.96663 3716
3.98674 3576
4.00686 3521
4.02697 3255
4.04708 3168
4.0672 2918
4.08731 2772
4.10742 2775
4.12754 2687
4.14765 2584
4.16776 2265
4.18788 2351
4.20799 2174
4.22811 2148
4.24822 2148
4.26833 2049
4.28845 1886
4.30856 1861
4.32867 1777
4.34879 1751
4.3689 1595
4.38902 1613
4.40913 1594
4.42924 1592
4.44936 1495
4.46947 1381
4.48958 1314
4.5097 1428
4.52981 1301
4.54992 1307
4.57004 1275
4.59015 1166
4.61027 1176
4.63038 1157
4.65049 1159
4.67061 1156
4.69072 1066
4.71083 1046
4.73095 1007
4.75106 988
4.77118 992
4.79129 919
4.8114 917
4.83152 948
4.85163 918
4.87174 804
4.89186 910
4.91197 892
4.93209 833
4.9522 772
4.97231 772
4.99243 746
5.01254 779
5.03265 790
5.05277 719
5.07288 719
5.09299 700
5.11311 665
5.13322 624
5.15334 615
5.17345 623
5.19356 578
5.21368 596
5.23379 612
5.2539 519
5.27402 544
5.29413 522
5.31425 512
5.33436 530
5.35447 482
5.37459 499
5.3947 528
5.41481 439
5.43493 501
5.45504 420
5.47516 455
5.49527 437
5.51538 422
5.5355 426
5.55561 415
5.57572 394
5.59584 425
5.61595 396
5.63606 421
5.65618 337
5.67629 383
5.69641 303
5.71652 387
5.73663 331
5.75675 333
5.77686 362
5.79697 320
5.81709 311
5.8372 341
5.85732 308
5.87743 319
5.89754 314
5.91766 324
5.93777 321
5.95788 326
5.978 328
5.99811 265
6.01823 291
6.03834 290
6.05845 280
6.07857 329
6.09868 270
6.11879 293
6.13891 290
6.15902 274
6.17913 287
6.19925 215
6.21936 291
6.23948 279
6.25959 272
6.2797 279
6.29982 267
6.31993 291
6.34004 291
6.36016 279
6.38027 254
6.40039 251
6.4205 268
6.44061 275
6.46073 279
6.48084 253
6.50095 267
6.52107 272
6.54118 248
6.56129 227
6.58141 266
6.60152 248
6.62164 264
6.64175 248
6.66186 259
6.68198 275
6.70209 221
6.7222 260
6.74232 291
6.76243 245
6.78255 228
6.80266 245
6.82277 221
6.84289 235
6.863 230
6.88311 269
6.90323 240
6.92334 258
6.94346 245
6.96357 267
6.98368 258
7.0038 261
7.02391 274
7.04402 219
7.06414 240
7.08425 240
7.10436 267
7.12448 236
7.14459 258
7.16471 218
7.18482 230
7.20493 229
7.22505 241
7.24516 246
7.26527 251
7.28539 301
7.3055 245
7.32562 236
7.34573 232
7.36584 249
7.38596 255
7.40607 283
7.42618 252
7.4463 248
7.46641 283
7.48653 258
7.50664 239
7.52675 249
7.54687 258
7.56698 236
7.58709 226
7.60721 255
7.62732 242
7.64743 233
7.66755 233
7.68766 218
7.70778 271
7.72789 268
7.748 274
7.76812 260
7.78823 266
7.80834 279
7.82846 265
7.84857 267
7.86869 271
7.8888 281
7.90891 247
7.92903 292
7.94914 287
7.96925 269
7.98937 248
8.00948 286
8.0296 250
8.04971 256
8.06982 269
8.08994 262
8.11005 264
8.13016 281
8.15028 249
8.17039 277
8.1905 272
8.21062 303
8.23073 265
8.25085 271
8.27096 262
8.29107 257
8.31119 282
8.3313 288
8.35141 278
8.37153 306
8.39164 300
8.41176 265
8.43187 266
8.45198 273
8.4721 234
8.49221 280
8.51232 292
8.53244 256
8.55255 268
8.57266 288
8.59278 265
8.61289 293
8.63301 249
8.65312 275
8.67323 270
8.69335 275
8.71346 238
8.73357 286
8.75369 277
8.7738 260
8.79392 251
8.81403 288
8.83414 296
8.85426 283
8.87437 302
8.89448 269
8.9146 290
8.93471 291
8.95483 257
8.97494 278
8.99505 300
9.01517 273
9.03528 260
9.05539 250
9.07551 251
9.09562 277
9.11573 248
9.13585 238
9.15596 252
9.17608 251
9.19619 272
9.2163 277
9.23642 300
9.25653 255
9.27664 235
9.29676 278
9.31687 215
9.33699 264
9.3571 266
9.37721 267
9.39733 275
9.41744 262
9.43755 253
9.45767 252
9.47778 255
9.4979 267
9.51801 317
9.53812 277
9.55824 296
9.57835 274
9.59846 272
9.61858 289
9.63869 260
9.6588 250
9.67892 255
9.69903 245
9.71915 278
9.73926 255
9.75937 246
9.77949 257
9.7996 246
9.81971 265
9.83983 259
9.85994 256
9.88006 249
9.90017 267
9.92028 259
9.9404 268
9.96051 229
9.98062 263
10.00074 278
10.02085 254
10.04097 231
10.06108 292
10.08119 279
10.10131 269
10.12142 251
10.14153 243
10.16165 252
10.18176 246
10.20187 240
10.22199 258
10.2421 241
10.26222 252
10.28233 256
10.30244 260
10.32256 259
10.34267 269
10.36278 268
10.3829 258
10.40301 275
10.42313 252
10.44324 287
10.46335 250
10.48347 247
10.50358 273
10.52369 265
10.54381 298
10.56392 274
10.58403 240
10.60415 242
10.62426 276
10.64438 235
10.66449 258
10.6846 275
10.70472 262
10.72483 243
10.74494 249
10.76506 272
10.78517 294
10.80529 285
10.8254 253
10.84551 273
10.86563 260
10.88574 247
10.90585 271
10.92597 275
10.94608 258
10.9662 242
10.98631 267
11.00642 282
11.02654 275
11.04665 253
11.06676 283
11.08688 249
11.10699 282
11.1271 281
11.14722 240
11.16733 259
11.18745 269
11.20756 260
11.22767 247
11.24779 267
11.2679 250
11.28801 269
11.30813 275
11.32824 280
11.34836 267
11.36847 260
11.38858 252
11.4087 274
11.42881 287
11.44892 266
11.46904 289
11.48915 281
11.50927 266
11.52938 303
11.54949 321
11.56961 280
11.58972 250
11.60983 269
11.62995 287
11.65006 270
11.67017 294
11.69029 286
11.7104 271
11.73052 270
11.75063 270
11.77074 308
11.79086 282
11.81097 308
11.83108 273
11.8512 304
11.87131 315
11.89143 266
11.91154 284
11.93165 320
11.95177 299
11.97188 311
11.99199 332
12.01211 322
12.03222 317
12.05234 291
12.07245 309
12.09256 314
12.11268 314
12.13279 323
12.1529 338
12.17302 318
12.19313 336
12.21324 337
12.23336 386
12.25347 344
12.27359 354
12.2937 365
12.31381 366
12.33393 374
12.35404 324
12.37415 327
12.39427 313
12.41438 348
12.4345 352
12.45461 285
12.47472 325
12.49484 298
12.51495 337
12.53506 327
12.55518 294
12.57529 257
12.5954 309
12.61552 283
12.63563 247
12.65575 284
12.67586 269
12.69597 294
12.71609 273
12.7362 302
12.75631 299
12.77643 257
12.79654 250
12.81666 262
12.83677 276
12.85688 245
12.877 246
12.89711 249
12.91722 237
12.93734 271
12.95745 243
12.97757 238
12.99768 255
13.01779 258
13.03791 229
13.05802 238
13.07813 281
13.09825 241
13.11836 241
13.13847 264
13.15859 254
13.1787 217
13.19882 266
13.21893 207
13.23904 217
13.25916 249
13.27927 224
13.29938 229
13.3195 221
13.33961 257
13.35973 233
13.37984 237
13.39995 223
13.42007 238
13.44018 215
13.46029 258
13.48041 224
13.50052 228
13.52064 215
13.54075 238
13.56086 226
13.58098 248
13.60109 209
13.6212 196
13.64132 204
13.66143 234
13.68154 189
13.70166 228
13.72177 226
13.74189 218
13.762 230
13.78211 246
13.80223 224
13.82234 258
13.84245 247
13.86257 227
13.88268 221
13.9028 222
13.92291 207
13.94302 243
13.96314 199
13.98325 237
14.00336 243
14.02348 226
14.04359 229
14.06371 250
14.08382 219
14.10393 234
14.12405 232
14.14416 229
14.16427 230
14.18439 216
14.2045 246
14.22461 234
14.24473 238
14.26484 212
14.28496 222
14.30507 222
14.32518 215
14.3453 235
14.36541 199
14.38552 226
14.40564 230
14.42575 233
14.44587 208
14.46598 209
14.48609 252
14.50621 214
14.52632 206
14.54643 213
14.56655 240
14.58666 200
14.60677 203
14.62689 210
14.647 228
14.66712 224
14.68723 242
14.70734 228
14.72746 223
14.74757 235
14.76768 199
14.7878 204
14.80791 216
14.82803 208
14.84814 215
14.86825 223
14.88837 229
14.90848 218
14.92859 205
14.94871 172
14.96882 216
14.98894 227
15.00905 225
15.02916 206
15.04928 217
15.06939 205
15.0895 203
15.10962 243
15.12973 187
15.14984 218
15.16996 200
15.19007 204
15.21019 205
15.2303 198
15.25041 225
15.27053 195
15.29064 208
15.31075 212
15.33087 217
15.35098 213
15.3711 208
15.39121 214
15.41132 201
15.43144 231
15.45155 223
15.47166 197
15.49178 186
15.51189 220
15.53201 205
15.55212 182
15.57223 196
15.59235 203
15.61246 232
15.63257 207
15.65269 192
15.6728 208
15.69291 205
15.71303 217
15.73314 223
15.75326 225
15.77337 175
15.79348 238
15.8136 208
15.83371 197
15.85382 186
15.87394 237
15.89405 188
15.91417 187
15.93428 209
15.95439 214
15.97451 187
15.99462 213
16.01473 230
16.03485 219
16.05496 203
16.07508 226
16.09519 198
16.1153 205
16.13542 209
16.15553 206
16.17564 198
16.19576 216
16.21587 220
16.23598 238
16.2561 224
16.27621 221
16.29633 197
16.31644 201
16.33655 195
16.35667 195
16.37678 238
16.39689 198
16.41701 187
16.43712 201
16.45724 202
16.47735 232
16.49746 204
16.51758 186
16.53769 231
16.5578 176
16.57792 194
16.59803 219
16.61814 207
16.63826 205
16.65837 193
16.67849 206
16.6986 200
16.71871 191
16.73883 216
16.75894 221
16.77905 205
16.79917 162
16.81928 228
16.8394 209
16.85951 197
16.87962 200
16.89974 192
16.91985 205
16.93996 202
16.96008 216
16.98019 213
17.00031 210
17.02042 205
17.04053 223
17.06065 177
17.08076 192
17.10087 200
17.12099 182
17.1411 203
17.16121 204
17.18133 198
17.20144 192
17.22156 232
17.24167 202
17.26178 209
17.2819 187
17.30201 203
17.32212 203
17.34224 194
17.36235 216
17.38247 235
17.40258 204
17.42269 198
17.44281 225
17.46292 224
17.48303 207
17.50315 215
17.52326 204
17.54338 194
17.56349 222
17.5836 206
17.60372 242
17.62383 202
17.64394 208
17.66406 234
17.68417 223
17.70428 213
17.7244 225
17.74451 209
17.76463 228
17.78474 225
17.80485 227
17.82497 219
17.84508 237
17.86519 202
17.88531 203
17.90542 239
17.92554 223
17.94565 207
17.96576 243
17.98588 208
18.00599 230
18.0261 212
18.04622 210
18.06633 208
18.08645 210
18.10656 240
18.12667 239
18.14679 228
18.1669 200
18.18701 250
18.20713 217
18.22724 246
18.24735 270
18.26747 271
18.28758 271
18.3077 290
18.32781 246
18.34792 274
18.36804 247
18.38815 224
18.40826 243
18.42838 250
18.44849 226
18.46861 215
18.48872 228
18.50883 215
18.52895 208
18.54906 205
18.56917 232
18.58929 214
18.6094 228
18.62951 214
18.64963 228
18.66974 239
18.68986 217
18.70997 222
18.73008 194
18.7502 221
18.77031 219
18.79042 243
18.81054 208
18.83065 202
18.85077 221
18.87088 222
18.89099 224
18.91111 247
18.93122 205
18.95133 211
18.97145 217
18.99156 203
19.01168 192
19.03179 193
19.0519 209
19.07202 208
19.09213 192
19.11224 194
19.13236 216
19.15247 194
19.17258 237
19.1927 224
19.21281 242
19.23293 212
19.25304 227
19.27315 206
19.29327 215
19.31338 199
19.33349 209
19.35361 226
19.37372 192
19.39384 203
19.41395 219
19.43406 262
19.45418 227
19.47429 205
19.4944 179
19.51452 236
19.53463 201
19.55475 228
19.57486 286
19.59497 254
19.61509 235
19.6352 282
19.65531 280
19.67543 269
19.69554 327
19.71565 291
19.73577 329
19.75588 346
19.776 372
19.79611 342
19.81622 424
19.83634 400
19.85645 410
19.87656 439
19.89668 378
19.91679 397
19.93691 378
19.95702 361
19.97713 404
19.99725 365
20.01736 350
20.03747 368
20.05759 355
20.0777 371
20.09782 336
20.11793 373
20.13804 353
20.15816 395
20.17827 399
20.19838 418
20.2185 396
20.23861 350
20.25872 421
20.27884 412
20.29895 392
20.31907 427
20.33918 391
20.35929 402
20.37941 427
20.39952 399
20.41963 429
20.43975 457
20.45986 420
20.47998 460
20.50009 450
20.5202 471
20.54032 478
20.56043 458
20.58054 528
20.60066 510
20.62077 525
20.64088 571
20.661 631
20.68111 819
20.70123 923
20.72134 1337
20.74145 1858
20.76157 2684
20.78168 3862
20.80179 5322
20.82191 6895
20.84202 8211
20.86214 8674
20.88225 7743
20.90236 6072
20.92248 4265
20.94259 2864
20.9627 1668
20.98282 983
21.00293 663
21.02305 578
21.04316 559
21.06327 457
21.08339 499
21.1035 442
21.12361 460
21.14373 451
21.16384 428
21.18395 398
21.20407 397
21.22418 389
21.2443 335
21.26441 363
21.28452 402
21.30464 346
21.32475 375
21.34486 365
21.36498 408
21.38509 373
21.40521 379
21.42532 391
21.44543 343
21.46555 359
21.48566 337
21.50577 373
21.52589 340
21.546 401
21.56612 359
21.58623 321
21.60634 331
21.62646 319
21.64657 363
21.66668 322
21.6868 331
21.70691 310
21.72702 329
21.74714 306
21.76725 341
21.78737 315
21.80748 348
21.82759 338
21.84771 288
21.86782 306
21.88793 299
21.90805 294
21.92816 302
21.94828 281
21.96839 293
21.9885 330
22.00862 292
22.02873 310
22.04884 262
22.06896 281
22.08907 273
22.10919 303
22.1293 305
22.14941 292
22.16953 330
22.18964 278
22.20975 324
22.22987 270
22.24998 291
22.27009 305
22.29021 265
22.31032 278
22.33044 273
22.35055 297
22.37066 284
22.39078 234
22.41089 263
22.431 288
22.45112 257
22.47123 264
22.49135 274
22.51146 272
22.53157 262
22.55169 241
22.5718 263
22.59191 259
22.61203 252
22.63214 290
22.65225 252
22.67237 258
22.69248 247
22.7126 283
22.73271 258
22.75282 280
22.77294 261
22.79305 230
22.81316 267
22.83328 289
22.85339 248
22.87351 294
22.89362 293
22.91373 240
22.93385 281
22.95396 255
22.97407 218
22.99419 248
23.0143 279
23.03442 267
23.05453 255
23.07464 286
23.09476 234
23.11487 249
23.13498 259
23.1551 277
23.17521 245
23.19532 280
23.21544 249
23.23555 247
23.25567 267
23.27578 259
23.29589 253
23.31601 250
23.33612 269
23.35623 253
23.37635 248
23.39646 251
23.41658 235
23.43669 301
23.4568 248
23.47692 267
23.49703 212
23.51714 253
23.53726 242
23.55737 268
23.57749 292
23.5976 239
23.61771 260
23.63783 243
23.65794 255
23.67805 254
23.69817 231
23.71828 248
23.73839 270
23.75851 284
23.77862 286
23.79874 262
23.81885 256
23.83896 284
23.85908 287
23.87919 310
23.8993 276
23.91942 301
23.93953 279
23.95965 344
23.97976 354
23.99987 340
24.01999 333
24.0401 363
24.06021 304
24.08033 257
24.10044 291
24.12056 266
24.14067 266
24.16078 290
24.1809 270
24.20101 256
24.22112 255
24.24124 285
24.26135 255
24.28146 291
24.30158 285
24.32169 257
24.34181 256
24.36192 258
24.38203 296
24.40215 258
24.42226 271
24.44237 277
24.46249 286
24.4826 286
24.50272 287
24.52283 249
24.54294 288
24.56306 301
24.58317 297
24.60328 281
24.6234 278
24.64351 299
24.66362 283
24.68374 298
24.70385 315
24.72397 284
24.74408 314
24.76419 294
24.78431 327
24.80442 332
24.82453 276
24.84465 320
24.86476 320
24.88488 300
24.90499 304
24.9251 338
24.94522 286
24.96533 305
24.98544 318
25.00556 301
25.02567 323
25.04579 280
25.0659 304
25.08601 299
25.10613 317
25.12624 329
25.14635 343
25.16647 351
25.18658 320
25.20669 312
25.22681 306
25.24692 348
25.26704 328
25.28715 342
25.30726 337
25.32738 317
25.34749 304
25.3676 319
25.38772 305
25.40783 312
25.42795 266
25.44806 307
25.46817 324
25.48829 339
25.5084 295
25.52851 294
25.54863 283
25.56874 259
25.58886 292
25.60897 297
25.62908 329
25.6492 353
25.66931 372
25.68942 372
25.70954 424
25.72965 435
25.74976 444
25.76988 467
25.78999 455
25.81011 468
25.83022 456
25.85033 451
25.87045 462
25.89056 476
25.91067 496
25.93079 465
25.9509 465
25.97102 472
25.99113 471
26.01124 529
26.03136 498
26.05147 553
26.07158 566
26.0917 513
26.11181 581
26.13193 654
26.15204 643
26.17215 698
26.19227 702
26.21238 743
26.23249 859
26.25261 876
26.27272 964
26.29283 998
26.31295 1084
26.33306 1153
26.35318 1277
26.37329 1408
26.3934 1689
26.41352 1912
26.43363 2385
26.45374 3028
26.47386 4130
26.49397 5989
26.51409 8497
26.5342 11925
26.55431 17074
26.57443 23207
26.59454 30846
26.61465 36785
26.63477 39263
26.65488 36054
26.67499 28551
26.69511 21921
26.71522 16333
26.73534 10691
26.75545 5819
26.77556 3219
26.79568 2126
26.81579 1804
26.8359 1494
26.85602 1413
26.87613 1227
26.89625 1144
26.91636 1029
26.93647 959
26.95659 898
26.9767 767
26.99681 742
27.01693 626
27.03704 570
27.05716 551
27.07727 535
27.09738 505
27.1175 448
27.13761 477
27.15772 457
27.17784 469
27.19795 434
27.21806 431
27.23818 396
27.25829 430
27.27841 412
27.29852 422
27.31863 408
27.33875 420
27.35886 430
27.37897 425
27.39909 442
27.4192 415
27.43932 426
27.45943 409
27.47954 378
27.49966 388
27.51977 348
27.53988 383
27.56 386
27.58011 360
27.60023 379
27.62034 349
27.64045 361
27.66057 322
27.68068 357
27.70079 329
27.72091 378
27.74102 347
27.76113 357
27.78125 352
27.80136 378
27.82148 337
27.84159 304
27.8617 335
27.88182 366
27.90193 329
27.92204 313
27.94216 327
27.96227 307
27.98239 295
28.0025 340
28.02261 316
28.04273 308
28.06284 339
28.08295 313
28.10307 281
28.12318 284
28.1433 316
28.16341 332
28.18352 294
28.20364 336
28.22375 311
28.24386 287
28.26398 319
28.28409 301
28.3042 287
28.32432 285
28.34443 283
28.36455 289
28.38466 285
28.40477 271
28.42489 313
28.445 298
28.46511 284
28.48523 324
28.50534 314
28.52546 297
28.54557 249
28.56568 266
28.5858 280
28.60591 296
28.62602 322
28.64614 308
28.66625 273
28.68636 283
28.70648 298
28.72659 270
28.74671 273
28.76682 310
28.78693 264
28.80705 280
28.82716 265
28.84727 264
28.86739 280
28.8875 246
28.90762 286
28.92773 265
28.94784 233
28.96796 245
28.98807 265
29.00818 264
29.0283 271
29.04841 263
29.06853 288
29.08864 261
29.10875 244
29.12887 266
29.14898 246
29.16909 275
29.18921 242
29.20932 251
29.22943 249
29.24955 243
29.26966 270
29.28978 263
29.30989 261
29.33 270
29.35012 268
29.37023 267
29.39034 253
29.41046 299
29.43057 228
29.45069 258
29.4708 270
29.49091 231
29.51103 271
29.53114 281
29.55125 277
29.57137 229
29.59148 273
29.6116 258
29.63171 273
29.65182 283
29.67194 268
29.69205 261
29.71216 255
29.73228 241
29.75239 249
29.7725 291
29.79262 249
29.81273 270
29.83285 248
29.85296 259
29.87307 260
29.89319 258
29.9133 257
29.93341 239
29.95353 261
29.97364 286
29.99376 244
30.01387 261
30.03398 249
30.0541 236
30.07421 243
30.09432 221
30.11444 238
30.13455 272
30.15467 223
30.17478 253
30.19489 243
30.21501 264
30.23512 218
30.25523 267
30.27535 226
30.29546 245
30.31557 274
30.33569 235
30.3558 237
30.37592 240
30.39603 244
30.41614 240
30.43626 219
30.45637 263
30.47648 237
30.4966 239
30.51671 238
30.53683 224
30.55694 226
30.57705 231
30.59717 212
30.61728 238
30.63739 213
30.65751 245
30.67762 242
30.69773 227
30.71785 220
30.73796 223
30.75808 244
30.77819 222
30.7983 248
30.81842 224
30.83853 221
30.85864 232
30.87876 216
30.89887 243
30.91899 210
30.9391 199
30.95921 223
30.97933 234
30.99944 206
31.01955 251
31.03967 251
31.05978 260
31.0799 214
31.10001 233
31.12012 252
31.14024 236
31.16035 236
31.18046 230
31.20058 238
31.22069 234
31.2408 230
31.26092 227
31.28103 219
31.30115 236
31.32126 209
31.34137 197
31.36149 234
31.3816 230
31.40171 228
31.42183 215
31.44194 220
31.46206 239
31.48217 208
31.50228 215
31.5224 195
31.54251 236
31.56262 206
31.58274 207
31.60285 204
31.62297 213
31.64308 241
31.66319 195
31.68331 189
31.70342 214
31.72353 195
31.74365 186
31.76376 237
31.78387 226
31.80399 235
31.8241 201
31.84422 219
31.86433 218
31.88444 219
31.90456 195
31.92467 222
31.94478 247
31.9649 216
31.98501 206
32.00513 206
32.02524 214
32.04535 227
32.06547 213
32.08558 224
32.10569 222
32.12581 188
32.14592 249
32.16604 224
32.18615 196
32.20626 231
32.22638 198
32.24649 215
32.2666 220
32.28672 201
32.30683 211
32.32694 209
32.34706 200
32.36717 187
32.38729 189
32.4074 202
32.42751 204
32.44763 231
32.46774 222
32.48785 182
32.50797 197
32.52808 206
32.5482 202
32.56831 229
32.58842 224
32.60854 190
32.62865 224
32.64876 192
32.66888 193
32.68899 215
32.7091 205
32.72922 229
32.74933 228
32.76945 201
32.78956 186
32.80967 200
32.82979 214
32.8499 231
32.87001 224
32.89013 236
32.91024 218
32.93036 197
32.95047 211
32.97058 221
32.9907 216
33.01081 221
33.03092 239
33.05104 245
33.07115 242
33.09127 242
33.11138 208
33.13149 212
33.15161 236
33.17172 225
33.19183 238
33.21195 220
33.23206 233
33.25217 216
33.27229 213
33.2924 226
33.31252 203
33.33263 221
33.35274 257
33.37286 227
33.39297 177
33.41308 240
33.4332 205
33.45331 204
33.47343 214
33.49354 217
33.51365 221
33.53377 222
33.55388 200
33.57399 219
33.59411 221
33.61422 199
33.63434 181
33.65445 217
33.67456 224
33.69468 188
33.71479 239
33.7349 207
33.75502 191
33.77513 208
33.79524 227
33.81536 211
33.83547 188
33.85559 201
33.8757 219
33.89581 172
33.91593 239
33.93604 206
33.95615 239
33.97627 218
33.99638 196
34.0165 188
34.03661 208
34.05672 190
34.07684 194
34.09695 210
34.11706 221
34.13718 195
34.15729 193
34.17741 186
34.19752 219
34.21763 184
34.23775 207
34.25786 185
34.27797 199
34.29809 208
34.3182 214
34.33831 206
34.35843 202
34.37854 211
34.39866 204
34.41877 215
34.43888 234
34.459 229
34.47911 249
34.49922 244
34.51934 252
34.53945 230
34.55957 237
34.57968 227
34.59979 255
34.61991 227
34.64002 265
34.66013 235
34.68025 245
34.70036 240
34.72047 243
34.74059 247
34.7607 270
34.78082 282
34.80093 254
34.82104 282
34.84116 283
34.86127 299
34.88138 327
34.9015 306
34.92161 302
34.94173 301
34.96184 328
34.98195 306
35.00207 302
35.02218 250
35.04229 308
35.06241 274
35.08252 266
35.10264 248
35.12275 251
35.14286 259
35.16298 265
35.18309 237
35.2032 237
35.22332 270
35.24343 262
35.26354 285
35.28366 250
35.30377 265
35.32389 267
35.344 261
35.36411 270
35.38423 244
35.40434 267
35.42445 272
35.44457 294
35.46468 250
35.4848 285
35.50491 301
35.52502 300
35.54514 286
35.56525 269
35.58536 260
35.60548 274
35.62559 295
35.64571 302
35.66582 253
35.68593 287
35.70605 264
35.72616 282
35.74627 290
35.76639 272
35.7865 303
35.80661 236
35.82673 308
35.84684 285
35.86696 298
35.88707 248
35.90718 279
35.9273 300
35.94741 299
35.96752 273
35.98764 256
36.00775 290
36.02787 297
36.04798 299
36.06809 246
36.08821 308
36.10832 283
36.12843 270
36.14855 310
36.16866 293
36.18878 281
36.20889 297
36.229 299
36.24912 338
36.26923 370
36.28934 406
36.30946 395
36.32957 458
36.34968 515
36.3698 596
36.38991 711
36.41003 939
36.43014 1161
36.45025 1529
36.47037 1879
36.49048 2268
36.51059 2546
36.53071 2760
36.55082 2592
36.57094 2168
36.59105 1686
36.61116 1483
36.63128 1365
36.65139 1199
36.6715 815
36.69162 474
36.71173 432
36.73184 360
36.75196 359
36.77207 335
36.79219 306
36.8123 304
36.83241 262
36.85253 266
36.87264 299
36.89275 271
36.91287 277
36.93298 257
36.9531 287
36.97321 247
36.99332 276
37.01344 239
37.03355 260
37.05366 252
37.07378 242
37.09389 236
37.11401 226
37.13412 270
37.15423 253
37.17435 254
37.19446 252
37.21457 244
37.23469 241
37.2548 252
37.27491 248
37.29503 246
37.31514 226
37.33526 268
37.35537 220
37.37548 230
37.3956 263
37.41571 259
37.43582 269
37.45594 254
37.47605 251
37.49617 261
37.51628 275
37.53639 242
37.55651 271
37.57662 270
37.59673 253
37.61685 246
37.63696 244
37.65708 262
37.67719 224
37.6973 274
37.71742 235
37.73753 262
37.75764 255
37.77776 295
37.79787 277
37.81798 262
37.8381 240
37.85821 249
37.87833 233
37.89844 248
37.91855 209
37.93867 251
37.95878 245
37.97889 236
37.99901 225
38.01912 259
38.03924 273
38.05935 256
38.07946 269
38.09958 264
38.11969 231
38.1398 241
38.15992 254
38.18003 248
38.20015 251
38.22026 254
38.24037 248
38.26049 245
38.2806 250
38.30071 265
38.32083 215
38.34094 233
38.36105 234
38.38117 274
38.40128 251
38.4214 261
38.44151 268
38.46162 261
38.48174 277
38.50185 250
38.52196 265
38.54208 263
38.56219 255
38.58231 245
38.60242 259
38.62253 269
38.64265 244
38.66276 270
38.68287 260
38.70299 244
38.7231 247
38.74321 249
38.76333 232
38.78344 248
38.80356 264
38.82367 219
38.84378 283
38.8639 241
38.88401 243
38.90412 238
38.92424 252
38.94435 248
38.96447 231
38.98458 244
39.00469 281
39.02481 280
39.04492 260
39.06503 249
39.08515 264
39.10526 251
39.12538 251
39.14549 290
39.1656 302
39.18572 314
39.20583 302
39.22594 374
39.24606 388
39.26617 489
39.28628 570
39.3064 671
39.32651 756
39.34663 997
39.36674 1307
39.38685 1668
39.40697 1929
39.42708 2224
39.44719 2572
39.46731 2403
39.48742 1980
39.50754 1643
39.52765 1388
39.54776 1304
39.56788 1124
39.58799 819
39.6081 637
39.62822 433
39.64833 337
39.66845 323
39.68856 267
39.70867 292
39.72879 262
39.7489 275
39.76901 286
39.78913 268
39.80924 264
39.82935 262
39.84947 245
39.86958 282
39.8897 225
39.90981 241
39.92992 256
39.95004 265
39.97015 235
39.99026 251
40.01038 269
40.03049 273
40.05061 299
40.07072 325
40.09083 366
40.11095 361
40.13106 403
40.15117 556
40.17129 637
40.1914 689
40.21152 876
40.23163 1125
40.25174 1249
40.27186 1375
40.29197 1213
40.31208 1083
40.3322 877
40.35231 780
40.37242 749
40.39254 675
40.41265 606
40.43277 431
40.45288 327
40.47299 305
40.49311 268
40.51322 278
40.53333 274
40.55345 263
40.57356 252
40.59368 251
40.61379 209
40.6339 250
40.65402 229
40.67413 253
40.69424 237
40.71436 234
40.73447 221
40.75458 245
40.7747 240
40.79481 220
40.81493 233
40.83504 239
40.85515 222
40.87527 235
40.89538 214
40.91549 262
40.93561 235
40.95572 228
40.97584 217
40.99595 218
41.01606 242
41.03618 239
41.05629 228
41.0764 241
41.09652 218
41.11663 229
41.13675 262
41.15686 238
41.17697 219
41.19709 203
41.2172 223
41.23731 228
41.25743 225
41.27754 214
41.29765 210
41.31777 206
41.33788 236
41.358 212
41.37811 204
41.39822 224
41.41834 185
41.43845 209
41.45856 215
41.47868 251
41.49879 219
41.51891 241
41.53902 234
41.55913 221
41.57925 231
41.59936 221
41.61947 177
41.63959 199
41.6597 211
41.67982 211
41.69993 231
41.72004 229
41.74016 217
41.76027 197
41.78038 205
41.8005 227
41.82061 255
41.84072 220
41.86084 207
41.88095 208
41.90107 213
41.92118 216
41.94129 223
41.96141 254
41.98152 218
42.00163 206
42.02175 211
42.04186 244
42.06198 231
42.08209 221
42.1022 258
42.12232 286
42.14243 288
42.16254 292
42.18266 316
42.20277 323
42.22289 369
42.243 372
42.26311 484
42.28323 552
42.30334 636
42.32345 784
42.34357 944
42.36368 1235
42.38379 1396
42.40391 1681
42.42402 1802
42.44414 1736
42.46425 1587
42.48436 1252
42.50448 1054
42.52459 1001
42.5447 964
42.56482 773
42.58493 641
42.60505 459
42.62516 364
42.64527 303
42.66539 280
42.6855 252
42.70561 256
42.72573 198
42.74584 224
42.76595 230
42.78607 189
42.80618 194
42.8263 185
42.84641 190
42.86652 217
42.88664 212
42.90675 226
42.92686 213
42.94698 178
42.96709 196
42.98721 192
43.00732 178
43.02743 185
43.04755 196
43.06766 206
43.08777 209
43.10789 198
43.128 171
43.14812 218
43.16823 194
43.18834 178
43.20846 191
43.22857 163
43.24868 185
43.2688 192
43.28891 196
43.30902 216
43.32914 191
43.34925 161
43.36937 192
43.38948 185
43.40959 196
43.42971 198
43.44982 163
43.46993 199
43.49005 199
43.51016 214
43.53028 178
43.55039 178
43.5705 188
43.59062 199
43.61073 188
43.63084 207
43.65096 208
43.67107 189
43.69119 205
43.7113 181
43.73141 199
43.75153 204
43.77164 204
43.79175 188
43.81187 186
43.83198 197
43.85209 192
43.87221 190
43.89232 195
43.91244 225
43.93255 190
43.95266 201
43.97278 163
43.99289 186
44.013 190
44.03312 188
44.05323 199
44.07335 205
44.09346 201
44.11357 189
44.13369 183
44.1538 201
44.17391 211
44.19403 187
44.21414 208
44.23426 167
44.25437 182
44.27448 177
44.2946 182
44.31471 193
44.33482 183
44.35494 187
44.37505 190
44.39516 190
44.41528 205
44.43539 178
44.45551 174
44.47562 207
44.49573 201
44.51585 193
44.53596 185
44.55607 204
44.57619 177
44.5963 195
44.61642 189
44.63653 164
44.65664 175
44.67676 197
44.69687 203
44.71698 186
44.7371 171
44.75721 181
44.77732 196
44.79744 173
44.81755 182
44.83767 177
44.85778 207
44.87789 182
44.89801 192
44.91812 194
44.93823 208
44.95835 217
44.97846 204
44.99858 216
45.01869 200
45.0388 199
45.05892 205
45.07903 201
45.09914 194
45.11926 201
45.13937 205
45.15949 195
45.1796 162
45.19971 211
45.21983 196
45.23994 184
45.26005 204
45.28017 209
45.30028 217
45.32039 231
45.34051 214
45.36062 219
45.38074 208
45.40085 206
45.42096 252
45.44108 239
45.46119 243
45.4813 239
45.50142 247
45.52153 261
45.54165 278
45.56176 284
45.58187 296
45.60199 352
45.6221 398
45.64221 490
45.66233 581
45.68244 659
45.70256 813
45.72267 936
45.74278 1156
45.7629 1225
45.78301 1206
45.80312 1071
45.82324 837
45.84335 760
45.86346 685
45.88358 688
45.90369 646
45.92381 586
45.94392 427
45.96403 315
45.98415 267
46.00426 250
46.02437 232
46.04449 211
46.0646 207
46.08472 240
46.10483 195
46.12494 190
46.14506 223
46.16517 199
46.18528 211
46.2054 181
46.22551 188
46.24563 189
46.26574 185
46.28585 185
46.30597 200
46.32608 199
46.34619 201
46.36631 161
46.38642 180
46.40653 180
46.42665 182
46.44676 176
46.46688 188
46.48699 198
46.5071 193
46.52722 167
46.54733 206
46.56744 191
46.58756 197
46.60767 179
46.62779 171
46.6479 169
46.66801 188
46.68813 198
46.70824 180
46.72835 187
46.74847 182
46.76858 171
46.78869 188
46.80881 165
46.82892 198
46.84904 164
46.86915 169
46.88926 179
46.90938 180
46.92949 202
46.9496 159
46.96972 174
46.98983 191
47.00995 170
47.03006 192
47.05017 184
47.07029 191
47.0904 189
47.11051 162
47.13063 195
47.15074 187
47.17086 164
47.19097 169
47.21108 165
47.2312 186
47.25131 167
47.27142 177
47.29154 200
47.31165 181
47.33176 171
47.35188 171
47.37199 156
47.39211 170
47.41222 192
47.43233 218
47.45245 189
47.47256 181
47.49267 187
47.51279 170
47.5329 174
47.55302 163
47.57313 181
47.59324 182
47.61336 174
47.63347 178
47.65358 174
47.6737 170
47.69381 167
47.71393 199
47.73404 156
47.75415 154
47.77427 178
47.79438 165
47.81449 184
47.83461 194
47.85472 172
47.87483 198
47.89495 177
47.91506 191
47.93518 171
47.95529 195
47.9754 162
47.99552 173
48.01563 187
48.03574 183
48.05586 180
48.07597 169
48.09609 188
48.1162 173
48.13631 187
48.15643 194
48.17654 160
48.19665 193
48.21677 185
48.23688 205
48.257 194
48.27711 196
48.29722 191
48.31734 165
48.33745 191
48.35756 177
48.37768 184
48.39779 195
48.4179 187
48.43802 176
48.45813 172
48.47825 172
48.49836 191
48.51847 200
48.53859 181
48.5587 165
48.57881 192
48.59893 185
48.61904 187
48.63916 186
48.65927 199
48.67938 166
48.6995 181
48.71961 199
48.73972 190
48.75984 189
48.77995 194
48.80006 188
48.82018 193
48.84029 188
48.86041 204
48.88052 192
48.90063 202
48.92075 179
48.94086 179
48.96097 182
48.98109 183
49.0012 188
49.02132 190
49.04143 188
49.06154 197
49.08166 186
49.10177 185
49.12188 191
49.142 190
49.16211 140
49.18223 191
49.20234 214
49.22245 225
49.24257 184
49.26268 217
49.28279 206
49.30291 196
49.32302 201
49.34313 217
49.36325 230
49.38336 197
49.40348 188
49.42359 239
49.4437 212
49.46382 223
49.48393 188
49.50404 198
49.52416 216
49.54427 215
49.56439 236
49.5845 220
49.60461 242
49.62473 220
49.64484 219
49.66495 204
49.68507 275
49.70518 256
49.7253 269
49.74541 291
49.76552 277
49.78564 318
49.80575 321
49.82586 370
49.84598 438
49.86609 482
49.8862 529
49.90632 598
49.92643 687
49.94655 857
49.96666 1036
49.98677 1325
50.00689 1669
50.027 1983
50.04711 2468
50.06723 3066
50.08734 3444
50.10746 3840
50.12757 3787
50.14768 3374
50.1678 2579
50.18791 2170
50.20802 1978
50.22814 2005
50.24825 2021
50.26837 1794
50.28848 1375
50.30859 865
50.32871 564
50.34882 501
50.36893 372
50.38905 355
50.40916 317
50.42927 337
50.44939 309
50.4695 293
50.48962 259
50.50973 276
50.52984 255
50.54996 280
50.57007 307
50.59018 303
50.6103 301
50.63041 289
50.65053 247
50.67064 240
50.69075 262
50.71087 247
50.73098 235
50.75109 236
50.77121 214
50.79132 193
50.81143 189
50.83155 202
50.85166 170
50.87178 215
50.89189 174
50.912 208
50.93212 191
50.95223 180
50.97234 190
50.99246 196
51.01257 172
51.03269 207
51.0528 195
51.07291 183
51.09303 198
51.11314 178
51.13325 193
51.15337 191
51.17348 168
51.1936 182
51.21371 172
51.23382 163
51.25394 176
51.27405 176
51.29416 191
51.31428 153
51.33439 175
51.3545 164
51.37462 167
51.39473 165
51.41485 198
51.43496 151
51.45507 169
51.47519 186
51.4953 157
51.51541 172
51.53553 195
51.55564 166
51.57576 173
51.59587 164
51.61598 171
51.6361 169
51.65621 191
51.67632 169
51.69644 200
51.71655 179
51.73667 162
51.75678 185
51.77689 176
51.79701 155
51.81712 166
51.83723 187
51.85735 162
51.87746 180
51.89757 169
51.91769 149
51.9378 156
51.95792 185
51.97803 189
51.99814 151
52.01826 181
52.03837 174
52.05848 171
52.0786 176
52.09871 173
52.11883 169
52.13894 176
52.15905 191
52.17917 168
52.19928 179
52.21939 165
52.23951 187
52.25962 181
52.27974 184
52.29985 187
52.31996 167
52.34008 179
52.36019 178
52.3803 159
52.40042 169
52.42053 162
52.44064 172
52.46076 174
52.48087 193
52.50099 139
52.5211 182
52.54121 192
52.56133 181
52.58144 188
52.60155 174
52.62167 159
52.64178 173
52.6619 184
52.68201 183
52.70212 174
52.72224 173
52.74235 182
52.76246 170
52.78258 180
52.80269 177
52.8228 178
52.84292 171
52.86303 184
52.88315 173
52.90326 168
52.92337 175
52.94349 194
52.9636 181
52.98371 166
53.00383 184
53.02394 200
53.04406 174
53.06417 173
53.08428 172
53.1044 174
53.12451 159
53.14462 179
53.16474 201
53.18485 188
53.20497 171
53.22508 180
53.24519 150
53.26531 185
53.28542 152
53.30553 189
53.32565 187
53.34576 197
53.36587 178
53.38599 213
53.4061 203
53.42622 196
53.44633 184
53.46644 211
53.48656 212
53.50667 195
53.52678 198
53.5469 222
53.56701 192
53.58713 187
53.60724 191
53.62735 209
53.64747 192
53.66758 200
53.68769 209
53.70781 210
53.72792 225
53.74804 210
53.76815 215
53.78826 203
53.80838 183
53.82849 224
53.8486 214
53.86872 220
53.88883 191
53.90894 226
53.92906 210
53.94917 252
53.96929 173
53.9894 228
54.00951 195
54.02963 238
54.04974 236
54.06985 226
54.08997 229
54.11008 220
54.1302 245
54.15031 219
54.17042 213
54.19054 251
54.21065 247
54.23076 225
54.25088 201
54.27099 226
54.29111 243
54.31122 242
54.33133 245
54.35145 256
54.37156 237
54.39167 231
54.41179 258
54.4319 259
54.45201 244
54.47213 229
54.49224 252
54.51236 229
54.53247 250
54.55258 269
54.5727 283
54.59281 285
54.61292 303
54.63304 351
54.65315 359
54.67327 391
54.69338 446
54.71349 523
54.73361 567
54.75372 769
54.77383 872
54.79395 983
54.81406 1140
54.83417 1270
54.85429 1230
54.8744 1068
54.89452 907
54.91463 803
54.93474 730
54.95486 712
54.97497 701
54.99508 732
55.0152 702
55.03531 541
55.05543 451
55.07554 390
55.09565 372
55.11577 353
55.13588 340
55.15599 400
55.17611 373
55.19622 419
55.21634 466
55.23645 518
55.25656 602
55.27668 630
55.29679 645
55.3169 634
55.33702 569
55.35713 507
55.37724 447
55.39736 374
55.41747 417
55.43759 395
55.4577 420
55.47781 389
55.49793 312
55.51804 261
55.53815 226
55.55827 206
55.57838 271
55.5985 214
55.61861 235
55.63872 220
55.65884 217
55.67895 219
55.69906 224
55.71918 191
55.73929 211
55.75941 214
55.77952 202
55.79963 206
55.81975 207
55.83986 208
55.85997 207
55.88009 214
55.9002 221
55.92031 205
55.94043 206
55.96054 193
55.98066 207
56.00077 212
56.02088 171
56.041 185
56.06111 194
56.08122 177
56.10134 184
56.12145 174
56.14157 194
56.16168 189
56.18179 174
56.20191 206
56.22202 191
56.24213 177
56.26225 172
56.28236 197
56.30248 189
56.32259 188
56.3427 181
56.36282 196
56.38293 180
56.40304 210
56.42316 180
56.44327 174
56.46338 195
56.4835 168
56.50361 187
56.52373 188
56.54384 196
56.56395 201
56.58407 190
56.60418 174
56.62429 171
56.64441 191
56.66452 173
56.68464 173
56.70475 213
56.72486 199
56.74498 171
56.76509 190
56.7852 170
56.80532 218
56.82543 200
56.84554 185
56.86566 183
56.88577 182
56.90589 178
56.926 195
56.94611 198
56.96623 191
56.98634 166
57.00645 163
57.02657 207
57.04668 193
57.0668 189
57.08691 219
57.10702 230
57.12714 222
57.14725 219
57.16736 220
57.18748 273
57.20759 247
57.22771 217
57.24782 228
57.26793 196
57.28805 201
57.30816 196
57.32827 204
57.34839 202
57.3685 213
57.38861 208
57.40873 176
57.42884 194
57.44896 165
57.46907 171
57.48918 155
57.5093 192
57.52941 170
57.54952 176
57.56964 176
57.58975 189
57.60987 181
57.62998 180
57.65009 200
57.67021 193
57.69032 167
57.71043 195
57.73055 159
57.75066 171
57.77078 183
57.79089 178
57.811 172
57.83112 182
57.85123 171
57.87134 170
57.89146 184
57.91157 187
57.93168 162
57.9518 177
57.97191 173
57.99203 208
58.01214 169
58.03225 206
58.05237 210
58.07248 171
58.09259 148
58.11271 180
58.13282 165
58.15294 167
58.17305 190
58.19316 189
58.21328 195
58.23339 175
58.2535 178
58.27362 198
58.29373 189
58.31385 169
58.33396 170
58.35407 170
58.37419 182
58.3943 186
58.41441 182
58.43453 180
58.45464 171
58.47475 186
58.49487 190
58.51498 171
58.5351 186
58.55521 176
58.57532 201
58.59544 169
58.61555 169
58.63566 165
58.65578 163
58.67589 179
58.69601 190
58.71612 179
58.73623 202
58.75635 178
58.77646 196
58.79657 192
58.81669 184
58.8368 181
58.85691 175
58.87703 182
58.89714 173
58.91726 174
58.93737 174
58.95748 177
58.9776 165
58.99771 200
59.01782 170
59.03794 202
59.05805 166
59.07817 156
59.09828 175
59.11839 178
59.13851 181
59.15862 177
59.17873 191
59.19885 184
59.21896 200
59.23908 188
59.25919 177
59.2793 194
59.29942 173
59.31953 184
59.33964 214
59.35976 202
59.37987 203
59.39998 225
59.4201 213
59.44021 213
59.46033 213
59.48044 216
59.50055 244
59.52067 234
59.54078 251
59.56089 275
59.58101 276
59.60112 337
59.62124 308
59.64135 352
59.66146 375
59.68158 449
59.70169 426
59.7218 535
59.74192 599
59.76203 673
59.78215 841
59.80226 1024
59.82237 1240
59.84249 1506
59.8626 1790
59.88271 2108
59.90283 2401
59.92294 2494
59.94305 2452
59.96317 2074
59.98328 1723
60.0034 1358
60.02351 1250
60.04362 1245
60.06374 1354
60.08385 1343
60.10396 1316
60.12408 1072
60.14419 766
60.16431 565
60.18442 438
60.20453 363
60.22465 324
60.24476 280
60.26487 281
60.28499 266
60.3051 232
60.32522 228
60.34533 239
60.36544 214
60.38556 246
60.40567 215
60.42578 215
60.4459 196
60.46601 194
60.48612 221
60.50624 217
60.52635 190
60.54647 182
60.56658 198
60.58669 207
60.60681 200
60.62692 202
60.64703 179
60.66715 200
60.68726 176
60.70738 180
60.72749 180
60.7476 203
60.76772 187
60.78783 185
60.80794 190
60.82806 177
60.84817 189
60.86828 181
60.8884 196
60.90851 175
60.92863 170
60.94874 166
60.96885 171
60.98897 192
61.00908 179
61.02919 177
61.04931 173
61.06942 164
61.08954 179
61.10965 185
61.12976 158
61.14988 175
61.16999 187
61.1901 178
61.21022 171
61.23033 180
61.25045 163
61.27056 196
61.29067 200
61.31079 183
61.3309 178
61.35101 188
61.37113 193
61.39124 197
61.41135 183
61.43147 189
61.45158 183
61.4717 189
61.49181 192
61.51192 201
61.53204 188
61.55215 223
61.57226 227
61.59238 224
61.61249 207
61.63261 217
61.65272 185
61.67283 194
61.69295 171
61.71306 191
61.73317 207
61.75329 192
61.7734 191
61.79352 192
61.81363 191
61.83374 208
61.85386 178
61.87397 210
61.89408 207
61.9142 211
61.93431 202
61.95442 200
61.97454 188
61.99465 217
62.01477 189
62.03488 214
62.05499 200
62.07511 201
62.09522 226
62.11533 224
62.13545 229
62.15556 200
62.17568 235
62.19579 191
62.2159 226
62.23602 232
62.25613 226
62.27624 211
62.29636 263
62.31647 222
62.33659 208
62.3567 247
62.37681 208
62.39693 234
62.41704 244
62.43715 212
62.45727 194
62.47738 198
62.49749 196
62.51761 214
62.53772 205
62.55784 182
62.57795 225
62.59806 185
62.61818 201
62.63829 186
62.6584 207
62.67852 187
62.69863 191
62.71875 179
62.73886 158
62.75897 179
62.77909 176
62.7992 185
62.81931 177
62.83943 177
62.85954 183
62.87965 193
62.89977 142
62.91988 193
62.94 204
62.96011 149
62.98022 170
63.00034 147
63.02045 162
63.04056 172
63.06068 180
63.08079 163
63.10091 148
63.12102 161
63.14113 199
63.16125 185
63.18136 183
63.20147 189
63.22159 182
63.2417 180
63.26182 176
63.28193 177
63.30204 168
63.32216 184
63.34227 152
63.36238 207
63.3825 190
63.40261 201
63.42272 156
63.44284 182
63.46295 201
63.48307 173
63.50318 175
63.52329 176
63.54341 197
63.56352 202
63.58363 183
63.60375 190
63.62386 225
63.64398 201
63.66409 230
63.6842 198
63.70432 183
63.72443 199
63.74454 193
63.76466 196
63.78477 228
63.80489 242
63.825 270
63.84511 286
63.86523 312
63.88534 337
63.90545 395
63.92557 440
63.94568 469
63.96579 538
63.98591 600
64.00602 618
64.02614 565
64.04625 483
64.06636 412
64.08648 352
64.10659 343
64.1267 372
64.14682 348
64.16693 388
64.18705 373
64.20716 385
64.22727 302
64.24739 249
64.2675 220
64.28761 195
64.30773 190
64.32784 177
64.34796 182
64.36807 188
64.38818 164
64.4083 183
64.42841 193
64.44852 178
64.46864 188
64.48875 154
64.50886 165
64.52898 159
64.54909 160
64.56921 166
64.58932 159
64.60943 149
64.62955 173
64.64966 168
64.66977 182
64.68989 164
64.71 156
64.73012 168
64.75023 146
64.77034 139
64.79046 161
64.81057 167
64.83068 143
64.8508 157
64.87091 159
64.89102 172
64.91114 162
64.93125 155
64.95137 165
64.97148 169
64.99159 150
65.01171 158
65.03182 175
65.05193 181
65.07205 187
65.09216 162
65.11228 162
65.13239 155
65.1525 165
65.17262 186
65.19273 180
65.21284 166
65.23296 156
65.25307 175
65.27319 185
65.2933 185
65.31341 162
65.33353 173
65.35364 166
65.37375 174
65.39387 176
65.41398 157
65.43409 183
65.45421 177
65.47432 183
65.49444 179
65.51455 185
65.53466 192
65.55478 209
65.57489 188
65.595 218
65.61512 194
65.63523 202
65.65535 218
65.67546 245
65.69557 254
65.71569 273
65.7358 299
65.75591 274
65.77603 267
65.79614 236
65.81626 215
65.83637 207
65.85648 225
65.8766 245
65.89671 246
65.91682 252
65.93694 197
65.95705 192
65.97716 227
65.99728 183
66.01739 193
66.03751 164
66.05762 182
66.07773 177
66.09785 165
66.11796 180
66.13807 149
66.15819 190
66.1783 162
66.19842 172
66.21853 173
66.23864 164
66.25876 177
66.27887 164
66.29898 183
66.3191 174
66.33921 180
66.35933 167
66.37944 173
66.39955 167
66.41967 163
66.43978 169
66.45989 193
66.48001 171
66.50012 168
66.52023 160
66.54035 156
66.56046 165
66.58058 163
66.60069 168
66.6208 206
66.64092 168
66.66103 168
66.68114 177
66.70126 172
66.72137 176
66.74149 185
66.7616 172
66.78171 184
66.80183 165
66.82194 186
66.84205 193
66.86217 177
66.88228 182
66.90239 197
66.92251 162
66.94262 182
66.96274 178
66.98285 211
67.00296 182
67.02308 171
67.04319 209
67.0633 215
67.08342 189
67.10353 193
67.12365 212
67.14376 187
67.16387 196
67.18399 202
67.2041 204
67.22421 207
67.24433 215
67.26444 199
67.28456 242
67.30467 202
67.32478 233
67.3449 247
67.36501 284
67.38512 262
67.40524 263
67.42535 305
67.44546 321
67.46558 321
67.48569 360
67.50581 452
67.52592 431
67.54603 531
67.56615 616
67.58626 700
67.60637 799
67.62649 998
67.6466 1167
67.66672 1253
67.68683 1409
67.70694 1514
67.72706 1491
67.74717 1346
67.76728 1048
67.7874 897
67.80751 829
67.82763 809
67.84774 921
67.86785 1018
67.88797 1045
67.90808 1070
67.92819 1088
67.94831 1043
67.96842 1021
67.98853 1023
68.00865 1158
68.02876 1292
68.04888 1498
68.06899 1686
68.0891 1862
68.10922 2074
68.12933 1977
68.14944 1863
68.16956 1565
68.18967 1435
68.20979 1514
68.2299 1603
68.25001 1743
68.27013 1876
68.29024 1773
68.31035 1711
68.33047 1487
68.35058 1269
68.3707 925
68.39081 761
68.41092 715
68.43104 712
68.45115 695
68.47126 724
68.49138 639
68.51149 558
68.5316 421
68.55172 364
68.57183 282
68.59195 293
68.61206 259
68.63217 232
68.65229 234
68.6724 227
68.69251 207
68.71263 201
68.73274 203
68.75286 227
68.77297 207
68.79308 188
68.8132 193
68.83331 189
68.85342 211
68.87354 202
68.89365 187
68.91376 163
68.93388 188
68.95399 209
68.97411 175
68.99422 176
69.01433 164
69.03445 180
69.05456 178
69.07467 198
69.09479 171
69.1149 215
69.13502 173
69.15513 183
69.17524 164
69.19536 186
69.21547 192
69.23558 176
69.2557 175
69.27581 183
69.29593 164
69.31604 172
69.33615 179
69.35627 189
69.37638 170
69.39649 160
69.41661 191
69.43672 155
69.45683 167
69.47695 167
69.49706 155
69.51718 181
69.53729 171
69.5574 169
69.57752 184
69.59763 168
69.61774 187
69.63786 184
69.65797 150
69.67809 180
69.6982 161
69.71831 156
69.73843 160
69.75854 168
69.77865 165
69.79877 159
69.81888 201
69.839 168
69.85911 169
69.87922 196
69.89934 171
69.91945 163
69.93956 172
69.95968 168
69.97979 164
69.9999 181
70.02002 168
70.04013 159
70.06025 177
70.08036 169
70.10047 156
70.12059 151
70.1407 160
70.16081 174
70.18093 158
70.20104 187
70.22116 159
70.24127 167
70.26138 169
70.2815 180
70.30161 177
70.32172 182
70.34184 184
70.36195 159
70.38207 161
70.40218 159
70.42229 160
70.44241 158
70.46252 181
70.48263 177
70.50275 172
70.52286 161
70.54297 183
70.56309 152
70.5832 188
70.60332 154
70.62343 162
70.64354 181
70.66366 154
70.68377 121
70.70388 167
70.724 160
70.74411 155
70.76423 159
70.78434 156
70.80445 165
70.82457 174
70.84468 166
70.86479 157
70.88491 159
70.90502 158
70.92513 167
70.94525 147
70.96536 161
70.98548 178
71.00559 156
71.0257 143
71.04582 166
71.06593 151
71.08604 145
71.10616 163
71.12627 166
71.14639 164
71.1665 157
71.18661 152
71.20673 163
71.22684 160
71.24695 149
71.26707 157
71.28718 164
71.3073 145
71.32741 162
71.34752 161
71.36764 176
71.38775 154
71.40786 155
71.42798 155
71.44809 154
71.4682 144
71.48832 151
71.50843 155
71.52855 157
71.54866 158
71.56877 149
71.58889 150
71.609 145
71.62911 151
71.64923 163
71.66934 153
71.68946 164
71.70957 168
71.72968 161
71.7498 160
71.76991 167
71.79002 155
71.81014 141
71.83025 158
71.85037 158
71.87048 177
71.89059 151
71.91071 156
71.93082 175
71.95093 165
71.97105 162
71.99116 144
72.01127 158
72.03139 165
72.0515 164
72.07162 181
72.09173 164
72.11184 147
72.13196 149
72.15207 164
72.17218 175
72.1923 141
72.21241 161
72.23253 152
72.25264 128
72.27275 150
72.29287 148
72.31298 158
72.33309 139
72.35321 172
72.37332 158
72.39344 154
72.41355 158
72.43366 157
72.45378 162
72.47389 159
72.494 155
72.51412 153
72.53423 171
72.55434 179
72.57446 169
72.59457 180
72.61469 167
72.6348 182
72.65491 181
72.67503 186
72.69514 167
72.71525 175
72.73537 171
72.75548 171
72.7756 172
72.79571 161
72.81582 173
72.83594 181
72.85605 152
72.87616 162
72.89628 172
72.91639 170
72.9365 162
72.95662 169
72.97673 190
72.99685 200
73.01696 156
73.03707 171
73.05719 171
73.0773 216
73.09741 190
73.11753 220
73.13764 179
73.15776 183
73.17787 215
73.19798 203
73.2181 233
73.23821 246
73.25832 270
73.27844 310
73.29855 301
73.31867 394
73.33878 429
73.35889 455
73.37901 525
73.39912 536
73.41923 606
73.43935 612
73.45946 592
73.47957 531
73.49969 433
73.5198 381
73.53992 295
73.56003 347
73.58014 317
73.60026 360
73.62037 394
73.64048 395
73.6606 335
73.68071 351
73.70083 270
73.72094 267
73.74105 233
73.76117 215
73.78128 195
73.80139 192
73.82151 154
73.84162 178
73.86174 165
73.88185 153
73.90196 182
73.92208 160
73.94219 166
73.9623 174
73.98242 180
74.00253 185
74.02264 194
74.04276 163
74.06287 150
74.08299 155
74.1031 190
74.12321 150
74.14333 174
74.16344 160
74.18355 160
74.20367 149
74.22378 161
74.2439 184
74.26401 189
74.28412 150
74.30424 168
74.32435 164
74.34446 149
74.36458 145
74.38469 166
74.40481 150
74.42492 174
74.44503 150
74.46515 163
74.48526 168
74.50537 176
74.52549 150
74.5456 193
74.56571 154
74.58583 143
74.60594 167
74.62606 150
74.64617 149
74.66628 141
74.6864 166
74.70651 157
74.72662 157
74.74674 159
74.76685 166
74.78697 162
74.80708 153
74.82719 166
74.84731 178
74.86742 148
74.88753 172
74.90765 173
74.92776 162
74.94787 165
74.96799 168
74.9881 155
75.00822 151
