3.00117 20701
3.02128 20175
3.0414 19242
3.06151 19048
3.08162 18471
3.10174 18072
3.12185 17471
3.14197 16961
3.16208 16454
3.18219 15944
3.20231 15528
3.22242 15522
3.24253 14611
3.26265 14355
3.28276 13601
3.30288 13256
3.32299 13011
3.3431 12317
3.36322 12145
3.38333 11775
3.40344 11255
3.42356 11159
3.44367 10592
3.46379 10247
3.4839 9931
3.50401 9582
3.52413 9413
3.54424 8840
3.56435 8529
3.58447 8091
3.60458 7968
3.62469 7877
3.64481 7285
3.66492 7132
3.68504 6518
3.70515 6514
3.72526 6337
3.74538 6031
3.76549 5880
3.7856 5575
3.80572 5518
3.82583 5265
3.84595 4905
3.86606 4829
3.88617 4619
3.90629 4364
3.9264 4323
3.94651 3874
3.96663 3876
3.98674 3715
4.00686 3586
4.02697 3474
4.04708 3117
4.0672 3112
4.08731 2870
4.10742 2695
4.12754 2739
4.14765 2576
4.16776 2434
4.18788 2328
4.20799 2287
4.22811 2320
4.24822 2118
4.26833 2023
4.28845 1876
4.30856 1956
4.32867 1919
4.34879 1690
4.3689 1699
4.38902 1668
4.40913 1586
4.42924 1658
4.44936 1575
4.46947 1533
4.48958 1455
4.5097 1337
4.52981 1497
4.54992 1216
4.57004 1306
4.59015 1304
4.61027 1234
4.63038 1281
4.65049 1158
4.67061 1141
4.69072 1229
4.71083 1139
4.73095 1213
4.75106 1064
4.77118 1046
4.79129 1038
4.8114 1031
4.83152 1040
4.85163 961
4.87174 887
4.89186 960
4.91197 903
4.93209 910
4.9522 866
4.97231 932
4.99243 863
5.01254 849
5.03265 816
5.05277 746
5.07288 770
5.09299 800
5.11311 808
5.13322 750
5.15334 675
5.17345 705
5.19356 691
5.21368 727
5.23379 698
5.2539 639
5.27402 604
5.29413 638
5.31425 601
5.33436 662
5.35447 561
5.37459 590
5.3947 565
5.41481 590
5.43493 581
5.45504 510
5.47516 569
5.49527 543
5.51538 560
5.5355 509
5.55561 495
5.57572 480
5.59584 507
5.61595 517
5.63606 444
5.65618 481
5.67629 411
5.69641 459
5.71652 457
5.73663 452
5.75675 454
5.77686 458
5.79697 458
5.81709 421
5.8372 416
5.85732 410
5.87743 439
5.89754 388
5.91766 404
5.93777 404
5.95788 416
5.978 418
5.99811 376
6.01823 397
6.03834 390
6.05845 413
6.07857 384
6.09868 347
6.11879 380
6.13891 328
6.15902 346
6.17913 381
6.19925 362
6.21936 395
6.23948 351
6.25959 402
6.2797 415
6.29982 365
6.31993 380
6.34004 365
6.36016 349
6.38027 389
6.40039 325
6.4205 354
6.44061 357
6.46073 358
6.48084 324
6.50095 319
6.52107 340
6.54118 374
6.56129 376
6.58141 341
6.60152 368
6.62164 365
6.64175 386
6.66186 357
6.68198 346
6.70209 349
6.7222 335
6.74232 330
6.76243 335
6.78255 334
6.80266 336
6.82277 349
6.84289 317
6.863 324
6.88311 368
6.90323 341
6.92334 341
6.94346 346
6.96357 348
6.98368 371
7.0038 367
7.02391 324
7.04402 337
7.06414 308
7.08425 319
7.10436 319
7.12448 302
7.14459 338
7.16471 343
7.18482 356
7.20493 355
7.22505 340
7.24516 350
7.26527 349
7.28539 339
7.3055 342
7.32562 358
7.34573 287
7.36584 360
7.38596 332
7.40607 367
7.42618 344
7.4463 361
7.46641 328
7.48653 308
7.50664 319
7.52675 336
7.54687 322
7.56698 333
7.58709 341
7.60721 347
7.62732 331
7.64743 293
7.66755 317
7.68766 328
7.70778 351
7.72789 340
7.748 336
7.76812 400
7.78823 326
7.80834 330
7.82846 374
7.84857 333
7.86869 350
7.8888 365
7.90891 326
7.92903 362
7.94914 347
7.96925 367
7.98937 323
8.00948 348
8.0296 295
8.04971 356
8.06982 306
8.08994 338
8.11005 333
8.13016 373
8.15028 339
8.17039 372
8.1905 340
8.21062 336
8.23073 322
8.25085 316
8.27096 334
8.29107 338
8.31119 333
8.3313 361
8.35141 363
8.37153 362
8.39164 330
8.41176 345
8.43187 326
8.45198 318
8.4721 332
8.49221 375
8.51232 344
8.53244 376
8.55255 385
8.57266 288
8.59278 369
8.61289 338
8.63301 369
8.65312 371
8.67323 353
8.69335 349
8.71346 334
8.73357 319
8.75369 359
8.7738 350
8.79392 352
8.81403 338
8.83414 373
8.85426 350
8.87437 370
8.89448 358
8.9146 375
8.93471 340
8.95483 365
8.97494 353
8.99505 375
9.01517 331
9.03528 364
9.05539 348
9.07551 320
9.09562 340
9.11573 356
9.13585 379
9.15596 352
9.17608 331
9.19619 357
9.2163 370
9.23642 388
9.25653 372
9.27664 332
9.29676 369
9.31687 339
9.33699 356
9.3571 357
9.37721 383
9.39733 346
9.41744 380
9.43755 315
9.45767 349
9.47778 357
9.4979 349
9.51801 361
9.53812 329
9.55824 388
9.57835 311
9.59846 357
9.61858 371
9.63869 357
9.6588 368
9.67892 346
9.69903 365
9.71915 368
9.73926 352
9.75937 362
9.77949 321
9.7996 341
9.81971 371
9.83983 307
9.85994 360
9.88006 315
9.90017 373
9.92028 336
9.9404 365
9.96051 351
9.98062 338
10.00074 305
10.02085 351
10.04097 351
10.06108 357
10.08119 348
10.10131 375
10.12142 353
10.14153 366
10.16165 360
10.18176 386
10.20187 352
10.22199 367
10.2421 359
10.26222 358
10.28233 375
10.30244 338
10.32256 346
10.34267 336
10.36278 383
10.3829 352
10.40301 324
10.42313 371
10.44324 374
10.46335 301
10.48347 347
10.50358 342
10.52369 377
10.54381 348
10.56392 379
10.58403 365
10.60415 353
10.62426 349
10.64438 318
10.66449 377
10.6846 364
10.70472 367
10.72483 337
10.74494 362
10.76506 353
10.78517 345
10.80529 372
10.8254 335
10.84551 319
10.86563 324
10.88574 344
10.90585 361
10.92597 337
10.94608 352
10.9662 360
10.98631 348
11.00642 337
11.02654 337
11.04665 340
11.06676 346
11.08688 340
11.10699 374
11.1271 366
11.14722 366
11.16733 368
11.18745 362
11.20756 332
11.22767 391
11.24779 345
11.2679 358
11.28801 397
11.30813 342
11.32824 340
11.34836 337
11.36847 369
11.38858 371
11.4087 337
11.42881 365
11.44892 388
11.46904 372
11.48915 431
11.50927 359
11.52938 360
11.54949 355
11.56961 373
11.58972 349
11.60983 386
11.62995 376
11.65006 433
11.67017 378
11.69029 419
11.7104 403
11.73052 433
11.75063 432
11.77074 440
11.79086 441
11.81097 428
11.83108 450
11.8512 436
11.87131 434
11.89143 437
11.91154 438
11.93165 458
11.95177 508
11.97188 469
11.99199 503
12.01211 507
12.03222 519
12.05234 596
12.07245 557
12.09256 635
12.11268 641
12.13279 668
12.1529 699
12.17302 704
12.19313 774
12.21324 773
12.23336 822
12.25347 905
12.27359 936
12.2937 930
12.31381 957
12.33393 932
12.35404 994
12.37415 931
12.39427 890
12.41438 861
12.4345 812
12.45461 806
12.47472 742
12.49484 733
12.51495 643
12.53506 554
12.55518 583
12.57529 538
12.5954 519
12.61552 514
12.63563 507
12.65575 453
12.67586 458
12.69597 413
12.71609 401
12.7362 415
12.75631 372
12.77643 384
12.79654 411
12.81666 401
12.83677 363
12.85688 391
12.877 382
12.89711 336
12.91722 375
12.93734 368
12.95745 387
12.97757 365
12.99768 378
13.01779 348
13.03791 308
13.05802 361
13.07813 323
13.09825 352
13.11836 348
13.13847 346
13.15859 342
13.1787 348
13.19882 362
13.21893 313
13.23904 318
13.25916 308
13.27927 301
13.29938 311
13.3195 323
13.33961 358
13.35973 346
13.37984 343
13.39995 338
13.42007 315
13.44018 324
13.46029 379
13.48041 343
13.50052 301
13.52064 357
13.54075 335
13.56086 326
13.58098 304
13.60109 370
13.6212 349
13.64132 320
13.66143 341
13.68154 327
13.70166 311
13.72177 339
13.74189 346
13.762 341
13.78211 342
13.80223 323
13.82234 336
13.84245 327
13.86257 332
13.88268 336
13.9028 356
13.92291 333
13.94302 316
13.96314 282
13.98325 323
14.00336 326
14.02348 334
14.04359 319
14.06371 277
14.08382 323
14.10393 315
14.12405 282
14.14416 332
14.16427 299
14.18439 366
14.2045 329
14.22461 312
14.24473 322
14.26484 329
14.28496 294
14.30507 341
14.32518 306
14.3453 303
14.36541 331
14.38552 321
14.40564 302
14.42575 326
14.44587 301
14.46598 320
14.48609 294
14.50621 317
14.52632 292
14.54643 302
14.56655 317
14.58666 283
14.60677 282
14.62689 303
14.647 310
14.66712 337
14.68723 311
14.70734 306
14.72746 311
14.74757 311
14.76768 329
14.7878 321
14.80791 303
14.82803 290
14.84814 325
14.86825 305
14.88837 305
14.90848 315
14.92859 344
14.94871 370
14.96882 325
14.98894 304
15.00905 317
15.02916 314
15.04928 323
15.06939 341
15.0895 344
15.10962 289
15.12973 317
15.14984 327
15.16996 312
15.19007 314
15.21019 334
15.2303 349
15.25041 284
15.27053 325
15.29064 283
15.31075 338
15.33087 310
15.35098 339
15.3711 332
15.39121 312
15.41132 281
15.43144 293
15.45155 289
15.47166 305
15.49178 313
15.51189 318
15.53201 283
15.55212 352
15.57223 327
15.59235 351
15.61246 307
15.63257 322
15.65269 313
15.6728 318
15.69291 324
15.71303 316
15.73314 317
15.75326 316
15.77337 302
15.79348 274
15.8136 255
15.83371 314
15.85382 337
15.87394 285
15.89405 267
15.91417 295
15.93428 320
15.95439 310
15.97451 306
15.99462 314
16.01473 310
16.03485 283
16.05496 277
16.07508 298
16.09519 308
16.1153 315
16.13542 277
16.15553 303
16.17564 306
16.19576 320
16.21587 291
16.23598 293
16.2561 305
16.27621 300
16.29633 345
16.31644 305
16.33655 300
16.35667 295
16.37678 310
16.39689 300
16.41701 306
16.43712 305
16.45724 327
16.47735 301
16.49746 339
16.51758 335
16.53769 306
16.5578 293
16.57792 290
16.59803 316
16.61814 295
16.63826 279
16.65837 315
16.67849 321
16.6986 299
16.71871 299
16.73883 301
16.75894 314
16.77905 321
16.79917 302
16.81928 334
16.8394 310
16.85951 289
16.87962 273
16.89974 307
16.91985 285
16.93996 310
16.96008 290
16.98019 347
17.00031 283
17.02042 319
17.04053 315
17.06065 286
17.08076 312
17.10087 276
17.12099 326
17.1411 321
17.16121 300
17.18133 312
17.20144 277
17.22156 303
17.24167 314
17.26178 283
17.2819 271
17.30201 327
17.32212 338
17.34224 319
17.36235 282
17.38247 298
17.40258 337
17.42269 317
17.44281 321
17.46292 276
17.48303 290
17.50315 315
17.52326 327
17.54338 333
17.56349 319
17.5836 300
17.60372 291
17.62383 313
17.64394 322
17.66406 341
17.68417 329
17.70428 322
17.7244 331
17.74451 313
17.76463 284
17.78474 319
17.80485 353
17.82497 312
17.84508 355
17.86519 312
17.88531 334
17.90542 363
17.92554 372
17.94565 320
17.96576 343
17.98588 332
18.00599 338
18.0261 348
18.04622 300
18.06633 364
18.08645 332
18.10656 307
18.12667 313
18.14679 358
18.1669 306
18.18701 369
18.20713 353
18.22724 323
18.24735 318
18.26747 334
18.28758 331
18.3077 334
18.32781 308
18.34792 294
18.36804 309
18.38815 313
18.40826 338
18.42838 320
18.44849 308
18.46861 317
18.48872 287
18.50883 316
18.52895 296
18.54906 302
18.56917 304
18.58929 308
18.6094 345
18.62951 309
18.64963 336
18.66974 367
18.68986 293
18.70997 320
18.73008 303
18.7502 298
18.77031 339
18.79042 342
18.81054 311
18.83065 307
18.85077 296
18.87088 320
18.89099 281
18.91111 304
18.93122 323
18.95133 329
18.97145 320
18.99156 280
19.01168 311
19.03179 312
19.0519 321
19.07202 348
19.09213 291
19.11224 321
19.13236 336
19.15247 317
19.17258 287
19.1927 312
19.21281 322
19.23293 298
19.25304 338
19.27315 309
19.29327 325
19.31338 316
19.33349 345
19.35361 319
19.37372 346
19.39384 310
19.41395 308
19.43406 322
19.45418 352
19.47429 310
19.4944 335
19.51452 334
19.53463 355
19.55475 364
19.57486 315
19.59497 372
19.61509 393
19.6352 362
19.65531 394
19.67543 382
19.69554 406
19.71565 441
19.73577 471
19.75588 495
19.776 564
19.79611 642
19.81622 675
19.83634 700
19.85645 749
19.87656 736
19.89668 736
19.91679 726
19.93691 686
19.95702 617
19.97713 648
19.99725 695
20.01736 646
20.03747 604
20.05759 637
20.0777 600
20.09782 593
20.11793 614
20.13804 616
20.15816 572
20.17827 558
20.19838 613
20.2185 600
20.23861 587
20.25872 610
20.27884 630
20.29895 664
20.31907 661
20.33918 642
20.35929 628
20.37941 655
20.39952 673
20.41963 634
20.43975 657
20.45986 687
20.47998 734
20.50009 684
20.5202 701
20.54032 721
20.56043 779
20.58054 734
20.60066 752
20.62077 824
20.64088 782
20.661 947
20.68111 969
20.70123 1162
20.72134 1399
20.74145 1812
20.76157 2451
20.78168 3141
20.80179 4160
20.82191 5053
20.84202 5499
20.86214 5422
20.88225 4712
20.90236 3557
20.92248 2538
20.94259 1691
20.9627 1286
20.98282 952
21.00293 866
21.02305 728
21.04316 778
21.06327 724
21.08339 738
21.1035 749
21.12361 784
21.14373 748
21.16384 729
21.18395 694
21.20407 768
21.22418 731
21.2443 740
21.26441 756
21.28452 738
21.30464 774
21.32475 743
21.34486 742
21.36498 753
21.38509 741
21.40521 696
21.42532 750
21.44543 630
21.46555 627
21.48566 655
21.50577 593
21.52589 655
21.546 625
21.56612 595
21.58623 578
21.60634 537
21.62646 556
21.64657 531
21.66668 577
21.6868 526
21.70691 553
21.72702 580
21.74714 544
21.76725 541
21.78737 537
21.80748 493
21.82759 546
21.84771 494
21.86782 487
21.88793 488
21.90805 461
21.92816 502
21.94828 501
21.96839 514
21.9885 521
22.00862 500
22.02873 549
22.04884 504
22.06896 456
22.08907 515
22.10919 479
22.1293 497
22.14941 507
22.16953 435
22.18964 472
22.20975 442
22.22987 457
22.24998 434
22.27009 480
22.29021 475
22.31032 435
22.33044 440
22.35055 435
22.37066 439
22.39078 469
22.41089 481
22.431 468
22.45112 435
22.47123 459
22.49135 461
22.51146 425
22.53157 441
22.55169 448
22.5718 416
22.59191 441
22.61203 439
22.63214 466
22.65225 444
22.67237 410
22.69248 433
22.7126 420
22.73271 436
22.75282 435
22.77294 430
22.79305 470
22.81316 429
22.83328 423
22.85339 432
22.87351 464
22.89362 444
22.91373 417
22.93385 427
22.95396 443
22.97407 415
22.99419 459
23.0143 430
23.03442 414
23.05453 428
23.07464 439
23.09476 435
23.11487 435
23.13498 415
23.1551 394
23.17521 450
23.19532 414
23.21544 441
23.23555 422
23.25567 426
23.27578 404
23.29589 379
23.31601 416
23.33612 413
23.35623 401
23.37635 409
23.39646 401
23.41658 405
23.43669 384
23.4568 409
23.47692 399
23.49703 418
23.51714 403
23.53726 412
23.55737 376
23.57749 421
23.5976 365
23.61771 361
23.63783 408
23.65794 448
23.67805 397
23.69817 412
23.71828 418
23.73839 418
23.75851 435
23.77862 430
23.79874 422
23.81885 429
23.83896 459
23.85908 438
23.87919 491
23.8993 447
23.91942 437
23.93953 440
23.95965 470
23.97976 527
23.99987 517
24.01999 462
24.0401 463
24.06021 450
24.08033 469
24.10044 465
24.12056 450
24.14067 462
24.16078 439
24.1809 500
24.20101 412
24.22112 460
24.24124 436
24.26135 460
24.28146 462
24.30158 476
24.32169 446
24.34181 469
24.36192 479
24.38203 434
24.40215 465
24.42226 494
24.44237 470
24.46249 503
24.4826 452
24.50272 502
24.52283 504
24.54294 488
24.56306 546
24.58317 557
24.60328 508
24.6234 591
24.64351 559
24.66362 632
24.68374 659
24.70385 672
24.72397 688
24.74408 742
24.76419 725
24.78431 774
24.80442 869
24.82453 835
24.84465 869
24.86476 870
24.88488 857
24.90499 761
24.9251 831
24.94522 763
24.96533 793
24.98544 711
25.00556 691
25.02567 680
25.04579 626
25.0659 632
25.08601 553
25.10613 550
25.12624 566
25.14635 558
25.16647 524
25.18658 528
25.20669 519
25.22681 539
25.24692 514
25.26704 512
25.28715 536
25.30726 481
25.32738 530
25.34749 514
25.3676 479
25.38772 445
25.40783 443
25.42795 420
25.44806 421
25.46817 497
25.48829 462
25.5084 421
25.52851 457
25.54863 465
25.56874 455
25.58886 474
25.60897 483
25.62908 435
25.6492 437
25.66931 481
25.68942 501
25.70954 476
25.72965 485
25.74976 510
25.76988 568
25.78999 550
25.81011 528
25.83022 524
25.85033 524
25.87045 547
25.89056 515
25.91067 546
25.93079 578
25.9509 504
25.97102 559
25.99113 549
26.01124 605
26.03136 514
26.05147 563
26.07158 571
26.0917 578
26.11181 639
26.13193 678
26.15204 717
26.17215 695
26.19227 734
26.21238 744
26.23249 806
26.25261 812
26.27272 891
26.29283 875
26.31295 959
26.33306 1067
26.35318 1167
26.37329 1292
26.3934 1456
26.41352 1693
26.43363 2138
26.45374 2678
26.47386 3393
26.49397 4775
26.51409 6642
26.5342 9364
26.55431 13194
26.57443 17368
26.59454 21466
26.61465 23336
26.63477 23579
26.65488 20842
26.67499 16208
26.69511 12166
26.71522 8933
26.73534 5733
26.75545 3323
26.77556 2038
26.79568 1527
26.81579 1291
26.8359 1188
26.85602 1057
26.87613 960
26.89625 977
26.91636 841
26.93647 809
26.95659 718
26.9767 707
26.99681 671
27.01693 618
27.03704 599
27.05716 536
27.07727 566
27.09738 563
27.1175 547
27.13761 554
27.15772 499
27.17784 496
27.19795 503
27.21806 455
27.23818 490
27.25829 480
27.27841 437
27.29852 520
27.31863 472
27.33875 479
27.35886 467
27.37897 425
27.39909 398
27.4192 477
27.43932 420
27.45943 500
27.47954 452
27.49966 415
27.51977 408
27.53988 437
27.56 466
27.58011 468
27.60023 372
27.62034 428
27.64045 480
27.66057 477
27.68068 410
27.70079 408
27.72091 454
27.74102 433
27.76113 399
27.78125 420
27.80136 442
27.82148 453
27.84159 440
27.8617 443
27.88182 352
27.90193 413
27.92204 375
27.94216 413
27.96227 401
27.98239 393
28.0025 377
28.02261 417
28.04273 397
28.06284 403
28.08295 409
28.10307 422
28.12318 399
28.1433 383
28.16341 423
28.18352 376
28.20364 398
28.22375 401
28.24386 410
28.26398 381
28.28409 370
28.3042 394
28.32432 386
28.34443 403
28.36455 403
28.38466 409
28.40477 387
28.42489 356
28.445 375
28.46511 394
28.48523 388
28.50534 352
28.52546 386
28.54557 382
28.56568 413
28.5858 333
28.60591 374
28.62602 399
28.64614 384
28.66625 395
28.68636 410
28.70648 375
28.72659 374
28.74671 352
28.76682 409
28.78693 366
28.80705 370
28.82716 359
28.84727 363
28.86739 365
28.8875 375
28.90762 379
28.92773 353
28.94784 373
28.96796 393
28.98807 373
29.00818 405
29.0283 381
29.04841 394
29.06853 343
29.08864 327
29.10875 389
29.12887 368
29.14898 373
29.16909 365
29.18921 364
29.20932 357
29.22943 346
29.24955 362
29.26966 375
29.28978 363
29.30989 393
29.33 353
29.35012 367
29.37023 368
29.39034 349
29.41046 345
29.43057 352
29.45069 321
29.4708 363
29.49091 326
29.51103 367
29.53114 361
29.55125 350
29.57137 364
29.59148 342
29.6116 337
29.63171 405
29.65182 370
29.67194 359
29.69205 377
29.71216 355
29.73228 348
29.75239 372
29.7725 376
29.79262 391
29.81273 331
29.83285 365
29.85296 342
29.87307 370
29.89319 334
29.9133 344
29.93341 343
29.95353 370
29.97364 339
29.99376 350
30.01387 345
30.03398 344
30.0541 339
30.07421 347
30.09432 351
30.11444 382
30.13455 355
30.15467 334
30.17478 365
30.19489 341
30.21501 354
30.23512 351
30.25523 358
30.27535 350
30.29546 357
30.31557 410
30.33569 377
30.3558 355
30.37592 365
30.39603 344
30.41614 366
30.43626 340
30.45637 359
30.47648 374
30.4966 354
30.51671 357
30.53683 338
30.55694 361
30.57705 334
30.59717 371
30.61728 350
30.63739 364
30.65751 343
30.67762 345
30.69773 383
30.71785 352
30.73796 343
30.75808 333
30.77819 383
30.7983 366
30.81842 356
30.83853 338
30.85864 356
30.87876 308
30.89887 329
30.91899 342
30.9391 331
30.95921 367
30.97933 322
30.99944 361
31.01955 334
31.03967 322
31.05978 331
31.0799 318
31.10001 328
31.12012 315
31.14024 335
31.16035 375
31.18046 366
31.20058 375
31.22069 324
31.2408 371
31.26092 329
31.28103 355
31.30115 318
31.32126 347
31.34137 329
31.36149 324
31.3816 369
31.40171 321
31.42183 334
31.44194 349
31.46206 331
31.48217 338
31.50228 369
31.5224 361
31.54251 354
31.56262 326
31.58274 316
31.60285 358
31.62297 356
31.64308 333
31.66319 354
31.68331 331
31.70342 361
31.72353 346
31.74365 338
31.76376 289
31.78387 337
31.80399 354
31.8241 313
31.84422 302
31.86433 339
31.88444 342
31.90456 339
31.92467 352
31.94478 350
31.9649 327
31.98501 343
32.00513 363
32.02524 346
32.04535 362
32.06547 320
32.08558 352
32.10569 343
32.12581 314
32.14592 332
32.16604 326
32.18615 327
32.20626 329
32.22638 344
32.24649 338
32.2666 365
32.28672 328
32.30683 351
32.32694 320
32.34706 359
32.36717 365
32.38729 366
32.4074 370
32.42751 352
32.44763 352
32.46774 378
32.48785 367
32.50797 359
32.52808 396
32.5482 387
32.56831 355
32.58842 333
32.60854 377
32.62865 365
32.64876 337
32.66888 377
32.68899 367
32.7091 339
32.72922 345
32.74933 380
32.76945 383
32.78956 417
32.80967 407
32.82979 389
32.8499 350
32.87001 375
32.89013 389
32.91024 377
32.93036 422
32.95047 362
32.97058 434
32.9907 437
33.01081 390
33.03092 392
33.05104 435
33.07115 407
33.09127 426
33.11138 462
33.13149 453
33.15161 434
33.17172 420
33.19183 423
33.21195 420
33.23206 434
33.25217 464
33.27229 464
33.2924 422
33.31252 456
33.33263 442
33.35274 447
33.37286 442
33.39297 432
33.41308 434
33.4332 432
33.45331 405
33.47343 420
33.49354 442
33.51365 421
33.53377 442
33.55388 377
33.57399 445
33.59411 418
33.61422 417
33.63434 389
33.65445 393
33.67456 394
33.69468 388
33.71479 359
33.7349 360
33.75502 371
33.77513 351
33.79524 366
33.81536 377
33.83547 381
33.85559 374
33.8757 325
33.89581 340
33.91593 348
33.93604 339
33.95615 362
33.97627 326
33.99638 335
34.0165 346
34.03661 353
34.05672 332
34.07684 324
34.09695 336
34.11706 315
34.13718 343
34.15729 355
34.17741 342
34.19752 325
34.21763 309
34.23775 321
34.25786 295
34.27797 333
34.29809 339
34.3182 369
34.33831 314
34.35843 351
34.37854 318
34.39866 342
34.41877 333
34.43888 338
34.459 354
34.47911 319
34.49922 342
34.51934 366
34.53945 378
34.55957 359
34.57968 399
34.59979 388
34.61991 376
34.64002 411
34.66013 410
34.68025 464
34.70036 393
34.72047 436
34.74059 437
34.7607 451
34.78082 484
34.80093 483
34.82104 489
34.84116 504
34.86127 541
34.88138 603
34.9015 559
34.92161 639
34.94173 593
34.96184 588
34.98195 602
35.00207 569
35.02218 560
35.04229 565
35.06241 545
35.08252 562
35.10264 521
35.12275 533
35.14286 523
35.16298 524
35.18309 497
35.2032 468
35.22332 441
35.24343 507
35.26354 479
35.28366 463
35.30377 488
35.32389 496
35.344 501
35.36411 510
35.38423 516
35.40434 524
35.42445 528
35.44457 484
35.46468 503
35.4848 505
35.50491 475
35.52502 498
35.54514 510
35.56525 533
35.58536 554
35.60548 555
35.62559 550
35.64571 590
35.66582 517
35.68593 562
35.70605 531
35.72616 600
35.74627 576
35.76639 590
35.7865 580
35.80661 594
35.82673 597
35.84684 612
35.86696 591
35.88707 573
35.90718 615
35.9273 560
35.94741 576
35.96752 556
35.98764 516
36.00775 535
36.02787 555
36.04798 508
36.06809 478
36.08821 500
36.10832 506
36.12843 488
36.14855 462
36.16866 422
36.18878 472
36.20889 469
36.229 463
36.24912 468
36.26923 469
36.28934 484
36.30946 532
36.32957 539
36.34968 590
36.3698 696
36.38991 745
36.41003 908
36.43014 1018
36.45025 1237
36.47037 1556
36.49048 1768
36.51059 1911
36.53071 1930
36.55082 1700
36.57094 1411
36.59105 1259
36.61116 1197
36.63128 1048
36.65139 863
36.6715 707
36.69162 561
36.71173 553
36.73184 526
36.75196 520
36.77207 540
36.79219 510
36.8123 529
36.83241 488
36.85253 455
36.87264 468
36.89275 494
36.91287 496
36.93298 475
36.9531 463
36.97321 529
36.99332 487
37.01344 438
37.03355 452
37.05366 445
37.07378 442
37.09389 419
37.11401 378
37.13412 406
37.15423 435
37.17435 436
37.19446 427
37.21457 378
37.23469 383
37.2548 405
37.27491 407
37.29503 392
37.31514 386
37.33526 357
37.35537 413
37.37548 402
37.3956 385
37.41571 394
37.43582 417
37.45594 407
37.47605 389
37.49617 423
37.51628 378
37.53639 386
37.55651 413
37.57662 401
37.59673 430
37.61685 381
37.63696 430
37.65708 467
37.67719 429
37.6973 450
37.71742 426
37.73753 443
37.75764 422
37.77776 415
37.79787 436
37.81798 409
37.8381 420
37.85821 419
37.87833 394
37.89844 414
37.91855 457
37.93867 418
37.95878 413
37.97889 423
37.99901 425
38.01912 438
38.03924 419
38.05935 423
38.07946 433
38.09958 454
38.11969 470
38.1398 483
38.15992 488
38.18003 507
38.20015 531
38.22026 456
38.24037 545
38.26049 513
38.2806 550
38.30071 585
38.32083 544
38.34094 624
38.36105 595
38.38117 589
38.40128 611
38.4214 606
38.44151 601
38.46162 597
38.48174 539
38.50185 554
38.52196 538
38.54208 522
38.56219 538
38.58231 486
38.60242 468
38.62253 495
38.64265 451
38.66276 485
38.68287 476
38.70299 475
38.7231 442
38.74321 442
38.76333 485
38.78344 432
38.80356 417
38.82367 424
38.84378 417
38.8639 421
38.88401 433
38.90412 421
38.92424 438
38.94435 468
38.96447 462
38.98458 473
39.00469 478
39.02481 491
39.04492 492
39.06503 478
39.08515 455
39.10526 504
39.12538 463
39.14549 533
39.1656 501
39.18572 543
39.20583 568
39.22594 591
39.24606 631
39.26617 647
39.28628 694
39.3064 777
39.32651 892
39.34663 1028
39.36674 1172
39.38685 1483
39.40697 1675
39.42708 1775
39.44719 1746
39.46731 1660
39.48742 1466
39.50754 1135
39.52765 1168
39.54776 1044
39.56788 952
39.58799 746
39.6081 594
39.62822 480
39.64833 415
39.66845 445
39.68856 402
39.70867 373
39.72879 378
39.7489 401
39.76901 382
39.78913 402
39.80924 369
39.82935 382
39.84947 384
39.86958 391
39.8897 364
39.90981 415
39.92992 405
39.95004 389
39.97015 348
39.99026 391
40.01038 437
40.03049 420
40.05061 449
40.07072 440
40.09083 470
40.11095 458
40.13106 540
40.15117 582
40.17129 707
40.1914 782
40.21152 878
40.23163 1032
40.25174 988
40.27186 1034
40.29197 926
40.31208 821
40.3322 804
40.35231 744
40.37242 687
40.39254 605
40.41265 583
40.43277 472
40.45288 452
40.47299 401
40.49311 411
40.51322 370
40.53333 381
40.55345 413
40.57356 376
40.59368 388
40.61379 384
40.6339 404
40.65402 388
40.67413 356
40.69424 371
40.71436 376
40.73447 362
40.75458 405
40.7747 391
40.79481 369
40.81493 378
40.83504 413
40.85515 387
40.87527 396
40.89538 400
40.91549 412
40.93561 431
40.95572 379
40.97584 380
40.99595 394
41.01606 390
41.03618 368
41.05629 413
41.0764 379
41.09652 403
41.11663 399
41.13675 406
41.15686 396
41.17697 387
41.19709 384
41.2172 403
41.23731 389
41.25743 396
41.27754 381
41.29765 395
41.31777 366
41.33788 375
41.358 361
41.37811 355
41.39822 379
41.41834 347
41.43845 383
41.45856 374
41.47868 376
41.49879 358
41.51891 355
41.53902 369
41.55913 358
41.57925 360
41.59936 356
41.61947 359
41.63959 354
41.6597 364
41.67982 353
41.69993 349
41.72004 339
41.74016 353
41.76027 342
41.78038 320
41.8005 309
41.82061 337
41.84072 345
41.86084 339
41.88095 326
41.90107 364
41.92118 345
41.94129 314
41.96141 352
41.98152 315
42.00163 337
42.02175 360
42.04186 341
42.06198 337
42.08209 371
42.1022 360
42.12232 365
42.14243 359
42.16254 392
42.18266 377
42.20277 390
42.22289 422
42.243 437
42.26311 471
42.28323 517
42.30334 632
42.32345 705
42.34357 831
42.36368 962
42.38379 1101
42.40391 1277
42.42402 1251
42.44414 1220
42.46425 1041
42.48436 933
42.50448 901
42.52459 841
42.5447 770
42.56482 655
42.58493 497
42.60505 411
42.62516 390
42.64527 364
42.66539 375
42.6855 327
42.70561 343
42.72573 334
42.74584 298
42.76595 286
42.78607 336
42.80618 342
42.8263 323
42.84641 325
42.86652 319
42.88664 332
42.90675 291
42.92686 306
42.94698 304
42.96709 312
42.98721 297
43.00732 303
43.02743 314
43.04755 309
43.06766 315
43.08777 293
43.10789 301
43.128 292
43.14812 303
43.16823 278
43.18834 301
43.20846 309
43.22857 274
43.24868 325
43.2688 308
43.28891 325
43.30902 320
43.32914 295
43.34925 328
43.36937 339
43.38948 322
43.40959 317
43.42971 330
43.44982 301
43.46993 313
43.49005 311
43.51016 295
43.53028 307
43.55039 309
43.5705 290
43.59062 307
43.61073 327
43.63084 330
43.65096 311
43.67107 314
43.69119 313
43.7113 294
43.73141 300
43.75153 296
43.77164 330
43.79175 320
43.81187 307
43.83198 294
43.85209 293
43.87221 309
43.89232 319
43.91244 305
43.93255 294
43.95266 288
43.97278 303
43.99289 306
44.013 307
44.03312 296
44.05323 317
44.07335 304
44.09346 304
44.11357 318
44.13369 296
44.1538 310
44.17391 311
44.19403 297
44.21414 308
44.23426 346
44.25437 331
44.27448 318
44.2946 299
44.31471 295
44.33482 260
44.35494 269
44.37505 285
44.39516 311
44.41528 295
44.43539 290
44.45551 323
44.47562 319
44.49573 304
44.51585 313
44.53596 294
44.55607 305
44.57619 330
44.5963 315
44.61642 303
44.63653 323
44.65664 326
44.67676 335
44.69687 328
44.71698 303
44.7371 338
44.75721 298
44.77732 335
44.79744 337
44.81755 305
44.83767 338
44.85778 340
44.87789 346
44.89801 340
44.91812 310
44.93823 329
44.95835 320
44.97846 382
44.99858 320
45.01869 319
45.0388 328
45.05892 347
45.07903 312
45.09914 349
45.11926 321
45.13937 313
45.15949 312
45.1796 336
45.19971 339
45.21983 390
45.23994 375
45.26005 344
45.28017 365
45.30028 400
45.32039 367
45.34051 367
45.36062 399
45.38074 408
45.40085 351
45.42096 400
45.44108 368
45.46119 446
45.4813 406
45.50142 410
45.52153 481
45.54165 434
45.56176 443
45.58187 440
45.60199 480
45.6221 454
45.64221 544
45.66233 595
45.68244 728
45.70256 772
45.72267 872
45.74278 948
45.7629 938
45.78301 896
45.80312 808
45.82324 676
45.84335 698
45.86346 681
45.88358 641
45.90369 570
45.92381 521
45.94392 447
45.96403 389
45.98415 364
46.00426 371
46.02437 348
46.04449 313
46.0646 331
46.08472 346
46.10483 376
46.12494 361
46.14506 317
46.16517 301
46.18528 314
46.2054 311
46.22551 338
46.24563 322
46.26574 327
46.28585 301
46.30597 341
46.32608 333
46.34619 345
46.36631 296
46.38642 319
46.40653 300
46.42665 313
46.44676 313
46.46688 339
46.48699 343
46.5071 311
46.52722 333
46.54733 334
46.56744 291
46.58756 342
46.60767 337
46.62779 308
46.6479 349
46.66801 343
46.68813 334
46.70824 320
46.72835 340
46.74847 272
46.76858 306
46.78869 331
46.80881 323
46.82892 346
46.84904 323
46.86915 325
46.88926 312
46.90938 338
46.92949 313
46.9496 346
46.96972 314
46.98983 333
47.00995 325
47.03006 330
47.05017 318
47.07029 311
47.0904 322
47.11051 323
47.13063 339
47.15074 315
47.17086 274
47.19097 293
47.21108 332
47.2312 311
47.25131 320
47.27142 286
47.29154 330
47.31165 327
47.33176 310
47.35188 315
47.37199 307
47.39211 315
47.41222 302
47.43233 302
47.45245 288
47.47256 320
47.49267 303
47.51279 330
47.5329 316
47.55302 358
47.57313 316
47.59324 312
47.61336 327
47.63347 310
47.65358 304
47.6737 325
47.69381 322
47.71393 319
47.73404 348
47.75415 336
47.77427 324
47.79438 315
47.81449 365
47.83461 340
47.85472 351
47.87483 332
47.89495 363
47.91506 321
47.93518 355
47.95529 339
47.9754 320
47.99552 354
48.01563 314
48.03574 307
48.05586 287
48.07597 325
48.09609 315
48.1162 358
48.13631 290
48.15643 323
48.17654 270
48.19665 326
48.21677 304
48.23688 313
48.257 317
48.27711 271
48.29722 334
48.31734 361
48.33745 327
48.35756 306
48.37768 330
48.39779 327
48.4179 324
48.43802 339
48.45813 310
48.47825 302
48.49836 329
48.51847 324
48.53859 321
48.5587 327
48.57881 337
48.59893 360
48.61904 342
48.63916 348
48.65927 340
48.67938 303
48.6995 329
48.71961 305
48.73972 346
48.75984 343
48.77995 301
48.80006 359
48.82018 328
48.84029 315
48.86041 330
48.88052 339
48.90063 332
48.92075 338
48.94086 316
48.96097 320
48.98109 336
49.0012 308
49.02132 322
49.04143 346
49.06154 334
49.08166 317
49.10177 357
49.12188 326
49.142 357
49.16211 342
49.18223 331
49.20234 354
49.22245 328
49.24257 350
49.26268 344
49.28279 328
49.30291 342
49.32302 338
49.34313 352
49.36325 344
49.38336 364
49.40348 348
49.42359 338
49.4437 367
49.46382 360
49.48393 357
49.50404 346
49.52416 352
49.54427 356
49.56439 366
49.5845 346
49.60461 349
49.62473 354
49.64484 362
49.66495 366
49.68507 390
49.70518 354
49.7253 426
49.74541 383
49.76552 402
49.78564 447
49.80575 424
49.82586 447
49.84598 499
49.86609 533
49.8862 569
49.90632 620
49.92643 648
49.94655 818
49.96666 924
49.98677 1014
50.00689 1260
50.027 1526
50.04711 1940
50.06723 2229
50.08734 2440
50.10746 2490
50.12757 2348
50.14768 2021
50.1678 1675
50.18791 1407
50.20802 1373
50.22814 1409
50.24825 1313
50.26837 1077
50.28848 855
50.30859 655
50.32871 546
50.34882 420
50.36893 444
50.38905 438
50.40916 404
50.42927 375
50.44939 379
50.4695 364
50.48962 382
50.50973 366
50.52984 375
50.54996 370
50.57007 382
50.59018 379
50.6103 370
50.63041 398
50.65053 343
50.67064 363
50.69075 358
50.71087 365
50.73098 330
50.75109 361
50.77121 338
50.79132 365
50.81143 362
50.83155 342
50.85166 353
50.87178 324
50.89189 357
50.912 371
50.93212 348
50.95223 336
50.97234 373
50.99246 352
51.01257 317
51.03269 329
51.0528 320
51.07291 352
51.09303 290
51.11314 310
51.13325 315
51.15337 289
51.17348 318
51.1936 313
51.21371 320
51.23382 317
51.25394 309
51.27405 302
51.29416 298
51.31428 308
51.33439 324
51.3545 307
51.37462 285
51.39473 284
51.41485 325
51.43496 341
51.45507 275
51.47519 284
51.4953 283
51.51541 305
51.53553 284
51.55564 289
51.57576 283
51.59587 316
51.61598 319
51.6361 326
51.65621 304
51.67632 288
51.69644 339
51.71655 304
51.73667 295
51.75678 295
51.77689 303
51.79701 311
51.81712 282
51.83723 322
51.85735 286
51.87746 309
51.89757 278
51.91769 314
51.9378 295
51.95792 306
51.97803 270
51.99814 305
52.01826 301
52.03837 306
52.05848 295
52.0786 312
52.09871 294
52.11883 287
52.13894 292
52.15905 260
52.17917 306
52.19928 308
52.21939 277
52.23951 275
52.25962 302
52.27974 253
52.29985 302
52.31996 276
52.34008 297
52.36019 273
52.3803 298
52.40042 288
52.42053 287
52.44064 309
52.46076 310
52.48087 287
52.50099 312
52.5211 319
52.54121 300
52.56133 304
52.58144 333
52.60155 303
52.62167 328
52.64178 293
52.6619 282
52.68201 294
52.70212 286
52.72224 330
52.74235 296
52.76246 322
52.78258 310
52.80269 303
52.8228 276
52.84292 289
52.86303 330
52.88315 319
52.90326 314
52.92337 346
52.94349 316
52.9636 325
52.98371 341
53.00383 312
53.02394 328
53.04406 328
53.06417 334
53.08428 348
53.1044 332
53.12451 332
53.14462 302
53.16474 337
53.18485 312
53.20497 306
53.22508 348
53.24519 319
53.26531 332
53.28542 349
53.30553 332
53.32565 331
53.34576 324
53.36587 344
53.38599 320
53.4061 341
53.42622 324
53.44633 336
53.46644 351
53.48656 367
53.50667 355
53.52678 360
53.5469 391
53.56701 345
53.58713 389
53.60724 365
53.62735 371
53.64747 380
53.66758 359
53.68769 384
53.70781 383
53.72792 348
53.74804 375
53.76815 346
53.78826 364
53.80838 395
53.82849 387
53.8486 414
53.86872 382
53.88883 346
53.90894 367
53.92906 378
53.94917 365
53.96929 381
53.9894 421
54.00951 393
54.02963 374
54.04974 396
54.06985 413
54.08997 371
54.11008 390
54.1302 395
54.15031 418
54.17042 398
54.19054 405
54.21065 406
54.23076 428
54.25088 409
54.27099 388
54.29111 391
54.31122 421
54.33133 430
54.35145 394
54.37156 392
54.39167 372
54.41179 406
54.4319 398
54.45201 362
54.47213 406
54.49224 354
54.51236 404
54.53247 426
54.55258 429
54.5727 421
54.59281 408
54.61292 430
54.63304 476
54.65315 485
54.67327 511
54.69338 586
54.71349 617
54.73361 689
54.75372 735
54.77383 836
54.79395 928
54.81406 1030
54.83417 1042
54.85429 1002
54.8744 868
54.89452 790
54.91463 752
54.93474 711
54.95486 711
54.97497 739
54.99508 709
55.0152 648
55.03531 571
55.05543 542
55.07554 491
55.09565 512
55.11577 458
55.13588 456
55.15599 474
55.17611 531
55.19622 521
55.21634 572
55.23645 592
55.25656 635
55.27668 610
55.29679 593
55.3169 581
55.33702 552
55.35713 553
55.37724 496
55.39736 505
55.41747 486
55.43759 500
55.4577 415
55.47781 477
55.49793 450
55.51804 398
55.53815 411
55.55827 320
55.57838 365
55.5985 345
55.61861 364
55.63872 367
55.65884 367
55.67895 341
55.69906 350
55.71918 380
55.73929 310
55.75941 354
55.77952 374
55.79963 353
55.81975 379
55.83986 336
55.85997 335
55.88009 373
55.9002 349
55.92031 303
55.94043 334
55.96054 320
55.98066 291
56.00077 335
56.02088 318
56.041 332
56.06111 334
56.08122 364
56.10134 345
56.12145 321
56.14157 300
56.16168 306
56.18179 323
56.20191 346
56.22202 327
56.24213 318
56.26225 329
56.28236 326
56.30248 340
56.32259 348
56.3427 343
56.36282 307
56.38293 316
56.40304 341
56.42316 324
56.44327 313
56.46338 360
56.4835 350
56.50361 358
56.52373 316
56.54384 351
56.56395 336
56.58407 294
56.60418 346
56.62429 329
56.64441 335
56.66452 339
56.68464 353
56.70475 339
56.72486 366
56.74498 334
56.76509 320
56.7852 349
56.80532 316
56.82543 353
56.84554 352
56.86566 322
56.88577 302
56.90589 326
56.926 357
56.94611 269
56.96623 339
56.98634 331
57.00645 340
57.02657 374
57.04668 294
57.0668 349
57.08691 342
57.10702 304
57.12714 308
57.14725 320
57.16736 341
57.18748 343
57.20759 363
57.22771 368
57.24782 319
57.26793 335
57.28805 342
57.30816 345
57.32827 316
57.34839 331
57.3685 341
57.38861 292
57.40873 294
57.42884 304
57.44896 308
57.46907 342
57.48918 322
57.5093 302
57.52941 318
57.54952 334
57.56964 328
57.58975 308
57.60987 327
57.62998 339
57.65009 318
57.67021 335
57.69032 316
57.71043 291
57.73055 322
57.75066 324
57.77078 314
57.79089 300
57.811 289
57.83112 335
57.85123 293
57.87134 313
57.89146 302
57.91157 348
57.93168 316
57.9518 330
57.97191 302
57.99203 302
58.01214 337
58.03225 287
58.05237 329
58.07248 332
58.09259 301
58.11271 281
58.13282 294
58.15294 311
58.17305 282
58.19316 303
58.21328 302
58.23339 307
58.2535 293
58.27362 268
58.29373 290
58.31385 320
58.33396 307
58.35407 305
58.37419 313
58.3943 305
58.41441 272
58.43453 287
58.45464 321
58.47475 311
58.49487 265
58.51498 303
58.5351 304
58.55521 292
58.57532 317
58.59544 308
58.61555 336
58.63566 281
58.65578 324
58.67589 280
58.69601 315
58.71612 314
58.73623 318
58.75635 322
58.77646 334
58.79657 299
58.81669 298
58.8368 313
58.85691 303
58.87703 301
58.89714 306
58.91726 293
58.93737 301
58.95748 296
58.9776 280
58.99771 332
59.01782 316
59.03794 331
59.05805 293
59.07817 322
59.09828 307
59.11839 323
59.13851 326
59.15862 337
59.17873 294
59.19885 319
59.21896 341
59.23908 320
59.25919 372
59.2793 318
59.29942 285
59.31953 331
59.33964 320
59.35976 322
59.37987 338
59.39998 329
59.4201 332
59.44021 342
59.46033 357
59.48044 363
59.50055 379
59.52067 327
59.54078 367
59.56089 400
59.58101 412
59.60112 406
59.62124 460
59.64135 434
59.66146 455
59.68158 474
59.70169 546
59.7218 516
59.74192 611
59.76203 695
59.78215 792
59.80226 941
59.82237 985
59.84249 1216
59.8626 1402
59.88271 1493
59.90283 1648
59.92294 1696
59.94305 1607
59.96317 1309
59.98328 1102
60.0034 970
60.02351 932
60.04362 1042
60.06374 1017
60.08385 942
60.10396 928
60.12408 731
60.14419 575
60.16431 478
60.18442 430
60.20453 406
60.22465 401
60.24476 364
60.26487 368
60.28499 365
60.3051 339
60.32522 319
60.34533 297
60.36544 327
60.38556 319
60.40567 291
60.42578 310
60.4459 324
60.46601 285
60.48612 294
60.50624 323
60.52635 292
60.54647 313
60.56658 287
60.58669 314
60.60681 307
60.62692 299
60.64703 276
60.66715 310
60.68726 313
60.70738 315
60.72749 289
60.7476 291
60.76772 309
60.78783 298
60.80794 308
60.82806 323
60.84817 305
60.86828 294
60.8884 308
60.90851 323
60.92863 306
60.94874 310
60.96885 278
60.98897 283
61.00908 294
61.02919 300
61.04931 317
61.06942 271
61.08954 326
61.10965 291
61.12976 279
61.14988 297
61.16999 318
61.1901 288
61.21022 304
61.23033 275
61.25045 315
61.27056 287
61.29067 286
61.31079 287
61.3309 288
61.35101 316
61.37113 336
61.39124 292
61.41135 339
61.43147 304
61.45158 320
61.4717 321
61.49181 294
61.51192 324
61.53204 313
61.55215 308
61.57226 307
61.59238 338
61.61249 336
61.63261 317
61.65272 317
61.67283 338
61.69295 338
61.71306 344
61.73317 331
61.75329 358
61.7734 346
61.79352 318
61.81363 384
61.83374 366
61.85386 386
61.87397 362
61.89408 377
61.9142 330
61.93431 360
61.95442 362
61.97454 372
61.99465 370
62.01477 396
62.03488 393
62.05499 418
62.07511 390
62.09522 446
62.11533 426
62.13545 417
62.15556 418
62.17568 421
62.19579 458
62.2159 464
62.23602 476
62.25613 492
62.27624 492
62.29636 467
62.31647 469
62.33659 458
62.3567 423
62.37681 431
62.39693 410
62.41704 393
62.43715 407
62.45727 378
62.47738 440
62.49749 414
62.51761 376
62.53772 352
62.55784 386
62.57795 356
62.59806 349
62.61818 326
62.63829 320
62.6584 343
62.67852 317
62.69863 298
62.71875 337
62.73886 356
62.75897 305
62.77909 352
62.7992 302
62.81931 329
62.83943 289
62.85954 338
62.87965 322
62.89977 300
62.91988 307
62.94 329
62.96011 315
62.98022 328
63.00034 322
63.02045 303
63.04056 303
63.06068 286
63.08079 313
63.10091 319
63.12102 328
63.14113 336
63.16125 323
63.18136 323
63.20147 303
63.22159 307
63.2417 327
63.26182 328
63.28193 316
63.30204 336
63.32216 342
63.34227 290
63.36238 310
63.3825 295
63.40261 327
63.42272 271
63.44284 310
63.46295 278
63.48307 329
63.50318 315
63.52329 315
63.54341 299
63.56352 301
63.58363 323
63.60375 310
63.62386 327
63.64398 333
63.66409 331
63.6842 339
63.70432 318
63.72443 377
63.74454 361
63.76466 348
63.78477 374
63.80489 339
63.825 414
63.84511 381
63.86523 419
63.88534 462
63.90545 446
63.92557 503
63.94568 494
63.96579 556
63.98591 577
64.00602 521
64.02614 577
64.04625 511
64.06636 497
64.08648 466
64.10659 424
64.1267 457
64.14682 444
64.16693 414
64.18705 474
64.20716 381
64.22727 385
64.24739 368
64.2675 362
64.28761 337
64.30773 365
64.32784 342
64.34796 322
64.36807 347
64.38818 340
64.4083 326
64.42841 288
64.44852 329
64.46864 294
64.48875 305
64.50886 303
64.52898 342
64.54909 332
64.56921 287
64.58932 293
64.60943 284
64.62955 312
64.64966 282
64.66977 285
64.68989 276
64.71 304
64.73012 303
64.75023 330
64.77034 290
64.79046 291
64.81057 306
64.83068 280
64.8508 272
64.87091 315
64.89102 282
64.91114 290
64.93125 291
64.95137 291
64.97148 280
64.99159 298
65.01171 327
65.03182 302
65.05193 285
65.07205 289
65.09216 302
65.11228 311
65.13239 283
65.1525 300
65.17262 271
65.19273 288
65.21284 251
65.23296 280
65.25307 305
65.27319 262
65.2933 300
65.31341 285
65.33353 282
65.35364 277
65.37375 274
65.39387 285
65.41398 271
65.43409 312
65.45421 284
65.47432 295
65.49444 305
65.51455 333
65.53466 310
65.55478 299
65.57489 293
65.595 303
65.61512 306
65.63523 303
65.65535 321
65.67546 332
65.69557 335
65.71569 315
65.7358 341
65.75591 359
65.77603 327
65.79614 318
65.81626 294
65.83637 314
65.85648 329
65.8766 291
65.89671 314
65.91682 343
65.93694 316
65.95705 301
65.97716 306
65.99728 298
66.01739 296
66.03751 298
66.05762 307
66.07773 317
66.09785 295
66.11796 273
66.13807 273
66.15819 295
66.1783 272
66.19842 294
66.21853 297
66.23864 289
66.25876 308
66.27887 262
66.29898 296
66.3191 276
66.33921 292
66.35933 268
66.37944 302
66.39955 277
66.41967 271
66.43978 283
66.45989 281
66.48001 283
66.50012 288
66.52023 256
66.54035 294
66.56046 258
66.58058 289
66.60069 257
66.6208 294
66.64092 274
66.66103 278
66.68114 273
66.70126 298
66.72137 287
66.74149 303
66.7616 315
66.78171 246
66.80183 295
66.82194 281
66.84205 290
66.86217 279
66.88228 287
66.90239 281
66.92251 294
66.94262 270
66.96274 297
66.98285 281
67.00296 298
67.02308 314
67.04319 308
67.0633 301
67.08342 294
67.10353 323
67.12365 301
67.14376 291
67.16387 305
67.18399 302
67.2041 315
67.22421 301
67.24433 306
67.26444 321
67.28456 311
67.30467 332
67.32478 326
67.3449 300
67.36501 348
67.38512 335
67.40524 332
67.42535 375
67.44546 395
67.46558 400
67.48569 383
67.50581 430
67.52592 460
67.54603 510
67.56615 561
67.58626 626
67.60637 746
67.62649 862
67.6466 951
67.66672 1051
67.68683 1105
67.70694 1008
67.72706 950
67.74717 859
67.76728 788
67.7874 739
67.80751 693
67.82763 714
67.84774 746
67.86785 786
67.88797 837
67.90808 862
67.92819 786
67.94831 767
67.96842 809
67.98853 787
68.00865 919
68.02876 1046
68.04888 1135
68.06899 1215
68.0891 1321
68.10922 1314
68.12933 1317
68.14944 1245
68.16956 1109
68.18967 983
68.20979 1096
68.2299 1192
68.25001 1285
68.27013 1192
68.29024 1197
68.31035 1038
68.33047 969
68.35058 794
68.3707 698
68.39081 627
68.41092 613
68.43104 623
68.45115 568
68.47126 545
68.49138 560
68.51149 448
68.5316 383
68.55172 424
68.57183 345
68.59195 319
68.61206 319
68.63217 329
68.65229 328
68.6724 329
68.69251 317
68.71263 304
68.73274 305
68.75286 340
68.77297 302
68.79308 297
68.8132 294
68.83331 326
68.85342 305
68.87354 306
68.89365 288
68.91376 279
68.93388 298
68.95399 279
68.97411 281
68.99422 295
69.01433 271
69.03445 281
69.05456 304
69.07467 275
69.09479 279
69.1149 293
69.13502 290
69.15513 284
69.17524 290
69.19536 308
69.21547 291
69.23558 302
69.2557 278
69.27581 277
69.29593 293
69.31604 270
69.33615 261
69.35627 274
69.37638 292
69.39649 292
69.41661 274
69.43672 271
69.45683 275
69.47695 248
69.49706 266
69.51718 264
69.53729 296
69.5574 305
69.57752 285
69.59763 295
69.61774 293
69.63786 275
69.65797 267
69.67809 270
69.6982 266
69.71831 262
69.73843 299
69.75854 314
69.77865 281
69.79877 268
69.81888 287
69.839 286
69.85911 261
69.87922 299
69.89934 247
69.91945 309
69.93956 281
69.95968 295
69.97979 275
69.9999 294
70.02002 282
70.04013 257
70.06025 272
70.08036 279
70.10047 290
70.12059 266
70.1407 274
70.16081 289
70.18093 283
70.20104 275
70.22116 282
70.24127 273
70.26138 295
70.2815 274
70.30161 304
70.32172 306
70.34184 288
70.36195 298
70.38207 269
70.40218 260
70.42229 251
70.44241 292
70.46252 284
70.48263 282
70.50275 259
70.52286 259
70.54297 258
70.56309 265
70.5832 252
70.60332 276
70.62343 267
70.64354 267
70.66366 242
70.68377 255
70.70388 270
70.724 306
70.74411 276
70.76423 251
70.78434 275
70.80445 256
70.82457 248
70.84468 252
70.86479 241
70.88491 249
70.90502 291
70.92513 258
70.94525 273
70.96536 284
70.98548 249
71.00559 278
71.0257 227
71.04582 269
71.06593 253
71.08604 272
71.10616 271
71.12627 266
71.14639 221
71.1665 254
71.18661 261
71.20673 270
71.22684 257
71.24695 290
71.26707 253
71.28718 271
71.3073 276
71.32741 264
71.34752 238
71.36764 256
71.38775 277
71.40786 264
71.42798 284
71.44809 265
71.4682 272
71.48832 262
71.50843 270
71.52855 268
71.54866 265
71.56877 260
71.58889 288
71.609 278
71.62911 244
71.64923 257
71.66934 259
71.68946 289
71.70957 260
71.72968 309
71.7498 279
71.76991 307
71.79002 281
71.81014 260
71.83025 282
71.85037 273
71.87048 265
71.89059 272
71.91071 269
71.93082 292
71.95093 295
71.97105 324
71.99116 272
72.01127 281
72.03139 292
72.0515 265
72.07162 270
72.09173 289
72.11184 281
72.13196 293
72.15207 313
72.17218 305
72.1923 287
72.21241 277
72.23253 255
72.25264 287
72.27275 262
72.29287 293
72.31298 276
72.33309 309
72.35321 267
72.37332 270
72.39344 275
72.41355 285
72.43366 295
72.45378 300
72.47389 292
72.494 280
72.51412 300
72.53423 281
72.55434 288
72.57446 267
72.59457 289
72.61469 298
72.6348 275
72.65491 252
72.67503 252
72.69514 283
72.71525 285
72.73537 282
72.75548 275
72.7756 291
72.79571 282
72.81582 255
72.83594 262
72.85605 259
72.87616 265
72.89628 260
72.91639 288
72.9365 288
72.95662 295
72.97673 277
72.99685 284
73.01696 310
73.03707 291
73.05719 296
73.0773 285
73.09741 297
73.11753 284
73.13764 283
73.15776 307
73.17787 307
73.19798 337
73.2181 319
73.23821 291
73.25832 353
73.27844 364
73.29855 418
73.31867 415
73.33878 483
73.35889 431
73.37901 495
73.39912 528
73.41923 560
73.43935 558
73.45946 536
73.47957 471
73.49969 418
73.5198 365
73.53992 384
73.56003 386
73.58014 406
73.60026 427
73.62037 407
73.64048 425
73.6606 411
73.68071 393
73.70083 348
73.72094 320
73.74105 319
73.76117 272
73.78128 310
73.80139 295
73.82151 273
73.84162 283
73.86174 293
73.88185 242
73.90196 276
73.92208 273
73.94219 274
73.9623 249
73.98242 278
74.00253 291
74.02264 281
74.04276 266
74.06287 255
74.08299 243
74.1031 257
74.12321 259
74.14333 266
74.16344 246
74.18355 300
74.20367 270
74.22378 247
74.2439 288
74.26401 249
74.28412 257
74.30424 280
74.32435 249
74.34446 258
74.36458 264
74.38469 243
74.40481 273
74.42492 264
74.44503 272
74.46515 286
74.48526 270
74.50537 271
74.52549 288
74.5456 261
74.56571 241
74.58583 243
74.60594 301
74.62606 254
74.64617 248
74.66628 274
74.6864 257
74.70651 263
74.72662 263
74.74674 264
74.76685 257
74.78697 280
74.80708 291
74.82719 276
74.84731 251
74.86742 253
74.88753 277
74.90765 279
74.92776 284
74.94787 243
74.96799 271
74.9881 253
75.00822 287
