3.00117 20004
3.02128 19995
3.0414 19034
3.06151 18898
3.08162 18374
3.10174 17716
3.12185 17266
3.14197 16569
3.16208 16634
3.18219 15967
3.20231 15620
3.22242 15051
3.24253 14523
3.26265 14175
3.28276 13951
3.30288 13330
3.32299 12865
3.3431 12453
3.36322 12382
3.38333 11797
3.40344 11511
3.42356 11324
3.44367 10772
3.46379 10365
3.4839 10237
3.50401 9705
3.52413 9703
3.54424 8922
3.56435 9032
3.58447 8764
3.60458 8367
3.62469 8170
3.64481 7561
3.66492 7648
3.68504 7178
3.70515 6937
3.72526 6707
3.74538 6210
3.76549 6370
3.7856 5971
3.80572 5868
3.82583 5579
3.84595 5227
3.86606 5110
3.88617 5124
3.90629 4801
3.9264 4639
3.94651 4224
3.96663 4402
3.98674 4034
4.00686 3801
4.02697 3754
4.04708 3512
4.0672 3588
4.08731 3528
4.10742 3147
4.12754 3087
4.14765 2955
4.16776 3001
4.18788 3035
4.20799 2784
4.22811 2667
4.24822 2713
4.26833 2562
4.28845 2589
4.30856 2260
4.32867 2341
4.34879 2225
4.3689 2275
4.38902 2104
4.40913 2093
4.42924 2104
4.44936 2099
4.46947 1986
4.48958 1979
4.5097 1936
4.52981 1870
4.54992 1895
4.57004 1794
4.59015 1822
4.61027 1721
4.63038 1686
4.65049 1623
4.67061 1724
4.69072 1661
4.71083 1580
4.73095 1551
4.75106 1540
4.77118 1546
4.79129 1546
4.8114 1455
4.83152 1454
4.85163 1449
4.87174 1407
4.89186 1399
4.91197 1346
4.93209 1349
4.9522 1324
4.97231 1291
4.99243 1336
5.01254 1335
5.03265 1293
5.05277 1193
5.07288 1214
5.09299 1230
5.11311 1152
5.13322 1113
5.15334 1159
5.17345 1134
5.19356 1106
5.21368 1158
5.23379 1076
5.2539 1089
5.27402 1042
5.29413 1067
5.31425 1056
5.33436 987
5.35447 1083
5.37459 975
5.3947 1001
5.41481 957
5.43493 1006
5.45504 940
5.47516 992
5.49527 891
5.51538 990
5.5355 967
5.55561 933
5.57572 913
5.59584 879
5.61595 888
5.63606 879
5.65618 879
5.67629 862
5.69641 875
5.71652 868
5.73663 875
5.75675 884
5.77686 812
5.79697 788
5.81709 832
5.8372 789
5.85732 786
5.87743 816
5.89754 844
5.91766 788
5.93777 771
5.95788 772
5.978 785
5.99811 796
6.01823 737
6.03834 746
6.05845 821
6.07857 764
6.09868 729
6.11879 792
6.13891 786
6.15902 778
6.17913 742
6.19925 760
6.21936 750
6.23948 710
6.25959 759
6.2797 725
6.29982 752
6.31993 723
6.34004 680
6.36016 732
6.38027 755
6.40039 702
6.4205 682
6.44061 668
6.46073 674
6.48084 646
6.50095 713
6.52107 783
6.54118 701
6.56129 720
6.58141 696
6.60152 720
6.62164 746
6.64175 749
6.66186 657
6.68198 709
6.70209 742
6.7222 685
6.74232 660
6.76243 676
6.78255 704
6.80266 663
6.82277 647
6.84289 675
6.863 713
6.88311 673
6.90323 722
6.92334 695
6.94346 701
6.96357 691
6.98368 672
7.0038 676
7.02391 635
7.04402 660
7.06414 726
7.08425 677
7.10436 633
7.12448 750
7.14459 638
7.16471 645
7.18482 621
7.20493 656
7.22505 668
7.24516 640
7.26527 625
7.28539 657
7.3055 671
7.32562 601
7.34573 692
7.36584 663
7.38596 648
7.40607 648
7.42618 677
7.4463 660
7.46641 632
7.48653 632
7.50664 654
7.52675 636
7.54687 644
7.56698 637
7.58709 614
7.60721 650
7.62732 675
7.64743 637
7.66755 684
7.68766 634
7.70778 644
7.72789 641
7.748 699
7.76812 606
7.78823 645
7.80834 626
7.82846 622
7.84857 640
7.86869 619
7.8888 590
7.90891 623
7.92903 632
7.94914 639
7.96925 638
7.98937 614
8.00948 604
8.0296 641
8.04971 634
8.06982 588
8.08994 624
8.11005 665
8.13016 640
8.15028 645
8.17039 617
8.1905 604
8.21062 615
8.23073 614
8.25085 648
8.27096 594
8.29107 612
8.31119 611
8.3313 608
8.35141 655
8.37153 618
8.39164 586
8.41176 617
8.43187 655
8.45198 613
8.4721 624
8.49221 648
8.51232 612
8.53244 606
8.55255 609
8.57266 611
8.59278 634
8.61289 624
8.63301 665
8.65312 582
8.67323 643
8.69335 605
8.71346 609
8.73357 605
8.75369 601
8.7738 648
8.79392 604
8.81403 654
8.83414 594
8.85426 634
8.87437 633
8.89448 667
8.9146 580
8.93471 608
8.95483 590
8.97494 575
8.99505 578
9.01517 600
9.03528 577
9.05539 643
9.07551 594
9.09562 595
9.11573 576
9.13585 589
9.15596 606
9.17608 586
9.19619 574
9.2163 607
9.23642 566
9.25653 605
9.27664 610
9.29676 633
9.31687 558
9.33699 567
9.3571 645
9.37721 575
9.39733 620
9.41744 617
9.43755 547
9.45767 596
9.47778 563
9.4979 584
9.51801 586
9.53812 589
9.55824 629
9.57835 582
9.59846 578
9.61858 588
9.63869 609
9.6588 603
9.67892 568
9.69903 619
9.71915 609
9.73926 607
9.75937 619
9.77949 570
9.7996 646
9.81971 619
9.83983 617
9.85994 567
9.88006 620
9.90017 636
9.92028 591
9.9404 578
9.96051 557
9.98062 587
10.00074 565
10.02085 568
10.04097 605
10.06108 579
10.08119 562
10.10131 617
10.12142 599
10.14153 608
10.16165 551
10.18176 586
10.20187 570
10.22199 583
10.2421 606
10.26222 574
10.28233 612
10.30244 537
10.32256 573
10.34267 595
10.36278 589
10.3829 561
10.40301 550
10.42313 637
10.44324 667
10.46335 663
10.48347 620
10.50358 579
10.52369 632
10.54381 572
10.56392 603
10.58403 576
10.60415 618
10.62426 615
10.64438 589
10.66449 554
10.6846 624
10.70472 608
10.72483 624
10.74494 561
10.76506 643
10.78517 553
10.80529 554
10.8254 617
10.84551 625
10.86563 621
10.88574 602
10.90585 618
10.92597 598
10.94608 639
10.9662 589
10.98631 590
11.00642 613
11.02654 627
11.04665 606
11.06676 589
11.08688 586
11.10699 576
11.1271 614
11.14722 596
11.16733 555
11.18745 612
11.20756 604
11.22767 615
11.24779 616
11.2679 609
11.28801 630
11.30813 589
11.32824 605
11.34836 589
11.36847 627
11.38858 665
11.4087 587
11.42881 648
11.44892 621
11.46904 609
11.48915 615
11.50927 678
11.52938 620
11.54949 630
11.56961 652
11.58972 601
11.60983 597
11.62995 672
11.65006 604
11.67017 649
11.69029 716
11.7104 631
11.73052 619
11.75063 629
11.77074 656
11.79086 661
11.81097 669
11.83108 618
11.8512 689
11.87131 713
11.89143 637
11.91154 677
11.93165 688
11.95177 719
11.97188 666
11.99199 655
12.01211 687
12.03222 697
12.05234 721
12.07245 745
12.09256 730
12.11268 671
12.13279 681
12.1529 642
12.17302 764
12.19313 661
12.21324 752
12.23336 688
12.25347 669
12.27359 707
12.2937 655
12.31381 723
12.33393 654
12.35404 723
12.37415 700
12.39427 655
12.41438 648
12.4345 632
12.45461 596
12.47472 616
12.49484 591
12.51495 643
12.53506 615
12.55518 609
12.57529 566
12.5954 599
12.61552 580
12.63563 607
12.65575 637
12.67586 592
12.69597 545
12.71609 583
12.7362 576
12.75631 568
12.77643 603
12.79654 543
12.81666 544
12.83677 538
12.85688 530
12.877 564
12.89711 582
12.91722 525
12.93734 520
12.95745 576
12.97757 557
12.99768 557
13.01779 531
13.03791 513
13.05802 568
13.07813 570
13.09825 541
13.11836 581
13.13847 551
13.15859 547
13.1787 526
13.19882 546
13.21893 609
13.23904 554
13.25916 583
13.27927 539
13.29938 587
13.3195 523
13.33961 511
13.35973 574
13.37984 521
13.39995 520
13.42007 477
13.44018 541
13.46029 511
13.48041 509
13.50052 558
13.52064 557
13.54075 559
13.56086 563
13.58098 533
13.60109 553
13.6212 593
13.64132 546
13.66143 494
13.68154 552
13.70166 538
13.72177 552
13.74189 529
13.762 516
13.78211 559
13.80223 562
13.82234 562
13.84245 549
13.86257 578
13.88268 560
13.9028 526
13.92291 522
13.94302 533
13.96314 524
13.98325 522
14.00336 508
14.02348 571
14.04359 528
14.06371 584
14.08382 522
14.10393 510
14.12405 512
14.14416 516
14.16427 528
14.18439 559
14.2045 531
14.22461 522
14.24473 548
14.26484 495
14.28496 519
14.30507 517
14.32518 518
14.3453 496
14.36541 549
14.38552 499
14.40564 493
14.42575 519
14.44587 529
14.46598 563
14.48609 472
14.50621 503
14.52632 516
14.54643 510
14.56655 499
14.58666 501
14.60677 558
14.62689 538
14.647 528
14.66712 519
14.68723 552
14.70734 532
14.72746 554
14.74757 545
14.76768 535
14.7878 543
14.80791 520
14.82803 537
14.84814 513
14.86825 572
14.88837 534
14.90848 533
14.92859 542
14.94871 520
14.96882 494
14.98894 546
15.00905 552
15.02916 526
15.04928 530
15.06939 485
15.0895 567
15.10962 555
15.12973 522
15.14984 537
15.16996 503
15.19007 510
15.21019 551
15.2303 534
15.25041 525
15.27053 526
15.29064 556
15.31075 519
15.33087 514
15.35098 510
15.3711 527
15.39121 539
15.41132 514
15.43144 564
15.45155 530
15.47166 518
15.49178 522
15.51189 522
15.53201 492
15.55212 510
15.57223 495
15.59235 504
15.61246 554
15.63257 561
15.65269 508
15.6728 500
15.69291 532
15.71303 484
15.73314 523
15.75326 491
15.77337 536
15.79348 562
15.8136 569
15.83371 481
15.85382 516
15.87394 528
15.89405 527
15.91417 542
15.93428 514
15.95439 529
15.97451 451
15.99462 527
16.01473 518
16.03485 531
16.05496 561
16.07508 510
16.09519 535
16.1153 561
16.13542 532
16.15553 517
16.17564 532
16.19576 540
16.21587 502
16.23598 500
16.2561 541
16.27621 512
16.29633 522
16.31644 494
16.33655 533
16.35667 537
16.37678 495
16.39689 510
16.41701 527
16.43712 502
16.45724 515
16.47735 538
16.49746 548
16.51758 532
16.53769 557
16.5578 517
16.57792 519
16.59803 536
16.61814 498
16.63826 535
16.65837 531
16.67849 544
16.6986 510
16.71871 505
16.73883 513
16.75894 530
16.77905 544
16.79917 528
16.81928 547
16.8394 484
16.85951 545
16.87962 512
16.89974 527
16.91985 472
16.93996 487
16.96008 536
16.98019 538
17.00031 509
17.02042 515
17.04053 515
17.06065 517
17.08076 534
17.10087 548
17.12099 504
17.1411 547
17.16121 524
17.18133 508
17.20144 514
17.22156 506
17.24167 577
17.26178 498
17.2819 536
17.30201 523
17.32212 540
17.34224 562
17.36235 529
17.38247 504
17.40258 585
17.42269 542
17.44281 537
17.46292 507
17.48303 525
17.50315 541
17.52326 488
17.54338 497
17.56349 549
17.5836 493
17.60372 527
17.62383 558
17.64394 549
17.66406 531
17.68417 519
17.70428 548
17.7244 501
17.74451 570
17.76463 505
17.78474 602
17.80485 536
17.82497 560
17.84508 535
17.86519 550
17.88531 551
17.90542 502
17.92554 546
17.94565 523
17.96576 554
17.98588 554
18.00599 535
18.0261 542
18.04622 577
18.06633 564
18.08645 547
18.10656 593
18.12667 606
18.14679 641
18.1669 639
18.18701 598
18.20713 647
18.22724 653
18.24735 618
18.26747 677
18.28758 630
18.3077 643
18.32781 601
18.34792 558
18.36804 585
18.38815 504
18.40826 603
18.42838 569
18.44849 552
18.46861 541
18.48872 518
18.50883 498
18.52895 548
18.54906 501
18.56917 503
18.58929 533
18.6094 521
18.62951 489
18.64963 535
18.66974 513
18.68986 582
18.70997 554
18.73008 526
18.7502 572
18.77031 507
18.79042 562
18.81054 577
18.83065 488
18.85077 564
18.87088 542
18.89099 546
18.91111 548
18.93122 549
18.95133 581
18.97145 560
18.99156 504
19.01168 502
19.03179 552
19.0519 559
19.07202 574
19.09213 599
19.11224 590
19.13236 536
19.15247 580
19.17258 593
19.1927 568
19.21281 605
19.23293 599
19.25304 635
19.27315 574
19.29327 589
19.31338 532
19.33349 597
19.35361 616
19.37372 597
19.39384 606
19.41395 638
19.43406 587
19.45418 640
19.47429 612
19.4944 608
19.51452 670
19.53463 632
19.55475 702
19.57486 687
19.59497 635
19.61509 656
19.6352 699
19.65531 672
19.67543 739
19.69554 714
19.71565 773
19.73577 730
19.75588 783
19.776 770
19.79611 783
19.81622 837
19.83634 805
19.85645 876
19.87656 820
19.89668 863
19.91679 860
19.93691 892
19.95702 859
19.97713 906
19.99725 852
20.01736 841
20.03747 879
20.05759 813
20.0777 863
20.09782 810
20.11793 801
20.13804 766
20.15816 868
20.17827 791
20.19838 741
20.2185 752
20.23861 790
20.25872 831
20.27884 763
20.29895 821
20.31907 781
20.33918 796
20.35929 816
20.37941 794
20.39952 818
20.41963 816
20.43975 780
20.45986 775
20.47998 765
20.50009 809
20.5202 761
20.54032 789
20.56043 738
20.58054 765
20.60066 810
20.62077 741
20.64088 787
20.661 758
20.68111 800
20.70123 787
20.72134 803
20.74145 842
20.76157 963
20.78168 1058
20.80179 998
20.82191 1050
20.84202 1078
20.86214 1046
20.88225 1033
20.90236 950
20.92248 886
20.94259 907
20.9627 773
20.98282 800
21.00293 820
21.02305 869
21.04316 829
21.06327 796
21.08339 784
21.1035 759
21.12361 739
21.14373 744
21.16384 731
21.18395 778
21.20407 715
21.22418 745
21.2443 704
21.26441 689
21.28452 761
21.30464 686
21.32475 668
21.34486 736
21.36498 696
21.38509 709
21.40521 662
21.42532 652
21.44543 672
21.46555 731
21.48566 748
21.50577 683
21.52589 686
21.546 720
21.56612 676
21.58623 656
21.60634 707
21.62646 676
21.64657 731
21.66668 736
21.6868 706
21.70691 722
21.72702 705
21.74714 642
21.76725 684
21.78737 664
21.80748 732
21.82759 709
21.84771 743
21.86782 698
21.88793 728
21.90805 748
21.92816 797
21.94828 859
21.96839 868
21.9885 797
22.00862 751
22.02873 793
22.04884 767
22.06896 777
22.08907 707
22.10919 700
22.1293 691
22.14941 650
22.16953 674
22.18964 695
22.20975 665
22.22987 661
22.24998 682
22.27009 659
22.29021 657
22.31032 676
22.33044 668
22.35055 626
22.37066 608
22.39078 674
22.41089 644
22.431 684
22.45112 673
22.47123 718
22.49135 703
22.51146 640
22.53157 674
22.55169 686
22.5718 659
22.59191 665
22.61203 657
22.63214 631
22.65225 623
22.67237 675
22.69248 651
22.7126 655
22.73271 712
22.75282 698
22.77294 673
22.79305 639
22.81316 724
22.83328 713
22.85339 723
22.87351 692
22.89362 715
22.91373 661
22.93385 695
22.95396 730
22.97407 708
22.99419 655
23.0143 684
23.03442 622
23.05453 678
23.07464 696
23.09476 665
23.11487 649
23.13498 690
23.1551 624
23.17521 643
23.19532 671
23.21544 637
23.23555 610
23.25567 652
23.27578 690
23.29589 644
23.31601 654
23.33612 666
23.35623 736
23.37635 679
23.39646 648
23.41658 681
23.43669 727
23.4568 719
23.47692 764
23.49703 681
23.51714 834
23.53726 813
23.55737 772
23.57749 789
23.5976 845
23.61771 729
23.63783 784
23.65794 778
23.67805 700
23.69817 753
23.71828 770
23.73839 722
23.75851 718
23.77862 712
23.79874 770
23.81885 720
23.83896 716
23.85908 726
23.87919 696
23.8993 696
23.91942 666
23.93953 734
23.95965 687
23.97976 779
23.99987 728
24.01999 715
24.0401 725
24.06021 720
24.08033 693
24.10044 720
24.12056 715
24.14067 706
24.16078 753
24.1809 693
24.20101 759
24.22112 731
24.24124 737
24.26135 771
24.28146 780
24.30158 761
24.32169 732
24.34181 710
24.36192 762
24.38203 756
24.40215 797
24.42226 769
24.44237 730
24.46249 738
24.4826 740
24.50272 676
24.52283 750
24.54294 738
24.56306 761
24.58317 793
24.60328 757
24.6234 740
24.64351 750
24.66362 744
24.68374 713
24.70385 775
24.72397 747
24.74408 694
24.76419 754
24.78431 737
24.80442 715
24.82453 757
24.84465 748
24.86476 786
24.88488 742
24.90499 775
24.9251 771
24.94522 747
24.96533 751
24.98544 789
25.00556 746
25.02567 744
25.04579 744
25.0659 753
25.08601 710
25.10613 716
25.12624 774
25.14635 708
25.16647 743
25.18658 746
25.20669 708
25.22681 768
25.24692 663
25.26704 731
25.28715 685
25.30726 768
25.32738 745
25.34749 697
25.3676 723
25.38772 710
25.40783 721
25.42795 743
25.44806 743
25.46817 768
25.48829 778
25.5084 772
25.52851 734
25.54863 706
25.56874 750
25.58886 791
25.60897 765
25.62908 746
25.6492 719
25.66931 750
25.68942 733
25.70954 739
25.72965 684
25.74976 649
25.76988 684
25.78999 705
25.81011 692
25.83022 657
25.85033 681
25.87045 667
25.89056 660
25.91067 659
25.93079 666
25.9509 661
25.97102 734
25.99113 744
26.01124 666
26.03136 657
26.05147 676
26.07158 680
26.0917 621
26.11181 681
26.13193 633
26.15204 680
26.17215 641
26.19227 676
26.21238 675
26.23249 694
26.25261 754
26.27272 710
26.29283 699
26.31295 688
26.33306 722
26.35318 754
26.37329 779
26.3934 800
26.41352 768
26.43363 826
26.45374 875
26.47386 959
26.49397 1070
26.51409 1249
26.5342 1503
26.55431 1757
26.57443 2147
26.59454 2368
26.61465 2409
26.63477 2347
26.65488 2017
26.67499 1725
26.69511 1425
26.71522 1200
26.73534 1036
26.75545 881
26.77556 774
26.79568 790
26.81579 754
26.8359 776
26.85602 750
26.87613 762
26.89625 753
26.91636 747
26.93647 803
26.95659 743
26.9767 808
26.99681 754
27.01693 791
27.03704 783
27.05716 797
27.07727 785
27.09738 738
27.1175 771
27.13761 729
27.15772 762
27.17784 703
27.19795 705
27.21806 707
27.23818 701
27.25829 676
27.27841 680
27.29852 672
27.31863 738
27.33875 724
27.35886 760
27.37897 784
27.39909 820
27.4192 828
27.43932 955
27.45943 956
27.47954 890
27.49966 857
27.51977 843
27.53988 851
27.56 824
27.58011 750
27.60023 718
27.62034 799
27.64045 806
27.66057 789
27.68068 839
27.70079 876
27.72091 950
27.74102 977
27.76113 977
27.78125 936
27.80136 998
27.82148 908
27.84159 871
27.8617 841
27.88182 857
27.90193 821
27.92204 915
27.94216 904
27.96227 906
27.98239 838
28.0025 799
28.02261 838
28.04273 734
28.06284 717
28.08295 688
28.10307 666
28.12318 701
28.1433 690
28.16341 648
28.18352 673
28.20364 682
28.22375 699
28.24386 680
28.26398 703
28.28409 672
28.3042 686
28.32432 670
28.34443 614
28.36455 666
28.38466 653
28.40477 650
28.42489 648
28.445 619
28.46511 599
28.48523 607
28.50534 667
28.52546 621
28.54557 633
28.56568 600
28.5858 654
28.60591 656
28.62602 575
28.64614 600
28.66625 595
28.68636 585
28.70648 575
28.72659 599
28.74671 593
28.76682 567
28.78693 569
28.80705 564
28.82716 573
28.84727 638
28.86739 630
28.8875 586
28.90762 589
28.92773 613
28.94784 581
28.96796 564
28.98807 560
29.00818 590
29.0283 592
29.04841 648
29.06853 598
29.08864 601
29.10875 618
29.12887 580
29.14898 596
29.16909 666
29.18921 600
29.20932 597
29.22943 593
29.24955 618
29.26966 595
29.28978 596
29.30989 604
29.33 630
29.35012 601
29.37023 585
29.39034 605
29.41046 619
29.43057 581
29.45069 591
29.4708 648
29.49091 547
29.51103 611
29.53114 628
29.55125 619
29.57137 632
29.59148 652
29.6116 668
29.63171 685
29.65182 699
29.67194 667
29.69205 693
29.71216 720
29.73228 735
29.75239 786
29.7725 817
29.79262 864
29.81273 841
29.83285 920
29.85296 933
29.87307 969
29.89319 960
29.9133 947
29.93341 900
29.95353 876
29.97364 818
29.99376 855
30.01387 785
30.03398 816
30.0541 722
30.07421 731
30.09432 716
30.11444 692
30.13455 712
30.15467 681
30.17478 680
30.19489 658
30.21501 724
30.23512 708
30.25523 656
30.27535 690
30.29546 736
30.31557 737
30.33569 673
30.3558 677
30.37592 721
30.39603 730
30.41614 711
30.43626 685
30.45637 627
30.47648 707
30.4966 659
30.51671 618
30.53683 647
30.55694 642
30.57705 642
30.59717 624
30.61728 628
30.63739 598
30.65751 627
30.67762 608
30.69773 658
30.71785 619
30.73796 672
30.75808 684
30.77819 670
30.7983 631
30.81842 678
30.83853 658
30.85864 606
30.87876 670
30.89887 603
30.91899 613
30.9391 607
30.95921 580
30.97933 593
30.99944 603
31.01955 595
31.03967 601
31.05978 555
31.0799 586
31.10001 600
31.12012 548
31.14024 579
31.16035 597
31.18046 623
31.20058 560
31.22069 600
31.2408 607
31.26092 580
31.28103 583
31.30115 627
31.32126 596
31.34137 625
31.36149 602
31.3816 620
31.40171 607
31.42183 585
31.44194 611
31.46206 633
31.48217 599
31.50228 569
31.5224 603
31.54251 566
31.56262 631
31.58274 601
31.60285 615
31.62297 596
31.64308 612
31.66319 629
31.68331 612
31.70342 635
31.72353 597
31.74365 564
31.76376 593
31.78387 563
31.80399 597
31.8241 558
31.84422 534
31.86433 566
31.88444 619
31.90456 610
31.92467 606
31.94478 576
31.9649 591
31.98501 585
32.00513 615
32.02524 590
32.04535 611
32.06547 658
32.08558 589
32.10569 614
32.12581 605
32.14592 624
32.16604 623
32.18615 651
32.20626 640
32.22638 688
32.24649 617
32.2666 623
32.28672 631
32.30683 626
32.32694 607
32.34706 651
32.36717 608
32.38729 625
32.4074 605
32.42751 663
32.44763 598
32.46774 614
32.48785 583
32.50797 584
32.52808 632
32.5482 590
32.56831 637
32.58842 633
32.60854 566
32.62865 598
32.64876 602
32.66888 571
32.68899 604
32.7091 615
32.72922 605
32.74933 653
32.76945 584
32.78956 601
32.80967 587
32.82979 621
32.8499 607
32.87001 606
32.89013 648
32.91024 598
32.93036 648
32.95047 609
32.97058 636
32.9907 630
33.01081 642
33.03092 603
33.05104 670
33.07115 591
33.09127 658
33.11138 650
33.13149 609
33.15161 616
33.17172 591
33.19183 596
33.21195 605
33.23206 586
33.25217 618
33.27229 548
33.2924 617
33.31252 562
33.33263 579
33.35274 581
33.37286 586
33.39297 611
33.41308 624
33.4332 549
33.45331 571
33.47343 598
33.49354 612
33.51365 558
33.53377 590
33.55388 582
33.57399 584
33.59411 592
33.61422 558
33.63434 579
33.65445 553
33.67456 598
33.69468 601
33.71479 579
33.7349 606
33.75502 614
33.77513 630
33.79524 605
33.81536 596
33.83547 594
33.85559 579
33.8757 647
33.89581 599
33.91593 583
33.93604 601
33.95615 619
33.97627 616
33.99638 633
34.0165 615
34.03661 600
34.05672 583
34.07684 634
34.09695 618
34.11706 608
34.13718 622
34.15729 658
34.17741 631
34.19752 622
34.21763 625
34.23775 641
34.25786 695
34.27797 677
34.29809 617
34.3182 645
34.33831 646
34.35843 671
34.37854 644
34.39866 655
34.41877 660
34.43888 702
34.459 687
34.47911 725
34.49922 634
34.51934 624
34.53945 740
34.55957 699
34.57968 676
34.59979 677
34.61991 721
34.64002 665
34.66013 709
34.68025 712
34.70036 697
34.72047 728
34.74059 722
34.7607 777
34.78082 734
34.80093 739
34.82104 780
34.84116 771
34.86127 783
34.88138 745
34.9015 774
34.92161 853
34.94173 871
34.96184 879
34.98195 872
35.00207 892
35.02218 925
35.04229 923
35.06241 961
35.08252 1026
35.10264 1106
35.12275 1135
35.14286 1225
35.16298 1300
35.18309 1391
35.2032 1390
35.22332 1553
35.24343 1521
35.26354 1466
35.28366 1476
35.30377 1440
35.32389 1284
35.344 1265
35.36411 1199
35.38423 1203
35.40434 1114
35.42445 1115
35.44457 1041
35.46468 1067
35.4848 1006
35.50491 983
35.52502 1020
35.54514 931
35.56525 998
35.58536 960
35.60548 926
35.62559 858
35.64571 878
35.66582 833
35.68593 853
35.70605 814
35.72616 813
35.74627 826
35.76639 799
35.7865 746
35.80661 757
35.82673 746
35.84684 714
35.86696 762
35.88707 735
35.90718 740
35.9273 664
35.94741 753
35.96752 687
35.98764 713
36.00775 699
36.02787 738
36.04798 728
36.06809 714
36.08821 677
36.10832 701
36.12843 765
36.14855 705
36.16866 696
36.18878 713
36.20889 720
36.229 724
36.24912 658
36.26923 719
36.28934 708
36.30946 723
36.32957 762
36.34968 751
36.3698 711
36.38991 728
36.41003 760
36.43014 764
36.45025 840
36.47037 801
36.49048 801
36.51059 756
36.53071 732
36.55082 725
36.57094 743
36.59105 717
36.61116 724
36.63128 736
36.65139 701
36.6715 688
36.69162 703
36.71173 665
36.73184 672
36.75196 720
36.77207 691
36.79219 664
36.8123 700
36.83241 698
36.85253 726
36.87264 679
36.89275 696
36.91287 655
36.93298 684
36.9531 657
36.97321 707
36.99332 690
37.01344 680
37.03355 653
37.05366 652
37.07378 634
37.09389 709
37.11401 672
37.13412 668
37.15423 696
37.17435 646
37.19446 649
37.21457 714
37.23469 667
37.2548 645
37.27491 689
37.29503 657
37.31514 640
37.33526 666
37.35537 651
37.37548 710
37.3956 700
37.41571 633
37.43582 674
37.45594 701
37.47605 678
37.49617 611
37.51628 636
37.53639 619
37.55651 704
37.57662 691
37.59673 692
37.61685 709
37.63696 734
37.65708 647
37.67719 613
37.6973 676
37.71742 653
37.73753 680
37.75764 640
37.77776 648
37.79787 687
37.81798 699
37.8381 584
37.85821 629
37.87833 673
37.89844 648
37.91855 704
37.93867 665
37.95878 668
37.97889 675
37.99901 686
38.01912 617
38.03924 644
38.05935 691
38.07946 667
38.09958 673
38.11969 694
38.1398 728
38.15992 611
38.18003 633
38.20015 671
38.22026 705
38.24037 678
38.26049 702
38.2806 631
38.30071 663
38.32083 718
38.34094 677
38.36105 659
38.38117 670
38.40128 684
38.4214 650
38.44151 642
38.46162 656
38.48174 633
38.50185 665
38.52196 660
38.54208 646
38.56219 612
38.58231 664
38.60242 673
38.62253 703
38.64265 642
38.66276 629
38.68287 657
38.70299 659
38.7231 681
38.74321 616
38.76333 674
38.78344 619
38.80356 623
38.82367 628
38.84378 649
38.8639 598
38.88401 635
38.90412 663
38.92424 641
38.94435 651
38.96447 628
38.98458 639
39.00469 657
39.02481 620
39.04492 678
39.06503 669
39.08515 652
39.10526 611
39.12538 632
39.14549 615
39.1656 639
39.18572 672
39.20583 660
39.22594 645
39.24606 654
39.26617 592
39.28628 673
39.3064 659
39.32651 647
39.34663 669
39.36674 697
39.38685 727
39.40697 750
39.42708 710
39.44719 693
39.46731 680
39.48742 724
39.50754 676
39.52765 642
39.54776 708
39.56788 650
39.58799 641
39.6081 629
39.62822 612
39.64833 636
39.66845 644
39.68856 638
39.70867 614
39.72879 659
39.7489 636
39.76901 599
39.78913 654
39.80924 649
39.82935 608
39.84947 586
39.86958 622
39.8897 617
39.90981 668
39.92992 634
39.95004 650
39.97015 624
39.99026 621
40.01038 663
40.03049 613
40.05061 582
40.07072 615
40.09083 600
40.11095 629
40.13106 627
40.15117 662
40.17129 647
40.1914 589
40.21152 638
40.23163 645
40.25174 661
40.27186 683
40.29197 648
40.31208 595
40.3322 630
40.35231 640
40.37242 652
40.39254 633
40.41265 690
40.43277 651
40.45288 596
40.47299 606
40.49311 581
40.51322 640
40.53333 584
40.55345 604
40.57356 590
40.59368 622
40.61379 612
40.6339 631
40.65402 588
40.67413 583
40.69424 628
40.71436 630
40.73447 603
40.75458 594
40.7747 653
40.79481 595
40.81493 640
40.83504 569
40.85515 624
40.87527 609
40.89538 597
40.91549 597
40.93561 564
40.95572 620
40.97584 606
40.99595 595
41.01606 624
41.03618 595
41.05629 615
41.0764 569
41.09652 554
41.11663 627
41.13675 587
41.15686 608
41.17697 581
41.19709 586
41.2172 598
41.23731 607
41.25743 582
41.27754 625
41.29765 567
41.31777 646
41.33788 592
41.358 563
41.37811 591
41.39822 597
41.41834 585
41.43845 616
41.45856 637
41.47868 623
41.49879 630
41.51891 572
41.53902 613
41.55913 583
41.57925 606
41.59936 587
41.61947 569
41.63959 632
41.6597 674
41.67982 686
41.69993 611
41.72004 621
41.74016 647
41.76027 654
41.78038 627
41.8005 622
41.82061 596
41.84072 610
41.86084 608
41.88095 605
41.90107 585
41.92118 578
41.94129 564
41.96141 594
41.98152 620
42.00163 579
42.02175 536
42.04186 590
42.06198 572
42.08209 566
42.1022 558
42.12232 582
42.14243 589
42.16254 614
42.18266 597
42.20277 606
42.22289 613
42.243 601
42.26311 605
42.28323 609
42.30334 638
42.32345 608
42.34357 649
42.36368 652
42.38379 608
42.40391 660
42.42402 643
42.44414 681
42.46425 634
42.48436 618
42.50448 649
42.52459 651
42.5447 597
42.56482 631
42.58493 626
42.60505 602
42.62516 662
42.64527 602
42.66539 633
42.6855 702
42.70561 655
42.72573 683
42.74584 723
42.76595 756
42.78607 745
42.80618 749
42.8263 669
42.84641 727
42.86652 753
42.88664 742
42.90675 692
42.92686 693
42.94698 699
42.96709 641
42.98721 688
43.00732 678
43.02743 625
43.04755 645
43.06766 587
43.08777 631
43.10789 623
43.128 590
43.14812 629
43.16823 619
43.18834 614
43.20846 567
43.22857 618
43.24868 586
43.2688 565
43.28891 551
43.30902 558
43.32914 581
43.34925 576
43.36937 543
43.38948 588
43.40959 538
43.42971 551
43.44982 583
43.46993 545
43.49005 566
43.51016 545
43.53028 555
43.55039 585
43.5705 573
43.59062 520
43.61073 567
43.63084 539
43.65096 503
43.67107 586
43.69119 573
43.7113 568
43.73141 577
43.75153 563
43.77164 599
43.79175 550
43.81187 554
43.83198 547
43.85209 549
43.87221 531
43.89232 588
43.91244 587
43.93255 544
43.95266 544
43.97278 613
43.99289 571
44.013 578
44.03312 583
44.05323 572
44.07335 584
44.09346 538
44.11357 543
44.13369 565
44.1538 542
44.17391 558
44.19403 583
44.21414 573
44.23426 488
44.25437 583
44.27448 536
44.2946 575
44.31471 547
44.33482 562
44.35494 554
44.37505 581
44.39516 540
44.41528 578
44.43539 562
44.45551 539
44.47562 534
44.49573 594
44.51585 542
44.53596 575
44.55607 563
44.57619 528
44.5963 552
44.61642 587
44.63653 580
44.65664 548
44.67676 530
44.69687 570
44.71698 576
44.7371 609
44.75721 590
44.77732 559
44.79744 583
44.81755 569
44.83767 602
44.85778 587
44.87789 528
44.89801 577
44.91812 592
44.93823 578
44.95835 568
44.97846 578
44.99858 584
45.01869 563
45.0388 595
45.05892 579
45.07903 555
45.09914 615
45.11926 539
45.13937 547
45.15949 576
45.1796 586
45.19971 569
45.21983 579
45.23994 518
45.26005 590
45.28017 511
45.30028 633
45.32039 551
45.34051 577
45.36062 572
45.38074 562
45.40085 556
45.42096 566
45.44108 576
45.46119 592
45.4813 542
45.50142 543
45.52153 579
45.54165 578
45.56176 571
45.58187 561
45.60199 590
45.6221 595
45.64221 578
45.66233 604
45.68244 587
45.70256 594
45.72267 603
45.74278 580
45.7629 563
45.78301 633
45.80312 645
45.82324 511
45.84335 576
45.86346 582
45.88358 577
45.90369 574
45.92381 588
45.94392 565
45.96403 581
45.98415 592
46.00426 587
46.02437 558
46.04449 538
46.0646 532
46.08472 577
46.10483 585
46.12494 543
46.14506 566
46.16517 531
46.18528 575
46.2054 502
46.22551 582
46.24563 530
46.26574 576
46.28585 540
46.30597 552
46.32608 580
46.34619 535
46.36631 541
46.38642 544
46.40653 572
46.42665 552
46.44676 554
46.46688 503
46.48699 544
46.5071 536
46.52722 500
46.54733 546
46.56744 527
46.58756 523
46.60767 557
46.62779 530
46.6479 538
46.66801 572
46.68813 564
46.70824 556
46.72835 574
46.74847 562
46.76858 520
46.78869 559
46.80881 528
46.82892 569
46.84904 515
46.86915 541
46.88926 517
46.90938 587
46.92949 594
46.9496 550
46.96972 592
46.98983 577
47.00995 561
47.03006 527
47.05017 495
47.07029 577
47.0904 552
47.11051 534
47.13063 523
47.15074 516
47.17086 550
47.19097 546
47.21108 618
47.2312 570
47.25131 613
47.27142 518
47.29154 565
47.31165 568
47.33176 641
47.35188 535
47.37199 551
47.39211 553
47.41222 514
47.43233 599
47.45245 593
47.47256 555
47.49267 570
47.51279 576
47.5329 560
47.55302 599
47.57313 522
47.59324 532
47.61336 541
47.63347 571
47.65358 520
47.6737 520
47.69381 545
47.71393 525
47.73404 562
47.75415 565
47.77427 544
47.79438 540
47.81449 564
47.83461 513
47.85472 566
47.87483 580
47.89495 522
47.91506 578
47.93518 526
47.95529 574
47.9754 555
47.99552 535
48.01563 560
48.03574 551
48.05586 548
48.07597 566
48.09609 503
48.1162 557
48.13631 553
48.15643 567
48.17654 581
48.19665 570
48.21677 549
48.23688 553
48.257 559
48.27711 557
48.29722 505
48.31734 546
48.33745 544
48.35756 565
48.37768 585
48.39779 575
48.4179 557
48.43802 556
48.45813 565
48.47825 543
48.49836 531
48.51847 556
48.53859 599
48.5587 558
48.57881 526
48.59893 547
48.61904 552
48.63916 589
48.65927 579
48.67938 538
48.6995 526
48.71961 589
48.73972 538
48.75984 531
48.77995 585
48.80006 508
48.82018 551
48.84029 556
48.86041 567
48.88052 505
48.90063 534
48.92075 533
48.94086 567
48.96097 532
48.98109 567
49.0012 557
49.02132 582
49.04143 550
49.06154 562
49.08166 548
49.10177 525
49.12188 540
49.142 610
49.16211 534
49.18223 620
49.20234 542
49.22245 582
49.24257 546
49.26268 576
49.28279 570
49.30291 573
49.32302 565
49.34313 530
49.36325 516
49.38336 561
49.40348 565
49.42359 577
49.4437 553
49.46382 575
49.48393 522
49.50404 533
49.52416 526
49.54427 562
49.56439 587
49.5845 555
49.60461 577
49.62473 522
49.64484 578
49.66495 574
49.68507 572
49.70518 557
49.7253 558
49.74541 627
49.76552 609
49.78564 638
49.80575 564
49.82586 646
49.84598 577
49.86609 602
49.8862 576
49.90632 603
49.92643 586
49.94655 620
49.96666 599
49.98677 606
50.00689 691
50.027 666
50.04711 684
50.06723 727
50.08734 735
50.10746 713
50.12757 634
50.14768 648
50.1678 635
50.18791 691
50.20802 636
50.22814 636
50.24825 601
50.26837 599
50.28848 636
50.30859 574
50.32871 543
50.34882 539
50.36893 535
50.38905 586
50.40916 576
50.42927 571
50.44939 548
50.4695 542
50.48962 606
50.50973 563
50.52984 539
50.54996 622
50.57007 617
50.59018 577
50.6103 602
50.63041 631
50.65053 657
50.67064 607
50.69075 582
50.71087 615
50.73098 552
50.75109 586
50.77121 584
50.79132 572
50.81143 549
50.83155 598
50.85166 565
50.87178 619
50.89189 562
50.912 567
50.93212 533
50.95223 551
50.97234 516
50.99246 565
51.01257 572
51.03269 553
51.0528 509
51.07291 591
51.09303 548
51.11314 534
51.13325 573
51.15337 550
51.17348 530
51.1936 547
51.21371 541
51.23382 555
51.25394 582
51.27405 529
51.29416 526
51.31428 583
51.33439 551
51.3545 565
51.37462 540
51.39473 549
51.41485 515
51.43496 548
51.45507 547
51.47519 570
51.4953 539
51.51541 529
51.53553 538
51.55564 567
51.57576 571
51.59587 504
51.61598 534
51.6361 559
51.65621 505
51.67632 551
51.69644 570
51.71655 557
51.73667 543
51.75678 539
51.77689 549
51.79701 568
51.81712 553
51.83723 555
51.85735 556
51.87746 522
51.89757 528
51.91769 547
51.9378 531
51.95792 572
51.97803 517
51.99814 561
52.01826 594
52.03837 557
52.05848 558
52.0786 555
52.09871 605
52.11883 554
52.13894 595
52.15905 570
52.17917 515
52.19928 549
52.21939 568
52.23951 576
52.25962 599
52.27974 573
52.29985 573
52.31996 586
52.34008 563
52.36019 543
52.3803 519
52.40042 528
52.42053 566
52.44064 579
52.46076 559
52.48087 588
52.50099 568
52.5211 574
52.54121 515
52.56133 561
52.58144 568
52.60155 546
52.62167 570
52.64178 539
52.6619 570
52.68201 584
52.70212 563
52.72224 540
52.74235 561
52.76246 560
52.78258 542
52.80269 564
52.8228 590
52.84292 546
52.86303 588
52.88315 531
52.90326 615
52.92337 572
52.94349 540
52.9636 621
52.98371 546
53.00383 609
53.02394 571
53.04406 606
53.06417 660
53.08428 616
53.1044 636
53.12451 618
53.14462 584
53.16474 638
53.18485 587
53.20497 624
53.22508 616
53.24519 597
53.26531 612
53.28542 608
53.30553 615
53.32565 643
53.34576 622
53.36587 571
53.38599 558
53.4061 607
53.42622 552
53.44633 583
53.46644 603
53.48656 571
53.50667 567
53.52678 599
53.5469 627
53.56701 622
53.58713 549
53.60724 604
53.62735 563
53.64747 612
53.66758 604
53.68769 555
53.70781 604
53.72792 570
53.74804 610
53.76815 598
53.78826 594
53.80838 612
53.82849 617
53.8486 570
53.86872 611
53.88883 594
53.90894 572
53.92906 619
53.94917 635
53.96929 610
53.9894 622
54.00951 608
54.02963 595
54.04974 566
54.06985 599
54.08997 584
54.11008 574
54.1302 604
54.15031 613
54.17042 645
54.19054 619
54.21065 692
54.23076 603
54.25088 647
54.27099 592
54.29111 597
54.31122 626
54.33133 587
54.35145 567
54.37156 633
54.39167 625
54.41179 619
54.4319 604
54.45201 602
54.47213 624
54.49224 584
54.51236 684
54.53247 614
54.55258 633
54.5727 567
54.59281 598
54.61292 652
54.63304 645
54.65315 587
54.67327 604
54.69338 586
54.71349 629
54.73361 632
54.75372 628
54.77383 675
54.79395 619
54.81406 632
54.83417 664
54.85429 639
54.8744 621
54.89452 655
54.91463 623
54.93474 635
54.95486 638
54.97497 611
54.99508 629
55.0152 655
55.03531 583
55.05543 642
55.07554 625
55.09565 626
55.11577 612
55.13588 626
55.15599 586
55.17611 605
55.19622 576
55.21634 623
55.23645 586
55.25656 606
55.27668 623
55.29679 548
55.3169 579
55.33702 602
55.35713 589
55.37724 648
55.39736 583
55.41747 578
55.43759 572
55.4577 589
55.47781 544
55.49793 580
55.51804 590
55.53815 581
55.55827 584
55.57838 571
55.5985 573
55.61861 584
55.63872 580
55.65884 559
55.67895 575
55.69906 597
55.71918 570
55.73929 625
55.75941 588
55.77952 597
55.79963 588
55.81975 581
55.83986 584
55.85997 536
55.88009 553
55.9002 622
55.92031 588
55.94043 549
55.96054 565
55.98066 594
56.00077 587
56.02088 579
56.041 610
56.06111 590
56.08122 596
56.10134 556
56.12145 617
56.14157 566
56.16168 574
56.18179 614
56.20191 614
56.22202 620
56.24213 578
56.26225 577
56.28236 619
56.30248 580
56.32259 603
56.3427 604
56.36282 587
56.38293 621
56.40304 635
56.42316 644
56.44327 626
56.46338 666
56.4835 654
56.50361 678
56.52373 717
56.54384 708
56.56395 711
56.58407 690
56.60418 746
56.62429 772
56.64441 684
56.66452 725
56.68464 728
56.70475 706
56.72486 675
56.74498 722
56.76509 723
56.7852 683
56.80532 642
56.82543 634
56.84554 639
56.86566 578
56.88577 640
56.90589 632
56.926 682
56.94611 603
56.96623 604
56.98634 593
57.00645 604
57.02657 612
57.04668 604
57.0668 562
57.08691 623
57.10702 591
57.12714 551
57.14725 591
57.16736 588
57.18748 612
57.20759 592
57.22771 596
57.24782 555
57.26793 574
57.28805 574
57.30816 573
57.32827 566
57.34839 563
57.3685 555
57.38861 559
57.40873 555
57.42884 561
57.44896 591
57.46907 597
57.48918 584
57.5093 569
57.52941 621
57.54952 596
57.56964 570
57.58975 561
57.60987 585
57.62998 572
57.65009 587
57.67021 509
57.69032 593
57.71043 520
57.73055 558
57.75066 553
57.77078 570
57.79089 574
57.811 584
57.83112 516
57.85123 536
57.87134 568
57.89146 556
57.91157 552
57.93168 563
57.9518 541
57.97191 557
57.99203 544
58.01214 577
58.03225 522
58.05237 544
58.07248 539
58.09259 532
58.11271 537
58.13282 526
58.15294 583
58.17305 544
58.19316 596
58.21328 589
58.23339 523
58.2535 534
58.27362 528
58.29373 588
58.31385 543
58.33396 518
58.35407 556
58.37419 536
58.3943 555
58.41441 576
58.43453 554
58.45464 566
58.47475 546
58.49487 537
58.51498 572
58.5351 542
58.55521 534
58.57532 529
58.59544 594
58.61555 549
58.63566 551
58.65578 531
58.67589 576
58.69601 528
58.71612 572
58.73623 540
58.75635 571
58.77646 527
58.79657 560
58.81669 527
58.8368 538
58.85691 578
58.87703 536
58.89714 554
58.91726 593
58.93737 502
58.95748 526
58.9776 531
58.99771 575
59.01782 530
59.03794 512
59.05805 557
59.07817 512
59.09828 538
59.11839 539
59.13851 537
59.15862 531
59.17873 534
59.19885 563
59.21896 546
59.23908 561
59.25919 562
59.2793 555
59.29942 509
59.31953 535
59.33964 542
59.35976 534
59.37987 564
59.39998 552
59.4201 553
59.44021 533
59.46033 519
59.48044 522
59.50055 591
59.52067 556
59.54078 564
59.56089 564
59.58101 552
59.60112 575
59.62124 567
59.64135 547
59.66146 531
59.68158 528
59.70169 562
59.7218 559
59.74192 576
59.76203 571
59.78215 609
59.80226 599
59.82237 605
59.84249 590
59.8626 642
59.88271 647
59.90283 661
59.92294 649
59.94305 665
59.96317 627
59.98328 628
60.0034 636
60.02351 570
60.04362 663
60.06374 658
60.08385 624
60.10396 580
60.12408 629
60.14419 595
60.16431 583
60.18442 523
60.20453 555
60.22465 541
60.24476 576
60.26487 584
60.28499 573
60.3051 549
60.32522 539
60.34533 564
60.36544 581
60.38556 568
60.40567 567
60.42578 619
60.4459 516
60.46601 606
60.48612 542
60.50624 545
60.52635 541
60.54647 550
60.56658 575
60.58669 503
60.60681 528
60.62692 582
60.64703 562
60.66715 557
60.68726 591
60.70738 523
60.72749 573
60.7476 569
60.76772 591
60.78783 560
60.80794 581
60.82806 512
60.84817 561
60.86828 560
60.8884 569
60.90851 552
60.92863 544
60.94874 580
60.96885 545
60.98897 580
61.00908 520
61.02919 563
61.04931 528
61.06942 531
61.08954 541
61.10965 567
61.12976 549
61.14988 553
61.16999 555
61.1901 558
61.21022 591
61.23033 535
61.25045 631
61.27056 599
61.29067 580
61.31079 589
61.3309 613
61.35101 610
61.37113 603
61.39124 567
61.41135 590
61.43147 599
61.45158 561
61.4717 573
61.49181 586
61.51192 557
61.53204 545
61.55215 551
61.57226 604
61.59238 574
61.61249 600
61.63261 587
61.65272 662
61.67283 592
61.69295 581
61.71306 616
61.73317 649
61.75329 652
61.7734 629
61.79352 626
61.81363 671
61.83374 631
61.85386 653
61.87397 629
61.89408 615
61.9142 705
61.93431 687
61.95442 714
61.97454 720
61.99465 737
62.01477 718
62.03488 703
62.05499 770
62.07511 776
62.09522 854
62.11533 772
62.13545 788
62.15556 825
62.17568 825
62.19579 872
62.2159 764
62.23602 779
62.25613 818
62.27624 788
62.29636 762
62.31647 756
62.33659 768
62.3567 761
62.37681 782
62.39693 785
62.41704 756
62.43715 765
62.45727 739
62.47738 680
62.49749 708
62.51761 715
62.53772 663
62.55784 681
62.57795 615
62.59806 663
62.61818 608
62.63829 629
62.6584 655
62.67852 618
62.69863 645
62.71875 625
62.73886 602
62.75897 635
62.77909 608
62.7992 644
62.81931 617
62.83943 618
62.85954 600
62.87965 637
62.89977 546
62.91988 592
62.94 602
62.96011 628
62.98022 598
63.00034 639
63.02045 586
63.04056 533
63.06068 613
63.08079 594
63.10091 577
63.12102 629
63.14113 570
63.16125 624
63.18136 601
63.20147 592
63.22159 591
63.2417 609
63.26182 536
63.28193 581
63.30204 549
63.32216 559
63.34227 562
63.36238 577
63.3825 580
63.40261 570
63.42272 565
63.44284 580
63.46295 579
63.48307 537
63.50318 580
63.52329 603
63.54341 582
63.56352 600
63.58363 564
63.60375 564
63.62386 567
63.64398 582
63.66409 558
63.6842 554
63.70432 590
63.72443 578
63.74454 561
63.76466 641
63.78477 587
63.80489 596
63.825 615
63.84511 563
63.86523 577
63.88534 580
63.90545 607
63.92557 581
63.94568 564
63.96579 588
63.98591 616
64.00602 581
64.02614 651
64.04625 563
64.06636 556
64.08648 590
64.10659 579
64.1267 605
64.14682 549
64.16693 562
64.18705 578
64.20716 572
64.22727 623
64.24739 580
64.2675 573
64.28761 559
64.30773 511
64.32784 559
64.34796 513
64.36807 554
64.38818 577
64.4083 589
64.42841 562
64.44852 537
64.46864 545
64.48875 585
64.50886 582
64.52898 566
64.54909 514
64.56921 575
64.58932 509
64.60943 554
64.62955 531
64.64966 559
64.66977 596
64.68989 559
64.71 537
64.73012 601
64.75023 556
64.77034 528
64.79046 554
64.81057 560
64.83068 562
64.8508 566
64.87091 557
64.89102 520
64.91114 556
64.93125 536
64.95137 546
64.97148 568
64.99159 537
65.01171 537
65.03182 540
65.05193 529
65.07205 536
65.09216 537
65.11228 553
65.13239 494
65.1525 518
65.17262 569
65.19273 570
65.21284 535
65.23296 527
65.25307 542
65.27319 543
65.2933 561
65.31341 538
65.33353 582
65.35364 522
65.37375 566
65.39387 565
65.41398 514
65.43409 546
65.45421 549
65.47432 557
65.49444 516
65.51455 506
65.53466 544
65.55478 538
65.57489 556
65.595 538
65.61512 548
65.63523 513
65.65535 512
65.67546 556
65.69557 522
65.71569 581
65.7358 560
65.75591 514
65.77603 502
65.79614 504
65.81626 490
65.83637 531
65.85648 549
65.8766 498
65.89671 575
65.91682 558
65.93694 550
65.95705 500
65.97716 530
65.99728 521
66.01739 515
66.03751 480
66.05762 550
66.07773 539
66.09785 520
66.11796 479
66.13807 561
66.15819 521
66.1783 547
66.19842 501
66.21853 551
66.23864 532
66.25876 476
66.27887 515
66.29898 546
66.3191 510
66.33921 478
66.35933 516
66.37944 518
66.39955 528
66.41967 524
66.43978 526
66.45989 549
66.48001 524
66.50012 496
66.52023 514
66.54035 523
66.56046 570
66.58058 512
66.60069 520
66.6208 548
66.64092 502
66.66103 507
66.68114 501
66.70126 526
66.72137 522
66.74149 520
66.7616 540
66.78171 546
66.80183 499
66.82194 529
66.84205 517
66.86217 518
66.88228 494
66.90239 550
66.92251 481
66.94262 543
66.96274 540
66.98285 513
67.00296 517
67.02308 504
67.04319 528
67.0633 517
67.08342 478
67.10353 566
67.12365 518
67.14376 481
67.16387 539
67.18399 507
67.2041 553
67.22421 550
67.24433 521
67.26444 496
67.28456 499
67.30467 484
67.32478 508
67.3449 534
67.36501 545
67.38512 587
67.40524 501
67.42535 517
67.44546 547
67.46558 520
67.48569 553
67.50581 491
67.52592 517
67.54603 531
67.56615 529
67.58626 551
67.60637 541
67.62649 567
67.6466 521
67.66672 604
67.68683 622
67.70694 528
67.72706 628
67.74717 550
67.76728 572
67.7874 531
67.80751 576
67.82763 544
67.84774 517
67.86785 581
67.88797 553
67.90808 568
67.92819 540
67.94831 553
67.96842 564
67.98853 572
68.00865 597
68.02876 585
68.04888 596
68.06899 574
68.0891 600
68.10922 610
68.12933 609
68.14944 601
68.16956 600
68.18967 612
68.20979 560
68.2299 611
68.25001 570
68.27013 625
68.29024 613
68.31035 574
68.33047 543
68.35058 587
68.3707 534
68.39081 556
68.41092 541
68.43104 521
68.45115 548
68.47126 540
68.49138 538
68.51149 511
68.5316 539
68.55172 530
68.57183 485
68.59195 504
68.61206 516
68.63217 571
68.65229 498
68.6724 530
68.69251 556
68.71263 460
68.73274 497
68.75286 515
68.77297 498
68.79308 532
68.8132 512
68.83331 528
68.85342 518
68.87354 542
68.89365 512
68.91376 555
68.93388 520
68.95399 506
68.97411 505
68.99422 539
69.01433 536
69.03445 512
69.05456 539
69.07467 500
69.09479 492
69.1149 522
69.13502 517
69.15513 526
69.17524 533
69.19536 499
69.21547 541
69.23558 559
69.2557 488
69.27581 574
69.29593 552
69.31604 540
69.33615 517
69.35627 553
69.37638 527
69.39649 521
69.41661 560
69.43672 504
69.45683 522
69.47695 546
69.49706 506
69.51718 481
69.53729 476
69.5574 507
69.57752 512
69.59763 528
69.61774 540
69.63786 522
69.65797 544
69.67809 520
69.6982 550
69.71831 526
69.73843 499
69.75854 532
69.77865 462
69.79877 524
69.81888 548
69.839 472
69.85911 528
69.87922 506
69.89934 498
69.91945 499
69.93956 491
69.95968 472
69.97979 518
69.9999 490
70.02002 556
70.04013 556
70.06025 510
70.08036 533
70.10047 522
70.12059 516
70.1407 538
70.16081 450
70.18093 534
70.20104 502
70.22116 478
70.24127 487
70.26138 485
70.2815 530
70.30161 515
70.32172 501
70.34184 481
70.36195 501
70.38207 503
70.40218 532
70.42229 504
70.44241 519
70.46252 495
70.48263 558
70.50275 526
70.52286 507
70.54297 503
70.56309 503
70.5832 528
70.60332 489
70.62343 542
70.64354 513
70.66366 524
70.68377 525
70.70388 554
70.724 480
70.74411 479
70.76423 526
70.78434 551
70.80445 525
70.82457 519
70.84468 507
70.86479 516
70.88491 529
70.90502 538
70.92513 513
70.94525 496
70.96536 494
70.98548 542
71.00559 514
71.0257 493
71.04582 518
71.06593 566
71.08604 494
71.10616 553
71.12627 479
71.14639 486
71.1665 488
71.18661 530
71.20673 477
71.22684 492
71.24695 484
71.26707 504
71.28718 497
71.3073 531
71.32741 515
71.34752 502
71.36764 477
71.38775 516
71.40786 510
71.42798 517
71.44809 551
71.4682 492
71.48832 528
71.50843 531
71.52855 504
71.54866 538
71.56877 519
71.58889 548
71.609 510
71.62911 496
71.64923 538
71.66934 492
71.68946 527
71.70957 529
71.72968 518
71.7498 497
71.76991 536
71.79002 497
71.81014 481
71.83025 515
71.85037 514
71.87048 537
71.89059 491
71.91071 497
71.93082 497
71.95093 498
71.97105 555
71.99116 503
72.01127 536
72.03139 517
72.0515 426
72.07162 483
72.09173 505
72.11184 503
72.13196 518
72.15207 476
72.17218 546
72.1923 473
72.21241 476
72.23253 472
72.25264 512
72.27275 493
72.29287 496
72.31298 496
72.33309 534
72.35321 453
72.37332 513
72.39344 482
72.41355 477
72.43366 505
72.45378 509
72.47389 496
72.494 513
72.51412 490
72.53423 482
72.55434 470
72.57446 516
72.59457 529
72.61469 518
72.6348 477
72.65491 515
72.67503 497
72.69514 493
72.71525 492
72.73537 521
72.75548 499
72.7756 511
72.79571 483
72.81582 509
72.83594 526
72.85605 483
72.87616 534
72.89628 509
72.91639 508
72.9365 500
72.95662 527
72.97673 504
72.99685 545
73.01696 470
73.03707 495
73.05719 495
73.0773 559
73.09741 490
73.11753 543
73.13764 516
73.15776 534
73.17787 531
73.19798 551
73.2181 504
73.23821 545
73.25832 498
73.27844 548
73.29855 544
73.31867 535
73.33878 528
73.35889 539
73.37901 552
73.39912 566
73.41923 569
73.43935 543
73.45946 561
73.47957 581
73.49969 568
73.5198 535
73.53992 542
73.56003 545
73.58014 524
73.60026 588
73.62037 553
73.64048 556
73.6606 518
73.68071 539
73.70083 550
73.72094 522
73.74105 538
73.76117 528
73.78128 528
73.80139 482
73.82151 518
73.84162 492
73.86174 547
73.88185 517
73.90196 499
73.92208 533
73.94219 547
73.9623 515
73.98242 486
74.00253 483
74.02264 519
74.04276 521
74.06287 518
74.08299 510
74.1031 523
74.12321 496
74.14333 514
74.16344 476
74.18355 522
74.20367 492
74.22378 479
74.2439 517
74.26401 486
74.28412 525
74.30424 500
74.32435 476
74.34446 512
74.36458 533
74.38469 532
74.40481 507
74.42492 496
74.44503 516
74.46515 492
74.48526 538
74.50537 474
74.52549 494
74.5456 493
74.56571 472
74.58583 536
74.60594 525
74.62606 492
74.64617 521
74.66628 506
74.6864 518
74.70651 521
74.72662 519
74.74674 491
74.76685 537
74.78697 515
74.80708 509
74.82719 510
74.84731 523
74.86742 460
74.88753 514
74.90765 485
74.92776 503
74.94787 528
74.96799 477
74.9881 502
75.00822 523
