3.00117 19842
3.02128 19610
3.0414 19056
3.06151 18854
3.08162 18118
3.10174 17707
3.12185 16976
3.14197 16440
3.16208 16497
3.18219 15374
3.20231 15479
3.22242 14611
3.24253 14250
3.26265 13761
3.28276 13649
3.30288 13068
3.32299 12497
3.3431 12140
3.36322 11921
3.38333 11389
3.40344 11250
3.42356 10799
3.44367 10427
3.46379 10066
3.4839 9575
3.50401 9300
3.52413 8979
3.54424 8516
3.56435 8409
3.58447 8049
3.60458 7812
3.62469 7553
3.64481 7160
3.66492 7203
3.68504 6528
3.70515 6445
3.72526 6161
3.74538 5828
3.76549 5864
3.7856 5397
3.80572 5213
3.82583 5183
3.84595 4942
3.86606 4634
3.88617 4492
3.90629 4346
3.9264 4244
3.94651 3875
3.96663 3982
3.98674 3557
4.00686 3459
4.02697 3499
4.04708 3091
4.0672 3004
4.08731 2911
4.10742 2936
4.12754 2806
4.14765 2552
4.16776 2517
4.18788 2337
4.20799 2429
4.22811 2404
4.24822 2179
4.26833 2117
4.28845 1997
4.30856 2106
4.32867 2032
4.34879 1827
4.3689 1836
4.38902 1789
4.40913 1731
4.42924 1831
4.44936 1640
4.46947 1630
4.48958 1541
4.5097 1643
4.52981 1613
4.54992 1430
4.57004 1498
4.59015 1422
4.61027 1316
4.63038 1505
4.65049 1287
4.67061 1281
4.69072 1309
4.71083 1276
4.73095 1315
4.75106 1214
4.77118 1170
4.79129 1162
4.8114 1137
4.83152 1196
4.85163 1091
4.87174 1075
4.89186 1065
4.91197 1057
4.93209 1056
4.9522 1008
4.97231 1011
4.99243 1010
5.01254 1020
5.03265 1024
5.05277 975
5.07288 925
5.09299 962
5.11311 955
5.13322 948
5.15334 908
5.17345 800
5.19356 865
5.21368 846
5.23379 855
5.2539 802
5.27402 795
5.29413 827
5.31425 770
5.33436 800
5.35447 761
5.37459 759
5.3947 804
5.41481 774
5.43493 712
5.45504 682
5.47516 741
5.49527 695
5.51538 704
5.5355 682
5.55561 671
5.57572 675
5.59584 678
5.61595 659
5.63606 702
5.65618 672
5.67629 670
5.69641 651
5.71652 677
5.73663 647
5.75675 672
5.77686 662
5.79697 592
5.81709 620
5.8372 594
5.85732 641
5.87743 629
5.89754 651
5.91766 638
5.93777 625
5.95788 632
5.978 696
5.99811 653
6.01823 668
6.03834 668
6.05845 682
6.07857 627
6.09868 698
6.11879 678
6.13891 674
6.15902 606
6.17913 638
6.19925 647
6.21936 642
6.23948 608
6.25959 599
6.2797 589
6.29982 584
6.31993 537
6.34004 534
6.36016 532
6.38027 529
6.40039 514
6.4205 530
6.44061 515
6.46073 483
6.48084 480
6.50095 527
6.52107 528
6.54118 511
6.56129 467
6.58141 478
6.60152 492
6.62164 538
6.64175 458
6.66186 486
6.68198 470
6.70209 456
6.7222 479
6.74232 494
6.76243 463
6.78255 418
6.80266 524
6.82277 508
6.84289 443
6.863 437
6.88311 436
6.90323 438
6.92334 465
6.94346 415
6.96357 448
6.98368 445
7.0038 459
7.02391 378
7.04402 403
7.06414 448
7.08425 524
7.10436 419
7.12448 434
7.14459 432
7.16471 444
7.18482 458
7.20493 439
7.22505 400
7.24516 423
7.26527 445
7.28539 422
7.3055 401
7.32562 434
7.34573 407
7.36584 371
7.38596 411
7.40607 425
7.42618 409
7.4463 406
7.46641 402
7.48653 408
7.50664 379
7.52675 440
7.54687 429
7.56698 474
7.58709 403
7.60721 391
7.62732 378
7.64743 405
7.66755 412
7.68766 379
7.70778 399
7.72789 391
7.748 421
7.76812 377
7.78823 421
7.80834 386
7.82846 385
7.84857 384
7.86869 397
7.8888 394
7.90891 404
7.92903 366
7.94914 368
7.96925 390
7.98937 433
8.00948 406
8.0296 380
8.04971 394
8.06982 396
8.08994 392
8.11005 402
8.13016 360
8.15028 378
8.17039 404
8.1905 385
8.21062 409
8.23073 394
8.25085 376
8.27096 362
8.29107 377
8.31119 342
8.3313 361
8.35141 402
8.37153 369
8.39164 371
8.41176 399
8.43187 368
8.45198 383
8.4721 379
8.49221 356
8.51232 399
8.53244 379
8.55255 391
8.57266 394
8.59278 403
8.61289 368
8.63301 379
8.65312 395
8.67323 414
8.69335 397
8.71346 408
8.73357 383
8.75369 415
8.7738 391
8.79392 392
8.81403 427
8.83414 441
8.85426 398
8.87437 463
8.89448 442
8.9146 393
8.93471 382
8.95483 383
8.97494 395
8.99505 399
9.01517 410
9.03528 334
9.05539 384
9.07551 395
9.09562 365
9.11573 416
9.13585 383
9.15596 371
9.17608 400
9.19619 384
9.2163 366
9.23642 364
9.25653 389
9.27664 383
9.29676 374
9.31687 388
9.33699 365
9.3571 359
9.37721 377
9.39733 351
9.41744 388
9.43755 339
9.45767 369
9.47778 351
9.4979 369
9.51801 377
9.53812 379
9.55824 358
9.57835 320
9.59846 377
9.61858 352
9.63869 356
9.6588 354
9.67892 398
9.69903 360
9.71915 386
9.73926 403
9.75937 364
9.77949 344
9.7996 374
9.81971 370
9.83983 407
9.85994 355
9.88006 327
9.90017 345
9.92028 343
9.9404 352
9.96051 407
9.98062 382
10.00074 357
10.02085 371
10.04097 358
10.06108 360
10.08119 334
10.10131 352
10.12142 362
10.14153 378
10.16165 359
10.18176 344
10.20187 349
10.22199 343
10.2421 389
10.26222 370
10.28233 345
10.30244 352
10.32256 356
10.34267 328
10.36278 365
10.3829 385
10.40301 347
10.42313 365
10.44324 335
10.46335 354
10.48347 369
10.50358 362
10.52369 349
10.54381 335
10.56392 378
10.58403 337
10.60415 367
10.62426 363
10.64438 352
10.66449 350
10.6846 392
10.70472 353
10.72483 356
10.74494 362
10.76506 356
10.78517 369
10.80529 373
10.8254 342
10.84551 361
10.86563 389
10.88574 363
10.90585 321
10.92597 409
10.94608 363
10.9662 368
10.98631 369
11.00642 355
11.02654 367
11.04665 353
11.06676 363
11.08688 328
11.10699 374
11.1271 345
11.14722 324
11.16733 396
11.18745 366
11.20756 382
11.22767 328
11.24779 393
11.2679 402
11.28801 328
11.30813 384
11.32824 397
11.34836 368
11.36847 349
11.38858 378
11.4087 405
11.42881 368
11.44892 390
11.46904 369
11.48915 371
11.50927 420
11.52938 389
11.54949 394
11.56961 374
11.58972 385
11.60983 372
11.62995 324
11.65006 392
11.67017 336
11.69029 374
11.7104 425
11.73052 418
11.75063 419
11.77074 421
11.79086 404
11.81097 428
11.83108 442
11.8512 455
11.87131 421
11.89143 393
11.91154 445
11.93165 456
11.95177 426
11.97188 429
11.99199 461
12.01211 436
12.03222 482
12.05234 429
12.07245 453
12.09256 453
12.11268 473
12.13279 435
12.1529 477
12.17302 467
12.19313 461
12.21324 435
12.23336 475
12.25347 494
12.27359 470
12.2937 481
12.31381 436
12.33393 445
12.35404 439
12.37415 421
12.39427 467
12.41438 446
12.4345 428
12.45461 443
12.47472 388
12.49484 432
12.51495 443
12.53506 435
12.55518 426
12.57529 384
12.5954 392
12.61552 371
12.63563 359
12.65575 400
12.67586 378
12.69597 382
12.71609 393
12.7362 374
12.75631 344
12.77643 377
12.79654 338
12.81666 362
12.83677 373
12.85688 358
12.877 343
12.89711 326
12.91722 379
12.93734 341
12.95745 323
12.97757 309
12.99768 322
13.01779 317
13.03791 334
13.05802 332
13.07813 350
13.09825 308
13.11836 368
13.13847 334
13.15859 301
13.1787 312
13.19882 304
13.21893 306
13.23904 327
13.25916 348
13.27927 293
13.29938 309
13.3195 323
13.33961 322
13.35973 326
13.37984 319
13.39995 313
13.42007 316
13.44018 343
13.46029 284
13.48041 333
13.50052 307
13.52064 313
13.54075 344
13.56086 334
13.58098 292
13.60109 321
13.6212 330
13.64132 314
13.66143 319
13.68154 326
13.70166 318
13.72177 351
13.74189 357
13.762 365
13.78211 374
13.80223 429
13.82234 427
13.84245 418
13.86257 438
13.88268 390
13.9028 360
13.92291 397
13.94302 367
13.96314 346
13.98325 368
14.00336 357
14.02348 364
14.04359 320
14.06371 311
14.08382 324
14.10393 351
14.12405 299
14.14416 302
14.16427 296
14.18439 291
14.2045 287
14.22461 319
14.24473 306
14.26484 300
14.28496 307
14.30507 308
14.32518 318
14.3453 310
14.36541 298
14.38552 325
14.40564 288
14.42575 312
14.44587 286
14.46598 291
14.48609 297
14.50621 283
14.52632 322
14.54643 332
14.56655 329
14.58666 259
14.60677 289
14.62689 344
14.647 295
14.66712 294
14.68723 279
14.70734 284
14.72746 318
14.74757 280
14.76768 334
14.7878 290
14.80791 337
14.82803 281
14.84814 325
14.86825 289
14.88837 331
14.90848 358
14.92859 323
14.94871 344
14.96882 332
14.98894 343
15.00905 370
15.02916 348
15.04928 368
15.06939 338
15.0895 329
15.10962 332
15.12973 323
15.14984 295
15.16996 298
15.19007 292
15.21019 315
15.2303 278
15.25041 310
15.27053 270
15.29064 300
15.31075 332
15.33087 287
15.35098 304
15.3711 324
15.39121 319
15.41132 293
15.43144 298
15.45155 302
15.47166 319
15.49178 319
15.51189 287
15.53201 291
15.55212 294
15.57223 283
15.59235 307
15.61246 271
15.63257 287
15.65269 323
15.6728 322
15.69291 322
15.71303 316
15.73314 303
15.75326 308
15.77337 274
15.79348 330
15.8136 322
15.83371 312
15.85382 292
15.87394 317
15.89405 311
15.91417 318
15.93428 291
15.95439 278
15.97451 282
15.99462 271
16.01473 308
16.03485 289
16.05496 305
16.07508 307
16.09519 275
16.1153 289
16.13542 297
16.15553 306
16.17564 320
16.19576 276
16.21587 286
16.23598 277
16.2561 282
16.27621 300
16.29633 310
16.31644 301
16.33655 285
16.35667 276
16.37678 343
16.39689 301
16.41701 289
16.43712 302
16.45724 290
16.47735 331
16.49746 296
16.51758 316
16.53769 268
16.5578 279
16.57792 294
16.59803 321
16.61814 272
16.63826 254
16.65837 269
16.67849 293
16.6986 335
16.71871 297
16.73883 319
16.75894 296
16.77905 318
16.79917 314
16.81928 298
16.8394 292
16.85951 315
16.87962 294
16.89974 285
16.91985 294
16.93996 287
16.96008 295
16.98019 328
17.00031 314
17.02042 297
17.04053 318
17.06065 291
17.08076 299
17.10087 347
17.12099 319
17.1411 319
17.16121 333
17.18133 301
17.20144 307
17.22156 275
17.24167 329
17.26178 300
17.2819 292
17.30201 289
17.32212 310
17.34224 280
17.36235 314
17.38247 306
17.40258 294
17.42269 283
17.44281 307
17.46292 317
17.48303 285
17.50315 307
17.52326 280
17.54338 305
17.56349 339
17.5836 308
17.60372 340
17.62383 316
17.64394 331
17.66406 331
17.68417 353
17.70428 355
17.7244 289
17.74451 317
17.76463 350
17.78474 324
17.80485 331
17.82497 342
17.84508 266
17.86519 349
17.88531 343
17.90542 311
17.92554 306
17.94565 319
17.96576 310
17.98588 324
18.00599 308
18.0261 307
18.04622 307
18.06633 317
18.08645 342
18.10656 302
18.12667 314
18.14679 289
18.1669 300
18.18701 344
18.20713 313
18.22724 304
18.24735 299
18.26747 329
18.28758 332
18.3077 292
18.32781 287
18.34792 315
18.36804 301
18.38815 297
18.40826 317
18.42838 333
18.44849 273
18.46861 315
18.48872 301
18.50883 297
18.52895 316
18.54906 306
18.56917 285
18.58929 290
18.6094 315
18.62951 299
18.64963 299
18.66974 324
18.68986 278
18.70997 320
18.73008 309
18.7502 290
18.77031 320
18.79042 304
18.81054 365
18.83065 335
18.85077 308
18.87088 288
18.89099 348
18.91111 295
18.93122 301
18.95133 306
18.97145 345
18.99156 291
19.01168 344
19.03179 344
19.0519 345
19.07202 322
19.09213 360
19.11224 325
19.13236 297
19.15247 372
19.17258 356
19.1927 334
19.21281 346
19.23293 368
19.25304 398
19.27315 355
19.29327 349
19.31338 382
19.33349 397
19.35361 373
19.37372 389
19.39384 394
19.41395 416
19.43406 374
19.45418 361
19.47429 390
19.4944 431
19.51452 418
19.53463 411
19.55475 485
19.57486 444
19.59497 480
19.61509 496
19.6352 552
19.65531 525
19.67543 543
19.69554 626
19.71565 603
19.73577 612
19.75588 646
19.776 701
19.79611 704
19.81622 766
19.83634 764
19.85645 760
19.87656 782
19.89668 677
19.91679 768
19.93691 737
19.95702 715
19.97713 689
19.99725 657
20.01736 714
20.03747 590
20.05759 644
20.0777 638
20.09782 632
20.11793 668
20.13804 668
20.15816 622
20.17827 655
20.19838 608
20.2185 590
20.23861 671
20.25872 606
20.27884 611
20.29895 629
20.31907 648
20.33918 616
20.35929 570
20.37941 618
20.39952 644
20.41963 585
20.43975 600
20.45986 609
20.47998 637
20.50009 620
20.5202 654
20.54032 629
20.56043 616
20.58054 675
20.60066 672
20.62077 731
20.64088 738
20.661 785
20.68111 901
20.70123 1068
20.72134 1275
20.74145 1604
20.76157 1998
20.78168 2380
20.80179 2889
20.82191 3285
20.84202 3262
20.86214 3070
20.88225 2543
20.90236 2126
20.92248 1718
20.94259 1296
20.9627 1012
20.98282 876
21.00293 786
21.02305 703
21.04316 685
21.06327 669
21.08339 630
21.1035 611
21.12361 629
21.14373 592
21.16384 593
21.18395 568
21.20407 595
21.22418 566
21.2443 555
21.26441 578
21.28452 573
21.30464 513
21.32475 538
21.34486 523
21.36498 521
21.38509 544
21.40521 568
21.42532 550
21.44543 517
21.46555 572
21.48566 554
21.50577 552
21.52589 472
21.546 547
21.56612 483
21.58623 554
21.60634 496
21.62646 514
21.64657 508
21.66668 537
21.6868 488
21.70691 475
21.72702 525
21.74714 485
21.76725 507
21.78737 504
21.80748 548
21.82759 544
21.84771 541
21.86782 602
21.88793 629
21.90805 699
21.92816 721
21.94828 830
21.96839 892
21.9885 1005
22.00862 1075
22.02873 1037
22.04884 1000
22.06896 952
22.08907 818
22.10919 727
22.1293 626
22.14941 573
22.16953 537
22.18964 509
22.20975 533
22.22987 478
22.24998 510
22.27009 465
22.29021 467
22.31032 482
22.33044 439
22.35055 460
22.37066 483
22.39078 452
22.41089 454
22.431 437
22.45112 494
22.47123 450
22.49135 422
22.51146 432
22.53157 474
22.55169 485
22.5718 453
22.59191 489
22.61203 432
22.63214 442
22.65225 419
22.67237 399
22.69248 443
22.7126 424
22.73271 396
22.75282 456
22.77294 456
22.79305 451
22.81316 481
22.83328 444
22.85339 474
22.87351 498
22.89362 470
22.91373 479
22.93385 517
22.95396 509
22.97407 553
22.99419 541
23.0143 525
23.03442 513
23.05453 518
23.07464 498
23.09476 474
23.11487 453
23.13498 463
23.1551 472
23.17521 452
23.19532 451
23.21544 466
23.23555 441
23.25567 413
23.27578 441
23.29589 434
23.31601 440
23.33612 480
23.35623 468
23.37635 508
23.39646 543
23.41658 520
23.43669 567
23.4568 647
23.47692 633
23.49703 672
23.51714 685
23.53726 722
23.55737 702
23.57749 702
23.5976 638
23.61771 610
23.63783 512
23.65794 507
23.67805 485
23.69817 488
23.71828 497
23.73839 484
23.75851 494
23.77862 508
23.79874 522
23.81885 503
23.83896 479
23.85908 517
23.87919 501
23.8993 524
23.91942 540
23.93953 566
23.95965 507
23.97976 545
23.99987 534
24.01999 539
24.0401 602
24.06021 618
24.08033 621
24.10044 666
24.12056 655
24.14067 742
24.16078 748
24.1809 751
24.20101 816
24.22112 761
24.24124 829
24.26135 792
24.28146 711
24.30158 702
24.32169 656
24.34181 628
24.36192 519
24.38203 530
24.40215 511
24.42226 542
24.44237 507
24.46249 492
24.4826 500
24.50272 506
24.52283 474
24.54294 463
24.56306 490
24.58317 515
24.60328 470
24.6234 519
24.64351 514
24.66362 536
24.68374 510
24.70385 525
24.72397 543
24.74408 503
24.76419 558
24.78431 529
24.80442 559
24.82453 544
24.84465 528
24.86476 527
24.88488 592
24.90499 575
24.9251 507
24.94522 516
24.96533 558
24.98544 548
25.00556 518
25.02567 489
25.04579 533
25.0659 538
25.08601 566
25.10613 518
25.12624 540
25.14635 555
25.16647 571
25.18658 572
25.20669 582
25.22681 563
25.24692 540
25.26704 564
25.28715 576
25.30726 576
25.32738 613
25.34749 624
25.3676 590
25.38772 642
25.40783 636
25.42795 580
25.44806 623
25.46817 613
25.48829 629
25.5084 571
25.52851 607
25.54863 619
25.56874 593
25.58886 592
25.60897 598
25.62908 567
25.6492 554
25.66931 569
25.68942 550
25.70954 575
25.72965 552
25.74976 560
25.76988 516
25.78999 516
25.81011 513
25.83022 548
25.85033 532
25.87045 522
25.89056 518
25.91067 530
25.93079 532
25.9509 531
25.97102 517
25.99113 509
26.01124 544
26.03136 505
26.05147 568
26.07158 620
26.0917 646
26.11181 622
26.13193 605
26.15204 650
26.17215 664
26.19227 720
26.21238 711
26.23249 788
26.25261 802
26.27272 830
26.29283 868
26.31295 906
26.33306 1034
26.35318 1134
26.37329 1242
26.3934 1392
26.41352 1652
26.43363 1963
26.45374 2438
26.47386 3278
26.49397 4401
26.51409 6048
26.5342 7549
26.55431 9676
26.57443 11555
26.59454 13238
26.61465 13548
26.63477 12624
26.65488 11131
26.67499 8903
26.69511 6847
26.71522 5108
26.73534 3542
26.75545 2352
26.77556 1715
26.79568 1273
26.81579 1127
26.8359 1087
26.85602 965
26.87613 919
26.89625 833
26.91636 788
26.93647 743
26.95659 749
26.9767 738
26.99681 697
27.01693 662
27.03704 654
27.05716 602
27.07727 626
27.09738 567
27.1175 555
27.13761 561
27.15772 572
27.17784 488
27.19795 531
27.21806 538
27.23818 532
27.25829 517
27.27841 501
27.29852 539
27.31863 549
27.33875 555
27.35886 576
27.37897 633
27.39909 626
27.4192 631
27.43932 610
27.45943 727
27.47954 602
27.49966 680
27.51977 647
27.53988 609
27.56 647
27.58011 656
27.60023 705
27.62034 755
27.64045 799
27.66057 907
27.68068 885
27.70079 1016
27.72091 996
27.74102 1000
27.76113 1040
27.78125 1031
27.80136 1117
27.82148 1130
27.84159 1244
27.8617 1371
27.88182 1412
27.90193 1449
27.92204 1506
27.94216 1428
27.96227 1269
27.98239 1213
28.0025 1046
28.02261 889
28.04273 812
28.06284 792
28.08295 769
28.10307 779
28.12318 748
28.1433 716
28.16341 807
28.18352 724
28.20364 748
28.22375 683
28.24386 656
28.26398 611
28.28409 579
28.3042 576
28.32432 469
28.34443 486
28.36455 473
28.38466 424
28.40477 458
28.42489 406
28.445 402
28.46511 435
28.48523 441
28.50534 376
28.52546 382
28.54557 392
28.56568 409
28.5858 392
28.60591 409
28.62602 403
28.64614 395
28.66625 353
28.68636 413
28.70648 354
28.72659 411
28.74671 379
28.76682 375
28.78693 366
28.80705 395
28.82716 358
28.84727 389
28.86739 418
28.8875 420
28.90762 373
28.92773 343
28.94784 431
28.96796 391
28.98807 362
29.00818 381
29.0283 384
29.04841 405
29.06853 417
29.08864 401
29.10875 376
29.12887 371
29.14898 373
29.16909 362
29.18921 383
29.20932 344
29.22943 388
29.24955 374
29.26966 392
29.28978 363
29.30989 366
29.33 416
29.35012 408
29.37023 345
29.39034 365
29.41046 368
29.43057 395
29.45069 409
29.4708 353
29.49091 384
29.51103 408
29.53114 398
29.55125 343
29.57137 380
29.59148 370
29.6116 371
29.63171 375
29.65182 401
29.67194 431
29.69205 410
29.71216 441
29.73228 407
29.75239 441
29.7725 465
29.79262 424
29.81273 454
29.83285 464
29.85296 463
29.87307 469
29.89319 472
29.9133 472
29.93341 504
29.95353 461
29.97364 532
29.99376 484
30.01387 508
30.03398 502
30.0541 507
30.07421 484
30.09432 475
30.11444 491
30.13455 493
30.15467 515
30.17478 494
30.19489 477
30.21501 449
30.23512 494
30.25523 481
30.27535 477
30.29546 505
30.31557 509
30.33569 512
30.3558 520
30.37592 541
30.39603 564
30.41614 560
30.43626 559
30.45637 560
30.47648 524
30.4966 556
30.51671 474
30.53683 503
30.55694 456
30.57705 430
30.59717 466
30.61728 423
30.63739 423
30.65751 400
30.67762 454
30.69773 439
30.71785 469
30.73796 488
30.75808 475
30.77819 491
30.7983 513
30.81842 480
30.83853 489
30.85864 447
30.87876 474
30.89887 441
30.91899 453
30.9391 349
30.95921 360
30.97933 363
30.99944 359
31.01955 364
31.03967 362
31.05978 361
31.0799 394
31.10001 386
31.12012 374
31.14024 408
31.16035 452
31.18046 429
31.20058 452
31.22069 448
31.2408 452
31.26092 430
31.28103 403
31.30115 429
31.32126 420
31.34137 431
31.36149 396
31.3816 384
31.40171 422
31.42183 374
31.44194 373
31.46206 374
31.48217 362
31.50228 370
31.5224 376
31.54251 376
31.56262 358
31.58274 333
31.60285 346
31.62297 345
31.64308 370
31.66319 376
31.68331 323
31.70342 369
31.72353 358
31.74365 379
31.76376 402
31.78387 393
31.80399 394
31.8241 350
31.84422 340
31.86433 345
31.88444 390
31.90456 379
31.92467 370
31.94478 380
31.9649 368
31.98501 330
32.00513 345
32.02524 369
32.04535 381
32.06547 373
32.08558 349
32.10569 364
32.12581 367
32.14592 371
32.16604 367
32.18615 332
32.20626 333
32.22638 365
32.24649 366
32.2666 363
32.28672 342
32.30683 316
32.32694 347
32.34706 352
32.36717 374
32.38729 350
32.4074 348
32.42751 311
32.44763 342
32.46774 329
32.48785 341
32.50797 309
32.52808 339
32.5482 327
32.56831 338
32.58842 350
32.60854 335
32.62865 342
32.64876 332
32.66888 332
32.68899 376
32.7091 362
32.72922 356
32.74933 358
32.76945 375
32.78956 317
32.80967 326
32.82979 350
32.8499 337
32.87001 336
32.89013 318
32.91024 368
32.93036 355
32.95047 361
32.97058 376
32.9907 386
33.01081 349
33.03092 375
33.05104 376
33.07115 353
33.09127 366
33.11138 376
33.13149 352
33.15161 397
33.17172 389
33.19183 361
33.21195 399
33.23206 404
33.25217 398
33.27229 405
33.2924 393
33.31252 402
33.33263 388
33.35274 375
33.37286 379
33.39297 377
33.41308 378
33.4332 347
33.45331 352
33.47343 382
33.49354 375
33.51365 364
33.53377 383
33.55388 368
33.57399 358
33.59411 349
33.61422 337
33.63434 376
33.65445 398
33.67456 355
33.69468 356
33.71479 379
33.7349 362
33.75502 381
33.77513 397
33.79524 361
33.81536 377
33.83547 375
33.85559 389
33.8757 425
33.89581 419
33.91593 391
33.93604 402
33.95615 377
33.97627 378
33.99638 421
34.0165 411
34.03661 416
34.05672 356
34.07684 374
34.09695 396
34.11706 401
34.13718 407
34.15729 384
34.17741 402
34.19752 403
34.21763 362
34.23775 363
34.25786 382
34.27797 402
34.29809 409
34.3182 422
34.33831 406
34.35843 437
34.37854 452
34.39866 438
34.41877 423
34.43888 419
34.459 476
34.47911 441
34.49922 477
34.51934 503
34.53945 490
34.55957 487
34.57968 476
34.59979 467
34.61991 536
34.64002 476
34.66013 519
34.68025 507
34.70036 510
34.72047 563
34.74059 548
34.7607 568
34.78082 556
34.80093 598
34.82104 552
34.84116 582
34.86127 609
34.88138 650
34.9015 600
34.92161 610
34.94173 676
34.96184 652
34.98195 656
35.00207 705
35.02218 683
35.04229 669
35.06241 687
35.08252 694
35.10264 590
35.12275 626
35.14286 608
35.16298 601
35.18309 539
35.2032 551
35.22332 556
35.24343 540
35.26354 548
35.28366 528
35.30377 508
35.32389 479
35.344 534
35.36411 510
35.38423 500
35.40434 495
35.42445 498
35.44457 522
35.46468 540
35.4848 505
35.50491 485
35.52502 470
35.54514 473
35.56525 503
35.58536 474
35.60548 519
35.62559 473
35.64571 504
35.66582 446
35.68593 491
35.70605 491
35.72616 512
35.74627 531
35.76639 482
35.7865 494
35.80661 471
35.82673 535
35.84684 489
35.86696 464
35.88707 520
35.90718 461
35.9273 476
35.94741 492
35.96752 521
35.98764 493
36.00775 431
36.02787 480
36.04798 500
36.06809 475
36.08821 442
36.10832 432
36.12843 494
36.14855 462
36.16866 445
36.18878 462
36.20889 470
36.229 470
36.24912 467
36.26923 518
36.28934 507
36.30946 489
36.32957 567
36.34968 570
36.3698 683
36.38991 711
36.41003 886
36.43014 967
36.45025 1132
36.47037 1241
36.49048 1299
36.51059 1297
36.53071 1254
36.55082 1163
36.57094 1109
36.59105 961
36.61116 916
36.63128 788
36.65139 733
36.6715 652
36.69162 579
36.71173 537
36.73184 533
36.75196 507
36.77207 523
36.79219 507
36.8123 448
36.83241 484
36.85253 489
36.87264 452
36.89275 476
36.91287 473
36.93298 463
36.9531 473
36.97321 488
36.99332 508
37.01344 422
37.03355 443
37.05366 442
37.07378 469
37.09389 454
37.11401 437
37.13412 445
37.15423 422
37.17435 395
37.19446 450
37.21457 409
37.23469 430
37.2548 427
37.27491 482
37.29503 490
37.31514 442
37.33526 467
37.35537 437
37.37548 500
37.3956 443
37.41571 475
37.43582 505
37.45594 508
37.47605 501
37.49617 466
37.51628 491
37.53639 494
37.55651 456
37.57662 436
37.59673 484
37.61685 476
37.63696 494
37.65708 479
37.67719 481
37.6973 459
37.71742 519
37.73753 528
37.75764 487
37.77776 485
37.79787 423
37.81798 426
37.8381 416
37.85821 384
37.87833 430
37.89844 448
37.91855 396
37.93867 424
37.95878 404
37.97889 404
37.99901 398
38.01912 411
38.03924 422
38.05935 408
38.07946 389
38.09958 439
38.11969 433
38.1398 418
38.15992 406
38.18003 415
38.20015 410
38.22026 395
38.24037 461
38.26049 409
38.2806 438
38.30071 414
38.32083 453
38.34094 408
38.36105 409
38.38117 381
38.40128 425
38.4214 451
38.44151 440
38.46162 407
38.48174 432
38.50185 457
38.52196 458
38.54208 429
38.56219 379
38.58231 421
38.60242 460
38.62253 394
38.64265 426
38.66276 468
38.68287 431
38.70299 420
38.7231 457
38.74321 442
38.76333 447
38.78344 440
38.80356 444
38.82367 443
38.84378 425
38.8639 469
38.88401 433
38.90412 466
38.92424 421
38.94435 424
38.96447 429
38.98458 434
39.00469 436
39.02481 424
39.04492 440
39.06503 403
39.08515 425
39.10526 444
39.12538 449
39.14549 408
39.1656 418
39.18572 446
39.20583 416
39.22594 471
39.24606 469
39.26617 527
39.28628 567
39.3064 646
39.32651 700
39.34663 840
39.36674 907
39.38685 1039
39.40697 1118
39.42708 1151
39.44719 1101
39.46731 1042
39.48742 933
39.50754 833
39.52765 721
39.54776 687
39.56788 662
39.58799 579
39.6081 476
39.62822 428
39.64833 434
39.66845 402
39.68856 340
39.70867 369
39.72879 356
39.7489 383
39.76901 402
39.78913 374
39.80924 349
39.82935 388
39.84947 400
39.86958 355
39.8897 386
39.90981 352
39.92992 412
39.95004 410
39.97015 431
39.99026 389
40.01038 375
40.03049 458
40.05061 416
40.07072 413
40.09083 458
40.11095 464
40.13106 518
40.15117 537
40.17129 570
40.1914 648
40.21152 678
40.23163 712
40.25174 721
40.27186 723
40.29197 676
40.31208 592
40.3322 584
40.35231 547
40.37242 535
40.39254 496
40.41265 405
40.43277 404
40.45288 388
40.47299 377
40.49311 350
40.51322 368
40.53333 349
40.55345 365
40.57356 381
40.59368 385
40.61379 340
40.6339 352
40.65402 332
40.67413 336
40.69424 391
40.71436 366
40.73447 341
40.75458 338
40.7747 308
40.79481 365
40.81493 370
40.83504 326
40.85515 364
40.87527 353
40.89538 364
40.91549 340
40.93561 334
40.95572 366
40.97584 375
40.99595 396
41.01606 378
41.03618 375
41.05629 321
41.0764 373
41.09652 383
41.11663 379
41.13675 400
41.15686 373
41.17697 382
41.19709 384
41.2172 375
41.23731 415
41.25743 360
41.27754 338
41.29765 350
41.31777 383
41.33788 353
41.358 393
41.37811 381
41.39822 361
41.41834 344
41.43845 340
41.45856 376
41.47868 340
41.49879 365
41.51891 346
41.53902 362
41.55913 364
41.57925 383
41.59936 313
41.61947 332
41.63959 390
41.6597 347
41.67982 326
41.69993 389
41.72004 400
41.74016 397
41.76027 391
41.78038 398
41.8005 383
41.82061 377
41.84072 381
41.86084 387
41.88095 366
41.90107 351
41.92118 349
41.94129 360
41.96141 350
41.98152 351
42.00163 387
42.02175 371
42.04186 364
42.06198 370
42.08209 375
42.1022 363
42.12232 357
42.14243 365
42.16254 387
42.18266 417
42.20277 399
42.22289 418
42.243 457
42.26311 487
42.28323 558
42.30334 620
42.32345 700
42.34357 753
42.36368 866
42.38379 946
42.40391 940
42.42402 870
42.44414 941
42.46425 854
42.48436 734
42.50448 705
42.52459 670
42.5447 612
42.56482 513
42.58493 477
42.60505 480
42.62516 434
42.64527 418
42.66539 405
42.6855 385
42.70561 405
42.72573 355
42.74584 385
42.76595 355
42.78607 395
42.80618 368
42.8263 392
42.84641 377
42.86652 328
42.88664 337
42.90675 334
42.92686 350
42.94698 346
42.96709 283
42.98721 337
43.00732 345
43.02743 302
43.04755 355
43.06766 321
43.08777 347
43.10789 326
43.128 336
43.14812 319
43.16823 278
43.18834 333
43.20846 325
43.22857 343
43.24868 335
43.2688 337
43.28891 329
43.30902 347
43.32914 330
43.34925 317
43.36937 343
43.38948 352
43.40959 318
43.42971 312
43.44982 308
43.46993 341
43.49005 365
43.51016 324
43.53028 327
43.55039 326
43.5705 317
43.59062 309
43.61073 309
43.63084 330
43.65096 311
43.67107 298
43.69119 362
43.7113 312
43.73141 310
43.75153 315
43.77164 315
43.79175 323
43.81187 320
43.83198 309
43.85209 335
43.87221 321
43.89232 293
43.91244 321
43.93255 307
43.95266 320
43.97278 318
43.99289 324
44.013 337
44.03312 283
44.05323 317
44.07335 286
44.09346 310
44.11357 316
44.13369 311
44.1538 321
44.17391 302
44.19403 311
44.21414 296
44.23426 309
44.25437 314
44.27448 321
44.2946 281
44.31471 329
44.33482 322
44.35494 308
44.37505 290
44.39516 293
44.41528 338
44.43539 329
44.45551 310
44.47562 337
44.49573 320
44.51585 309
44.53596 329
44.55607 357
44.57619 354
44.5963 308
44.61642 310
44.63653 291
44.65664 328
44.67676 309
44.69687 334
44.71698 294
44.7371 306
44.75721 304
44.77732 301
44.79744 348
44.81755 284
44.83767 314
44.85778 308
44.87789 339
44.89801 328
44.91812 351
44.93823 323
44.95835 358
44.97846 353
44.99858 338
45.01869 363
45.0388 350
45.05892 356
45.07903 365
45.09914 349
45.11926 365
45.13937 332
45.15949 353
45.1796 378
45.19971 338
45.21983 331
45.23994 372
45.26005 345
45.28017 404
45.30028 373
45.32039 356
45.34051 374
45.36062 411
45.38074 373
45.40085 353
45.42096 353
45.44108 388
45.46119 373
45.4813 364
45.50142 361
45.52153 393
45.54165 397
45.56176 437
45.58187 405
45.60199 446
45.6221 453
45.64221 483
45.66233 545
45.68244 591
45.70256 644
45.72267 722
45.74278 716
45.7629 738
45.78301 636
45.80312 597
45.82324 600
45.84335 525
45.86346 572
45.88358 495
45.90369 459
45.92381 412
45.94392 402
45.96403 336
45.98415 393
46.00426 372
46.02437 333
46.04449 358
46.0646 329
46.08472 349
46.10483 318
46.12494 342
46.14506 286
46.16517 358
46.18528 322
46.2054 322
46.22551 347
46.24563 327
46.26574 297
46.28585 344
46.30597 324
46.32608 300
46.34619 300
46.36631 326
46.38642 304
46.40653 310
46.42665 283
46.44676 296
46.46688 324
46.48699 298
46.5071 304
46.52722 333
46.54733 294
46.56744 298
46.58756 313
46.60767 345
46.62779 304
46.6479 309
46.66801 326
46.68813 296
46.70824 325
46.72835 300
46.74847 297
46.76858 328
46.78869 314
46.80881 301
46.82892 313
46.84904 338
46.86915 299
46.88926 300
46.90938 340
46.92949 316
46.9496 326
46.96972 296
46.98983 282
47.00995 320
47.03006 315
47.05017 292
47.07029 344
47.0904 329
47.11051 298
47.13063 289
47.15074 303
47.17086 361
47.19097 328
47.21108 309
47.2312 284
47.25131 298
47.27142 325
47.29154 288
47.31165 308
47.33176 321
47.35188 326
47.37199 310
47.39211 284
47.41222 306
47.43233 325
47.45245 324
47.47256 317
47.49267 323
47.51279 302
47.5329 326
47.55302 293
47.57313 302
47.59324 316
47.61336 311
47.63347 294
47.65358 319
47.6737 333
47.69381 342
47.71393 342
47.73404 315
47.75415 322
47.77427 358
47.79438 339
47.81449 355
47.83461 351
47.85472 336
47.87483 376
47.89495 351
47.91506 355
47.93518 355
47.95529 376
47.9754 315
47.99552 314
48.01563 336
48.03574 334
48.05586 342
48.07597 334
48.09609 311
48.1162 340
48.13631 364
48.15643 345
48.17654 354
48.19665 308
48.21677 366
48.23688 317
48.257 360
48.27711 356
48.29722 368
48.31734 355
48.33745 353
48.35756 309
48.37768 343
48.39779 293
48.4179 325
48.43802 317
48.45813 271
48.47825 324
48.49836 322
48.51847 305
48.53859 340
48.5587 305
48.57881 331
48.59893 307
48.61904 301
48.63916 307
48.65927 337
48.67938 332
48.6995 361
48.71961 341
48.73972 323
48.75984 307
48.77995 288
48.80006 284
48.82018 314
48.84029 309
48.86041 333
48.88052 342
48.90063 310
48.92075 317
48.94086 315
48.96097 339
48.98109 334
49.0012 360
49.02132 302
49.04143 338
49.06154 365
49.08166 389
49.10177 364
49.12188 383
49.142 357
49.16211 372
49.18223 368
49.20234 354
49.22245 378
49.24257 389
49.26268 317
49.28279 370
49.30291 368
49.32302 379
49.34313 339
49.36325 346
49.38336 376
49.40348 361
49.42359 361
49.4437 327
49.46382 358
49.48393 307
49.50404 376
49.52416 385
49.54427 376
49.56439 353
49.5845 383
49.60461 352
49.62473 365
49.64484 392
49.66495 371
49.68507 444
49.70518 405
49.7253 418
49.74541 428
49.76552 407
49.78564 454
49.80575 458
49.82586 472
49.84598 548
49.86609 541
49.8862 584
49.90632 644
49.92643 707
49.94655 732
49.96666 896
49.98677 983
50.00689 1133
50.027 1213
50.04711 1436
50.06723 1528
50.08734 1605
50.10746 1587
50.12757 1470
50.14768 1329
50.1678 1172
50.18791 1090
50.20802 1006
50.22814 1037
50.24825 894
50.26837 801
50.28848 688
50.30859 532
50.32871 464
50.34882 404
50.36893 403
50.38905 374
50.40916 390
50.42927 375
50.44939 407
50.4695 373
50.48962 369
50.50973 394
50.52984 397
50.54996 421
50.57007 364
50.59018 405
50.6103 375
50.63041 393
50.65053 410
50.67064 412
50.69075 396
50.71087 392
50.73098 375
50.75109 352
50.77121 330
50.79132 313
50.81143 340
50.83155 316
50.85166 315
50.87178 353
50.89189 322
50.912 362
50.93212 302
50.95223 328
50.97234 322
50.99246 343
51.01257 360
51.03269 342
51.0528 362
51.07291 400
51.09303 366
51.11314 351
51.13325 373
51.15337 376
51.17348 389
51.1936 357
51.21371 347
51.23382 312
51.25394 379
51.27405 325
51.29416 331
51.31428 307
51.33439 306
51.3545 328
51.37462 300
51.39473 314
51.41485 308
51.43496 272
51.45507 304
51.47519 305
51.4953 302
51.51541 294
51.53553 293
51.55564 293
51.57576 283
51.59587 262
51.61598 281
51.6361 286
51.65621 289
51.67632 304
51.69644 288
51.71655 296
51.73667 273
51.75678 291
51.77689 304
51.79701 326
51.81712 285
51.83723 286
51.85735 287
51.87746 293
51.89757 297
51.91769 272
51.9378 315
51.95792 287
51.97803 285
51.99814 300
52.01826 279
52.03837 284
52.05848 287
52.0786 275
52.09871 314
52.11883 295
52.13894 277
52.15905 317
52.17917 277
52.19928 304
52.21939 302
52.23951 327
52.25962 328
52.27974 305
52.29985 298
52.31996 327
52.34008 323
52.36019 317
52.3803 295
52.40042 299
52.42053 309
52.44064 298
52.46076 271
52.48087 301
52.50099 312
52.5211 291
52.54121 316
52.56133 317
52.58144 289
52.60155 319
52.62167 331
52.64178 295
52.6619 298
52.68201 330
52.70212 322
52.72224 301
52.74235 316
52.76246 305
52.78258 313
52.80269 275
52.8228 326
52.84292 337
52.86303 327
52.88315 335
52.90326 356
52.92337 320
52.94349 331
52.9636 337
52.98371 330
53.00383 344
53.02394 335
53.04406 332
53.06417 336
53.08428 367
53.1044 345
53.12451 338
53.14462 361
53.16474 334
53.18485 373
53.20497 366
53.22508 335
53.24519 366
53.26531 363
53.28542 360
53.30553 336
53.32565 364
53.34576 352
53.36587 333
53.38599 328
53.4061 347
53.42622 325
53.44633 353
53.46644 299
53.48656 339
53.50667 354
53.52678 330
53.5469 327
53.56701 331
53.58713 392
53.60724 305
53.62735 322
53.64747 337
53.66758 356
53.68769 330
53.70781 379
53.72792 343
53.74804 362
53.76815 387
53.78826 349
53.80838 365
53.82849 325
53.8486 326
53.86872 362
53.88883 356
53.90894 312
53.92906 367
53.94917 381
53.96929 409
53.9894 372
54.00951 344
54.02963 362
54.04974 351
54.06985 338
54.08997 364
54.11008 378
54.1302 365
54.15031 363
54.17042 374
54.19054 368
54.21065 373
54.23076 356
54.25088 419
54.27099 373
54.29111 375
54.31122 363
54.33133 394
54.35145 413
54.37156 417
54.39167 391
54.41179 411
54.4319 397
54.45201 370
54.47213 410
54.49224 396
54.51236 387
54.53247 407
54.55258 397
54.5727 410
54.59281 419
54.61292 450
54.63304 430
54.65315 449
54.67327 494
54.69338 530
54.71349 510
54.73361 576
54.75372 612
54.77383 690
54.79395 707
54.81406 734
54.83417 748
54.85429 704
54.8744 636
54.89452 622
54.91463 585
54.93474 563
54.95486 528
54.97497 560
54.99508 540
55.0152 508
55.03531 455
55.05543 468
55.07554 455
55.09565 396
55.11577 421
55.13588 444
55.15599 437
55.17611 482
55.19622 484
55.21634 503
55.23645 467
55.25656 520
55.27668 517
55.29679 491
55.3169 443
55.33702 426
55.35713 445
55.37724 430
55.39736 393
55.41747 392
55.43759 409
55.4577 396
55.47781 396
55.49793 408
55.51804 382
55.53815 371
55.55827 327
55.57838 372
55.5985 328
55.61861 365
55.63872 338
55.65884 374
55.67895 326
55.69906 379
55.71918 385
55.73929 363
55.75941 346
55.77952 347
55.79963 340
55.81975 315
55.83986 340
55.85997 338
55.88009 351
55.9002 369
55.92031 381
55.94043 367
55.96054 367
55.98066 338
56.00077 338
56.02088 326
56.041 354
56.06111 335
56.08122 357
56.10134 351
56.12145 355
56.14157 351
56.16168 321
56.18179 316
56.20191 335
56.22202 326
56.24213 331
56.26225 356
56.28236 361
56.30248 334
56.32259 343
56.3427 323
56.36282 314
56.38293 331
56.40304 324
56.42316 369
56.44327 342
56.46338 327
56.4835 346
56.50361 354
56.52373 295
56.54384 341
56.56395 314
56.58407 313
56.60418 300
56.62429 323
56.64441 367
56.66452 325
56.68464 353
56.70475 317
56.72486 328
56.74498 333
56.76509 340
56.7852 318
56.80532 300
56.82543 272
56.84554 320
56.86566 316
56.88577 303
56.90589 315
56.926 333
56.94611 319
56.96623 314
56.98634 360
57.00645 314
57.02657 346
57.04668 324
57.0668 335
57.08691 349
57.10702 304
57.12714 350
57.14725 345
57.16736 343
57.18748 321
57.20759 316
57.22771 301
57.24782 295
57.26793 311
57.28805 288
57.30816 283
57.32827 377
57.34839 305
57.3685 271
57.38861 300
57.40873 326
57.42884 345
57.44896 317
57.46907 317
57.48918 297
57.5093 320
57.52941 302
57.54952 308
57.56964 326
57.58975 348
57.60987 306
57.62998 329
57.65009 331
57.67021 318
57.69032 350
57.71043 314
57.73055 339
57.75066 315
57.77078 321
57.79089 318
57.811 323
57.83112 318
57.85123 298
57.87134 332
57.89146 294
57.91157 314
57.93168 323
57.9518 323
57.97191 331
57.99203 304
58.01214 299
58.03225 304
58.05237 310
58.07248 333
58.09259 299
58.11271 338
58.13282 325
58.15294 305
58.17305 316
58.19316 322
58.21328 320
58.23339 308
58.2535 370
58.27362 319
58.29373 301
58.31385 280
58.33396 309
58.35407 307
58.37419 318
58.3943 330
58.41441 289
58.43453 269
58.45464 289
58.47475 313
58.49487 300
58.51498 355
58.5351 333
58.55521 323
58.57532 318
58.59544 278
58.61555 348
58.63566 298
58.65578 331
58.67589 339
58.69601 344
58.71612 332
58.73623 309
58.75635 300
58.77646 303
58.79657 300
58.81669 302
58.8368 302
58.85691 329
58.87703 322
58.89714 305
58.91726 325
58.93737 308
58.95748 352
58.9776 313
58.99771 288
59.01782 313
59.03794 318
59.05805 342
59.07817 326
59.09828 294
59.11839 346
59.13851 364
59.15862 319
59.17873 305
59.19885 312
59.21896 313
59.23908 321
59.25919 340
59.2793 325
59.29942 343
59.31953 328
59.33964 317
59.35976 321
59.37987 320
59.39998 320
59.4201 332
59.44021 328
59.46033 348
59.48044 343
59.50055 351
59.52067 345
59.54078 340
59.56089 364
59.58101 372
59.60112 405
59.62124 361
59.64135 439
59.66146 412
59.68158 411
59.70169 454
59.7218 490
59.74192 556
59.76203 600
59.78215 661
59.80226 751
59.82237 873
59.84249 932
59.8626 1036
59.88271 1153
59.90283 1088
59.92294 1078
59.94305 933
59.96317 901
59.98328 801
60.0034 774
60.02351 754
60.04362 723
60.06374 717
60.08385 696
60.10396 606
60.12408 548
60.14419 484
60.16431 451
60.18442 420
60.20453 409
60.22465 363
60.24476 351
60.26487 325
60.28499 360
60.3051 354
60.32522 332
60.34533 363
60.36544 341
60.38556 334
60.40567 388
60.42578 352
60.4459 354
60.46601 322
60.48612 331
60.50624 290
60.52635 328
60.54647 325
60.56658 307
60.58669 328
60.60681 328
60.62692 314
60.64703 326
60.66715 304
60.68726 315
60.70738 297
60.72749 304
60.7476 348
60.76772 310
60.78783 338
60.80794 291
60.82806 315
60.84817 276
60.86828 316
60.8884 350
60.90851 311
60.92863 329
60.94874 311
60.96885 307
60.98897 328
61.00908 309
61.02919 318
61.04931 350
61.06942 337
61.08954 333
61.10965 315
61.12976 307
61.14988 352
61.16999 284
61.1901 290
61.21022 312
61.23033 342
61.25045 326
61.27056 316
61.29067 325
61.31079 361
61.3309 336
61.35101 360
61.37113 359
61.39124 344
61.41135 378
61.43147 369
61.45158 375
61.4717 327
61.49181 382
61.51192 388
61.53204 367
61.55215 404
61.57226 367
61.59238 367
61.61249 356
61.63261 404
61.65272 448
61.67283 394
61.69295 396
61.71306 414
61.73317 399
61.75329 408
61.7734 417
61.79352 379
61.81363 430
61.83374 423
61.85386 397
61.87397 419
61.89408 407
61.9142 392
61.93431 413
61.95442 426
61.97454 398
61.99465 412
62.01477 411
62.03488 442
62.05499 438
62.07511 390
62.09522 370
62.11533 410
62.13545 406
62.15556 396
62.17568 430
62.19579 377
62.2159 391
62.23602 402
62.25613 416
62.27624 406
62.29636 413
62.31647 387
62.33659 408
62.3567 411
62.37681 402
62.39693 387
62.41704 377
62.43715 389
62.45727 329
62.47738 355
62.49749 347
62.51761 358
62.53772 334
62.55784 350
62.57795 368
62.59806 310
62.61818 342
62.63829 363
62.6584 321
62.67852 352
62.69863 349
62.71875 336
62.73886 322
62.75897 318
62.77909 307
62.7992 352
62.81931 310
62.83943 330
62.85954 298
62.87965 309
62.89977 299
62.91988 340
62.94 345
62.96011 296
62.98022 312
63.00034 326
63.02045 317
63.04056 338
63.06068 311
63.08079 322
63.10091 332
63.12102 316
63.14113 310
63.16125 307
63.18136 317
63.20147 320
63.22159 322
63.2417 347
63.26182 321
63.28193 321
63.30204 312
63.32216 313
63.34227 318
63.36238 321
63.3825 322
63.40261 340
63.42272 342
63.44284 319
63.46295 320
63.48307 323
63.50318 348
63.52329 377
63.54341 343
63.56352 370
63.58363 345
63.60375 343
63.62386 383
63.64398 410
63.66409 372
63.6842 376
63.70432 371
63.72443 369
63.74454 351
63.76466 409
63.78477 386
63.80489 411
63.825 394
63.84511 376
63.86523 378
63.88534 470
63.90545 430
63.92557 434
63.94568 488
63.96579 489
63.98591 493
64.00602 445
64.02614 477
64.04625 413
64.06636 384
64.08648 370
64.10659 398
64.1267 394
64.14682 404
64.16693 403
64.18705 368
64.20716 373
64.22727 316
64.24739 329
64.2675 329
64.28761 337
64.30773 324
64.32784 312
64.34796 327
64.36807 310
64.38818 298
64.4083 291
64.42841 320
64.44852 325
64.46864 276
64.48875 303
64.50886 314
64.52898 308
64.54909 303
64.56921 293
64.58932 324
64.60943 319
64.62955 321
64.64966 297
64.66977 324
64.68989 306
64.71 332
64.73012 316
64.75023 307
64.77034 309
64.79046 274
64.81057 306
64.83068 288
64.8508 312
64.87091 268
64.89102 333
64.91114 277
64.93125 323
64.95137 352
64.97148 278
64.99159 295
65.01171 302
65.03182 299
65.05193 322
65.07205 327
65.09216 285
65.11228 309
65.13239 317
65.1525 325
65.17262 330
65.19273 351
65.21284 316
65.23296 299
65.25307 291
65.27319 311
65.2933 310
65.31341 349
65.33353 331
65.35364 306
65.37375 314
65.39387 294
65.41398 286
65.43409 312
65.45421 306
65.47432 324
65.49444 264
65.51455 345
65.53466 308
65.55478 293
65.57489 329
65.595 318
65.61512 292
65.63523 316
65.65535 329
65.67546 336
65.69557 319
65.71569 315
65.7358 347
65.75591 338
65.77603 339
65.79614 300
65.81626 317
65.83637 332
65.85648 310
65.8766 310
65.89671 302
65.91682 341
65.93694 313
65.95705 316
65.97716 318
65.99728 303
66.01739 285
66.03751 272
66.05762 273
66.07773 314
66.09785 306
66.11796 289
66.13807 303
66.15819 293
66.1783 293
66.19842 327
66.21853 254
66.23864 283
66.25876 313
66.27887 316
66.29898 298
66.3191 299
66.33921 266
66.35933 300
66.37944 270
66.39955 284
66.41967 324
66.43978 294
66.45989 296
66.48001 288
66.50012 295
66.52023 294
66.54035 272
66.56046 265
66.58058 269
66.60069 298
66.6208 268
66.64092 300
66.66103 309
66.68114 305
66.70126 294
66.72137 276
66.74149 283
66.7616 305
66.78171 302
66.80183 313
66.82194 312
66.84205 288
66.86217 315
66.88228 324
66.90239 306
66.92251 332
66.94262 333
66.96274 291
66.98285 321
67.00296 287
67.02308 319
67.04319 303
67.0633 348
67.08342 287
67.10353 297
67.12365 297
67.14376 345
67.16387 358
67.18399 328
67.2041 313
67.22421 325
67.24433 346
67.26444 332
67.28456 360
67.30467 327
67.32478 339
67.3449 317
67.36501 349
67.38512 367
67.40524 355
67.42535 345
67.44546 377
67.46558 367
67.48569 389
67.50581 458
67.52592 463
67.54603 465
67.56615 529
67.58626 622
67.60637 598
67.62649 697
67.6466 743
67.66672 748
67.68683 824
67.70694 764
67.72706 727
67.74717 715
67.76728 605
67.7874 602
67.80751 609
67.82763 621
67.84774 633
67.86785 670
67.88797 664
67.90808 637
67.92819 648
67.94831 628
67.96842 682
67.98853 715
68.00865 751
68.02876 862
68.04888 928
68.06899 964
68.0891 998
68.10922 962
68.12933 919
68.14944 894
68.16956 863
68.18967 863
68.20979 905
68.2299 883
68.25001 912
68.27013 915
68.29024 890
68.31035 818
68.33047 712
68.35058 660
68.3707 573
68.39081 567
68.41092 493
68.43104 484
68.45115 475
68.47126 487
68.49138 421
68.51149 424
68.5316 407
68.55172 355
68.57183 345
68.59195 333
68.61206 344
68.63217 328
68.65229 337
68.6724 322
68.69251 296
68.71263 342
68.73274 293
68.75286 323
68.77297 325
68.79308 303
68.8132 341
68.83331 282
68.85342 308
68.87354 289
68.89365 271
68.91376 308
68.93388 285
68.95399 279
68.97411 292
68.99422 310
69.01433 284
69.03445 283
69.05456 321
69.07467 307
69.09479 295
69.1149 285
69.13502 311
69.15513 337
69.17524 345
69.19536 301
69.21547 312
69.23558 356
69.2557 315
69.27581 316
69.29593 311
69.31604 313
69.33615 297
69.35627 294
69.37638 325
69.39649 345
69.41661 324
69.43672 327
69.45683 348
69.47695 344
69.49706 334
69.51718 316
69.53729 311
69.5574 336
69.57752 342
69.59763 302
69.61774 299
69.63786 333
69.65797 329
69.67809 334
69.6982 303
69.71831 317
69.73843 326
69.75854 289
69.77865 308
69.79877 330
69.81888 296
69.839 304
69.85911 287
69.87922 335
69.89934 324
69.91945 288
69.93956 283
69.95968 298
69.97979 282
69.9999 290
70.02002 317
70.04013 296
70.06025 280
70.08036 297
70.10047 274
70.12059 304
70.1407 291
70.16081 256
70.18093 275
70.20104 295
70.22116 266
70.24127 280
70.26138 298
70.2815 291
70.30161 305
70.32172 258
70.34184 290
70.36195 273
70.38207 266
70.40218 284
70.42229 288
70.44241 279
70.46252 273
70.48263 288
70.50275 308
70.52286 300
70.54297 257
70.56309 303
70.5832 256
70.60332 280
70.62343 310
70.64354 300
70.66366 244
70.68377 267
70.70388 284
70.724 286
70.74411 282
70.76423 306
70.78434 276
70.80445 281
70.82457 287
70.84468 292
70.86479 308
70.88491 296
70.90502 288
70.92513 313
70.94525 316
70.96536 261
70.98548 260
71.00559 283
71.0257 304
71.04582 277
71.06593 317
71.08604 274
71.10616 285
71.12627 285
71.14639 271
71.1665 304
71.18661 264
71.20673 307
71.22684 282
71.24695 297
71.26707 285
71.28718 308
71.3073 259
71.32741 287
71.34752 280
71.36764 302
71.38775 288
71.40786 251
71.42798 275
71.44809 287
71.4682 296
71.48832 262
71.50843 320
71.52855 267
71.54866 283
71.56877 304
71.58889 285
71.609 306
71.62911 302
71.64923 301
71.66934 270
71.68946 295
71.70957 273
71.72968 281
71.7498 262
71.76991 298
71.79002 269
71.81014 301
71.83025 295
71.85037 260
71.87048 303
71.89059 250
71.91071 282
71.93082 288
71.95093 289
71.97105 270
71.99116 292
72.01127 298
72.03139 262
72.0515 276
72.07162 270
72.09173 298
72.11184 265
72.13196 278
72.15207 313
72.17218 319
72.1923 295
72.21241 311
72.23253 285
72.25264 263
72.27275 294
72.29287 313
72.31298 266
72.33309 301
72.35321 290
72.37332 292
72.39344 286
72.41355 284
72.43366 275
72.45378 262
72.47389 298
72.494 274
72.51412 307
72.53423 286
72.55434 301
72.57446 301
72.59457 298
72.61469 319
72.6348 315
72.65491 306
72.67503 316
72.69514 316
72.71525 288
72.73537 292
72.75548 295
72.7756 289
72.79571 278
72.81582 339
72.83594 314
72.85605 313
72.87616 295
72.89628 298
72.91639 325
72.9365 323
72.95662 265
72.97673 314
72.99685 296
73.01696 317
73.03707 309
73.05719 316
73.0773 331
73.09741 325
73.11753 353
73.13764 351
73.15776 333
73.17787 331
73.19798 335
73.2181 332
73.23821 368
73.25832 360
73.27844 395
73.29855 394
73.31867 389
73.33878 434
73.35889 439
73.37901 461
73.39912 492
73.41923 480
73.43935 476
73.45946 414
73.47957 408
73.49969 393
73.5198 402
73.53992 389
73.56003 386
73.58014 383
73.60026 395
73.62037 385
73.64048 421
73.6606 364
73.68071 358
73.70083 324
73.72094 319
73.74105 351
73.76117 303
73.78128 331
73.80139 305
73.82151 319
73.84162 312
73.86174 280
73.88185 268
73.90196 305
73.92208 311
73.94219 311
73.9623 313
73.98242 315
74.00253 290
74.02264 301
74.04276 296
74.06287 307
74.08299 318
74.1031 307
74.12321 310
74.14333 301
74.16344 320
74.18355 277
74.20367 277
74.22378 288
74.2439 298
74.26401 327
74.28412 304
74.30424 336
74.32435 296
74.34446 305
74.36458 301
74.38469 298
74.40481 308
74.42492 291
74.44503 351
74.46515 299
74.48526 292
74.50537 305
74.52549 288
74.5456 317
74.56571 304
74.58583 322
74.60594 319
74.62606 305
74.64617 300
74.66628 309
74.6864 336
74.70651 328
74.72662 292
74.74674 336
74.76685 304
74.78697 323
74.80708 306
74.82719 286
74.84731 288
74.86742 280
74.88753 285
74.90765 319
74.92776 333
74.94787 301
74.96799 325
74.9881 294
75.00822 302
