3.00117 20321
3.02128 20385
3.0414 19407
3.06151 19291
3.08162 18642
3.10174 18282
3.12185 17887
3.14197 17388
3.16208 16559
3.18219 16231
3.20231 15619
3.22242 15433
3.24253 14642
3.26265 14490
3.28276 13782
3.30288 13421
3.32299 13454
3.3431 12701
3.36322 12660
3.38333 11912
3.40344 11455
3.42356 11191
3.44367 10591
3.46379 10544
3.4839 10191
3.50401 9684
3.52413 9660
3.54424 9185
3.56435 8973
3.58447 8326
3.60458 8093
3.62469 7959
3.64481 7659
3.66492 7355
3.68504 7069
3.70515 6986
3.72526 6756
3.74538 6296
3.76549 6346
3.7856 5958
3.80572 5532
3.82583 5564
3.84595 5190
3.86606 5237
3.88617 4741
3.90629 4666
3.9264 4424
3.94651 4348
3.96663 4283
3.98674 3794
4.00686 3795
4.02697 3683
4.04708 3600
4.0672 3414
4.08731 3274
4.10742 3103
4.12754 3148
4.14765 3016
4.16776 2865
4.18788 2734
4.20799 2603
4.22811 2662
4.24822 2482
4.26833 2515
4.28845 2310
4.30856 2244
4.32867 2184
4.34879 2119
4.3689 2119
4.38902 1912
4.40913 1962
4.42924 2048
4.44936 1948
4.46947 1841
4.48958 1787
4.5097 1806
4.52981 1723
4.54992 1714
4.57004 1722
4.59015 1676
4.61027 1622
4.63038 1760
4.65049 1612
4.67061 1576
4.69072 1496
4.71083 1493
4.73095 1492
4.75106 1600
4.77118 1428
4.79129 1378
4.8114 1368
4.83152 1369
4.85163 1304
4.87174 1321
4.89186 1312
4.91197 1257
4.93209 1270
4.9522 1276
4.97231 1170
4.99243 1249
5.01254 1191
5.03265 1239
5.05277 1199
5.07288 1123
5.09299 1160
5.11311 1115
5.13322 1169
5.15334 1203
5.17345 1031
5.19356 1155
5.21368 1021
5.23379 1114
5.2539 1105
5.27402 1094
5.29413 1047
5.31425 1001
5.33436 1074
5.35447 981
5.37459 962
5.3947 934
5.41481 985
5.43493 995
5.45504 969
5.47516 1015
5.49527 963
5.51538 941
5.5355 960
5.55561 921
5.57572 891
5.59584 896
5.61595 913
5.63606 904
5.65618 977
5.67629 815
5.69641 854
5.71652 867
5.73663 875
5.75675 874
5.77686 894
5.79697 832
5.81709 845
5.8372 812
5.85732 825
5.87743 837
5.89754 827
5.91766 792
5.93777 748
5.95788 806
5.978 801
5.99811 743
6.01823 780
6.03834 800
6.05845 803
6.07857 842
6.09868 818
6.11879 769
6.13891 757
6.15902 755
6.17913 771
6.19925 772
6.21936 737
6.23948 741
6.25959 702
6.2797 751
6.29982 726
6.31993 747
6.34004 690
6.36016 714
6.38027 686
6.40039 720
6.4205 674
6.44061 631
6.46073 600
6.48084 640
6.50095 584
6.52107 612
6.54118 584
6.56129 585
6.58141 524
6.60152 561
6.62164 577
6.64175 528
6.66186 581
6.68198 546
6.70209 603
6.7222 547
6.74232 543
6.76243 538
6.78255 549
6.80266 519
6.82277 566
6.84289 539
6.863 583
6.88311 520
6.90323 519
6.92334 512
6.94346 457
6.96357 507
6.98368 482
7.0038 514
7.02391 475
7.04402 525
7.06414 464
7.08425 491
7.10436 484
7.12448 516
7.14459 490
7.16471 476
7.18482 513
7.20493 486
7.22505 427
7.24516 433
7.26527 403
7.28539 458
7.3055 452
7.32562 452
7.34573 451
7.36584 426
7.38596 465
7.40607 446
7.42618 406
7.4463 447
7.46641 453
7.48653 450
7.50664 420
7.52675 440
7.54687 436
7.56698 430
7.58709 443
7.60721 434
7.62732 393
7.64743 406
7.66755 406
7.68766 417
7.70778 410
7.72789 384
7.748 406
7.76812 421
7.78823 369
7.80834 385
7.82846 395
7.84857 402
7.86869 418
7.8888 353
7.90891 383
7.92903 382
7.94914 390
7.96925 381
7.98937 393
8.00948 365
8.0296 366
8.04971 415
8.06982 359
8.08994 390
8.11005 370
8.13016 342
8.15028 387
8.17039 412
8.1905 382
8.21062 379
8.23073 336
8.25085 385
8.27096 347
8.29107 364
8.31119 394
8.3313 368
8.35141 366
8.37153 364
8.39164 356
8.41176 373
8.43187 371
8.45198 374
8.4721 352
8.49221 350
8.51232 384
8.53244 387
8.55255 369
8.57266 343
8.59278 331
8.61289 343
8.63301 381
8.65312 351
8.67323 349
8.69335 355
8.71346 367
8.73357 369
8.75369 338
8.7738 360
8.79392 336
8.81403 341
8.83414 349
8.85426 309
8.87437 346
8.89448 377
8.9146 374
8.93471 334
8.95483 365
8.97494 328
8.99505 311
9.01517 347
9.03528 318
9.05539 313
9.07551 296
9.09562 324
9.11573 309
9.13585 296
9.15596 301
9.17608 327
9.19619 315
9.2163 336
9.23642 301
9.25653 336
9.27664 302
9.29676 334
9.31687 330
9.33699 264
9.3571 335
9.37721 293
9.39733 289
9.41744 319
9.43755 302
9.45767 331
9.47778 319
9.4979 307
9.51801 311
9.53812 294
9.55824 250
9.57835 305
9.59846 305
9.61858 294
9.63869 323
9.6588 286
9.67892 313
9.69903 292
9.71915 297
9.73926 304
9.75937 327
9.77949 279
9.7996 278
9.81971 297
9.83983 284
9.85994 270
9.88006 278
9.90017 272
9.92028 254
9.9404 303
9.96051 297
9.98062 284
10.00074 291
10.02085 253
10.04097 272
10.06108 276
10.08119 289
10.10131 271
10.12142 293
10.14153 298
10.16165 296
10.18176 238
10.20187 245
10.22199 260
10.2421 245
10.26222 281
10.28233 286
10.30244 274
10.32256 316
10.34267 295
10.36278 272
10.3829 286
10.40301 248
10.42313 304
10.44324 320
10.46335 293
10.48347 322
10.50358 283
10.52369 281
10.54381 303
10.56392 275
10.58403 271
10.60415 292
10.62426 328
10.64438 252
10.66449 255
10.6846 271
10.70472 251
10.72483 303
10.74494 334
10.76506 276
10.78517 268
10.80529 302
10.8254 258
10.84551 285
10.86563 269
10.88574 249
10.90585 269
10.92597 262
10.94608 265
10.9662 294
10.98631 285
11.00642 288
11.02654 257
11.04665 222
11.06676 249
11.08688 278
11.10699 260
11.1271 289
11.14722 310
11.16733 288
11.18745 277
11.20756 295
11.22767 296
11.24779 283
11.2679 249
11.28801 267
11.30813 266
11.32824 269
11.34836 257
11.36847 282
11.38858 280
11.4087 246
11.42881 256
11.44892 257
11.46904 258
11.48915 267
11.50927 292
11.52938 260
11.54949 283
11.56961 275
11.58972 242
11.60983 289
11.62995 298
11.65006 280
11.67017 316
11.69029 269
11.7104 276
11.73052 249
11.75063 299
11.77074 261
11.79086 264
11.81097 282
11.83108 275
11.8512 286
11.87131 266
11.89143 268
11.91154 301
11.93165 263
11.95177 297
11.97188 250
11.99199 273
12.01211 273
12.03222 279
12.05234 276
12.07245 276
12.09256 290
12.11268 272
12.13279 257
12.1529 284
12.17302 317
12.19313 285
12.21324 314
12.23336 275
12.25347 315
12.27359 308
12.2937 314
12.31381 303
12.33393 304
12.35404 335
12.37415 309
12.39427 311
12.41438 324
12.4345 342
12.45461 314
12.47472 286
12.49484 269
12.51495 307
12.53506 282
12.55518 291
12.57529 265
12.5954 264
12.61552 274
12.63563 271
12.65575 239
12.67586 257
12.69597 274
12.71609 291
12.7362 274
12.75631 256
12.77643 289
12.79654 251
12.81666 300
12.83677 251
12.85688 280
12.877 271
12.89711 300
12.91722 269
12.93734 264
12.95745 262
12.97757 273
12.99768 302
13.01779 275
13.03791 256
13.05802 266
13.07813 240
13.09825 234
13.11836 268
13.13847 254
13.15859 257
13.1787 270
13.19882 282
13.21893 250
13.23904 237
13.25916 274
13.27927 246
13.29938 256
13.3195 251
13.33961 290
13.35973 246
13.37984 233
13.39995 226
13.42007 237
13.44018 248
13.46029 254
13.48041 265
13.50052 253
13.52064 261
13.54075 253
13.56086 245
13.58098 266
13.60109 260
13.6212 264
13.64132 249
13.66143 251
13.68154 251
13.70166 246
13.72177 266
13.74189 301
13.762 259
13.78211 279
13.80223 298
13.82234 273
13.84245 290
13.86257 283
13.88268 252
13.9028 261
13.92291 243
13.94302 273
13.96314 251
13.98325 275
14.00336 277
14.02348 224
14.04359 257
14.06371 262
14.08382 237
14.10393 238
14.12405 264
14.14416 212
14.16427 247
14.18439 238
14.2045 237
14.22461 253
14.24473 238
14.26484 267
14.28496 248
14.30507 219
14.32518 259
14.3453 265
14.36541 239
14.38552 259
14.40564 248
14.42575 246
14.44587 231
14.46598 283
14.48609 266
14.50621 257
14.52632 264
14.54643 239
14.56655 239
14.58666 260
14.60677 221
14.62689 239
14.647 246
14.66712 225
14.68723 269
14.70734 270
14.72746 256
14.74757 248
14.76768 269
14.7878 244
14.80791 265
14.82803 261
14.84814 273
14.86825 270
14.88837 270
14.90848 262
14.92859 240
14.94871 231
14.96882 251
14.98894 223
15.00905 271
15.02916 248
15.04928 264
15.06939 255
15.0895 255
15.10962 231
15.12973 251
15.14984 279
15.16996 277
15.19007 268
15.21019 254
15.2303 261
15.25041 252
15.27053 241
15.29064 246
15.31075 238
15.33087 247
15.35098 221
15.3711 256
15.39121 222
15.41132 257
15.43144 234
15.45155 259
15.47166 237
15.49178 267
15.51189 270
15.53201 256
15.55212 248
15.57223 258
15.59235 218
15.61246 237
15.63257 249
15.65269 258
15.6728 246
15.69291 258
15.71303 288
15.73314 234
15.75326 275
15.77337 273
15.79348 233
15.8136 246
15.83371 254
15.85382 235
15.87394 266
15.89405 258
15.91417 292
15.93428 274
15.95439 243
15.97451 221
15.99462 250
16.01473 269
16.03485 267
16.05496 265
16.07508 240
16.09519 270
16.1153 280
16.13542 239
16.15553 268
16.17564 256
16.19576 257
16.21587 253
16.23598 266
16.2561 232
16.27621 271
16.29633 233
16.31644 242
16.33655 256
16.35667 236
16.37678 266
16.39689 222
16.41701 275
16.43712 270
16.45724 219
16.47735 247
16.49746 270
16.51758 279
16.53769 229
16.5578 228
16.57792 196
16.59803 258
16.61814 249
16.63826 254
16.65837 254
16.67849 251
16.6986 245
16.71871 246
16.73883 299
16.75894 245
16.77905 278
16.79917 264
16.81928 269
16.8394 244
16.85951 260
16.87962 234
16.89974 253
16.91985 271
16.93996 234
16.96008 242
16.98019 256
17.00031 253
17.02042 251
17.04053 255
17.06065 269
17.08076 251
17.10087 260
17.12099 243
17.1411 240
17.16121 251
17.18133 278
17.20144 244
17.22156 259
17.24167 252
17.26178 240
17.2819 265
17.30201 245
17.32212 242
17.34224 290
17.36235 253
17.38247 243
17.40258 275
17.42269 251
17.44281 255
17.46292 312
17.48303 271
17.50315 281
17.52326 253
17.54338 305
17.56349 271
17.5836 285
17.60372 273
17.62383 271
17.64394 290
17.66406 279
17.68417 293
17.70428 284
17.7244 297
17.74451 277
17.76463 282
17.78474 298
17.80485 278
17.82497 309
17.84508 289
17.86519 284
17.88531 262
17.90542 265
17.92554 253
17.94565 295
17.96576 278
17.98588 274
18.00599 254
18.0261 266
18.04622 285
18.06633 276
18.08645 300
18.10656 286
18.12667 270
18.14679 247
18.1669 269
18.18701 256
18.20713 307
18.22724 261
18.24735 262
18.26747 296
18.28758 281
18.3077 257
18.32781 253
18.34792 281
18.36804 265
18.38815 280
18.40826 266
18.42838 281
18.44849 286
18.46861 252
18.48872 257
18.50883 272
18.52895 294
18.54906 265
18.56917 259
18.58929 238
18.6094 272
18.62951 277
18.64963 276
18.66974 273
18.68986 258
18.70997 279
18.73008 291
18.7502 301
18.77031 278
18.79042 262
18.81054 271
18.83065 288
18.85077 267
18.87088 275
18.89099 304
18.91111 289
18.93122 264
18.95133 269
18.97145 275
18.99156 262
19.01168 313
19.03179 301
19.0519 290
19.07202 294
19.09213 321
19.11224 312
19.13236 308
19.15247 316
19.17258 306
19.1927 316
19.21281 318
19.23293 349
19.25304 295
19.27315 348
19.29327 361
19.31338 357
19.33349 398
19.35361 369
19.37372 368
19.39384 367
19.41395 365
19.43406 346
19.45418 434
19.47429 418
19.4944 415
19.51452 445
19.53463 476
19.55475 491
19.57486 532
19.59497 523
19.61509 532
19.6352 597
19.65531 599
19.67543 614
19.69554 615
19.71565 618
19.73577 628
19.75588 639
19.776 638
19.79611 636
19.81622 654
19.83634 608
19.85645 627
19.87656 644
19.89668 545
19.91679 550
19.93691 537
19.95702 540
19.97713 532
19.99725 527
20.01736 523
20.03747 478
20.05759 475
20.0777 489
20.09782 516
20.11793 430
20.13804 501
20.15816 507
20.17827 443
20.19838 435
20.2185 437
20.23861 415
20.25872 445
20.27884 448
20.29895 441
20.31907 446
20.33918 427
20.35929 430
20.37941 466
20.39952 412
20.41963 441
20.43975 413
20.45986 440
20.47998 452
20.50009 421
20.5202 410
20.54032 427
20.56043 384
20.58054 470
20.60066 443
20.62077 453
20.64088 451
20.661 467
20.68111 547
20.70123 570
20.72134 630
20.74145 784
20.76157 898
20.78168 939
20.80179 982
20.82191 1007
20.84202 913
20.86214 794
20.88225 686
20.90236 670
20.92248 547
20.94259 515
20.9627 429
20.98282 467
21.00293 400
21.02305 379
21.04316 390
21.06327 376
21.08339 386
21.1035 364
21.12361 367
21.14373 385
21.16384 389
21.18395 397
21.20407 367
21.22418 379
21.2443 374
21.26441 356
21.28452 383
21.30464 364
21.32475 367
21.34486 353
21.36498 403
21.38509 344
21.40521 367
21.42532 339
21.44543 369
21.46555 392
21.48566 332
21.50577 382
21.52589 372
21.546 387
21.56612 362
21.58623 342
21.60634 366
21.62646 331
21.64657 368
21.66668 340
21.6868 352
21.70691 335
21.72702 306
21.74714 380
21.76725 358
21.78737 353
21.80748 337
21.82759 343
21.84771 367
21.86782 366
21.88793 374
21.90805 393
21.92816 397
21.94828 409
21.96839 384
21.9885 411
22.00862 377
22.02873 423
22.04884 382
22.06896 342
22.08907 387
22.10919 346
22.1293 349
22.14941 299
22.16953 382
22.18964 356
22.20975 372
22.22987 321
22.24998 330
22.27009 352
22.29021 335
22.31032 347
22.33044 345
22.35055 324
22.37066 330
22.39078 356
22.41089 339
22.431 370
22.45112 301
22.47123 329
22.49135 314
22.51146 347
22.53157 348
22.55169 366
22.5718 321
22.59191 291
22.61203 321
22.63214 340
22.65225 323
22.67237 323
22.69248 363
22.7126 363
22.73271 375
22.75282 379
22.77294 367
22.79305 363
22.81316 390
22.83328 388
22.85339 443
22.87351 487
22.89362 503
22.91373 525
22.93385 569
22.95396 634
22.97407 736
22.99419 746
23.0143 814
23.03442 783
23.05453 708
23.07464 684
23.09476 608
23.11487 530
23.13498 502
23.1551 459
23.17521 416
23.19532 410
23.21544 379
23.23555 388
23.25567 356
23.27578 366
23.29589 341
23.31601 373
23.33612 392
23.35623 354
23.37635 354
23.39646 380
23.41658 369
23.43669 401
23.4568 361
23.47692 333
23.49703 393
23.51714 373
23.53726 393
23.55737 352
23.57749 363
23.5976 390
23.61771 384
23.63783 341
23.65794 377
23.67805 361
23.69817 374
23.71828 369
23.73839 356
23.75851 404
23.77862 341
23.79874 324
23.81885 346
23.83896 357
23.85908 408
23.87919 367
23.8993 343
23.91942 397
23.93953 381
23.95965 334
23.97976 346
23.99987 342
24.01999 334
24.0401 348
24.06021 366
24.08033 401
24.10044 353
24.12056 363
24.14067 350
24.16078 353
24.1809 362
24.20101 369
24.22112 391
24.24124 375
24.26135 372
24.28146 366
24.30158 341
24.32169 347
24.34181 347
24.36192 378
24.38203 335
24.40215 332
24.42226 338
24.44237 331
24.46249 313
24.4826 309
24.50272 322
24.52283 342
24.54294 337
24.56306 301
24.58317 344
24.60328 397
24.6234 340
24.64351 363
24.66362 348
24.68374 351
24.70385 339
24.72397 343
24.74408 325
24.76419 342
24.78431 328
24.80442 347
24.82453 367
24.84465 361
24.86476 383
24.88488 351
24.90499 361
24.9251 369
24.94522 397
24.96533 361
24.98544 363
25.00556 351
25.02567 387
25.04579 361
25.0659 400
25.08601 354
25.10613 347
25.12624 386
25.14635 336
25.16647 348
25.18658 380
25.20669 370
25.22681 394
25.24692 370
25.26704 386
25.28715 389
25.30726 368
25.32738 367
25.34749 396
25.3676 376
25.38772 399
25.40783 362
25.42795 390
25.44806 417
25.46817 404
25.48829 374
25.5084 380
25.52851 391
25.54863 391
25.56874 376
25.58886 375
25.60897 404
25.62908 380
25.6492 425
25.66931 402
25.68942 372
25.70954 364
25.72965 343
25.74976 385
25.76988 356
25.78999 344
25.81011 379
25.83022 356
25.85033 341
25.87045 343
25.89056 365
25.91067 332
25.93079 351
25.9509 361
25.97102 372
25.99113 390
26.01124 394
26.03136 394
26.05147 351
26.07158 358
26.0917 426
26.11181 378
26.13193 407
26.15204 371
26.17215 388
26.19227 363
26.21238 402
26.23249 439
26.25261 438
26.27272 438
26.29283 421
26.31295 505
26.33306 531
26.35318 558
26.37329 614
26.3934 697
26.41352 778
26.43363 990
26.45374 1136
26.47386 1482
26.49397 1809
26.51409 2314
26.5342 2706
26.55431 3032
26.57443 3349
26.59454 3250
26.61465 3021
26.63477 2519
26.65488 2096
26.67499 1618
26.69511 1254
26.71522 948
26.73534 734
26.75545 635
26.77556 530
26.79568 528
26.81579 472
26.8359 477
26.85602 439
26.87613 438
26.89625 436
26.91636 439
26.93647 410
26.95659 418
26.9767 404
26.99681 427
27.01693 404
27.03704 425
27.05716 377
27.07727 387
27.09738 418
27.1175 393
27.13761 377
27.15772 420
27.17784 364
27.19795 378
27.21806 383
27.23818 402
27.25829 384
27.27841 375
27.29852 383
27.31863 370
27.33875 413
27.35886 411
27.37897 428
27.39909 430
27.4192 461
27.43932 489
27.45943 416
27.47954 452
27.49966 461
27.51977 400
27.53988 406
27.56 433
27.58011 401
27.60023 417
27.62034 444
27.64045 438
27.66057 457
27.68068 472
27.70079 466
27.72091 499
27.74102 487
27.76113 525
27.78125 439
27.80136 486
27.82148 476
27.84159 456
27.8617 489
27.88182 481
27.90193 462
27.92204 483
27.94216 458
27.96227 440
27.98239 421
28.0025 442
28.02261 391
28.04273 408
28.06284 381
28.08295 390
28.10307 363
28.12318 392
28.1433 349
28.16341 359
28.18352 360
28.20364 353
28.22375 372
28.24386 397
28.26398 377
28.28409 377
28.3042 361
28.32432 386
28.34443 364
28.36455 348
28.38466 366
28.40477 363
28.42489 350
28.445 395
28.46511 371
28.48523 376
28.50534 370
28.52546 365
28.54557 359
28.56568 391
28.5858 371
28.60591 364
28.62602 389
28.64614 356
28.66625 330
28.68636 342
28.70648 324
28.72659 370
28.74671 338
28.76682 376
28.78693 401
28.80705 398
28.82716 416
28.84727 392
28.86739 441
28.8875 439
28.90762 455
28.92773 459
28.94784 442
28.96796 473
28.98807 511
29.00818 557
29.0283 510
29.04841 565
29.06853 621
29.08864 640
29.10875 718
29.12887 766
29.14898 881
29.16909 1061
29.18921 1227
29.20932 1620
29.22943 1880
29.24955 2322
29.26966 2913
29.28978 3532
29.30989 4103
29.33 4580
29.35012 4883
29.37023 4735
29.39034 4577
29.41046 4066
29.43057 3454
29.45069 2981
29.4708 2465
29.49091 1912
29.51103 1552
29.53114 1187
29.55125 944
29.57137 829
29.59148 735
29.6116 670
29.63171 619
29.65182 625
29.67194 596
29.69205 580
29.71216 538
29.73228 502
29.75239 520
29.7725 427
29.79262 485
29.81273 436
29.83285 448
29.85296 435
29.87307 409
29.89319 423
29.9133 414
29.93341 382
29.95353 395
29.97364 361
29.99376 393
30.01387 406
30.03398 388
30.0541 383
30.07421 350
30.09432 338
30.11444 419
30.13455 372
30.15467 338
30.17478 363
30.19489 349
30.21501 384
30.23512 392
30.25523 350
30.27535 370
30.29546 372
30.31557 359
30.33569 371
30.3558 336
30.37592 336
30.39603 328
30.41614 372
30.43626 348
30.45637 368
30.47648 352
30.4966 355
30.51671 371
30.53683 330
30.55694 342
30.57705 351
30.59717 345
30.61728 334
30.63739 328
30.65751 338
30.67762 362
30.69773 360
30.71785 357
30.73796 376
30.75808 327
30.77819 365
30.7983 324
30.81842 325
30.83853 304
30.85864 316
30.87876 295
30.89887 336
30.91899 336
30.9391 333
30.95921 336
30.97933 335
30.99944 296
31.01955 325
31.03967 310
31.05978 360
31.0799 355
31.10001 371
31.12012 336
31.14024 312
31.16035 335
31.18046 346
31.20058 327
31.22069 329
31.2408 333
31.26092 335
31.28103 375
31.30115 339
31.32126 382
31.34137 390
31.36149 386
31.3816 398
31.40171 405
31.42183 412
31.44194 391
31.46206 390
31.48217 383
31.50228 321
31.5224 313
31.54251 330
31.56262 321
31.58274 293
31.60285 321
31.62297 298
31.64308 302
31.66319 342
31.68331 289
31.70342 322
31.72353 305
31.74365 318
31.76376 344
31.78387 293
31.80399 272
31.8241 312
31.84422 329
31.86433 339
31.88444 322
31.90456 324
31.92467 291
31.94478 307
31.9649 321
31.98501 280
32.00513 282
32.02524 287
32.04535 326
32.06547 285
32.08558 303
32.10569 310
32.12581 291
32.14592 280
32.16604 304
32.18615 294
32.20626 308
32.22638 302
32.24649 300
32.2666 297
32.28672 310
32.30683 307
32.32694 298
32.34706 293
32.36717 286
32.38729 315
32.4074 279
32.42751 282
32.44763 307
32.46774 322
32.48785 307
32.50797 279
32.52808 298
32.5482 323
32.56831 271
32.58842 316
32.60854 275
32.62865 303
32.64876 286
32.66888 312
32.68899 303
32.7091 302
32.72922 288
32.74933 252
32.76945 299
32.78956 282
32.80967 326
32.82979 289
32.8499 277
32.87001 289
32.89013 320
32.91024 345
32.93036 298
32.95047 331
32.97058 310
32.9907 339
33.01081 327
33.03092 312
33.05104 312
33.07115 322
33.09127 323
33.11138 331
33.13149 322
33.15161 323
33.17172 329
33.19183 332
33.21195 315
33.23206 326
33.25217 302
33.27229 317
33.2924 266
33.31252 304
33.33263 312
33.35274 303
33.37286 312
33.39297 295
33.41308 295
33.4332 263
33.45331 271
33.47343 269
33.49354 287
33.51365 307
33.53377 342
33.55388 305
33.57399 256
33.59411 297
33.61422 281
33.63434 300
33.65445 287
33.67456 259
33.69468 298
33.71479 279
33.7349 284
33.75502 287
33.77513 290
33.79524 295
33.81536 266
33.83547 306
33.85559 277
33.8757 310
33.89581 299
33.91593 301
33.93604 304
33.95615 295
33.97627 278
33.99638 306
34.0165 280
34.03661 330
34.05672 318
34.07684 326
34.09695 344
34.11706 345
34.13718 342
34.15729 353
34.17741 325
34.19752 344
34.21763 351
34.23775 354
34.25786 374
34.27797 385
34.29809 373
34.3182 387
34.33831 377
34.35843 407
34.37854 439
34.39866 364
34.41877 408
34.43888 413
34.459 452
34.47911 426
34.49922 470
34.51934 479
34.53945 423
34.55957 464
34.57968 452
34.59979 430
34.61991 458
34.64002 412
34.66013 444
34.68025 483
34.70036 452
34.72047 471
34.74059 473
34.7607 442
34.78082 472
34.80093 457
34.82104 445
34.84116 477
34.86127 532
34.88138 462
34.9015 531
34.92161 482
34.94173 465
34.96184 482
34.98195 471
35.00207 456
35.02218 448
35.04229 410
35.06241 472
35.08252 435
35.10264 442
35.12275 516
35.14286 447
35.16298 444
35.18309 460
35.2032 477
35.22332 413
35.24343 431
35.26354 428
35.28366 415
35.30377 408
35.32389 383
35.344 437
35.36411 421
35.38423 454
35.40434 410
35.42445 446
35.44457 433
35.46468 478
35.4848 473
35.50491 434
35.52502 443
35.54514 443
35.56525 455
35.58536 413
35.60548 395
35.62559 447
35.64571 454
35.66582 431
35.68593 448
35.70605 483
35.72616 476
35.74627 494
35.76639 520
35.7865 564
35.80661 553
35.82673 657
35.84684 706
35.86696 734
35.88707 769
35.90718 858
35.9273 883
35.94741 949
35.96752 888
35.98764 833
36.00775 743
36.02787 722
36.04798 616
36.06809 628
36.08821 523
36.10832 508
36.12843 480
36.14855 456
36.16866 397
36.18878 401
36.20889 404
36.229 363
36.24912 406
36.26923 409
36.28934 395
36.30946 415
36.32957 395
36.34968 429
36.3698 448
36.38991 508
36.41003 494
36.43014 526
36.45025 505
36.47037 569
36.49048 511
36.51059 520
36.53071 532
36.55082 442
36.57094 445
36.59105 446
36.61116 434
36.63128 375
36.65139 395
36.6715 376
36.69162 375
36.71173 383
36.73184 396
36.75196 385
36.77207 372
36.79219 379
36.8123 362
36.83241 362
36.85253 377
36.87264 362
36.89275 369
36.91287 344
36.93298 331
36.9531 333
36.97321 358
36.99332 331
37.01344 321
37.03355 338
37.05366 333
37.07378 367
37.09389 347
37.11401 317
37.13412 338
37.15423 349
37.17435 396
37.19446 337
37.21457 322
37.23469 346
37.2548 343
37.27491 364
37.29503 359
37.31514 334
37.33526 341
37.35537 364
37.37548 303
37.3956 319
37.41571 345
37.43582 328
37.45594 363
37.47605 370
37.49617 358
37.51628 340
37.53639 343
37.55651 329
37.57662 336
37.59673 346
37.61685 325
37.63696 358
37.65708 359
37.67719 369
37.6973 337
37.71742 357
37.73753 360
37.75764 353
37.77776 322
37.79787 324
37.81798 348
37.8381 324
37.85821 342
37.87833 332
37.89844 338
37.91855 322
37.93867 298
37.95878 336
37.97889 343
37.99901 290
38.01912 330
38.03924 302
38.05935 323
38.07946 315
38.09958 310
38.11969 279
38.1398 349
38.15992 281
38.18003 300
38.20015 315
38.22026 300
38.24037 292
38.26049 338
38.2806 300
38.30071 349
38.32083 329
38.34094 289
38.36105 335
38.38117 290
38.40128 304
38.4214 303
38.44151 310
38.46162 326
38.48174 302
38.50185 315
38.52196 298
38.54208 324
38.56219 309
38.58231 327
38.60242 289
38.62253 301
38.64265 292
38.66276 301
38.68287 290
38.70299 318
38.7231 304
38.74321 275
38.76333 296
38.78344 290
38.80356 297
38.82367 319
38.84378 326
38.8639 322
38.88401 314
38.90412 322
38.92424 292
38.94435 325
38.96447 345
38.98458 352
39.00469 312
39.02481 326
39.04492 343
39.06503 373
39.08515 406
39.10526 410
39.12538 383
39.14549 455
39.1656 476
39.18572 476
39.20583 499
39.22594 577
39.24606 659
39.26617 741
39.28628 875
39.3064 1007
39.32651 1090
39.34663 1177
39.36674 1183
39.38685 1219
39.40697 1161
39.42708 1046
39.44719 967
39.46731 922
39.48742 841
39.50754 715
39.52765 671
39.54776 578
39.56788 503
39.58799 498
39.6081 435
39.62822 441
39.64833 390
39.66845 380
39.68856 349
39.70867 351
39.72879 353
39.7489 359
39.76901 340
39.78913 369
39.80924 301
39.82935 328
39.84947 320
39.86958 326
39.8897 366
39.90981 319
39.92992 336
39.95004 356
39.97015 321
39.99026 311
40.01038 325
40.03049 307
40.05061 315
40.07072 332
40.09083 341
40.11095 363
40.13106 398
40.15117 356
40.17129 365
40.1914 380
40.21152 411
40.23163 388
40.25174 400
40.27186 393
40.29197 361
40.31208 360
40.3322 356
40.35231 359
40.37242 331
40.39254 316
40.41265 303
40.43277 312
40.45288 282
40.47299 280
40.49311 328
40.51322 301
40.53333 293
40.55345 309
40.57356 299
40.59368 303
40.61379 287
40.6339 332
40.65402 312
40.67413 328
40.69424 266
40.71436 306
40.73447 326
40.75458 293
40.7747 286
40.79481 300
40.81493 296
40.83504 310
40.85515 292
40.87527 324
40.89538 322
40.91549 304
40.93561 320
40.95572 321
40.97584 290
40.99595 295
41.01606 302
41.03618 290
41.05629 308
41.0764 298
41.09652 282
41.11663 326
41.13675 293
41.15686 321
41.17697 315
41.19709 288
41.2172 292
41.23731 317
41.25743 292
41.27754 287
41.29765 301
41.31777 308
41.33788 296
41.358 268
41.37811 295
41.39822 299
41.41834 297
41.43845 329
41.45856 311
41.47868 275
41.49879 317
41.51891 302
41.53902 297
41.55913 299
41.57925 274
41.59936 300
41.61947 334
41.63959 276
41.6597 312
41.67982 284
41.69993 325
41.72004 313
41.74016 309
41.76027 297
41.78038 313
41.8005 321
41.82061 330
41.84072 280
41.86084 287
41.88095 310
41.90107 301
41.92118 305
41.94129 317
41.96141 280
41.98152 292
42.00163 309
42.02175 299
42.04186 287
42.06198 286
42.08209 267
42.1022 328
42.12232 320
42.14243 287
42.16254 307
42.18266 304
42.20277 307
42.22289 342
42.243 328
42.26311 342
42.28323 382
42.30334 368
42.32345 405
42.34357 404
42.36368 377
42.38379 414
42.40391 414
42.42402 431
42.44414 379
42.46425 349
42.48436 359
42.50448 334
42.52459 364
42.5447 340
42.56482 325
42.58493 305
42.60505 284
42.62516 292
42.64527 290
42.66539 299
42.6855 340
42.70561 299
42.72573 292
42.74584 319
42.76595 321
42.78607 325
42.80618 327
42.8263 342
42.84641 353
42.86652 354
42.88664 360
42.90675 383
42.92686 416
42.94698 473
42.96709 479
42.98721 554
43.00732 576
43.02743 691
43.04755 747
43.06766 806
43.08777 903
43.10789 900
43.128 878
43.14812 879
43.16823 837
43.18834 779
43.20846 733
43.22857 661
43.24868 677
43.2688 578
43.28891 540
43.30902 520
43.32914 444
43.34925 389
43.36937 370
43.38948 356
43.40959 343
43.42971 304
43.44982 350
43.46993 303
43.49005 306
43.51016 321
43.53028 278
43.55039 298
43.5705 303
43.59062 291
43.61073 280
43.63084 308
43.65096 281
43.67107 288
43.69119 270
43.7113 251
43.73141 318
43.75153 289
43.77164 306
43.79175 268
43.81187 295
43.83198 283
43.85209 296
43.87221 268
43.89232 289
43.91244 295
43.93255 254
43.95266 258
43.97278 268
43.99289 268
44.013 285
44.03312 295
44.05323 290
44.07335 272
44.09346 294
44.11357 311
44.13369 256
44.1538 284
44.17391 266
44.19403 273
44.21414 285
44.23426 240
44.25437 258
44.27448 238
44.2946 296
44.31471 243
44.33482 269
44.35494 272
44.37505 252
44.39516 251
44.41528 250
44.43539 251
44.45551 292
44.47562 280
44.49573 260
44.51585 286
44.53596 236
44.55607 244
44.57619 272
44.5963 287
44.61642 275
44.63653 257
44.65664 294
44.67676 260
44.69687 279
44.71698 278
44.7371 262
44.75721 278
44.77732 267
44.79744 255
44.81755 292
44.83767 269
44.85778 302
44.87789 289
44.89801 255
44.91812 262
44.93823 305
44.95835 277
44.97846 279
44.99858 267
45.01869 277
45.0388 287
45.05892 274
45.07903 279
45.09914 286
45.11926 317
45.13937 291
45.15949 305
45.1796 267
45.19971 274
45.21983 268
45.23994 261
45.26005 285
45.28017 274
45.30028 265
45.32039 249
45.34051 314
45.36062 270
45.38074 304
45.40085 272
45.42096 254
45.44108 252
45.46119 256
45.4813 265
45.50142 268
45.52153 303
45.54165 266
45.56176 310
45.58187 280
45.60199 328
45.6221 296
45.64221 330
45.66233 344
45.68244 327
45.70256 344
45.72267 338
45.74278 351
45.7629 351
45.78301 358
45.80312 329
45.82324 339
45.84335 313
45.86346 317
45.88358 312
45.90369 304
45.92381 290
45.94392 254
45.96403 271
45.98415 283
46.00426 258
46.02437 228
46.04449 285
46.0646 253
46.08472 282
46.10483 260
46.12494 247
46.14506 273
46.16517 280
46.18528 280
46.2054 225
46.22551 228
46.24563 249
46.26574 264
46.28585 256
46.30597 244
46.32608 241
46.34619 297
46.36631 247
46.38642 260
46.40653 278
46.42665 242
46.44676 294
46.46688 299
46.48699 251
46.5071 282
46.52722 301
46.54733 274
46.56744 266
46.58756 302
46.60767 289
46.62779 261
46.6479 284
46.66801 287
46.68813 270
46.70824 267
46.72835 275
46.74847 291
46.76858 283
46.78869 310
46.80881 304
46.82892 294
46.84904 315
46.86915 327
46.88926 359
46.90938 352
46.92949 371
46.9496 388
46.96972 416
46.98983 418
47.00995 425
47.03006 478
47.05017 498
47.07029 504
47.0904 472
47.11051 511
47.13063 482
47.15074 491
47.17086 474
47.19097 482
47.21108 469
47.2312 485
47.25131 509
47.27142 520
47.29154 538
47.31165 611
47.33176 640
47.35188 673
47.37199 744
47.39211 799
47.41222 885
47.43233 894
47.45245 921
47.47256 902
47.49267 938
47.51279 802
47.5329 848
47.55302 733
47.57313 681
47.59324 668
47.61336 589
47.63347 572
47.65358 524
47.6737 501
47.69381 441
47.71393 407
47.73404 412
47.75415 367
47.77427 364
47.79438 347
47.81449 343
47.83461 340
47.85472 299
47.87483 345
47.89495 314
47.91506 344
47.93518 330
47.95529 328
47.9754 308
47.99552 324
48.01563 339
48.03574 318
48.05586 338
48.07597 337
48.09609 319
48.1162 345
48.13631 334
48.15643 378
48.17654 385
48.19665 393
48.21677 389
48.23688 423
48.257 438
48.27711 485
48.29722 557
48.31734 560
48.33745 612
48.35756 682
48.37768 770
48.39779 774
48.4179 826
48.43802 928
48.45813 940
48.47825 905
48.49836 880
48.51847 879
48.53859 783
48.5587 813
48.57881 719
48.59893 707
48.61904 612
48.63916 619
48.65927 478
48.67938 461
48.6995 451
48.71961 370
48.73972 407
48.75984 338
48.77995 370
48.80006 313
48.82018 334
48.84029 274
48.86041 289
48.88052 305
48.90063 294
48.92075 311
48.94086 292
48.96097 281
48.98109 304
49.0012 265
49.02132 299
49.04143 275
49.06154 270
49.08166 270
49.10177 278
49.12188 255
49.142 299
49.16211 252
49.18223 258
49.20234 287
49.22245 239
49.24257 269
49.26268 276
49.28279 241
49.30291 263
49.32302 266
49.34313 245
49.36325 267
49.38336 261
49.40348 256
49.42359 286
49.4437 240
49.46382 266
49.48393 267
49.50404 251
49.52416 263
49.54427 266
49.56439 249
49.5845 256
49.60461 269
49.62473 263
49.64484 249
49.66495 266
49.68507 263
49.70518 257
49.7253 277
49.74541 271
49.76552 271
49.78564 282
49.80575 266
49.82586 306
49.84598 283
49.86609 299
49.8862 334
49.90632 336
49.92643 330
49.94655 374
49.96666 438
49.98677 440
50.00689 501
50.027 541
50.04711 575
50.06723 527
50.08734 514
50.10746 487
50.12757 463
50.14768 402
50.1678 412
50.18791 418
50.20802 377
50.22814 388
50.24825 321
50.26837 324
50.28848 310
50.30859 261
50.32871 278
50.34882 248
50.36893 283
50.38905 248
50.40916 242
50.42927 276
50.44939 260
50.4695 251
50.48962 268
50.50973 268
50.52984 291
50.54996 265
50.57007 295
50.59018 270
50.6103 269
50.63041 285
50.65053 264
50.67064 240
50.69075 271
50.71087 248
50.73098 247
50.75109 244
50.77121 251
50.79132 243
50.81143 270
50.83155 237
50.85166 237
50.87178 217
50.89189 239
50.912 260
50.93212 250
50.95223 223
50.97234 268
50.99246 241
51.01257 217
51.03269 235
51.0528 268
51.07291 248
51.09303 257
51.11314 231
51.13325 242
51.15337 262
51.17348 273
51.1936 262
51.21371 223
51.23382 249
51.25394 227
51.27405 238
51.29416 234
51.31428 244
51.33439 206
51.3545 247
51.37462 219
51.39473 210
51.41485 246
51.43496 249
51.45507 208
51.47519 247
51.4953 232
51.51541 215
51.53553 237
51.55564 225
51.57576 241
51.59587 210
51.61598 238
51.6361 240
51.65621 242
51.67632 222
51.69644 263
51.71655 220
51.73667 207
51.75678 225
51.77689 222
51.79701 226
51.81712 240
51.83723 211
51.85735 234
51.87746 203
51.89757 206
51.91769 217
51.9378 229
51.95792 225
51.97803 224
51.99814 221
52.01826 246
52.03837 251
52.05848 230
52.0786 243
52.09871 233
52.11883 219
52.13894 241
52.15905 211
52.17917 239
52.19928 251
52.21939 212
52.23951 243
52.25962 267
52.27974 256
52.29985 253
52.31996 260
52.34008 251
52.36019 243
52.3803 234
52.40042 250
52.42053 243
52.44064 246
52.46076 226
52.48087 260
52.50099 217
52.5211 243
52.54121 226
52.56133 226
52.58144 238
52.60155 260
52.62167 250
52.64178 249
52.6619 231
52.68201 255
52.70212 238
52.72224 242
52.74235 256
52.76246 235
52.78258 241
52.80269 248
52.8228 230
52.84292 270
52.86303 232
52.88315 255
52.90326 249
52.92337 241
52.94349 266
52.9636 235
52.98371 263
53.00383 224
53.02394 266
53.04406 278
53.06417 244
53.08428 264
53.1044 251
53.12451 265
53.14462 287
53.16474 295
53.18485 227
53.20497 276
53.22508 228
53.24519 243
53.26531 263
53.28542 256
53.30553 270
53.32565 229
53.34576 274
53.36587 269
53.38599 283
53.4061 292
53.42622 285
53.44633 278
53.46644 287
53.48656 312
53.50667 281
53.52678 298
53.5469 270
53.56701 280
53.58713 277
53.60724 283
53.62735 288
53.64747 266
53.66758 281
53.68769 262
53.70781 313
53.72792 287
53.74804 308
53.76815 283
53.78826 266
53.80838 314
53.82849 299
53.8486 307
53.86872 299
53.88883 290
53.90894 275
53.92906 289
53.94917 276
53.96929 255
53.9894 293
54.00951 280
54.02963 284
54.04974 292
54.06985 295
54.08997 282
54.11008 264
54.1302 297
54.15031 275
54.17042 286
54.19054 282
54.21065 302
54.23076 269
54.25088 272
54.27099 308
54.29111 275
54.31122 274
54.33133 270
54.35145 295
54.37156 304
54.39167 291
54.41179 285
54.4319 288
54.45201 288
54.47213 285
54.49224 272
54.51236 285
54.53247 315
54.55258 248
54.5727 271
54.59281 303
54.61292 262
54.63304 302
54.65315 305
54.67327 318
54.69338 334
54.71349 313
54.73361 356
54.75372 356
54.77383 366
54.79395 360
54.81406 344
54.83417 318
54.85429 299
54.8744 341
54.89452 325
54.91463 343
54.93474 298
54.95486 299
54.97497 304
54.99508 329
55.0152 305
55.03531 314
55.05543 282
55.07554 295
55.09565 275
55.11577 281
55.13588 300
55.15599 293
55.17611 307
55.19622 305
55.21634 314
55.23645 287
55.25656 323
55.27668 301
55.29679 300
55.3169 309
55.33702 275
55.35713 306
55.37724 291
55.39736 279
55.41747 291
55.43759 293
55.4577 261
55.47781 255
55.49793 311
55.51804 272
55.53815 277
55.55827 266
55.57838 272
55.5985 309
55.61861 271
55.63872 269
55.65884 289
55.67895 285
55.69906 254
55.71918 297
55.73929 248
55.75941 264
55.77952 257
55.79963 257
55.81975 264
55.83986 251
55.85997 267
55.88009 279
55.9002 286
55.92031 267
55.94043 256
55.96054 252
55.98066 281
56.00077 269
56.02088 246
56.041 249
56.06111 264
56.08122 264
56.10134 297
56.12145 249
56.14157 300
56.16168 269
56.18179 270
56.20191 271
56.22202 304
56.24213 278
56.26225 272
56.28236 268
56.30248 278
56.32259 266
56.3427 292
56.36282 302
56.38293 305
56.40304 325
56.42316 321
56.44327 348
56.46338 329
56.4835 383
56.50361 354
56.52373 370
56.54384 376
56.56395 342
56.58407 350
56.60418 360
56.62429 353
56.64441 313
56.66452 326
56.68464 336
56.70475 323
56.72486 319
56.74498 300
56.76509 293
56.7852 283
56.80532 272
56.82543 266
56.84554 299
56.86566 271
56.88577 278
56.90589 291
56.926 289
56.94611 298
56.96623 250
56.98634 268
57.00645 287
57.02657 268
57.04668 307
57.0668 296
57.08691 290
57.10702 287
57.12714 280
57.14725 330
57.16736 337
57.18748 368
57.20759 351
57.22771 405
57.24782 425
57.26793 419
57.28805 452
57.30816 493
57.32827 541
57.34839 543
57.3685 525
57.38861 515
57.40873 538
57.42884 517
57.44896 460
57.46907 468
57.48918 476
57.5093 446
57.52941 434
57.54952 430
57.56964 411
57.58975 356
57.60987 356
57.62998 340
57.65009 311
57.67021 305
57.69032 292
57.71043 279
57.73055 280
57.75066 276
57.77078 269
57.79089 280
57.811 297
57.83112 277
57.85123 261
57.87134 282
57.89146 260
57.91157 256
57.93168 257
57.9518 270
57.97191 292
57.99203 283
58.01214 259
58.03225 255
58.05237 279
58.07248 283
58.09259 262
58.11271 283
58.13282 270
58.15294 243
58.17305 258
58.19316 246
58.21328 256
58.23339 242
58.2535 269
58.27362 273
58.29373 278
58.31385 275
58.33396 252
58.35407 229
58.37419 236
58.3943 243
58.41441 243
58.43453 260
58.45464 243
58.47475 263
58.49487 261
58.51498 254
58.5351 257
58.55521 235
58.57532 240
58.59544 260
58.61555 230
58.63566 257
58.65578 269
58.67589 281
58.69601 262
58.71612 266
58.73623 243
58.75635 242
58.77646 241
58.79657 247
58.81669 258
58.8368 262
58.85691 241
58.87703 252
58.89714 276
58.91726 249
58.93737 256
58.95748 244
58.9776 240
58.99771 255
59.01782 261
59.03794 246
59.05805 254
59.07817 225
59.09828 236
59.11839 255
59.13851 273
59.15862 231
59.17873 213
59.19885 257
59.21896 239
59.23908 266
59.25919 244
59.2793 237
59.29942 238
59.31953 231
59.33964 269
59.35976 239
59.37987 265
59.39998 221
59.4201 263
59.44021 262
59.46033 238
59.48044 246
59.50055 251
59.52067 243
59.54078 236
59.56089 257
59.58101 272
59.60112 251
59.62124 270
59.64135 246
59.66146 298
59.68158 299
59.70169 294
59.7218 304
59.74192 345
59.76203 339
59.78215 368
59.80226 377
59.82237 401
59.84249 442
59.8626 405
59.88271 468
59.90283 438
59.92294 410
59.94305 401
59.96317 360
59.98328 382
60.0034 354
60.02351 394
60.04362 358
60.06374 380
60.08385 334
60.10396 321
60.12408 310
60.14419 276
60.16431 309
60.18442 278
60.20453 281
60.22465 283
60.24476 292
60.26487 299
60.28499 286
60.3051 262
60.32522 295
60.34533 306
60.36544 268
60.38556 318
60.40567 279
60.42578 316
60.4459 351
60.46601 296
60.48612 319
60.50624 376
60.52635 352
60.54647 372
60.56658 407
60.58669 424
60.60681 432
60.62692 457
60.64703 438
60.66715 426
60.68726 416
60.70738 389
60.72749 388
60.7476 371
60.76772 381
60.78783 381
60.80794 377
60.82806 408
60.84817 390
60.86828 401
60.8884 384
60.90851 382
60.92863 381
60.94874 364
60.96885 378
60.98897 360
61.00908 367
61.02919 347
61.04931 341
61.06942 340
61.08954 377
61.10965 340
61.12976 395
61.14988 352
61.16999 337
61.1901 344
61.21022 410
61.23033 358
61.25045 391
61.27056 389
61.29067 339
61.31079 384
61.3309 403
61.35101 377
61.37113 381
61.39124 364
61.41135 379
61.43147 362
61.45158 383
61.4717 383
61.49181 396
61.51192 393
61.53204 379
61.55215 351
61.57226 376
61.59238 377
61.61249 340
61.63261 352
61.65272 348
61.67283 355
61.69295 361
61.71306 346
61.73317 356
61.75329 324
61.7734 324
61.79352 336
61.81363 306
61.83374 308
61.85386 321
61.87397 303
61.89408 307
61.9142 294
61.93431 336
61.95442 333
61.97454 278
61.99465 314
62.01477 308
62.03488 305
62.05499 284
62.07511 298
62.09522 267
62.11533 267
62.13545 291
62.15556 258
62.17568 302
62.19579 278
62.2159 284
62.23602 300
62.25613 274
62.27624 283
62.29636 252
62.31647 284
62.33659 269
62.3567 281
62.37681 282
62.39693 279
62.41704 257
62.43715 271
62.45727 288
62.47738 243
62.49749 272
62.51761 285
62.53772 249
62.55784 263
62.57795 273
62.59806 296
62.61818 271
62.63829 257
62.6584 269
62.67852 279
62.69863 253
62.71875 279
62.73886 263
62.75897 247
62.77909 258
62.7992 266
62.81931 269
62.83943 253
62.85954 261
62.87965 292
62.89977 244
62.91988 308
62.94 307
62.96011 331
62.98022 312
63.00034 284
63.02045 319
63.04056 287
63.06068 306
63.08079 313
63.10091 282
63.12102 289
63.14113 266
63.16125 288
63.18136 298
63.20147 271
63.22159 278
63.2417 270
63.26182 300
63.28193 261
63.30204 279
63.32216 261
63.34227 234
63.36238 272
63.3825 236
63.40261 233
63.42272 233
63.44284 230
63.46295 252
63.48307 241
63.50318 273
63.52329 252
63.54341 253
63.56352 237
63.58363 233
63.60375 249
63.62386 265
63.64398 249
63.66409 231
63.6842 234
63.70432 254
63.72443 258
63.74454 246
63.76466 261
63.78477 253
63.80489 264
63.825 254
63.84511 271
63.86523 254
63.88534 276
63.90545 308
63.92557 264
63.94568 262
63.96579 252
63.98591 297
64.00602 272
64.02614 251
64.04625 273
64.06636 268
64.08648 251
64.10659 250
64.1267 261
64.14682 278
64.16693 263
64.18705 269
64.20716 254
64.22727 260
64.24739 224
64.2675 235
64.28761 251
64.30773 234
64.32784 241
64.34796 222
64.36807 269
64.38818 240
64.4083 250
64.42841 287
64.44852 280
64.46864 288
64.48875 337
64.50886 351
64.52898 348
64.54909 345
64.56921 377
64.58932 412
64.60943 399
64.62955 419
64.64966 436
64.66977 403
64.68989 362
64.71 376
64.73012 342
64.75023 382
64.77034 336
64.79046 339
64.81057 347
64.83068 345
64.8508 324
64.87091 328
64.89102 309
64.91114 320
64.93125 299
64.95137 297
64.97148 247
64.99159 260
65.01171 264
65.03182 264
65.05193 270
65.07205 229
65.09216 238
65.11228 257
65.13239 247
65.1525 241
65.17262 267
65.19273 284
65.21284 250
65.23296 248
65.25307 236
65.27319 253
65.2933 233
65.31341 242
65.33353 248
65.35364 280
65.37375 276
65.39387 276
65.41398 269
65.43409 310
65.45421 301
65.47432 293
65.49444 280
65.51455 323
65.53466 319
65.55478 337
65.57489 316
65.595 330
65.61512 307
65.63523 322
65.65535 302
65.67546 296
65.69557 313
65.71569 278
65.7358 310
65.75591 302
65.77603 235
65.79614 286
65.81626 271
65.83637 253
65.85648 265
65.8766 295
65.89671 263
65.91682 245
65.93694 250
65.95705 275
65.97716 227
65.99728 237
66.01739 257
66.03751 231
66.05762 246
66.07773 258
66.09785 227
66.11796 238
66.13807 246
66.15819 232
66.1783 207
66.19842 236
66.21853 227
66.23864 243
66.25876 228
66.27887 208
66.29898 218
66.3191 227
66.33921 242
66.35933 233
66.37944 213
66.39955 260
66.41967 223
66.43978 235
66.45989 264
66.48001 210
66.50012 207
66.52023 214
66.54035 239
66.56046 226
66.58058 222
66.60069 217
66.6208 213
66.64092 228
66.66103 204
66.68114 242
66.70126 207
66.72137 233
66.74149 211
66.7616 206
66.78171 211
66.80183 200
66.82194 239
66.84205 255
66.86217 218
66.88228 218
66.90239 242
66.92251 243
66.94262 221
66.96274 236
66.98285 194
67.00296 256
67.02308 210
67.04319 226
67.0633 213
67.08342 243
67.10353 237
67.12365 243
67.14376 219
67.16387 243
67.18399 232
67.2041 239
67.22421 231
67.24433 208
67.26444 224
67.28456 234
67.30467 235
67.32478 219
67.3449 219
67.36501 218
67.38512 253
67.40524 225
67.42535 222
67.44546 258
67.46558 261
67.48569 234
67.50581 275
67.52592 252
67.54603 284
67.56615 311
67.58626 308
67.60637 316
67.62649 363
67.6466 346
67.66672 341
67.68683 317
67.70694 311
67.72706 322
67.74717 291
67.76728 318
67.7874 290
67.80751 294
67.82763 288
67.84774 294
67.86785 330
67.88797 310
67.90808 289
67.92819 293
67.94831 317
67.96842 309
67.98853 334
68.00865 320
68.02876 357
68.04888 352
68.06899 402
68.0891 353
68.10922 385
68.12933 350
68.14944 351
68.16956 359
68.18967 364
68.20979 377
68.2299 372
68.25001 344
68.27013 381
68.29024 353
68.31035 323
68.33047 314
68.35058 318
68.3707 318
68.39081 289
68.41092 268
68.43104 307
68.45115 306
68.47126 263
68.49138 261
68.51149 270
68.5316 275
68.55172 279
68.57183 273
68.59195 243
68.61206 276
68.63217 247
68.65229 245
68.6724 296
68.69251 244
68.71263 237
68.73274 268
68.75286 247
68.77297 261
68.79308 256
68.8132 279
68.83331 286
68.85342 262
68.87354 256
68.89365 262
68.91376 264
68.93388 283
68.95399 276
68.97411 267
68.99422 254
69.01433 268
69.03445 264
69.05456 280
69.07467 290
69.09479 274
69.1149 288
69.13502 273
69.15513 264
69.17524 276
69.19536 246
69.21547 247
69.23558 268
69.2557 261
69.27581 268
69.29593 253
69.31604 246
69.33615 264
69.35627 247
69.37638 264
69.39649 227
69.41661 275
69.43672 250
69.45683 240
69.47695 241
69.49706 223
69.51718 254
69.53729 255
69.5574 259
69.57752 230
69.59763 224
69.61774 212
69.63786 238
69.65797 265
69.67809 253
69.6982 263
69.71831 269
69.73843 254
69.75854 266
69.77865 266
69.79877 230
69.81888 270
69.839 272
69.85911 246
69.87922 245
69.89934 254
69.91945 244
69.93956 243
69.95968 246
69.97979 269
69.9999 240
70.02002 274
70.04013 256
70.06025 253
70.08036 275
70.10047 223
70.12059 251
70.1407 307
70.16081 300
70.18093 321
70.20104 282
70.22116 278
70.24127 301
70.26138 264
70.2815 286
70.30161 270
70.32172 276
70.34184 274
70.36195 254
70.38207 250
70.40218 260
70.42229 241
70.44241 257
70.46252 239
70.48263 250
70.50275 279
70.52286 242
70.54297 250
70.56309 253
70.5832 246
70.60332 227
70.62343 233
70.64354 243
70.66366 244
70.68377 229
70.70388 218
70.724 264
70.74411 261
70.76423 223
70.78434 230
70.80445 231
70.82457 231
70.84468 235
70.86479 249
70.88491 234
70.90502 224
70.92513 226
70.94525 243
70.96536 239
70.98548 227
71.00559 238
71.0257 244
71.04582 226
71.06593 238
71.08604 218
71.10616 220
71.12627 218
71.14639 221
71.1665 220
71.18661 223
71.20673 222
71.22684 246
71.24695 221
71.26707 235
71.28718 226
71.3073 234
71.32741 209
71.34752 223
71.36764 237
71.38775 244
71.40786 226
71.42798 203
71.44809 234
71.4682 276
71.48832 222
71.50843 229
71.52855 222
71.54866 218
71.56877 255
71.58889 226
71.609 249
71.62911 228
71.64923 245
71.66934 233
71.68946 217
71.70957 242
71.72968 235
71.7498 241
71.76991 238
71.79002 259
71.81014 252
71.83025 254
71.85037 224
71.87048 259
71.89059 208
71.91071 222
71.93082 259
71.95093 252
71.97105 260
71.99116 247
72.01127 234
72.03139 238
72.0515 254
72.07162 248
72.09173 239
72.11184 223
72.13196 255
72.15207 248
72.17218 239
72.1923 248
72.21241 221
72.23253 223
72.25264 268
72.27275 240
72.29287 256
72.31298 235
72.33309 229
72.35321 242
72.37332 261
72.39344 261
72.41355 273
72.43366 238
72.45378 268
72.47389 255
72.494 275
72.51412 261
72.53423 264
72.55434 277
72.57446 269
72.59457 274
72.61469 276
72.6348 257
72.65491 274
72.67503 290
72.69514 307
72.71525 306
72.73537 323
72.75548 292
72.7756 320
72.79571 320
72.81582 353
72.83594 344
72.85605 348
72.87616 318
72.89628 302
72.91639 334
72.9365 321
72.95662 320
72.97673 311
72.99685 309
73.01696 346
73.03707 292
73.05719 310
73.0773 277
73.09741 338
73.11753 309
73.13764 276
73.15776 283
73.17787 287
73.19798 276
73.2181 276
73.23821 248
73.25832 282
73.27844 286
73.29855 282
73.31867 311
73.33878 281
73.35889 308
73.37901 318
73.39912 297
73.41923 287
73.43935 297
73.45946 273
73.47957 259
73.49969 262
73.5198 277
73.53992 285
73.56003 287
73.58014 289
73.60026 307
73.62037 303
73.64048 286
73.6606 261
73.68071 258
73.70083 264
73.72094 240
73.74105 260
73.76117 247
73.78128 226
73.80139 265
73.82151 258
73.84162 259
73.86174 234
73.88185 228
73.90196 227
73.92208 228
73.94219 243
73.9623 223
73.98242 229
74.00253 248
74.02264 236
74.04276 244
74.06287 274
74.08299 223
74.1031 237
74.12321 232
74.14333 188
74.16344 242
74.18355 234
74.20367 220
74.22378 237
74.2439 243
74.26401 220
74.28412 249
74.30424 222
74.32435 241
74.34446 241
74.36458 219
74.38469 243
74.40481 226
74.42492 219
74.44503 240
74.46515 213
74.48526 205
74.50537 234
74.52549 269
74.5456 199
74.56571 229
74.58583 239
74.60594 241
74.62606 229
74.64617 250
74.66628 207
74.6864 220
74.70651 242
74.72662 251
74.74674 224
74.76685 199
74.78697 232
74.80708 222
74.82719 221
74.84731 229
74.86742 227
74.88753 241
74.90765 245
74.92776 243
74.94787 238
74.96799 216
74.9881 214
75.00822 215
