3.00117 16431
3.02128 16051
3.0414 15639
3.06151 14641
3.08162 14562
3.10174 14064
3.12185 13934
3.14197 13572
3.16208 12660
3.18219 12415
3.20231 11946
3.22242 11583
3.24253 11379
3.26265 10748
3.28276 10504
3.30288 9871
3.32299 9981
3.3431 9730
3.36322 8842
3.38333 9010
3.40344 8435
3.42356 8387
3.44367 8047
3.46379 7451
3.4839 7480
3.50401 6878
3.52413 6918
3.54424 6575
3.56435 6298
3.58447 6145
3.60458 5668
3.62469 5572
3.64481 5427
3.66492 4893
3.68504 4896
3.70515 4508
3.72526 4572
3.74538 4376
3.76549 4089
3.7856 4064
3.80572 3766
3.82583 3593
3.84595 3398
3.86606 3308
3.88617 3198
3.90629 2952
3.9264 2885
3.94651 2894
3.96663 2580
3.98674 2511
4.00686 2402
4.02697 2288
4.04708 2158
4.0672 2051
4.08731 1973
4.10742 1895
4.12754 1890
4.14765 1863
4.16776 1661
4.18788 1665
4.20799 1646
4.22811 1665
4.24822 1608
4.26833 1464
4.28845 1468
4.30856 1439
4.32867 1418
4.34879 1482
4.3689 1287
4.38902 1312
4.40913 1272
4.42924 1264
4.44936 1172
4.46947 1111
4.48958 1165
4.5097 1076
4.52981 1076
4.54992 1063
4.57004 989
4.59015 952
4.61027 962
4.63038 1002
4.65049 904
4.67061 896
4.69072 891
4.71083 897
4.73095 875
4.75106 860
4.77118 759
4.79129 737
4.8114 760
4.83152 749
4.85163 770
4.87174 686
4.89186 725
4.91197 729
4.93209 723
4.9522 714
4.97231 625
4.99243 567
5.01254 658
5.03265 604
5.05277 542
5.07288 542
5.09299 561
5.11311 570
5.13322 486
5.15334 519
5.17345 543
5.19356 478
5.21368 528
5.23379 525
5.2539 439
5.27402 494
5.29413 420
5.31425 391
5.33436 425
5.35447 424
5.37459 431
5.3947 396
5.41481 382
5.43493 429
5.45504 368
5.47516 385
5.49527 330
5.51538 365
5.5355 369
5.55561 347
5.57572 342
5.59584 357
5.61595 350
5.63606 344
5.65618 320
5.67629 280
5.69641 317
5.71652 278
5.73663 288
5.75675 277
5.77686 301
5.79697 304
5.81709 284
5.8372 278
5.85732 285
5.87743 282
5.89754 273
5.91766 290
5.93777 287
5.95788 293
5.978 252
5.99811 257
6.01823 256
6.03834 261
6.05845 275
6.07857 247
6.09868 259
6.11879 235
6.13891 251
6.15902 207
6.17913 247
6.19925 276
6.21936 268
6.23948 247
6.25959 254
6.2797 220
6.29982 261
6.31993 232
6.34004 227
6.36016 223
6.38027 204
6.40039 224
6.4205 270
6.44061 230
6.46073 208
6.48084 243
6.50095 229
6.52107 223
6.54118 221
6.56129 233
6.58141 188
6.60152 216
6.62164 257
6.64175 229
6.66186 221
6.68198 214
6.70209 238
6.7222 203
6.74232 240
6.76243 220
6.78255 225
6.80266 231
6.82277 231
6.84289 233
6.863 209
6.88311 224
6.90323 221
6.92334 196
6.94346 224
6.96357 228
6.98368 224
7.0038 261
7.02391 234
7.04402 207
7.06414 212
7.08425 208
7.10436 209
7.12448 225
7.14459 224
7.16471 242
7.18482 255
7.20493 230
7.22505 180
7.24516 228
7.26527 233
7.28539 191
7.3055 203
7.32562 217
7.34573 258
7.36584 231
7.38596 218
7.40607 205
7.42618 199
7.4463 245
7.46641 223
7.48653 208
7.50664 223
7.52675 238
7.54687 223
7.56698 232
7.58709 229
7.60721 218
7.62732 216
7.64743 221
7.66755 238
7.68766 249
7.70778 229
7.72789 224
7.748 227
7.76812 252
7.78823 232
7.80834 237
7.82846 208
7.84857 214
7.86869 250
7.8888 220
7.90891 212
7.92903 205
7.94914 218
7.96925 252
7.98937 248
8.00948 227
8.0296 213
8.04971 230
8.06982 228
8.08994 226
8.11005 218
8.13016 218
8.15028 260
8.17039 254
8.1905 218
8.21062 220
8.23073 220
8.25085 227
8.27096 234
8.29107 241
8.31119 238
8.3313 232
8.35141 236
8.37153 249
8.39164 209
8.41176 261
8.43187 247
8.45198 249
8.4721 247
8.49221 238
8.51232 229
8.53244 269
8.55255 287
8.57266 237
8.59278 264
8.61289 246
8.63301 288
8.65312 292
8.67323 298
8.69335 262
8.71346 268
8.73357 229
8.75369 272
8.7738 249
8.79392 313
8.81403 258
8.83414 273
8.85426 235
8.87437 242
8.89448 225
8.9146 205
8.93471 259
8.95483 265
8.97494 249
8.99505 257
9.01517 255
9.03528 258
9.05539 257
9.07551 241
9.09562 258
9.11573 235
9.13585 241
9.15596 254
9.17608 240
9.19619 217
9.2163 287
9.23642 257
9.25653 226
9.27664 225
9.29676 252
9.31687 228
9.33699 251
9.3571 217
9.37721 214
9.39733 258
9.41744 241
9.43755 230
9.45767 232
9.47778 228
9.4979 225
9.51801 240
9.53812 219
9.55824 237
9.57835 222
9.59846 231
9.61858 257
9.63869 236
9.6588 265
9.67892 235
9.69903 279
9.71915 229
9.73926 248
9.75937 213
9.77949 241
9.7996 227
9.81971 283
9.83983 272
9.85994 242
9.88006 212
9.90017 256
9.92028 248
9.9404 259
9.96051 241
9.98062 232
10.00074 242
10.02085 239
10.04097 246
10.06108 260
10.08119 234
10.10131 234
10.12142 234
10.14153 211
10.16165 228
10.18176 255
10.20187 207
10.22199 211
10.2421 211
10.26222 226
10.28233 236
10.30244 239
10.32256 246
10.34267 233
10.36278 250
10.3829 291
10.40301 258
10.42313 245
10.44324 295
10.46335 276
10.48347 223
10.50358 236
10.52369 224
10.54381 240
10.56392 180
10.58403 245
10.60415 268
10.62426 215
10.64438 235
10.66449 229
10.6846 240
10.70472 238
10.72483 221
10.74494 258
10.76506 226
10.78517 221
10.80529 248
10.8254 263
10.84551 225
10.86563 246
10.88574 244
10.90585 259
10.92597 256
10.94608 252
10.9662 221
10.98631 223
11.00642 225
11.02654 240
11.04665 211
11.06676 211
11.08688 233
11.10699 225
11.1271 237
11.14722 224
11.16733 246
11.18745 267
11.20756 239
11.22767 216
11.24779 211
11.2679 208
11.28801 237
11.30813 227
11.32824 233
11.34836 223
11.36847 242
11.38858 214
11.4087 216
11.42881 205
11.44892 246
11.46904 252
11.48915 232
11.50927 203
11.52938 218
11.54949 231
11.56961 217
11.58972 228
11.60983 240
11.62995 250
11.65006 214
11.67017 231
11.69029 230
11.7104 245
11.73052 221
11.75063 230
11.77074 263
11.79086 257
11.81097 222
11.83108 228
11.8512 224
11.87131 274
11.89143 252
11.91154 242
11.93165 241
11.95177 236
11.97188 214
11.99199 220
12.01211 270
12.03222 251
12.05234 269
12.07245 255
12.09256 256
12.11268 270
12.13279 223
12.1529 244
12.17302 254
12.19313 228
12.21324 231
12.23336 250
12.25347 249
12.27359 241
12.2937 224
12.31381 257
12.33393 246
12.35404 230
12.37415 239
12.39427 220
12.41438 247
12.4345 236
12.45461 278
12.47472 227
12.49484 228
12.51495 261
12.53506 234
12.55518 213
12.57529 220
12.5954 209
12.61552 221
12.63563 217
12.65575 238
12.67586 209
12.69597 194
12.71609 232
12.7362 193
12.75631 237
12.77643 223
12.79654 225
12.81666 205
12.83677 219
12.85688 188
12.877 192
12.89711 215
12.91722 212
12.93734 203
12.95745 207
12.97757 229
12.99768 220
13.01779 214
13.03791 207
13.05802 209
13.07813 186
13.09825 210
13.11836 211
13.13847 226
13.15859 203
13.1787 230
13.19882 221
13.21893 241
13.23904 217
13.25916 220
13.27927 192
13.29938 175
13.3195 188
13.33961 211
13.35973 199
13.37984 178
13.39995 219
13.42007 234
13.44018 175
13.46029 231
13.48041 211
13.50052 206
13.52064 190
13.54075 207
13.56086 235
13.58098 221
13.60109 230
13.6212 226
13.64132 257
13.66143 236
13.68154 227
13.70166 217
13.72177 238
13.74189 251
13.762 249
13.78211 255
13.80223 280
13.82234 277
13.84245 277
13.86257 265
13.88268 240
13.9028 255
13.92291 202
13.94302 205
13.96314 211
13.98325 211
14.00336 212
14.02348 186
14.04359 192
14.06371 203
14.08382 196
14.10393 196
14.12405 172
14.14416 216
14.16427 188
14.18439 194
14.2045 205
14.22461 186
14.24473 199
14.26484 205
14.28496 206
14.30507 186
14.32518 189
14.3453 214
14.36541 186
14.38552 191
14.40564 179
14.42575 212
14.44587 178
14.46598 184
14.48609 181
14.50621 174
14.52632 202
14.54643 184
14.56655 168
14.58666 178
14.60677 193
14.62689 160
14.647 179
14.66712 203
14.68723 149
14.70734 200
14.72746 209
14.74757 160
14.76768 203
14.7878 200
14.80791 213
14.82803 212
14.84814 188
14.86825 196
14.88837 194
14.90848 199
14.92859 209
14.94871 219
14.96882 238
14.98894 220
15.00905 225
15.02916 241
15.04928 222
15.06939 204
15.0895 216
15.10962 207
15.12973 207
15.14984 223
15.16996 199
15.19007 187
15.21019 203
15.2303 196
15.25041 193
15.27053 183
15.29064 153
15.31075 206
15.33087 198
15.35098 168
15.3711 176
15.39121 170
15.41132 199
15.43144 179
15.45155 189
15.47166 198
15.49178 187
15.51189 200
15.53201 189
15.55212 160
15.57223 151
15.59235 167
15.61246 188
15.63257 181
15.65269 195
15.6728 196
15.69291 173
15.71303 201
15.73314 175
15.75326 198
15.77337 183
15.79348 206
15.8136 178
15.83371 208
15.85382 203
15.87394 186
15.89405 159
15.91417 168
15.93428 178
15.95439 161
15.97451 184
15.99462 176
16.01473 183
16.03485 194
16.05496 172
16.07508 168
16.09519 167
16.1153 151
16.13542 197
16.15553 186
16.17564 179
16.19576 210
16.21587 182
16.23598 183
16.2561 174
16.27621 188
16.29633 162
16.31644 194
16.33655 165
16.35667 178
16.37678 160
16.39689 175
16.41701 200
16.43712 153
16.45724 161
16.47735 200
16.49746 193
16.51758 177
16.53769 166
16.5578 185
16.57792 211
16.59803 174
16.61814 180
16.63826 197
16.65837 174
16.67849 180
16.6986 182
16.71871 158
16.73883 191
16.75894 180
16.77905 141
16.79917 178
16.81928 161
16.8394 178
16.85951 180
16.87962 190
16.89974 175
16.91985 155
16.93996 165
16.96008 160
16.98019 176
17.00031 169
17.02042 171
17.04053 194
17.06065 190
17.08076 197
17.10087 187
17.12099 176
17.1411 156
17.16121 180
17.18133 156
17.20144 146
17.22156 173
17.24167 177
17.26178 164
17.2819 184
17.30201 173
17.32212 173
17.34224 195
17.36235 159
17.38247 180
17.40258 166
17.42269 186
17.44281 170
17.46292 182
17.48303 167
17.50315 184
17.52326 166
17.54338 152
17.56349 184
17.5836 178
17.60372 156
17.62383 183
17.64394 156
17.66406 165
17.68417 165
17.70428 203
17.7244 158
17.74451 167
17.76463 157
17.78474 163
17.80485 184
17.82497 169
17.84508 178
17.86519 194
17.88531 168
17.90542 209
17.92554 166
17.94565 180
17.96576 155
17.98588 172
18.00599 196
18.0261 178
18.04622 184
18.06633 184
18.08645 151
18.10656 174
18.12667 175
18.14679 166
18.1669 180
18.18701 178
18.20713 179
18.22724 189
18.24735 159
18.26747 165
18.28758 183
18.3077 164
18.32781 166
18.34792 165
18.36804 168
18.38815 153
18.40826 171
18.42838 185
18.44849 177
18.46861 158
18.48872 172
18.50883 167
18.52895 188
18.54906 163
18.56917 178
18.58929 189
18.6094 193
18.62951 198
18.64963 174
18.66974 188
18.68986 185
18.70997 188
18.73008 180
18.7502 199
18.77031 198
18.79042 201
18.81054 172
18.83065 197
18.85077 172
18.87088 164
18.89099 175
18.91111 180
18.93122 167
18.95133 207
18.97145 180
18.99156 185
19.01168 195
19.03179 184
19.0519 201
19.07202 193
19.09213 176
19.11224 197
19.13236 193
19.15247 206
19.17258 215
19.1927 188
19.21281 203
19.23293 207
19.25304 206
19.27315 215
19.29327 235
19.31338 213
19.33349 220
19.35361 212
19.37372 221
19.39384 232
19.41395 241
19.43406 222
19.45418 247
19.47429 226
19.4944 239
19.51452 205
19.53463 253
19.55475 257
19.57486 247
19.59497 254
19.61509 247
19.6352 238
19.65531 255
19.67543 256
19.69554 273
19.71565 259
19.73577 305
19.75588 260
19.776 291
19.79611 252
19.81622 304
19.83634 312
19.85645 279
19.87656 336
19.89668 292
19.91679 289
19.93691 299
19.95702 286
19.97713 282
19.99725 255
20.01736 306
20.03747 289
20.05759 315
20.0777 266
20.09782 335
20.11793 278
20.13804 283
20.15816 312
20.17827 281
20.19838 310
20.2185 289
20.23861 313
20.25872 274
20.27884 343
20.29895 334
20.31907 343
20.33918 319
20.35929 315
20.37941 320
20.39952 350
20.41963 358
20.43975 352
20.45986 358
20.47998 339
20.50009 348
20.5202 421
20.54032 429
20.56043 411
20.58054 471
20.60066 555
20.62077 633
20.64088 789
20.661 996
20.68111 1330
20.70123 1755
20.72134 2328
20.74145 2815
20.76157 3560
20.78168 4399
20.80179 4840
20.82191 5208
20.84202 4804
20.86214 4259
20.88225 3340
20.90236 2382
20.92248 1677
20.94259 1081
20.9627 785
20.98282 635
21.00293 616
21.02305 546
21.04316 493
21.06327 467
21.08339 413
21.1035 364
21.12361 352
21.14373 352
21.16384 321
21.18395 323
21.20407 317
21.22418 305
21.2443 278
21.26441 283
21.28452 310
21.30464 279
21.32475 266
21.34486 279
21.36498 270
21.38509 276
21.40521 238
21.42532 226
21.44543 246
21.46555 278
21.48566 284
21.50577 247
21.52589 254
21.546 266
21.56612 228
21.58623 258
21.60634 271
21.62646 293
21.64657 274
21.66668 271
21.6868 272
21.70691 287
21.72702 280
21.74714 264
21.76725 294
21.78737 292
21.80748 330
21.82759 397
21.84771 404
21.86782 479
21.88793 555
21.90805 606
21.92816 712
21.94828 687
21.96839 727
21.9885 630
22.00862 613
22.02873 516
22.04884 418
22.06896 344
22.08907 301
22.10919 288
22.1293 280
22.14941 281
22.16953 263
22.18964 226
22.20975 266
22.22987 258
22.24998 278
22.27009 283
22.29021 250
22.31032 272
22.33044 248
22.35055 239
22.37066 252
22.39078 265
22.41089 234
22.431 238
22.45112 291
22.47123 274
22.49135 280
22.51146 239
22.53157 246
22.55169 236
22.5718 259
22.59191 240
22.61203 231
22.63214 242
22.65225 239
22.67237 231
22.69248 216
22.7126 249
22.73271 248
22.75282 244
22.77294 252
22.79305 274
22.81316 284
22.83328 315
22.85339 326
22.87351 319
22.89362 300
22.91373 286
22.93385 318
22.95396 318
22.97407 288
22.99419 305
23.0143 295
23.03442 244
23.05453 288
23.07464 266
23.09476 285
23.11487 279
23.13498 265
23.1551 280
23.17521 267
23.19532 310
23.21544 271
23.23555 274
23.25567 294
23.27578 305
23.29589 280
23.31601 300
23.33612 301
23.35623 266
23.37635 275
23.39646 272
23.41658 299
23.43669 294
23.4568 329
23.47692 350
23.49703 427
23.51714 385
23.53726 448
23.55737 431
23.57749 420
23.5976 438
23.61771 440
23.63783 425
23.65794 372
23.67805 349
23.69817 369
23.71828 354
23.73839 341
23.75851 380
23.77862 344
23.79874 397
23.81885 441
23.83896 482
23.85908 494
23.87919 475
23.8993 545
23.91942 487
23.93953 522
23.95965 494
23.97976 432
23.99987 392
24.01999 372
24.0401 338
24.06021 324
24.08033 309
24.10044 282
24.12056 306
24.14067 313
24.16078 321
24.1809 376
24.20101 412
24.22112 370
24.24124 446
24.26135 461
24.28146 455
24.30158 446
24.32169 421
24.34181 408
24.36192 367
24.38203 381
24.40215 305
24.42226 291
24.44237 253
24.46249 297
24.4826 268
24.50272 262
24.52283 270
24.54294 263
24.56306 271
24.58317 241
24.60328 259
24.6234 285
24.64351 236
24.66362 231
24.68374 260
24.70385 227
24.72397 243
24.74408 247
24.76419 288
24.78431 236
24.80442 257
24.82453 280
24.84465 260
24.86476 253
24.88488 245
24.90499 244
24.9251 265
24.94522 267
24.96533 263
24.98544 227
25.00556 257
25.02567 257
25.04579 224
25.0659 257
25.08601 228
25.10613 257
25.12624 265
25.14635 280
25.16647 268
25.18658 253
25.20669 240
25.22681 265
25.24692 262
25.26704 258
25.28715 263
25.30726 244
25.32738 276
25.34749 263
25.3676 297
25.38772 364
25.40783 325
25.42795 387
25.44806 356
25.46817 454
25.48829 477
25.5084 440
25.52851 485
25.54863 435
25.56874 427
25.58886 476
25.60897 416
25.62908 445
25.6492 485
25.66931 418
25.68942 413
25.70954 422
25.72965 408
25.74976 428
25.76988 424
25.78999 384
25.81011 412
25.83022 395
25.85033 412
25.87045 405
25.89056 408
25.91067 393
25.93079 440
25.9509 415
25.97102 431
25.99113 421
26.01124 463
26.03136 501
26.05147 466
26.07158 522
26.0917 551
26.11181 554
26.13193 647
26.15204 671
26.17215 678
26.19227 745
26.21238 803
26.23249 835
26.25261 935
26.27272 1025
26.29283 1215
26.31295 1390
26.33306 1562
26.35318 1914
26.37329 2315
26.3934 2802
26.41352 3644
26.43363 4886
26.45374 6242
26.47386 8164
26.49397 10783
26.51409 13464
26.5342 16621
26.55431 19238
26.57443 21308
26.59454 22121
26.61465 21673
26.63477 19129
26.65488 15389
26.67499 11647
26.69511 8361
26.71522 5668
26.73534 3537
26.75545 2134
26.77556 1568
26.79568 1297
26.81579 1169
26.8359 1031
26.85602 994
26.87613 873
26.89625 829
26.91636 810
26.93647 770
26.95659 744
26.9767 748
26.99681 715
27.01693 690
27.03704 682
27.05716 718
27.07727 648
27.09738 579
27.1175 566
27.13761 568
27.15772 489
27.17784 514
27.19795 446
27.21806 448
27.23818 489
27.25829 493
27.27841 489
27.29852 520
27.31863 517
27.33875 603
27.35886 629
27.37897 640
27.39909 678
27.4192 742
27.43932 783
27.45943 755
27.47954 663
27.49966 648
27.51977 620
27.53988 584
27.56 574
27.58011 582
27.60023 666
27.62034 698
27.64045 774
27.66057 849
27.68068 949
27.70079 1015
27.72091 1163
27.74102 1181
27.76113 1190
27.78125 1214
27.80136 1165
27.82148 1088
27.84159 1109
27.8617 1052
27.88182 1034
27.90193 1071
27.92204 1096
27.94216 1024
27.96227 919
27.98239 887
28.0025 800
28.02261 668
28.04273 595
28.06284 519
28.08295 451
28.10307 414
28.12318 449
28.1433 383
28.16341 393
28.18352 445
28.20364 443
28.22375 430
28.24386 477
28.26398 488
28.28409 478
28.3042 444
28.32432 432
28.34443 372
28.36455 348
28.38466 345
28.40477 335
28.42489 338
28.445 283
28.46511 281
28.48523 275
28.50534 279
28.52546 278
28.54557 281
28.56568 285
28.5858 258
28.60591 252
28.62602 250
28.64614 247
28.66625 241
28.68636 248
28.70648 241
28.72659 228
28.74671 237
28.76682 213
28.78693 234
28.80705 224
28.82716 232
28.84727 264
28.86739 250
28.8875 207
28.90762 247
28.92773 235
28.94784 254
28.96796 230
28.98807 241
29.00818 262
29.0283 228
29.04841 222
29.06853 229
29.08864 220
29.10875 223
29.12887 252
29.14898 258
29.16909 250
29.18921 233
29.20932 256
29.22943 237
29.24955 259
29.26966 258
29.28978 239
29.30989 241
29.33 238
29.35012 250
29.37023 250
29.39034 270
29.41046 266
29.43057 259
29.45069 269
29.4708 287
29.49091 258
29.51103 266
29.53114 266
29.55125 277
29.57137 266
29.59148 282
29.6116 309
29.63171 345
29.65182 346
29.67194 336
29.69205 375
29.71216 349
29.73228 365
29.75239 384
29.7725 401
29.79262 363
29.81273 373
29.83285 348
29.85296 306
29.87307 291
29.89319 321
29.9133 282
29.93341 264
29.95353 238
29.97364 304
29.99376 284
30.01387 299
30.03398 274
30.0541 277
30.07421 302
30.09432 281
30.11444 299
30.13455 294
30.15467 288
30.17478 350
30.19489 341
30.21501 353
30.23512 382
30.25523 381
30.27535 355
30.29546 425
30.31557 449
30.33569 431
30.3558 432
30.37592 426
30.39603 396
30.41614 419
30.43626 411
30.45637 361
30.47648 333
30.4966 320
30.51671 311
30.53683 276
30.55694 268
30.57705 266
30.59717 262
30.61728 261
30.63739 243
30.65751 280
30.67762 278
30.69773 274
30.71785 282
30.73796 305
30.75808 272
30.77819 275
30.7983 303
30.81842 278
30.83853 276
30.85864 252
30.87876 240
30.89887 235
30.91899 218
30.9391 220
30.95921 203
30.97933 241
30.99944 201
31.01955 192
31.03967 192
31.05978 213
31.0799 204
31.10001 214
31.12012 232
31.14024 214
31.16035 202
31.18046 245
31.20058 257
31.22069 230
31.2408 270
31.26092 260
31.28103 284
31.30115 290
31.32126 280
31.34137 292
31.36149 288
31.3816 274
31.40171 273
31.42183 298
31.44194 258
31.46206 235
31.48217 248
31.50228 244
31.5224 219
31.54251 234
31.56262 211
31.58274 233
31.60285 224
31.62297 227
31.64308 202
31.66319 188
31.68331 198
31.70342 214
31.72353 180
31.74365 212
31.76376 213
31.78387 203
31.80399 211
31.8241 190
31.84422 161
31.86433 207
31.88444 196
31.90456 178
31.92467 219
31.94478 187
31.9649 211
31.98501 206
32.00513 202
32.02524 194
32.04535 171
32.06547 219
32.08558 196
32.10569 205
32.12581 205
32.14592 225
32.16604 219
32.18615 216
32.20626 205
32.22638 203
32.24649 239
32.2666 226
32.28672 208
32.30683 229
32.32694 222
32.34706 236
32.36717 227
32.38729 199
32.4074 188
32.42751 234
32.44763 220
32.46774 208
32.48785 205
32.50797 211
32.52808 192
32.5482 203
32.56831 195
32.58842 170
32.60854 190
32.62865 181
32.64876 174
32.66888 190
32.68899 201
32.7091 171
32.72922 197
32.74933 201
32.76945 186
32.78956 170
32.80967 187
32.82979 209
32.8499 215
32.87001 239
32.89013 245
32.91024 196
32.93036 215
32.95047 202
32.97058 206
32.9907 248
33.01081 206
33.03092 203
33.05104 208
33.07115 210
33.09127 190
33.11138 186
33.13149 196
33.15161 211
33.17172 162
33.19183 205
33.21195 191
33.23206 206
33.25217 165
33.27229 195
33.2924 185
33.31252 188
33.33263 201
33.35274 193
33.37286 184
33.39297 193
33.41308 176
33.4332 221
33.45331 188
33.47343 187
33.49354 155
33.51365 199
33.53377 168
33.55388 191
33.57399 187
33.59411 197
33.61422 212
33.63434 215
33.65445 239
33.67456 226
33.69468 218
33.71479 266
33.7349 241
33.75502 258
33.77513 241
33.79524 212
33.81536 207
33.83547 218
33.85559 218
33.8757 221
33.89581 195
33.91593 200
33.93604 191
33.95615 212
33.97627 178
33.99638 189
34.0165 228
34.03661 187
34.05672 211
34.07684 201
34.09695 231
34.11706 238
34.13718 223
34.15729 217
34.17741 276
34.19752 248
34.21763 237
34.23775 263
34.25786 262
34.27797 274
34.29809 272
34.3182 294
34.33831 242
34.35843 230
34.37854 263
34.39866 223
34.41877 258
34.43888 248
34.459 242
34.47911 223
34.49922 274
34.51934 240
34.53945 226
34.55957 236
34.57968 245
34.59979 228
34.61991 249
34.64002 249
34.66013 241
34.68025 247
34.70036 214
34.72047 233
34.74059 244
34.7607 262
34.78082 218
34.80093 247
34.82104 255
34.84116 265
34.86127 256
34.88138 243
34.9015 271
34.92161 280
34.94173 248
34.96184 269
34.98195 289
35.00207 252
35.02218 259
35.04229 246
35.06241 266
35.08252 294
35.10264 274
35.12275 291
35.14286 304
35.16298 291
35.18309 310
35.2032 338
35.22332 310
35.24343 370
35.26354 359
35.28366 293
35.30377 344
35.32389 335
35.344 356
35.36411 315
35.38423 313
35.40434 306
35.42445 312
35.44457 297
35.46468 306
35.4848 283
35.50491 294
35.52502 283
35.54514 258
35.56525 268
35.58536 296
35.60548 279
35.62559 285
35.64571 222
35.66582 248
35.68593 233
35.70605 202
35.72616 197
35.74627 250
35.76639 242
35.7865 230
35.80661 231
35.82673 211
35.84684 222
35.86696 210
35.88707 236
35.90718 245
35.9273 251
35.94741 242
35.96752 273
35.98764 268
36.00775 263
36.02787 264
36.04798 258
36.06809 286
36.08821 313
36.10832 274
36.12843 319
36.14855 322
36.16866 314
36.18878 320
36.20889 330
36.229 350
36.24912 355
36.26923 414
36.28934 436
36.30946 511
36.32957 617
36.34968 697
36.3698 816
36.38991 935
36.41003 1158
36.43014 1289
36.45025 1421
36.47037 1560
36.49048 1600
36.51059 1606
36.53071 1438
36.55082 1266
36.57094 1044
36.59105 907
36.61116 764
36.63128 646
36.65139 493
36.6715 381
36.69162 324
36.71173 302
36.73184 303
36.75196 282
36.77207 264
36.79219 272
36.8123 268
36.83241 260
36.85253 278
36.87264 269
36.89275 277
36.91287 287
36.93298 268
36.9531 276
36.97321 257
36.99332 288
37.01344 287
37.03355 248
37.05366 242
37.07378 234
37.09389 238
37.11401 263
37.13412 249
37.15423 213
37.17435 219
37.19446 231
37.21457 205
37.23469 251
37.2548 226
37.27491 204
37.29503 209
37.31514 241
37.33526 252
37.35537 242
37.37548 234
37.3956 236
37.41571 255
37.43582 221
37.45594 245
37.47605 207
37.49617 246
37.51628 243
37.53639 242
37.55651 222
37.57662 231
37.59673 249
37.61685 252
37.63696 248
37.65708 235
37.67719 234
37.6973 239
37.71742 210
37.73753 250
37.75764 229
37.77776 220
37.79787 216
37.81798 244
37.8381 203
37.85821 184
37.87833 204
37.89844 198
37.91855 212
37.93867 189
37.95878 207
37.97889 212
37.99901 179
38.01912 202
38.03924 210
38.05935 215
38.07946 208
38.09958 210
38.11969 229
38.1398 211
38.15992 217
38.18003 227
38.20015 209
38.22026 204
38.24037 198
38.26049 223
38.2806 190
38.30071 234
38.32083 205
38.34094 206
38.36105 219
38.38117 238
38.40128 230
38.4214 223
38.44151 233
38.46162 207
38.48174 224
38.50185 240
38.52196 233
38.54208 223
38.56219 251
38.58231 213
38.60242 243
38.62253 200
38.64265 215
38.66276 193
38.68287 217
38.70299 198
38.7231 205
38.74321 209
38.76333 188
38.78344 185
38.80356 202
38.82367 217
38.84378 205
38.8639 200
38.88401 215
38.90412 230
38.92424 231
38.94435 232
38.96447 208
38.98458 229
39.00469 239
39.02481 249
39.04492 268
39.06503 280
39.08515 300
39.10526 309
39.12538 313
39.14549 324
39.1656 350
39.18572 365
39.20583 408
39.22594 509
39.24606 537
39.26617 608
39.28628 746
39.3064 896
39.32651 1001
39.34663 1254
39.36674 1326
39.38685 1357
39.40697 1435
39.42708 1476
39.44719 1414
39.46731 1221
39.48742 1043
39.50754 906
39.52765 858
39.54776 652
39.56788 602
39.58799 431
39.6081 364
39.62822 322
39.64833 250
39.66845 232
39.68856 234
39.70867 256
39.72879 240
39.7489 254
39.76901 219
39.78913 218
39.80924 231
39.82935 211
39.84947 244
39.86958 222
39.8897 192
39.90981 232
39.92992 223
39.95004 271
39.97015 222
39.99026 273
40.01038 275
40.03049 295
40.05061 337
40.07072 344
40.09083 434
40.11095 439
40.13106 525
40.15117 661
40.17129 662
40.1914 756
40.21152 740
40.23163 829
40.25174 822
40.27186 770
40.29197 682
40.31208 605
40.3322 503
40.35231 479
40.37242 465
40.39254 355
40.41265 310
40.43277 288
40.45288 213
40.47299 233
40.49311 208
40.51322 203
40.53333 211
40.55345 209
40.57356 204
40.59368 213
40.61379 186
40.6339 190
40.65402 191
40.67413 222
40.69424 218
40.71436 168
40.73447 210
40.75458 212
40.7747 221
40.79481 203
40.81493 213
40.83504 198
40.85515 209
40.87527 233
40.89538 191
40.91549 190
40.93561 180
40.95572 194
40.97584 198
40.99595 196
41.01606 192
41.03618 195
41.05629 221
41.0764 203
41.09652 187
41.11663 225
41.13675 197
41.15686 186
41.17697 179
41.19709 211
41.2172 200
41.23731 229
41.25743 204
41.27754 206
41.29765 229
41.31777 206
41.33788 197
41.358 187
41.37811 196
41.39822 200
41.41834 196
41.43845 200
41.45856 232
41.47868 206
41.49879 190
41.51891 216
41.53902 203
41.55913 215
41.57925 219
41.59936 222
41.61947 267
41.63959 257
41.6597 260
41.67982 237
41.69993 260
41.72004 282
41.74016 253
41.76027 248
41.78038 255
41.8005 251
41.82061 245
41.84072 266
41.86084 213
41.88095 183
41.90107 211
41.92118 209
41.94129 249
41.96141 224
41.98152 222
42.00163 227
42.02175 249
42.04186 262
42.06198 256
42.08209 288
42.1022 294
42.12232 297
42.14243 336
42.16254 336
42.18266 415
42.20277 393
42.22289 490
42.243 536
42.26311 605
42.28323 686
42.30334 803
42.32345 900
42.34357 1003
42.36368 1068
42.38379 1127
42.40391 1054
42.42402 1030
42.44414 875
42.46425 830
42.48436 719
42.50448 658
42.52459 563
42.5447 492
42.56482 401
42.58493 332
42.60505 296
42.62516 249
42.64527 268
42.66539 244
42.6855 263
42.70561 240
42.72573 275
42.74584 270
42.76595 280
42.78607 242
42.80618 241
42.8263 261
42.84641 251
42.86652 214
42.88664 250
42.90675 255
42.92686 217
42.94698 220
42.96709 217
42.98721 220
43.00732 217
43.02743 197
43.04755 195
43.06766 181
43.08777 175
43.10789 202
43.128 188
43.14812 187
43.16823 200
43.18834 201
43.20846 176
43.22857 193
43.24868 173
43.2688 172
43.28891 171
43.30902 158
43.32914 149
43.34925 159
43.36937 168
43.38948 190
43.40959 172
43.42971 177
43.44982 160
43.46993 173
43.49005 173
43.51016 181
43.53028 188
43.55039 163
43.5705 198
43.59062 175
43.61073 181
43.63084 205
43.65096 181
43.67107 191
43.69119 155
43.7113 186
43.73141 176
43.75153 163
43.77164 176
43.79175 157
43.81187 174
43.83198 176
43.85209 174
43.87221 172
43.89232 179
43.91244 167
43.93255 163
43.95266 180
43.97278 185
43.99289 181
44.013 161
44.03312 168
44.05323 165
44.07335 185
44.09346 175
44.11357 186
44.13369 166
44.1538 182
44.17391 182
44.19403 206
44.21414 155
44.23426 178
44.25437 176
44.27448 172
44.2946 201
44.31471 165
44.33482 164
44.35494 204
44.37505 159
44.39516 173
44.41528 170
44.43539 190
44.45551 195
44.47562 172
44.49573 177
44.51585 169
44.53596 193
44.55607 189
44.57619 172
44.5963 176
44.61642 186
44.63653 215
44.65664 168
44.67676 199
44.69687 191
44.71698 215
44.7371 199
44.75721 183
44.77732 182
44.79744 192
44.81755 191
44.83767 185
44.85778 181
44.87789 174
44.89801 177
44.91812 167
44.93823 197
44.95835 202
44.97846 208
44.99858 202
45.01869 158
45.0388 212
45.05892 213
45.07903 189
45.09914 170
45.11926 186
45.13937 208
45.15949 182
45.1796 206
45.19971 185
45.21983 184
45.23994 197
45.26005 193
45.28017 198
45.30028 195
45.32039 214
45.34051 194
45.36062 200
45.38074 207
45.40085 217
45.42096 227
45.44108 251
45.46119 297
45.4813 266
45.50142 292
45.52153 353
45.54165 338
45.56176 351
45.58187 406
45.60199 477
45.6221 540
45.64221 561
45.66233 620
45.68244 706
45.70256 768
45.72267 826
45.74278 762
45.7629 694
45.78301 710
45.80312 601
45.82324 523
45.84335 469
45.86346 462
45.88358 394
45.90369 377
45.92381 283
45.94392 236
45.96403 226
45.98415 211
46.00426 196
46.02437 220
46.04449 194
46.0646 213
46.08472 195
46.10483 181
46.12494 180
46.14506 196
46.16517 172
46.18528 179
46.2054 187
46.22551 159
46.24563 174
46.26574 175
46.28585 186
46.30597 182
46.32608 159
46.34619 187
46.36631 160
46.38642 148
46.40653 163
46.42665 219
46.44676 170
46.46688 164
46.48699 160
46.5071 192
46.52722 183
46.54733 167
46.56744 163
46.58756 180
46.60767 169
46.62779 178
46.6479 175
46.66801 164
46.68813 154
46.70824 178
46.72835 183
46.74847 178
46.76858 190
46.78869 207
46.80881 197
46.82892 181
46.84904 182
46.86915 190
46.88926 171
46.90938 177
46.92949 177
46.9496 178
46.96972 163
46.98983 178
47.00995 176
47.03006 178
47.05017 180
47.07029 191
47.0904 169
47.11051 184
47.13063 172
47.15074 198
47.17086 175
47.19097 173
47.21108 173
47.2312 172
47.25131 188
47.27142 188
47.29154 196
47.31165 201
47.33176 201
47.35188 185
47.37199 188
47.39211 184
47.41222 192
47.43233 187
47.45245 190
47.47256 190
47.49267 200
47.51279 200
47.5329 180
47.55302 202
47.57313 172
47.59324 170
47.61336 177
47.63347 173
47.65358 191
47.6737 164
47.69381 152
47.71393 170
47.73404 144
47.75415 169
47.77427 168
47.79438 164
47.81449 172
47.83461 151
47.85472 182
47.87483 170
47.89495 153
47.91506 176
47.93518 183
47.95529 164
47.9754 163
47.99552 175
48.01563 185
48.03574 184
48.05586 183
48.07597 170
48.09609 190
48.1162 175
48.13631 168
48.15643 163
48.17654 187
48.19665 187
48.21677 192
48.23688 198
48.257 181
48.27711 195
48.29722 187
48.31734 174
48.33745 189
48.35756 175
48.37768 178
48.39779 174
48.4179 178
48.43802 175
48.45813 195
48.47825 202
48.49836 176
48.51847 183
48.53859 167
48.5587 155
48.57881 168
48.59893 212
48.61904 194
48.63916 190
48.65927 203
48.67938 158
48.6995 169
48.71961 155
48.73972 194
48.75984 186
48.77995 219
48.80006 215
48.82018 199
48.84029 190
48.86041 182
48.88052 208
48.90063 216
48.92075 230
48.94086 212
48.96097 216
48.98109 218
49.0012 211
49.02132 234
49.04143 268
49.06154 237
49.08166 238
49.10177 219
49.12188 234
49.142 255
49.16211 253
49.18223 259
49.20234 235
49.22245 214
49.24257 213
49.26268 208
49.28279 216
49.30291 200
49.32302 196
49.34313 199
49.36325 202
49.38336 223
49.40348 168
49.42359 199
49.4437 192
49.46382 211
49.48393 216
49.50404 224
49.52416 221
49.54427 234
49.56439 234
49.5845 241
49.60461 272
49.62473 269
49.64484 303
49.66495 300
49.68507 358
49.70518 324
49.7253 376
49.74541 394
49.76552 433
49.78564 429
49.80575 524
49.82586 557
49.84598 618
49.86609 702
49.8862 773
49.90632 901
49.92643 992
49.94655 1202
49.96666 1332
49.98677 1595
50.00689 1826
50.027 2105
50.04711 2301
50.06723 2324
50.08734 2288
50.10746 2183
50.12757 2110
50.14768 1658
50.1678 1398
50.18791 1316
50.20802 1185
50.22814 1151
50.24825 961
50.26837 778
50.28848 602
50.30859 433
50.32871 367
50.34882 317
50.36893 278
50.38905 320
50.40916 287
50.42927 312
50.44939 299
50.4695 326
50.48962 318
50.50973 323
50.52984 329
50.54996 339
50.57007 303
50.59018 315
50.6103 293
50.63041 308
50.65053 349
50.67064 286
50.69075 295
50.71087 268
50.73098 281
50.75109 221
50.77121 229
50.79132 236
50.81143 233
50.83155 215
50.85166 207
50.87178 214
50.89189 190
50.912 168
50.93212 185
50.95223 192
50.97234 184
50.99246 188
51.01257 204
51.03269 195
51.0528 204
51.07291 185
51.09303 218
51.11314 190
51.13325 210
51.15337 225
51.17348 203
51.1936 238
51.21371 265
51.23382 266
51.25394 235
51.27405 238
51.29416 237
51.31428 244
51.33439 227
51.3545 228
51.37462 205
51.39473 187
51.41485 237
51.43496 187
51.45507 180
51.47519 185
51.4953 165
51.51541 156
51.53553 178
51.55564 180
51.57576 149
51.59587 165
51.61598 190
51.6361 142
51.65621 149
51.67632 144
51.69644 172
51.71655 165
51.73667 132
51.75678 152
51.77689 170
51.79701 159
51.81712 157
51.83723 163
51.85735 153
51.87746 161
51.89757 151
51.91769 154
51.9378 157
51.95792 165
51.97803 163
51.99814 169
52.01826 139
52.03837 164
52.05848 156
52.0786 163
52.09871 161
52.11883 187
52.13894 171
52.15905 152
52.17917 194
52.19928 186
52.21939 198
52.23951 191
52.25962 162
52.27974 169
52.29985 139
52.31996 152
52.34008 164
52.36019 178
52.3803 188
52.40042 139
52.42053 177
52.44064 188
52.46076 185
52.48087 178
52.50099 189
52.5211 172
52.54121 209
52.56133 201
52.58144 193
52.60155 191
52.62167 172
52.64178 190
52.6619 172
52.68201 203
52.70212 189
52.72224 160
52.74235 178
52.76246 193
52.78258 170
52.80269 203
52.8228 176
52.84292 182
52.86303 188
52.88315 184
52.90326 179
52.92337 192
52.94349 191
52.9636 194
52.98371 195
53.00383 176
53.02394 179
53.04406 201
53.06417 177
53.08428 186
53.1044 202
53.12451 173
53.14462 186
53.16474 169
53.18485 175
53.20497 199
53.22508 195
53.24519 183
53.26531 186
53.28542 167
53.30553 171
53.32565 183
53.34576 184
53.36587 155
53.38599 211
53.4061 166
53.42622 185
53.44633 183
53.46644 186
53.48656 189
53.50667 179
53.52678 179
53.5469 159
53.56701 166
53.58713 158
53.60724 179
53.62735 174
53.64747 181
53.66758 210
53.68769 178
53.70781 190
53.72792 172
53.74804 157
53.76815 186
53.78826 177
53.80838 189
53.82849 194
53.8486 187
53.86872 197
53.88883 204
53.90894 160
53.92906 205
53.94917 198
53.96929 186
53.9894 189
54.00951 176
54.02963 164
54.04974 198
54.06985 165
54.08997 199
54.11008 198
54.1302 201
54.15031 183
54.17042 196
54.19054 179
54.21065 220
54.23076 215
54.25088 207
54.27099 228
54.29111 217
54.31122 213
54.33133 226
54.35145 208
54.37156 239
54.39167 222
54.41179 197
54.4319 214
54.45201 221
54.47213 203
54.49224 245
54.51236 251
54.53247 259
54.55258 254
54.5727 276
54.59281 291
54.61292 351
54.63304 354
54.65315 417
54.67327 478
54.69338 506
54.71349 565
54.73361 615
54.75372 643
54.77383 789
54.79395 834
54.81406 763
54.83417 743
54.85429 693
54.8744 615
54.89452 550
54.91463 512
54.93474 587
54.95486 490
54.97497 479
54.99508 456
55.0152 369
55.03531 339
55.05543 294
55.07554 290
55.09565 286
55.11577 285
55.13588 319
55.15599 342
55.17611 373
55.19622 367
55.21634 415
55.23645 436
55.25656 435
55.27668 419
55.29679 460
55.3169 384
55.33702 364
55.35713 340
55.37724 336
55.39736 321
55.41747 290
55.43759 288
55.4577 274
55.47781 232
55.49793 233
55.51804 221
55.53815 199
55.55827 204
55.57838 170
55.5985 165
55.61861 167
55.63872 180
55.65884 194
55.67895 168
55.69906 170
55.71918 155
55.73929 168
55.75941 159
55.77952 152
55.79963 171
55.81975 180
55.83986 166
55.85997 209
55.88009 174
55.9002 185
55.92031 183
55.94043 161
55.96054 179
55.98066 178
56.00077 185
56.02088 176
56.041 149
56.06111 172
56.08122 150
56.10134 163
56.12145 136
56.14157 171
56.16168 161
56.18179 158
56.20191 172
56.22202 142
56.24213 178
56.26225 150
56.28236 156
56.30248 158
56.32259 141
56.3427 179
56.36282 155
56.38293 184
56.40304 160
56.42316 155
56.44327 147
56.46338 169
56.4835 146
56.50361 154
56.52373 141
56.54384 162
56.56395 150
56.58407 166
56.60418 154
56.62429 143
56.64441 168
56.66452 151
56.68464 142
56.70475 145
56.72486 163
56.74498 180
56.76509 162
56.7852 180
56.80532 156
56.82543 173
56.84554 179
56.86566 142
56.88577 188
56.90589 161
56.926 139
56.94611 162
56.96623 167
56.98634 183
57.00645 197
57.02657 163
57.04668 179
57.0668 183
57.08691 189
57.10702 185
57.12714 176
57.14725 184
57.16736 210
57.18748 208
57.20759 178
57.22771 193
57.24782 198
57.26793 184
57.28805 186
57.30816 196
57.32827 194
57.34839 182
57.3685 193
57.38861 212
57.40873 184
57.42884 175
57.44896 172
57.46907 182
57.48918 174
57.5093 184
57.52941 184
57.54952 169
57.56964 165
57.58975 160
57.60987 155
57.62998 139
57.65009 165
57.67021 167
57.69032 165
57.71043 178
57.73055 149
57.75066 154
57.77078 172
57.79089 163
57.811 170
57.83112 162
57.85123 166
57.87134 143
57.89146 161
57.91157 134
57.93168 184
57.9518 149
57.97191 177
57.99203 146
58.01214 156
58.03225 145
58.05237 168
58.07248 172
58.09259 178
58.11271 152
58.13282 170
58.15294 167
58.17305 167
58.19316 152
58.21328 157
58.23339 165
58.2535 172
58.27362 136
58.29373 148
58.31385 160
58.33396 148
58.35407 157
58.37419 182
58.3943 184
58.41441 163
58.43453 178
58.45464 195
58.47475 176
58.49487 155
58.51498 182
58.5351 179
58.55521 177
58.57532 175
58.59544 175
58.61555 180
58.63566 172
58.65578 183
58.67589 173
58.69601 170
58.71612 170
58.73623 177
58.75635 184
58.77646 159
58.79657 165
58.81669 149
58.8368 155
58.85691 174
58.87703 154
58.89714 154
58.91726 178
58.93737 160
58.95748 173
58.9776 159
58.99771 171
59.01782 155
59.03794 144
59.05805 178
59.07817 188
59.09828 167
59.11839 175
59.13851 184
59.15862 156
59.17873 171
59.19885 200
59.21896 177
59.23908 171
59.25919 197
59.2793 217
59.29942 187
59.31953 180
59.33964 188
59.35976 207
59.37987 197
59.39998 210
59.4201 204
59.44021 188
59.46033 250
59.48044 246
59.50055 268
59.52067 249
59.54078 284
59.56089 287
59.58101 311
59.60112 319
59.62124 362
59.64135 384
59.66146 476
59.68158 491
59.70169 514
59.7218 641
59.74192 749
59.76203 869
59.78215 983
59.80226 1119
59.82237 1328
59.84249 1397
59.8626 1505
59.88271 1490
59.90283 1475
59.92294 1401
59.94305 1229
59.96317 1125
59.98328 934
60.0034 861
60.02351 925
60.04362 804
60.06374 794
60.08385 705
60.10396 593
60.12408 477
60.14419 411
60.16431 337
60.18442 277
60.20453 251
60.22465 265
60.24476 245
60.26487 222
60.28499 243
60.3051 202
60.32522 208
60.34533 195
60.36544 211
60.38556 204
60.40567 209
60.42578 187
60.4459 197
60.46601 201
60.48612 172
60.50624 162
60.52635 203
60.54647 178
60.56658 170
60.58669 171
60.60681 193
60.62692 155
60.64703 161
60.66715 173
60.68726 180
60.70738 163
60.72749 164
60.7476 170
60.76772 186
60.78783 174
60.80794 184
60.82806 182
60.84817 142
60.86828 171
60.8884 158
60.90851 177
60.92863 175
60.94874 172
60.96885 171
60.98897 173
61.00908 153
61.02919 155
61.04931 169
61.06942 171
61.08954 176
61.10965 199
61.12976 180
61.14988 183
61.16999 197
61.1901 182
61.21022 161
61.23033 177
61.25045 184
61.27056 166
61.29067 153
61.31079 190
61.3309 175
61.35101 169
61.37113 170
61.39124 188
61.41135 185
61.43147 175
61.45158 162
61.4717 183
61.49181 185
61.51192 192
61.53204 163
61.55215 179
61.57226 202
61.59238 175
61.61249 177
61.63261 193
61.65272 199
61.67283 164
61.69295 173
61.71306 200
61.73317 197
61.75329 210
61.7734 181
61.79352 190
61.81363 191
61.83374 188
61.85386 193
61.87397 223
61.89408 195
61.9142 172
61.93431 187
61.95442 185
61.97454 184
61.99465 199
62.01477 201
62.03488 212
62.05499 198
62.07511 186
62.09522 204
62.11533 185
62.13545 200
62.15556 186
62.17568 213
62.19579 211
62.2159 186
62.23602 172
62.25613 181
62.27624 184
62.29636 155
62.31647 175
62.33659 181
62.3567 189
62.37681 160
62.39693 193
62.41704 167
62.43715 159
62.45727 181
62.47738 166
62.49749 178
62.51761 163
62.53772 151
62.55784 178
62.57795 170
62.59806 165
62.61818 141
62.63829 178
62.6584 187
62.67852 155
62.69863 185
62.71875 164
62.73886 188
62.75897 192
62.77909 174
62.7992 179
62.81931 166
62.83943 177
62.85954 158
62.87965 174
62.89977 177
62.91988 166
62.94 178
62.96011 186
62.98022 162
63.00034 202
63.02045 176
63.04056 161
63.06068 181
63.08079 179
63.10091 172
63.12102 154
63.14113 188
63.16125 173
63.18136 162
63.20147 165
63.22159 154
63.2417 168
63.26182 184
63.28193 160
63.30204 161
63.32216 193
63.34227 186
63.36238 170
63.3825 164
63.40261 179
63.42272 189
63.44284 187
63.46295 197
63.48307 174
63.50318 161
63.52329 179
63.54341 200
63.56352 202
63.58363 206
63.60375 224
63.62386 213
63.64398 210
63.66409 213
63.6842 231
63.70432 242
63.72443 234
63.74454 250
63.76466 286
63.78477 260
63.80489 282
63.825 298
63.84511 291
63.86523 352
63.88534 367
63.90545 430
63.92557 406
63.94568 441
63.96579 439
63.98591 447
64.00602 373
64.02614 343
64.04625 364
64.06636 317
64.08648 311
64.10659 319
64.1267 304
64.14682 312
64.16693 287
64.18705 217
64.20716 248
64.22727 183
64.24739 197
64.2675 180
64.28761 178
64.30773 176
64.32784 173
64.34796 175
64.36807 193
64.38818 145
64.4083 178
64.42841 163
64.44852 126
64.46864 183
64.48875 153
64.50886 161
64.52898 164
64.54909 164
64.56921 172
64.58932 142
64.60943 181
64.62955 132
64.64966 168
64.66977 152
64.68989 141
64.71 144
64.73012 178
64.75023 165
64.77034 172
64.79046 165
64.81057 165
64.83068 187
64.8508 190
64.87091 162
64.89102 160
64.91114 177
64.93125 165
64.95137 174
64.97148 165
64.99159 160
65.01171 174
65.03182 160
65.05193 193
65.07205 162
65.09216 188
65.11228 154
65.13239 170
65.1525 184
65.17262 171
65.19273 164
65.21284 172
65.23296 189
65.25307 163
65.27319 156
65.2933 175
65.31341 159
65.33353 185
65.35364 189
65.37375 163
65.39387 179
65.41398 183
65.43409 165
65.45421 161
65.47432 165
65.49444 177
65.51455 185
65.53466 167
65.55478 167
65.57489 193
65.595 194
65.61512 178
65.63523 224
65.65535 195
65.67546 219
65.69557 227
65.71569 222
65.7358 222
65.75591 228
65.77603 188
65.79614 189
65.81626 181
65.83637 196
65.85648 170
65.8766 188
65.89671 218
65.91682 169
65.93694 180
65.95705 176
65.97716 187
65.99728 172
66.01739 165
66.03751 139
66.05762 176
66.07773 181
66.09785 162
66.11796 166
66.13807 182
66.15819 169
66.1783 163
66.19842 157
66.21853 179
66.23864 163
66.25876 177
66.27887 179
66.29898 184
66.3191 164
66.33921 166
66.35933 160
66.37944 161
66.39955 173
66.41967 169
66.43978 174
66.45989 154
66.48001 153
66.50012 180
66.52023 159
66.54035 156
66.56046 167
66.58058 171
66.60069 162
66.6208 162
66.64092 168
66.66103 183
66.68114 157
66.70126 166
66.72137 165
66.74149 164
66.7616 155
66.78171 144
66.80183 157
66.82194 187
66.84205 168
66.86217 188
66.88228 175
66.90239 180
66.92251 174
66.94262 171
66.96274 176
66.98285 191
67.00296 179
67.02308 187
67.04319 179
67.0633 195
67.08342 191
67.10353 190
67.12365 193
67.14376 214
67.16387 181
67.18399 205
67.2041 192
67.22421 195
67.24433 209
67.26444 234
67.28456 216
67.30467 239
67.32478 269
67.3449 234
67.36501 268
67.38512 292
67.40524 275
67.42535 294
67.44546 337
67.46558 372
67.48569 437
67.50581 472
67.52592 504
67.54603 596
67.56615 639
67.58626 795
67.60637 864
67.62649 907
67.6466 961
67.66672 973
67.68683 932
67.70694 873
67.72706 874
67.74717 791
67.76728 761
67.7874 705
67.80751 688
67.82763 756
67.84774 716
67.86785 807
67.88797 784
67.90808 815
67.92819 842
67.94831 853
67.96842 966
67.98853 987
68.00865 1108
68.02876 1148
68.04888 1319
68.06899 1340
68.0891 1303
68.10922 1264
68.12933 1193
68.14944 1195
68.16956 1118
68.18967 1110
68.20979 1125
68.2299 1178
68.25001 1150
68.27013 1119
68.29024 981
68.31035 917
68.33047 767
68.35058 645
68.3707 585
68.39081 500
68.41092 503
68.43104 507
68.45115 464
68.47126 433
68.49138 396
68.51149 311
68.5316 285
68.55172 263
68.57183 262
68.59195 238
68.61206 211
68.63217 209
68.65229 200
68.6724 217
68.69251 187
68.71263 183
68.73274 187
68.75286 159
68.77297 199
68.79308 171
68.8132 176
68.83331 187
68.85342 178
68.87354 200
68.89365 188
68.91376 183
68.93388 169
68.95399 164
68.97411 155
68.99422 167
69.01433 152
69.03445 194
69.05456 178
69.07467 158
69.09479 162
69.1149 176
69.13502 191
69.15513 167
69.17524 197
69.19536 191
69.21547 181
69.23558 185
69.2557 196
69.27581 198
69.29593 195
69.31604 164
69.33615 145
69.35627 198
69.37638 153
69.39649 205
69.41661 184
69.43672 180
69.45683 176
69.47695 170
69.49706 163
69.51718 166
69.53729 167
69.5574 147
69.57752 151
69.59763 180
69.61774 159
69.63786 165
69.65797 145
69.67809 172
69.6982 176
69.71831 171
69.73843 152
69.75854 164
69.77865 174
69.79877 164
69.81888 175
69.839 174
69.85911 153
69.87922 162
69.89934 164
69.91945 163
69.93956 178
69.95968 156
69.97979 145
69.9999 143
70.02002 173
70.04013 159
70.06025 153
70.08036 146
70.10047 136
70.12059 140
70.1407 144
70.16081 168
70.18093 163
70.20104 139
70.22116 138
70.24127 147
70.26138 146
70.2815 159
70.30161 153
70.32172 148
70.34184 156
70.36195 131
70.38207 127
70.40218 145
70.42229 130
70.44241 145
70.46252 136
70.48263 152
70.50275 150
70.52286 160
70.54297 115
70.56309 157
70.5832 146
70.60332 133
70.62343 129
70.64354 161
70.66366 144
70.68377 149
70.70388 140
70.724 161
70.74411 165
70.76423 144
70.78434 143
70.80445 152
70.82457 146
70.84468 153
70.86479 151
70.88491 159
70.90502 153
70.92513 181
70.94525 159
70.96536 155
70.98548 163
71.00559 149
71.0257 155
71.04582 179
71.06593 145
71.08604 163
71.10616 169
71.12627 158
71.14639 161
71.1665 163
71.18661 196
71.20673 135
71.22684 176
71.24695 153
71.26707 145
71.28718 166
71.3073 184
71.32741 167
71.34752 161
71.36764 173
71.38775 165
71.40786 161
71.42798 151
71.44809 150
71.4682 161
71.48832 141
71.50843 136
71.52855 153
71.54866 146
71.56877 153
71.58889 156
71.609 157
71.62911 156
71.64923 124
71.66934 171
71.68946 139
71.70957 158
71.72968 133
71.7498 142
71.76991 164
71.79002 138
71.81014 147
71.83025 164
71.85037 163
71.87048 153
71.89059 141
71.91071 143
71.93082 144
71.95093 129
71.97105 167
71.99116 151
72.01127 138
72.03139 144
72.0515 133
72.07162 156
72.09173 148
72.11184 132
72.13196 149
72.15207 147
72.17218 141
72.1923 159
72.21241 158
72.23253 153
72.25264 131
72.27275 142
72.29287 156
72.31298 153
72.33309 169
72.35321 148
72.37332 151
72.39344 147
72.41355 148
72.43366 157
72.45378 150
72.47389 141
72.494 152
72.51412 154
72.53423 146
72.55434 158
72.57446 143
72.59457 139
72.61469 149
72.6348 164
72.65491 156
72.67503 161
72.69514 148
72.71525 171
72.73537 155
72.75548 150
72.7756 156
72.79571 163
72.81582 150
72.83594 168
72.85605 163
72.87616 176
72.89628 163
72.91639 175
72.9365 151
72.95662 189
72.97673 176
72.99685 168
73.01696 170
73.03707 176
73.05719 194
73.0773 176
73.09741 188
73.11753 194
73.13764 199
73.15776 214
73.17787 227
73.19798 227
73.2181 242
73.23821 276
73.25832 295
73.27844 307
73.29855 370
73.31867 360
73.33878 402
73.35889 421
73.37901 424
73.39912 386
73.41923 390
73.43935 398
73.45946 338
73.47957 330
73.49969 304
73.5198 273
73.53992 296
73.56003 269
73.58014 317
73.60026 289
73.62037 281
73.64048 261
73.6606 256
73.68071 236
73.70083 219
73.72094 189
73.74105 179
73.76117 180
73.78128 159
73.80139 161
73.82151 163
73.84162 182
73.86174 157
73.88185 175
73.90196 171
73.92208 191
73.94219 154
73.9623 168
73.98242 134
74.00253 144
74.02264 147
74.04276 169
74.06287 164
74.08299 151
74.1031 148
74.12321 139
74.14333 144
74.16344 174
74.18355 150
74.20367 150
74.22378 154
74.2439 156
74.26401 137
74.28412 162
74.30424 148
74.32435 146
74.34446 178
74.36458 146
74.38469 140
74.40481 163
74.42492 168
74.44503 152
74.46515 167
74.48526 154
74.50537 144
74.52549 154
74.5456 162
74.56571 156
74.58583 163
74.60594 169
74.62606 156
74.64617 148
74.66628 157
74.6864 182
74.70651 162
74.72662 162
74.74674 169
74.76685 174
74.78697 182
74.80708 163
74.82719 161
74.84731 153
74.86742 127
74.88753 156
74.90765 159
74.92776 168
74.94787 169
74.96799 173
74.9881 158
75.00822 181
