3.00117 20360
3.02128 20233
3.0414 19559
3.06151 19113
3.08162 18272
3.10174 18081
3.12185 17633
3.14197 16958
3.16208 16492
3.18219 15732
3.20231 16005
3.22242 14908
3.24253 14553
3.26265 14358
3.28276 13636
3.30288 13513
3.32299 12928
3.3431 12504
3.36322 12206
3.38333 11670
3.40344 11285
3.42356 10821
3.44367 10464
3.46379 10302
3.4839 10020
3.50401 9688
3.52413 9347
3.54424 8917
3.56435 8608
3.58447 8322
3.60458 8199
3.62469 7610
3.64481 7418
3.66492 7235
3.68504 6900
3.70515 6862
3.72526 6327
3.74538 6156
3.76549 5854
3.7856 5415
3.80572 5652
3.82583 5252
3.84595 4877
3.86606 4764
3.88617 4564
3.90629 4426
3.9264 4154
3.94651 4234
3.96663 3795
3.98674 3659
4.00686 3583
4.02697 3392
4.04708 3279
4.0672 3120
4.08731 2923
4.10742 2871
4.12754 2832
4.14765 2655
4.16776 2489
4.18788 2445
4.20799 2365
4.22811 2335
4.24822 2164
4.26833 2115
4.28845 1953
4.30856 1893
4.32867 1913
4.34879 1897
4.3689 1852
4.38902 1709
4.40913 1750
4.42924 1803
4.44936 1532
4.46947 1602
4.48958 1530
4.5097 1564
4.52981 1627
4.54992 1416
4.57004 1528
4.59015 1345
4.61027 1374
4.63038 1443
4.65049 1332
4.67061 1353
4.69072 1229
4.71083 1237
4.73095 1173
4.75106 1163
4.77118 1222
4.79129 1070
4.8114 1060
4.83152 1109
4.85163 1017
4.87174 1043
4.89186 1043
4.91197 1014
4.93209 1039
4.9522 952
4.97231 967
4.99243 840
5.01254 957
5.03265 971
5.05277 802
5.07288 859
5.09299 923
5.11311 830
5.13322 854
5.15334 772
5.17345 770
5.19356 781
5.21368 710
5.23379 799
5.2539 711
5.27402 749
5.29413 777
5.31425 776
5.33436 703
5.35447 600
5.37459 658
5.3947 628
5.41481 632
5.43493 627
5.45504 579
5.47516 619
5.49527 613
5.51538 555
5.5355 593
5.55561 594
5.57572 589
5.59584 545
5.61595 555
5.63606 563
5.65618 502
5.67629 534
5.69641 568
5.71652 540
5.73663 510
5.75675 521
5.77686 459
5.79697 458
5.81709 445
5.8372 487
5.85732 433
5.87743 515
5.89754 426
5.91766 443
5.93777 442
5.95788 459
5.978 436
5.99811 453
6.01823 477
6.03834 414
6.05845 422
6.07857 433
6.09868 424
6.11879 468
6.13891 448
6.15902 457
6.17913 428
6.19925 424
6.21936 446
6.23948 394
6.25959 433
6.2797 367
6.29982 388
6.31993 359
6.34004 453
6.36016 369
6.38027 378
6.40039 374
6.4205 417
6.44061 399
6.46073 421
6.48084 418
6.50095 412
6.52107 404
6.54118 411
6.56129 379
6.58141 424
6.60152 390
6.62164 392
6.64175 402
6.66186 388
6.68198 351
6.70209 407
6.7222 391
6.74232 394
6.76243 373
6.78255 381
6.80266 404
6.82277 390
6.84289 368
6.863 370
6.88311 394
6.90323 338
6.92334 425
6.94346 377
6.96357 377
6.98368 382
7.0038 393
7.02391 363
7.04402 381
7.06414 374
7.08425 390
7.10436 391
7.12448 377
7.14459 421
7.16471 407
7.18482 351
7.20493 412
7.22505 390
7.24516 405
7.26527 389
7.28539 361
7.3055 428
7.32562 336
7.34573 395
7.36584 377
7.38596 383
7.40607 365
7.42618 392
7.4463 375
7.46641 394
7.48653 348
7.50664 377
7.52675 370
7.54687 345
7.56698 412
7.58709 355
7.60721 372
7.62732 327
7.64743 375
7.66755 340
7.68766 353
7.70778 373
7.72789 372
7.748 354
7.76812 404
7.78823 364
7.80834 389
7.82846 355
7.84857 366
7.86869 358
7.8888 377
7.90891 333
7.92903 351
7.94914 364
7.96925 354
7.98937 376
8.00948 369
8.0296 330
8.04971 356
8.06982 373
8.08994 355
8.11005 379
8.13016 363
8.15028 361
8.17039 388
8.1905 371
8.21062 375
8.23073 398
8.25085 366
8.27096 336
8.29107 400
8.31119 384
8.3313 354
8.35141 366
8.37153 369
8.39164 356
8.41176 331
8.43187 381
8.45198 401
8.4721 368
8.49221 411
8.51232 411
8.53244 413
8.55255 380
8.57266 379
8.59278 330
8.61289 372
8.63301 370
8.65312 372
8.67323 395
8.69335 370
8.71346 403
8.73357 382
8.75369 441
8.7738 409
8.79392 384
8.81403 397
8.83414 396
8.85426 362
8.87437 366
8.89448 388
8.9146 367
8.93471 371
8.95483 383
8.97494 353
8.99505 377
9.01517 358
9.03528 388
9.05539 387
9.07551 350
9.09562 415
9.11573 378
9.13585 389
9.15596 400
9.17608 386
9.19619 355
9.2163 379
9.23642 337
9.25653 346
9.27664 343
9.29676 365
9.31687 374
9.33699 383
9.3571 374
9.37721 338
9.39733 354
9.41744 331
9.43755 332
9.45767 361
9.47778 341
9.4979 363
9.51801 349
9.53812 343
9.55824 340
9.57835 368
9.59846 320
9.61858 315
9.63869 324
9.6588 361
9.67892 361
9.69903 342
9.71915 373
9.73926 354
9.75937 400
9.77949 298
9.7996 336
9.81971 338
9.83983 350
9.85994 324
9.88006 352
9.90017 332
9.92028 342
9.9404 347
9.96051 331
9.98062 335
10.00074 375
10.02085 349
10.04097 364
10.06108 358
10.08119 332
10.10131 329
10.12142 335
10.14153 356
10.16165 344
10.18176 336
10.20187 306
10.22199 331
10.2421 339
10.26222 385
10.28233 348
10.30244 343
10.32256 337
10.34267 356
10.36278 342
10.3829 342
10.40301 343
10.42313 351
10.44324 319
10.46335 314
10.48347 360
10.50358 345
10.52369 350
10.54381 352
10.56392 321
10.58403 304
10.60415 324
10.62426 361
10.64438 328
10.66449 337
10.6846 363
10.70472 359
10.72483 328
10.74494 363
10.76506 410
10.78517 317
10.80529 343
10.8254 343
10.84551 354
10.86563 347
10.88574 352
10.90585 334
10.92597 405
10.94608 356
10.9662 345
10.98631 342
11.00642 343
11.02654 337
11.04665 344
11.06676 356
11.08688 355
11.10699 338
11.1271 375
11.14722 370
11.16733 357
11.18745 335
11.20756 342
11.22767 318
11.24779 338
11.2679 348
11.28801 321
11.30813 360
11.32824 371
11.34836 375
11.36847 379
11.38858 366
11.4087 372
11.42881 367
11.44892 390
11.46904 381
11.48915 349
11.50927 378
11.52938 387
11.54949 385
11.56961 368
11.58972 326
11.60983 357
11.62995 322
11.65006 361
11.67017 352
11.69029 353
11.7104 308
11.73052 405
11.75063 372
11.77074 361
11.79086 363
11.81097 358
11.83108 332
11.8512 347
11.87131 369
11.89143 374
11.91154 400
11.93165 362
11.95177 377
11.97188 368
11.99199 351
12.01211 373
12.03222 370
12.05234 370
12.07245 378
12.09256 374
12.11268 380
12.13279 354
12.1529 403
12.17302 379
12.19313 358
12.21324 366
12.23336 362
12.25347 358
12.27359 378
12.2937 398
12.31381 356
12.33393 356
12.35404 353
12.37415 352
12.39427 327
12.41438 390
12.4345 356
12.45461 346
12.47472 396
12.49484 354
12.51495 362
12.53506 323
12.55518 338
12.57529 338
12.5954 338
12.61552 323
12.63563 333
12.65575 324
12.67586 332
12.69597 307
12.71609 299
12.7362 344
12.75631 326
12.77643 343
12.79654 311
12.81666 298
12.83677 302
12.85688 332
12.877 314
12.89711 292
12.91722 308
12.93734 339
12.95745 283
12.97757 314
12.99768 333
13.01779 335
13.03791 342
13.05802 308
13.07813 318
13.09825 337
13.11836 352
13.13847 331
13.15859 328
13.1787 314
13.19882 327
13.21893 317
13.23904 356
13.25916 329
13.27927 298
13.29938 328
13.3195 341
13.33961 316
13.35973 314
13.37984 317
13.39995 297
13.42007 314
13.44018 362
13.46029 307
13.48041 291
13.50052 328
13.52064 352
13.54075 313
13.56086 361
13.58098 384
13.60109 349
13.6212 416
13.64132 332
13.66143 330
13.68154 354
13.70166 364
13.72177 337
13.74189 292
13.762 336
13.78211 327
13.80223 323
13.82234 333
13.84245 294
13.86257 381
13.88268 308
13.9028 290
13.92291 326
13.94302 301
13.96314 316
13.98325 315
14.00336 308
14.02348 287
14.04359 279
14.06371 328
14.08382 305
14.10393 276
14.12405 295
14.14416 284
14.16427 278
14.18439 281
14.2045 277
14.22461 295
14.24473 305
14.26484 306
14.28496 241
14.30507 286
14.32518 290
14.3453 256
14.36541 293
14.38552 295
14.40564 261
14.42575 265
14.44587 299
14.46598 268
14.48609 332
14.50621 326
14.52632 278
14.54643 273
14.56655 287
14.58666 271
14.60677 271
14.62689 289
14.647 275
14.66712 266
14.68723 290
14.70734 308
14.72746 275
14.74757 284
14.76768 296
14.7878 262
14.80791 281
14.82803 312
14.84814 328
14.86825 313
14.88837 339
14.90848 302
14.92859 298
14.94871 292
14.96882 287
14.98894 307
15.00905 317
15.02916 301
15.04928 317
15.06939 321
15.0895 307
15.10962 307
15.12973 331
15.14984 316
15.16996 296
15.19007 311
15.21019 272
15.2303 336
15.25041 299
15.27053 307
15.29064 254
15.31075 256
15.33087 256
15.35098 270
15.3711 289
15.39121 238
15.41132 289
15.43144 261
15.45155 293
15.47166 305
15.49178 241
15.51189 310
15.53201 275
15.55212 281
15.57223 291
15.59235 261
15.61246 277
15.63257 303
15.65269 270
15.6728 321
15.69291 273
15.71303 291
15.73314 293
15.75326 252
15.77337 301
15.79348 278
15.8136 302
15.83371 248
15.85382 273
15.87394 281
15.89405 303
15.91417 235
15.93428 274
15.95439 278
15.97451 289
15.99462 250
16.01473 265
16.03485 294
16.05496 291
16.07508 268
16.09519 273
16.1153 299
16.13542 270
16.15553 255
16.17564 270
16.19576 284
16.21587 281
16.23598 315
16.2561 275
16.27621 281
16.29633 301
16.31644 257
16.33655 266
16.35667 255
16.37678 247
16.39689 225
16.41701 254
16.43712 254
16.45724 273
16.47735 309
16.49746 261
16.51758 251
16.53769 257
16.5578 289
16.57792 284
16.59803 276
16.61814 290
16.63826 252
16.65837 251
16.67849 296
16.6986 269
16.71871 280
16.73883 307
16.75894 275
16.77905 266
16.79917 252
16.81928 271
16.8394 280
16.85951 251
16.87962 276
16.89974 274
16.91985 293
16.93996 302
16.96008 248
16.98019 259
17.00031 253
17.02042 281
17.04053 295
17.06065 261
17.08076 272
17.10087 268
17.12099 290
17.1411 301
17.16121 265
17.18133 294
17.20144 285
17.22156 297
17.24167 281
17.26178 276
17.2819 284
17.30201 277
17.32212 272
17.34224 275
17.36235 294
17.38247 296
17.40258 284
17.42269 242
17.44281 285
17.46292 254
17.48303 257
17.50315 272
17.52326 275
17.54338 271
17.56349 269
17.5836 276
17.60372 297
17.62383 288
17.64394 281
17.66406 284
17.68417 306
17.70428 330
17.7244 296
17.74451 295
17.76463 294
17.78474 271
17.80485 264
17.82497 280
17.84508 287
17.86519 299
17.88531 282
17.90542 302
17.92554 288
17.94565 305
17.96576 280
17.98588 297
18.00599 300
18.0261 283
18.04622 286
18.06633 278
18.08645 282
18.10656 258
18.12667 300
18.14679 252
18.1669 301
18.18701 306
18.20713 264
18.22724 271
18.24735 277
18.26747 294
18.28758 295
18.3077 276
18.32781 262
18.34792 266
18.36804 275
18.38815 246
18.40826 286
18.42838 304
18.44849 290
18.46861 257
18.48872 301
18.50883 282
18.52895 296
18.54906 283
18.56917 310
18.58929 266
18.6094 278
18.62951 273
18.64963 259
18.66974 290
18.68986 278
18.70997 304
18.73008 283
18.7502 269
18.77031 302
18.79042 307
18.81054 306
18.83065 300
18.85077 303
18.87088 297
18.89099 270
18.91111 315
18.93122 291
18.95133 299
18.97145 301
18.99156 288
19.01168 257
19.03179 231
19.0519 282
19.07202 293
19.09213 326
19.11224 329
19.13236 313
19.15247 304
19.17258 320
19.1927 323
19.21281 340
19.23293 299
19.25304 346
19.27315 339
19.29327 341
19.31338 337
19.33349 344
19.35361 333
19.37372 326
19.39384 299
19.41395 330
19.43406 353
19.45418 363
19.47429 371
19.4944 332
19.51452 403
19.53463 345
19.55475 371
19.57486 379
19.59497 383
19.61509 419
19.6352 499
19.65531 459
19.67543 477
19.69554 494
19.71565 528
19.73577 547
19.75588 562
19.776 604
19.79611 618
19.81622 634
19.83634 655
19.85645 556
19.87656 660
19.89668 654
19.91679 667
19.93691 559
19.95702 610
19.97713 574
19.99725 580
20.01736 586
20.03747 554
20.05759 554
20.0777 550
20.09782 557
20.11793 533
20.13804 503
20.15816 545
20.17827 522
20.19838 592
20.2185 570
20.23861 541
20.25872 499
20.27884 460
20.29895 553
20.31907 533
20.33918 555
20.35929 532
20.37941 557
20.39952 536
20.41963 536
20.43975 535
20.45986 543
20.47998 552
20.50009 592
20.5202 588
20.54032 570
20.56043 570
20.58054 624
20.60066 643
20.62077 655
20.64088 763
20.661 911
20.68111 1042
20.70123 1318
20.72134 1648
20.74145 2024
20.76157 2577
20.78168 3249
20.80179 3692
20.82191 3896
20.84202 3854
20.86214 3198
20.88225 2567
20.90236 1943
20.92248 1550
20.94259 1223
20.9627 1084
20.98282 1062
21.00293 1001
21.02305 994
21.04316 909
21.06327 818
21.08339 737
21.1035 642
21.12361 586
21.14373 588
21.16384 561
21.18395 557
21.20407 487
21.22418 579
21.2443 507
21.26441 515
21.28452 509
21.30464 521
21.32475 468
21.34486 498
21.36498 477
21.38509 461
21.40521 451
21.42532 470
21.44543 447
21.46555 452
21.48566 440
21.50577 473
21.52589 486
21.546 426
21.56612 449
21.58623 444
21.60634 423
21.62646 449
21.64657 465
21.66668 447
21.6868 458
21.70691 472
21.72702 413
21.74714 448
21.76725 393
21.78737 388
21.80748 422
21.82759 456
21.84771 454
21.86782 491
21.88793 455
21.90805 483
21.92816 537
21.94828 572
21.96839 607
21.9885 590
22.00862 576
22.02873 618
22.04884 553
22.06896 498
22.08907 438
22.10919 453
22.1293 406
22.14941 411
22.16953 449
22.18964 458
22.20975 461
22.22987 434
22.24998 450
22.27009 480
22.29021 458
22.31032 432
22.33044 385
22.35055 501
22.37066 434
22.39078 439
22.41089 438
22.431 449
22.45112 472
22.47123 462
22.49135 430
22.51146 454
22.53157 454
22.55169 466
22.5718 435
22.59191 406
22.61203 424
22.63214 427
22.65225 418
22.67237 430
22.69248 427
22.7126 413
22.73271 395
22.75282 369
22.77294 417
22.79305 383
22.81316 412
22.83328 379
22.85339 436
22.87351 416
22.89362 426
22.91373 403
22.93385 412
22.95396 440
22.97407 426
22.99419 465
23.0143 445
23.03442 456
23.05453 463
23.07464 447
23.09476 475
23.11487 525
23.13498 476
23.1551 519
23.17521 531
23.19532 496
23.21544 499
23.23555 481
23.25567 449
23.27578 450
23.29589 475
23.31601 478
23.33612 452
23.35623 428
23.37635 508
23.39646 469
23.41658 504
23.43669 556
23.4568 506
23.47692 521
23.49703 583
23.51714 512
23.53726 581
23.55737 637
23.57749 615
23.5976 565
23.61771 529
23.63783 512
23.65794 471
23.67805 513
23.69817 493
23.71828 514
23.73839 462
23.75851 488
23.77862 487
23.79874 489
23.81885 462
23.83896 483
23.85908 512
23.87919 512
23.8993 551
23.91942 544
23.93953 581
23.95965 585
23.97976 578
23.99987 558
24.01999 549
24.0401 471
24.06021 514
24.08033 526
24.10044 480
24.12056 500
24.14067 547
24.16078 519
24.1809 512
24.20101 524
24.22112 521
24.24124 547
24.26135 529
24.28146 525
24.30158 550
24.32169 512
24.34181 501
24.36192 459
24.38203 461
24.40215 474
24.42226 466
24.44237 442
24.46249 456
24.4826 406
24.50272 426
24.52283 445
24.54294 481
24.56306 464
24.58317 440
24.60328 459
24.6234 461
24.64351 481
24.66362 464
24.68374 460
24.70385 488
24.72397 500
24.74408 467
24.76419 465
24.78431 462
24.80442 483
24.82453 427
24.84465 481
24.86476 509
24.88488 480
24.90499 445
24.9251 446
24.94522 464
24.96533 421
24.98544 458
25.00556 429
25.02567 452
25.04579 446
25.0659 441
25.08601 442
25.10613 481
25.12624 469
25.14635 461
25.16647 479
25.18658 465
25.20669 503
25.22681 559
25.24692 519
25.26704 501
25.28715 489
25.30726 519
25.32738 520
25.34749 555
25.3676 557
25.38772 536
25.40783 598
25.42795 586
25.44806 619
25.46817 651
25.48829 676
25.5084 661
25.52851 688
25.54863 693
25.56874 734
25.58886 694
25.60897 717
25.62908 750
25.6492 671
25.66931 666
25.68942 607
25.70954 618
25.72965 599
25.74976 535
25.76988 588
25.78999 516
25.81011 526
25.83022 504
25.85033 545
25.87045 561
25.89056 548
25.91067 529
25.93079 515
25.9509 534
25.97102 545
25.99113 548
26.01124 566
26.03136 599
26.05147 563
26.07158 586
26.0917 623
26.11181 665
26.13193 641
26.15204 703
26.17215 687
26.19227 755
26.21238 801
26.23249 909
26.25261 849
26.27272 920
26.29283 1044
26.31295 1122
26.33306 1196
26.35318 1376
26.37329 1607
26.3934 1901
26.41352 2259
26.43363 2856
26.45374 3695
26.47386 4785
26.49397 6393
26.51409 8669
26.5342 10931
26.55431 13529
26.57443 15574
26.59454 16357
26.61465 15563
26.63477 13948
26.65488 10984
26.67499 8490
26.69511 6081
26.71522 4118
26.73534 2607
26.75545 1831
26.77556 1462
26.79568 1238
26.81579 1200
26.8359 1100
26.85602 1055
26.87613 1063
26.89625 1021
26.91636 979
26.93647 961
26.95659 1023
26.9767 1029
26.99681 974
27.01693 1067
27.03704 1002
27.05716 969
27.07727 947
27.09738 875
27.1175 805
27.13761 770
27.15772 772
27.17784 660
27.19795 660
27.21806 711
27.23818 684
27.25829 721
27.27841 780
27.29852 826
27.31863 884
27.33875 985
27.35886 1133
27.37897 1213
27.39909 1235
27.4192 1247
27.43932 1290
27.45943 1195
27.47954 1199
27.49966 1002
27.51977 900
27.53988 861
27.56 773
27.58011 677
27.60023 698
27.62034 685
27.64045 621
27.66057 636
27.68068 647
27.70079 696
27.72091 669
27.74102 643
27.76113 668
27.78125 664
27.80136 643
27.82148 715
27.84159 651
27.8617 697
27.88182 721
27.90193 734
27.92204 707
27.94216 662
27.96227 662
27.98239 661
28.0025 528
28.02261 530
28.04273 457
28.06284 482
28.08295 453
28.10307 489
28.12318 489
28.1433 520
28.16341 483
28.18352 489
28.20364 491
28.22375 453
28.24386 469
28.26398 434
28.28409 380
28.3042 428
28.32432 404
28.34443 456
28.36455 397
28.38466 404
28.40477 374
28.42489 386
28.445 389
28.46511 374
28.48523 362
28.50534 381
28.52546 333
28.54557 429
28.56568 359
28.5858 359
28.60591 348
28.62602 371
28.64614 352
28.66625 370
28.68636 347
28.70648 344
28.72659 361
28.74671 359
28.76682 374
28.78693 315
28.80705 369
28.82716 350
28.84727 329
28.86739 353
28.8875 387
28.90762 384
28.92773 368
28.94784 350
28.96796 381
28.98807 351
29.00818 345
29.0283 337
29.04841 376
29.06853 330
29.08864 355
29.10875 314
29.12887 373
29.14898 347
29.16909 362
29.18921 380
29.20932 373
29.22943 364
29.24955 355
29.26966 376
29.28978 403
29.30989 412
29.33 384
29.35012 409
29.37023 386
29.39034 442
29.41046 416
29.43057 455
29.45069 432
29.4708 423
29.49091 393
29.51103 425
29.53114 407
29.55125 383
29.57137 423
29.59148 400
29.6116 423
29.63171 417
29.65182 435
29.67194 436
29.69205 433
29.71216 434
29.73228 403
29.75239 447
29.7725 450
29.79262 495
29.81273 455
29.83285 442
29.85296 437
29.87307 438
29.89319 474
29.9133 473
29.93341 464
29.95353 464
29.97364 480
29.99376 454
30.01387 474
30.03398 440
30.0541 461
30.07421 446
30.09432 444
30.11444 446
30.13455 550
30.15467 473
30.17478 530
30.19489 469
30.21501 494
30.23512 457
30.25523 428
30.27535 426
30.29546 441
30.31557 404
30.33569 450
30.3558 422
30.37592 432
30.39603 428
30.41614 439
30.43626 434
30.45637 412
30.47648 442
30.4966 427
30.51671 399
30.53683 418
30.55694 414
30.57705 406
30.59717 450
30.61728 355
30.63739 432
30.65751 467
30.67762 479
30.69773 472
30.71785 556
30.73796 543
30.75808 531
30.77819 501
30.7983 489
30.81842 469
30.83853 488
30.85864 425
30.87876 448
30.89887 414
30.91899 373
30.9391 349
30.95921 355
30.97933 345
30.99944 368
31.01955 342
31.03967 334
31.05978 321
31.0799 316
31.10001 351
31.12012 352
31.14024 324
31.16035 347
31.18046 354
31.20058 336
31.22069 357
31.2408 357
31.26092 321
31.28103 359
31.30115 351
31.32126 371
31.34137 322
31.36149 344
31.3816 310
31.40171 337
31.42183 358
31.44194 344
31.46206 348
31.48217 322
31.50228 309
31.5224 306
31.54251 330
31.56262 319
31.58274 317
31.60285 316
31.62297 304
31.64308 332
31.66319 297
31.68331 369
31.70342 359
31.72353 352
31.74365 318
31.76376 305
31.78387 300
31.80399 348
31.8241 336
31.84422 294
31.86433 322
31.88444 298
31.90456 316
31.92467 313
31.94478 341
31.9649 310
31.98501 301
32.00513 343
32.02524 304
32.04535 328
32.06547 340
32.08558 356
32.10569 323
32.12581 356
32.14592 366
32.16604 352
32.18615 352
32.20626 363
32.22638 379
32.24649 358
32.2666 379
32.28672 381
32.30683 393
32.32694 388
32.34706 373
32.36717 368
32.38729 370
32.4074 364
32.42751 379
32.44763 388
32.46774 364
32.48785 357
32.50797 365
32.52808 373
32.5482 354
32.56831 338
32.58842 351
32.60854 334
32.62865 344
32.64876 317
32.66888 360
32.68899 354
32.7091 325
32.72922 334
32.74933 377
32.76945 340
32.78956 339
32.80967 351
32.82979 326
32.8499 334
32.87001 343
32.89013 374
32.91024 395
32.93036 346
32.95047 344
32.97058 337
32.9907 387
33.01081 344
33.03092 350
33.05104 334
33.07115 332
33.09127 347
33.11138 346
33.13149 351
33.15161 337
33.17172 371
33.19183 344
33.21195 373
33.23206 338
33.25217 366
33.27229 359
33.2924 379
33.31252 327
33.33263 350
33.35274 333
33.37286 344
33.39297 336
33.41308 318
33.4332 359
33.45331 310
33.47343 325
33.49354 315
33.51365 325
33.53377 307
33.55388 322
33.57399 320
33.59411 336
33.61422 316
33.63434 352
33.65445 319
33.67456 315
33.69468 333
33.71479 308
33.7349 359
33.75502 335
33.77513 338
33.79524 348
33.81536 318
33.83547 307
33.85559 319
33.8757 302
33.89581 328
33.91593 325
33.93604 345
33.95615 364
33.97627 342
33.99638 351
34.0165 329
34.03661 363
34.05672 355
34.07684 351
34.09695 399
34.11706 387
34.13718 409
34.15729 430
34.17741 439
34.19752 418
34.21763 379
34.23775 459
34.25786 437
34.27797 431
34.29809 466
34.3182 396
34.33831 415
34.35843 433
34.37854 354
34.39866 420
34.41877 427
34.43888 370
34.459 460
34.47911 448
34.49922 445
34.51934 439
34.53945 482
34.55957 456
34.57968 446
34.59979 473
34.61991 452
34.64002 505
34.66013 465
34.68025 509
34.70036 534
34.72047 525
34.74059 518
34.7607 536
34.78082 551
34.80093 584
34.82104 567
34.84116 570
34.86127 606
34.88138 553
34.9015 569
34.92161 519
34.94173 587
34.96184 604
34.98195 553
35.00207 562
35.02218 580
35.04229 537
35.06241 546
35.08252 572
35.10264 502
35.12275 514
35.14286 561
35.16298 511
35.18309 520
35.2032 488
35.22332 516
35.24343 482
35.26354 501
35.28366 484
35.30377 443
35.32389 487
35.344 508
35.36411 513
35.38423 530
35.40434 593
35.42445 513
35.44457 551
35.46468 545
35.4848 514
35.50491 536
35.52502 533
35.54514 525
35.56525 499
35.58536 506
35.60548 464
35.62559 466
35.64571 497
35.66582 514
35.68593 518
35.70605 469
35.72616 461
35.74627 451
35.76639 449
35.7865 498
35.80661 463
35.82673 455
35.84684 477
35.86696 478
35.88707 464
35.90718 473
35.9273 433
35.94741 430
35.96752 391
35.98764 402
36.00775 409
36.02787 444
36.04798 413
36.06809 461
36.08821 427
36.10832 415
36.12843 382
36.14855 426
36.16866 451
36.18878 472
36.20889 445
36.229 476
36.24912 494
36.26923 448
36.28934 503
36.30946 544
36.32957 589
36.34968 615
36.3698 705
36.38991 876
36.41003 970
36.43014 1132
36.45025 1307
36.47037 1435
36.49048 1376
36.51059 1503
36.53071 1307
36.55082 1152
36.57094 1044
36.59105 892
36.61116 823
36.63128 706
36.65139 597
36.6715 511
36.69162 483
36.71173 486
36.73184 494
36.75196 438
36.77207 421
36.79219 416
36.8123 441
36.83241 452
36.85253 417
36.87264 403
36.89275 453
36.91287 473
36.93298 426
36.9531 428
36.97321 452
36.99332 422
37.01344 421
37.03355 435
37.05366 438
37.07378 420
37.09389 421
37.11401 403
37.13412 450
37.15423 401
37.17435 403
37.19446 416
37.21457 389
37.23469 394
37.2548 410
37.27491 419
37.29503 383
37.31514 360
37.33526 377
37.35537 404
37.37548 376
37.3956 400
37.41571 387
37.43582 403
37.45594 383
37.47605 360
37.49617 377
37.51628 407
37.53639 442
37.55651 414
37.57662 399
37.59673 399
37.61685 411
37.63696 380
37.65708 352
37.67719 401
37.6973 431
37.71742 379
37.73753 379
37.75764 382
37.77776 371
37.79787 377
37.81798 382
37.8381 365
37.85821 385
37.87833 365
37.89844 358
37.91855 376
37.93867 383
37.95878 346
37.97889 391
37.99901 335
38.01912 367
38.03924 357
38.05935 358
38.07946 358
38.09958 350
38.11969 361
38.1398 374
38.15992 394
38.18003 370
38.20015 385
38.22026 383
38.24037 364
38.26049 385
38.2806 373
38.30071 335
38.32083 410
38.34094 348
38.36105 358
38.38117 357
38.40128 399
38.4214 360
38.44151 423
38.46162 427
38.48174 399
38.50185 417
38.52196 406
38.54208 420
38.56219 378
38.58231 400
38.60242 381
38.62253 430
38.64265 379
38.66276 364
38.68287 332
38.70299 338
38.7231 350
38.74321 372
38.76333 361
38.78344 340
38.80356 389
38.82367 357
38.84378 362
38.8639 358
38.88401 357
38.90412 342
38.92424 347
38.94435 353
38.96447 370
38.98458 373
39.00469 382
39.02481 353
39.04492 370
39.06503 383
39.08515 351
39.10526 381
39.12538 390
39.14549 393
39.1656 427
39.18572 406
39.20583 421
39.22594 472
39.24606 491
39.26617 550
39.28628 637
39.3064 690
39.32651 811
39.34663 951
39.36674 1064
39.38685 1214
39.40697 1284
39.42708 1241
39.44719 1195
39.46731 1066
39.48742 889
39.50754 807
39.52765 744
39.54776 667
39.56788 543
39.58799 482
39.6081 412
39.62822 371
39.64833 383
39.66845 398
39.68856 370
39.70867 337
39.72879 345
39.7489 353
39.76901 369
39.78913 348
39.80924 331
39.82935 308
39.84947 363
39.86958 320
39.8897 333
39.90981 355
39.92992 345
39.95004 370
39.97015 375
39.99026 366
40.01038 386
40.03049 392
40.05061 387
40.07072 431
40.09083 456
40.11095 515
40.13106 557
40.15117 585
40.17129 630
40.1914 738
40.21152 732
40.23163 759
40.25174 749
40.27186 731
40.29197 647
40.31208 576
40.3322 568
40.35231 538
40.37242 501
40.39254 443
40.41265 402
40.43277 393
40.45288 368
40.47299 376
40.49311 396
40.51322 363
40.53333 386
40.55345 333
40.57356 349
40.59368 366
40.61379 339
40.6339 348
40.65402 342
40.67413 363
40.69424 302
40.71436 361
40.73447 357
40.75458 359
40.7747 317
40.79481 328
40.81493 337
40.83504 325
40.85515 344
40.87527 335
40.89538 356
40.91549 340
40.93561 337
40.95572 342
40.97584 366
40.99595 322
41.01606 347
41.03618 378
41.05629 325
41.0764 334
41.09652 346
41.11663 309
41.13675 348
41.15686 368
41.17697 343
41.19709 346
41.2172 336
41.23731 362
41.25743 314
41.27754 346
41.29765 330
41.31777 322
41.33788 363
41.358 336
41.37811 327
41.39822 336
41.41834 367
41.43845 316
41.45856 317
41.47868 371
41.49879 345
41.51891 371
41.53902 343
41.55913 368
41.57925 355
41.59936 392
41.61947 377
41.63959 393
41.6597 421
41.67982 409
41.69993 449
41.72004 461
41.74016 471
41.76027 456
41.78038 469
41.8005 436
41.82061 429
41.84072 429
41.86084 384
41.88095 386
41.90107 372
41.92118 362
41.94129 361
41.96141 334
41.98152 327
42.00163 352
42.02175 333
42.04186 347
42.06198 327
42.08209 334
42.1022 350
42.12232 348
42.14243 362
42.16254 366
42.18266 403
42.20277 378
42.22289 435
42.243 458
42.26311 540
42.28323 606
42.30334 684
42.32345 757
42.34357 843
42.36368 956
42.38379 925
42.40391 954
42.42402 914
42.44414 853
42.46425 764
42.48436 692
42.50448 646
42.52459 649
42.5447 565
42.56482 466
42.58493 424
42.60505 412
42.62516 370
42.64527 383
42.66539 379
42.6855 360
42.70561 318
42.72573 362
42.74584 324
42.76595 350
42.78607 362
42.80618 343
42.8263 335
42.84641 315
42.86652 298
42.88664 325
42.90675 322
42.92686 310
42.94698 290
42.96709 298
42.98721 327
43.00732 289
43.02743 261
43.04755 281
43.06766 275
43.08777 321
43.10789 281
43.128 315
43.14812 301
43.16823 324
43.18834 282
43.20846 282
43.22857 293
43.24868 286
43.2688 318
43.28891 297
43.30902 278
43.32914 293
43.34925 291
43.36937 303
43.38948 287
43.40959 290
43.42971 313
43.44982 281
43.46993 305
43.49005 269
43.51016 314
43.53028 297
43.55039 302
43.5705 315
43.59062 322
43.61073 299
43.63084 307
43.65096 285
43.67107 297
43.69119 313
43.7113 304
43.73141 320
43.75153 287
43.77164 284
43.79175 291
43.81187 270
43.83198 294
43.85209 303
43.87221 292
43.89232 280
43.91244 297
43.93255 280
43.95266 310
43.97278 257
43.99289 316
44.013 303
44.03312 290
44.05323 290
44.07335 288
44.09346 291
44.11357 319
44.13369 305
44.1538 316
44.17391 333
44.19403 301
44.21414 293
44.23426 284
44.25437 319
44.27448 277
44.2946 287
44.31471 289
44.33482 273
44.35494 313
44.37505 267
44.39516 313
44.41528 283
44.43539 296
44.45551 292
44.47562 282
44.49573 295
44.51585 301
44.53596 315
44.55607 300
44.57619 296
44.5963 294
44.61642 303
44.63653 288
44.65664 333
44.67676 319
44.69687 294
44.71698 321
44.7371 317
44.75721 303
44.77732 283
44.79744 268
44.81755 320
44.83767 284
44.85778 280
44.87789 305
44.89801 280
44.91812 281
44.93823 286
44.95835 328
44.97846 294
44.99858 280
45.01869 309
45.0388 312
45.05892 316
45.07903 318
45.09914 304
45.11926 305
45.13937 352
45.15949 299
45.1796 295
45.19971 317
45.21983 282
45.23994 280
45.26005 337
45.28017 321
45.30028 326
45.32039 311
45.34051 338
45.36062 363
45.38074 319
45.40085 329
45.42096 390
45.44108 357
45.46119 375
45.4813 355
45.50142 379
45.52153 404
45.54165 378
45.56176 423
45.58187 461
45.60199 486
45.6221 511
45.64221 565
45.66233 636
45.68244 669
45.70256 718
45.72267 823
45.74278 742
45.7629 720
45.78301 644
45.80312 637
45.82324 590
45.84335 548
45.86346 543
45.88358 459
45.90369 430
45.92381 385
45.94392 392
45.96403 342
45.98415 330
46.00426 326
46.02437 317
46.04449 309
46.0646 329
46.08472 331
46.10483 358
46.12494 313
46.14506 335
46.16517 329
46.18528 305
46.2054 315
46.22551 318
46.24563 332
46.26574 321
46.28585 262
46.30597 331
46.32608 315
46.34619 289
46.36631 303
46.38642 290
46.40653 296
46.42665 272
46.44676 296
46.46688 282
46.48699 261
46.5071 258
46.52722 295
46.54733 291
46.56744 292
46.58756 297
46.60767 288
46.62779 284
46.6479 305
46.66801 286
46.68813 275
46.70824 300
46.72835 283
46.74847 288
46.76858 294
46.78869 290
46.80881 284
46.82892 329
46.84904 278
46.86915 293
46.88926 281
46.90938 292
46.92949 307
46.9496 314
46.96972 285
46.98983 322
47.00995 329
47.03006 324
47.05017 328
47.07029 364
47.0904 338
47.11051 324
47.13063 322
47.15074 304
47.17086 330
47.19097 334
47.21108 322
47.2312 296
47.25131 346
47.27142 302
47.29154 309
47.31165 292
47.33176 322
47.35188 306
47.37199 319
47.39211 326
47.41222 332
47.43233 301
47.45245 343
47.47256 315
47.49267 297
47.51279 271
47.5329 304
47.55302 302
47.57313 304
47.59324 303
47.61336 321
47.63347 304
47.65358 313
47.6737 286
47.69381 301
47.71393 275
47.73404 273
47.75415 291
47.77427 254
47.79438 293
47.81449 285
47.83461 286
47.85472 283
47.87483 321
47.89495 297
47.91506 303
47.93518 273
47.95529 313
47.9754 323
47.99552 304
48.01563 300
48.03574 319
48.05586 303
48.07597 303
48.09609 292
48.1162 289
48.13631 322
48.15643 318
48.17654 323
48.19665 297
48.21677 305
48.23688 274
48.257 280
48.27711 294
48.29722 276
48.31734 284
48.33745 280
48.35756 313
48.37768 297
48.39779 287
48.4179 301
48.43802 268
48.45813 270
48.47825 294
48.49836 287
48.51847 318
48.53859 258
48.5587 299
48.57881 276
48.59893 323
48.61904 298
48.63916 289
48.65927 307
48.67938 294
48.6995 323
48.71961 333
48.73972 306
48.75984 279
48.77995 309
48.80006 296
48.82018 319
48.84029 304
48.86041 335
48.88052 313
48.90063 313
48.92075 286
48.94086 303
48.96097 366
48.98109 340
49.0012 339
49.02132 325
49.04143 292
49.06154 315
49.08166 327
49.10177 328
49.12188 335
49.142 342
49.16211 326
49.18223 343
49.20234 316
49.22245 336
49.24257 341
49.26268 311
49.28279 295
49.30291 341
49.32302 323
49.34313 310
49.36325 331
49.38336 337
49.40348 307
49.42359 357
49.4437 351
49.46382 302
49.48393 336
49.50404 325
49.52416 351
49.54427 316
49.56439 373
49.5845 353
49.60461 343
49.62473 346
49.64484 353
49.66495 346
49.68507 344
49.70518 368
49.7253 385
49.74541 412
49.76552 407
49.78564 445
49.80575 401
49.82586 507
49.84598 488
49.86609 566
49.8862 585
49.90632 639
49.92643 723
49.94655 808
49.96666 994
49.98677 1156
50.00689 1331
50.027 1562
50.04711 1714
50.06723 1913
50.08734 1860
50.10746 1610
50.12757 1510
50.14768 1275
50.1678 1195
50.18791 1109
50.20802 1012
50.22814 976
50.24825 868
50.26837 766
50.28848 572
50.30859 463
50.32871 451
50.34882 437
50.36893 432
50.38905 396
50.40916 449
50.42927 434
50.44939 463
50.4695 444
50.48962 478
50.50973 480
50.52984 499
50.54996 503
50.57007 456
50.59018 477
50.6103 486
50.63041 455
50.65053 437
50.67064 420
50.69075 406
50.71087 370
50.73098 365
50.75109 382
50.77121 401
50.79132 341
50.81143 347
50.83155 362
50.85166 373
50.87178 322
50.89189 339
50.912 281
50.93212 302
50.95223 296
50.97234 336
50.99246 317
51.01257 291
51.03269 321
51.0528 303
51.07291 283
51.09303 286
51.11314 312
51.13325 313
51.15337 288
51.17348 323
51.1936 333
51.21371 304
51.23382 291
51.25394 327
51.27405 273
51.29416 254
51.31428 287
51.33439 305
51.3545 322
51.37462 302
51.39473 270
51.41485 273
51.43496 272
51.45507 282
51.47519 281
51.4953 280
51.51541 269
51.53553 276
51.55564 257
51.57576 271
51.59587 277
51.61598 267
51.6361 259
51.65621 304
51.67632 288
51.69644 271
51.71655 305
51.73667 290
51.75678 268
51.77689 286
51.79701 273
51.81712 268
51.83723 265
51.85735 270
51.87746 296
51.89757 247
51.91769 275
51.9378 257
51.95792 266
51.97803 281
51.99814 262
52.01826 279
52.03837 296
52.05848 263
52.0786 262
52.09871 268
52.11883 277
52.13894 261
52.15905 320
52.17917 264
52.19928 310
52.21939 273
52.23951 291
52.25962 298
52.27974 273
52.29985 274
52.31996 301
52.34008 246
52.36019 266
52.3803 287
52.40042 307
52.42053 266
52.44064 266
52.46076 289
52.48087 259
52.50099 270
52.5211 305
52.54121 323
52.56133 302
52.58144 284
52.60155 304
52.62167 249
52.64178 309
52.6619 305
52.68201 274
52.70212 297
52.72224 286
52.74235 268
52.76246 302
52.78258 273
52.80269 293
52.8228 275
52.84292 298
52.86303 306
52.88315 302
52.90326 306
52.92337 281
52.94349 313
52.9636 302
52.98371 295
53.00383 305
53.02394 309
53.04406 317
53.06417 272
53.08428 286
53.1044 316
53.12451 337
53.14462 335
53.16474 345
53.18485 325
53.20497 347
53.22508 323
53.24519 309
53.26531 327
53.28542 274
53.30553 299
53.32565 325
53.34576 321
53.36587 289
53.38599 304
53.4061 310
53.42622 337
53.44633 292
53.46644 299
53.48656 304
53.50667 341
53.52678 285
53.5469 325
53.56701 347
53.58713 308
53.60724 301
53.62735 350
53.64747 317
53.66758 312
53.68769 305
53.70781 302
53.72792 314
53.74804 338
53.76815 323
53.78826 301
53.80838 303
53.82849 347
53.8486 381
53.86872 353
53.88883 342
53.90894 323
53.92906 342
53.94917 334
53.96929 341
53.9894 351
54.00951 358
54.02963 332
54.04974 330
54.06985 338
54.08997 366
54.11008 337
54.1302 350
54.15031 320
54.17042 332
54.19054 355
54.21065 346
54.23076 352
54.25088 349
54.27099 345
54.29111 330
54.31122 356
54.33133 348
54.35145 380
54.37156 339
54.39167 361
54.41179 370
54.4319 333
54.45201 343
54.47213 364
54.49224 359
54.51236 346
54.53247 354
54.55258 390
54.5727 343
54.59281 378
54.61292 401
54.63304 429
54.65315 465
54.67327 473
54.69338 549
54.71349 569
54.73361 646
54.75372 692
54.77383 700
54.79395 766
54.81406 795
54.83417 742
54.85429 631
54.8744 622
54.89452 537
54.91463 569
54.93474 608
54.95486 545
54.97497 531
54.99508 478
55.0152 450
55.03531 414
55.05543 373
55.07554 412
55.09565 378
55.11577 413
55.13588 403
55.15599 437
55.17611 457
55.19622 490
55.21634 490
55.23645 515
55.25656 467
55.27668 519
55.29679 494
55.3169 453
55.33702 474
55.35713 408
55.37724 438
55.39736 459
55.41747 434
55.43759 454
55.4577 359
55.47781 351
55.49793 355
55.51804 366
55.53815 353
55.55827 331
55.57838 353
55.5985 348
55.61861 324
55.63872 349
55.65884 296
55.67895 344
55.69906 303
55.71918 305
55.73929 356
55.75941 321
55.77952 339
55.79963 304
55.81975 316
55.83986 291
55.85997 292
55.88009 314
55.9002 320
55.92031 308
55.94043 302
55.96054 303
55.98066 272
56.00077 289
56.02088 298
56.041 303
56.06111 303
56.08122 300
56.10134 309
56.12145 300
56.14157 290
56.16168 275
56.18179 315
56.20191 273
56.22202 262
56.24213 273
56.26225 296
56.28236 307
56.30248 292
56.32259 272
56.3427 273
56.36282 301
56.38293 288
56.40304 313
56.42316 279
56.44327 317
56.46338 279
56.4835 278
56.50361 305
56.52373 270
56.54384 288
56.56395 304
56.58407 300
56.60418 275
56.62429 272
56.64441 299
56.66452 302
56.68464 307
56.70475 287
56.72486 328
56.74498 294
56.76509 276
56.7852 281
56.80532 311
56.82543 315
56.84554 284
56.86566 265
56.88577 276
56.90589 287
56.926 283
56.94611 323
56.96623 327
56.98634 275
57.00645 321
57.02657 294
57.04668 287
57.0668 309
57.08691 283
57.10702 292
57.12714 291
57.14725 323
57.16736 317
57.18748 313
57.20759 311
57.22771 335
57.24782 308
57.26793 309
57.28805 280
57.30816 321
57.32827 318
57.34839 313
57.3685 293
57.38861 296
57.40873 285
57.42884 312
57.44896 286
57.46907 313
57.48918 290
57.5093 302
57.52941 337
57.54952 301
57.56964 284
57.58975 265
57.60987 299
57.62998 298
57.65009 333
57.67021 277
57.69032 287
57.71043 261
57.73055 295
57.75066 284
57.77078 315
57.79089 301
57.811 297
57.83112 290
57.85123 295
57.87134 280
57.89146 264
57.91157 292
57.93168 289
57.9518 272
57.97191 284
57.99203 276
58.01214 269
58.03225 254
58.05237 235
58.07248 257
58.09259 261
58.11271 274
58.13282 274
58.15294 267
58.17305 310
58.19316 290
58.21328 246
58.23339 300
58.2535 257
58.27362 272
58.29373 264
58.31385 269
58.33396 294
58.35407 295
58.37419 294
58.3943 263
58.41441 282
58.43453 276
58.45464 289
58.47475 291
58.49487 275
58.51498 288
58.5351 281
58.55521 304
58.57532 267
58.59544 337
58.61555 303
58.63566 281
58.65578 303
58.67589 281
58.69601 286
58.71612 332
58.73623 290
58.75635 312
58.77646 324
58.79657 318
58.81669 284
58.8368 295
58.85691 280
58.87703 284
58.89714 311
58.91726 305
58.93737 268
58.95748 248
58.9776 280
58.99771 265
59.01782 263
59.03794 267
59.05805 283
59.07817 290
59.09828 289
59.11839 272
59.13851 293
59.15862 269
59.17873 311
59.19885 291
59.21896 261
59.23908 302
59.25919 302
59.2793 287
59.29942 327
59.31953 270
59.33964 298
59.35976 331
59.37987 306
59.39998 306
59.4201 332
59.44021 323
59.46033 322
59.48044 308
59.50055 329
59.52067 332
59.54078 348
59.56089 341
59.58101 365
59.60112 349
59.62124 399
59.64135 404
59.66146 445
59.68158 472
59.70169 521
59.7218 543
59.74192 611
59.76203 641
59.78215 781
59.80226 922
59.82237 990
59.84249 1202
59.8626 1217
59.88271 1293
59.90283 1221
59.92294 1143
59.94305 1032
59.96317 902
59.98328 784
60.0034 799
60.02351 726
60.04362 809
60.06374 826
60.08385 720
60.10396 587
60.12408 499
60.14419 452
60.16431 393
60.18442 386
60.20453 339
60.22465 318
60.24476 342
60.26487 324
60.28499 307
60.3051 331
60.32522 330
60.34533 321
60.36544 309
60.38556 317
60.40567 304
60.42578 326
60.4459 316
60.46601 328
60.48612 310
60.50624 310
60.52635 278
60.54647 322
60.56658 283
60.58669 278
60.60681 320
60.62692 301
60.64703 315
60.66715 302
60.68726 269
60.70738 329
60.72749 287
60.7476 298
60.76772 260
60.78783 305
60.80794 285
60.82806 303
60.84817 266
60.86828 301
60.8884 299
60.90851 318
60.92863 301
60.94874 300
60.96885 277
60.98897 296
61.00908 307
61.02919 287
61.04931 302
61.06942 305
61.08954 293
61.10965 294
61.12976 310
61.14988 294
61.16999 291
61.1901 330
61.21022 319
61.23033 301
61.25045 325
61.27056 306
61.29067 314
61.31079 308
61.3309 291
61.35101 314
61.37113 330
61.39124 342
61.41135 317
61.43147 285
61.45158 325
61.4717 336
61.49181 311
61.51192 327
61.53204 297
61.55215 333
61.57226 317
61.59238 335
61.61249 333
61.63261 340
61.65272 329
61.67283 377
61.69295 303
61.71306 339
61.73317 374
61.75329 323
61.7734 348
61.79352 335
61.81363 376
61.83374 376
61.85386 358
61.87397 363
61.89408 383
61.9142 398
61.93431 375
61.95442 406
61.97454 352
61.99465 354
62.01477 388
62.03488 364
62.05499 379
62.07511 375
62.09522 358
62.11533 424
62.13545 387
62.15556 389
62.17568 359
62.19579 364
62.2159 378
62.23602 332
62.25613 351
62.27624 352
62.29636 342
62.31647 379
62.33659 389
62.3567 337
62.37681 352
62.39693 321
62.41704 349
62.43715 337
62.45727 341
62.47738 352
62.49749 319
62.51761 334
62.53772 282
62.55784 351
62.57795 357
62.59806 346
62.61818 315
62.63829 327
62.6584 356
62.67852 325
62.69863 319
62.71875 322
62.73886 355
62.75897 305
62.77909 334
62.7992 302
62.81931 299
62.83943 338
62.85954 300
62.87965 308
62.89977 314
62.91988 313
62.94 323
62.96011 330
62.98022 317
63.00034 311
63.02045 347
63.04056 331
63.06068 329
63.08079 295
63.10091 295
63.12102 337
63.14113 283
63.16125 306
63.18136 303
63.20147 309
63.22159 333
63.2417 299
63.26182 287
63.28193 286
63.30204 301
63.32216 266
63.34227 311
63.36238 341
63.3825 302
63.40261 320
63.42272 305
63.44284 296
63.46295 303
63.48307 323
63.50318 302
63.52329 343
63.54341 313
63.56352 310
63.58363 321
63.60375 343
63.62386 339
63.64398 332
63.66409 321
63.6842 324
63.70432 306
63.72443 364
63.74454 373
63.76466 342
63.78477 381
63.80489 379
63.825 383
63.84511 377
63.86523 427
63.88534 465
63.90545 489
63.92557 443
63.94568 520
63.96579 485
63.98591 507
64.00602 467
64.02614 403
64.04625 424
64.06636 392
64.08648 361
64.10659 389
64.1267 376
64.14682 424
64.16693 417
64.18705 363
64.20716 355
64.22727 325
64.24739 303
64.2675 320
64.28761 271
64.30773 320
64.32784 344
64.34796 300
64.36807 302
64.38818 289
64.4083 282
64.42841 301
64.44852 281
64.46864 246
64.48875 281
64.50886 287
64.52898 308
64.54909 289
64.56921 288
64.58932 269
64.60943 282
64.62955 281
64.64966 268
64.66977 295
64.68989 265
64.71 297
64.73012 263
64.75023 278
64.77034 270
64.79046 269
64.81057 291
64.83068 302
64.8508 280
64.87091 267
64.89102 307
64.91114 283
64.93125 260
64.95137 282
64.97148 269
64.99159 310
65.01171 287
65.03182 263
65.05193 294
65.07205 280
65.09216 269
65.11228 295
65.13239 299
65.1525 278
65.17262 285
65.19273 320
65.21284 295
65.23296 302
65.25307 298
65.27319 291
65.2933 316
65.31341 305
65.33353 318
65.35364 294
65.37375 314
65.39387 259
65.41398 301
65.43409 302
65.45421 285
65.47432 295
65.49444 270
65.51455 298
65.53466 304
65.55478 284
65.57489 282
65.595 322
65.61512 268
65.63523 331
65.65535 293
65.67546 314
65.69557 323
65.71569 298
65.7358 301
65.75591 333
65.77603 285
65.79614 259
65.81626 279
65.83637 303
65.85648 278
65.8766 281
65.89671 290
65.91682 310
65.93694 286
65.95705 298
65.97716 269
65.99728 276
66.01739 260
66.03751 291
66.05762 256
66.07773 297
66.09785 228
66.11796 268
66.13807 271
66.15819 297
66.1783 262
66.19842 278
66.21853 274
66.23864 317
66.25876 282
66.27887 248
66.29898 325
66.3191 289
66.33921 281
66.35933 258
66.37944 264
66.39955 275
66.41967 320
66.43978 295
66.45989 313
66.48001 254
66.50012 273
66.52023 244
66.54035 270
66.56046 261
66.58058 277
66.60069 261
66.6208 261
66.64092 258
66.66103 299
66.68114 269
66.70126 247
66.72137 242
66.74149 264
66.7616 252
66.78171 268
66.80183 272
66.82194 281
66.84205 285
66.86217 263
66.88228 270
66.90239 255
66.92251 275
66.94262 270
66.96274 328
66.98285 290
67.00296 275
67.02308 314
67.04319 270
67.0633 298
67.08342 284
67.10353 303
67.12365 267
67.14376 258
67.16387 276
67.18399 287
67.2041 296
67.22421 309
67.24433 315
67.26444 304
67.28456 290
67.30467 327
67.32478 327
67.3449 321
67.36501 351
67.38512 339
67.40524 337
67.42535 393
67.44546 362
67.46558 398
67.48569 432
67.50581 406
67.52592 490
67.54603 490
67.56615 574
67.58626 666
67.60637 713
67.62649 774
67.6466 830
67.66672 891
67.68683 839
67.70694 796
67.72706 750
67.74717 691
67.76728 634
67.7874 592
67.80751 621
67.82763 669
67.84774 714
67.86785 701
67.88797 707
67.90808 721
67.92819 707
67.94831 753
67.96842 692
67.98853 805
68.00865 884
68.02876 959
68.04888 1069
68.06899 1128
68.0891 1033
68.10922 1055
68.12933 964
68.14944 934
68.16956 921
68.18967 883
68.20979 947
68.2299 958
68.25001 993
68.27013 949
68.29024 873
68.31035 786
68.33047 679
68.35058 644
68.3707 560
68.39081 517
68.41092 502
68.43104 553
68.45115 484
68.47126 457
68.49138 450
68.51149 372
68.5316 330
68.55172 376
68.57183 330
68.59195 316
68.61206 325
68.63217 311
68.65229 306
68.6724 273
68.69251 294
68.71263 298
68.73274 296
68.75286 273
68.77297 278
68.79308 272
68.8132 309
68.83331 311
68.85342 291
68.87354 281
68.89365 272
68.91376 291
68.93388 293
68.95399 269
68.97411 273
68.99422 279
69.01433 272
69.03445 290
69.05456 254
69.07467 270
69.09479 268
69.1149 257
69.13502 278
69.15513 287
69.17524 251
69.19536 277
69.21547 271
69.23558 266
69.2557 250
69.27581 275
69.29593 287
69.31604 271
69.33615 259
69.35627 289
69.37638 285
69.39649 297
69.41661 241
69.43672 245
69.45683 286
69.47695 245
69.49706 279
69.51718 261
69.53729 241
69.5574 302
69.57752 280
69.59763 245
69.61774 272
69.63786 268
69.65797 272
69.67809 253
69.6982 274
69.71831 251
69.73843 267
69.75854 254
69.77865 262
69.79877 281
69.81888 277
69.839 261
69.85911 270
69.87922 320
69.89934 256
69.91945 264
69.93956 265
69.95968 262
69.97979 279
69.9999 254
70.02002 273
70.04013 281
70.06025 242
70.08036 272
70.10047 263
70.12059 248
70.1407 282
70.16081 258
70.18093 269
70.20104 284
70.22116 272
70.24127 282
70.26138 282
70.2815 253
70.30161 289
70.32172 276
70.34184 275
70.36195 273
70.38207 274
70.40218 262
70.42229 263
70.44241 246
70.46252 274
70.48263 277
70.50275 254
70.52286 256
70.54297 276
70.56309 260
70.5832 256
70.60332 257
70.62343 261
70.64354 272
70.66366 264
70.68377 259
70.70388 262
70.724 246
70.74411 255
70.76423 259
70.78434 267
70.80445 280
70.82457 261
70.84468 260
70.86479 252
70.88491 238
70.90502 249
70.92513 272
70.94525 247
70.96536 245
70.98548 253
71.00559 275
71.0257 238
71.04582 282
71.06593 248
71.08604 253
71.10616 267
71.12627 290
71.14639 243
71.1665 265
71.18661 263
71.20673 253
71.22684 232
71.24695 268
71.26707 254
71.28718 274
71.3073 259
71.32741 242
71.34752 273
71.36764 263
71.38775 254
71.40786 247
71.42798 301
71.44809 276
71.4682 279
71.48832 273
71.50843 298
71.52855 271
71.54866 284
71.56877 314
71.58889 285
71.609 280
71.62911 279
71.64923 252
71.66934 266
71.68946 250
71.70957 289
71.72968 274
71.7498 269
71.76991 247
71.79002 255
71.81014 280
71.83025 254
71.85037 304
71.87048 263
71.89059 271
71.91071 300
71.93082 250
71.95093 245
71.97105 269
71.99116 279
72.01127 238
72.03139 266
72.0515 317
72.07162 279
72.09173 274
72.11184 239
72.13196 269
72.15207 289
72.17218 294
72.1923 280
72.21241 277
72.23253 276
72.25264 259
72.27275 267
72.29287 276
72.31298 289
72.33309 276
72.35321 253
72.37332 280
72.39344 269
72.41355 308
72.43366 277
72.45378 262
72.47389 267
72.494 264
72.51412 287
72.53423 260
72.55434 258
72.57446 273
72.59457 283
72.61469 280
72.6348 267
72.65491 262
72.67503 253
72.69514 294
72.71525 310
72.73537 266
72.75548 259
72.7756 283
72.79571 258
72.81582 272
72.83594 283
72.85605 280
72.87616 271
72.89628 288
72.91639 312
72.9365 265
72.95662 305
72.97673 277
72.99685 262
73.01696 314
73.03707 282
73.05719 300
73.0773 314
73.09741 293
73.11753 313
73.13764 328
73.15776 321
73.17787 318
73.19798 343
73.2181 319
73.23821 350
73.25832 391
73.27844 374
73.29855 381
73.31867 380
73.33878 455
73.35889 462
73.37901 461
73.39912 516
73.41923 480
73.43935 434
73.45946 432
73.47957 404
73.49969 372
73.5198 380
73.53992 404
73.56003 375
73.58014 377
73.60026 361
73.62037 359
73.64048 332
73.6606 370
73.68071 333
73.70083 276
73.72094 295
73.74105 282
73.76117 281
73.78128 295
73.80139 293
73.82151 282
73.84162 301
73.86174 256
73.88185 255
73.90196 267
73.92208 270
73.94219 300
73.9623 292
73.98242 296
74.00253 313
74.02264 283
74.04276 294
74.06287 305
74.08299 274
74.1031 245
74.12321 245
74.14333 264
74.16344 305
74.18355 264
74.20367 293
74.22378 264
74.2439 270
74.26401 251
74.28412 277
74.30424 255
74.32435 275
74.34446 268
74.36458 255
74.38469 271
74.40481 283
74.42492 273
74.44503 276
74.46515 286
74.48526 255
74.50537 281
74.52549 249
74.5456 275
74.56571 258
74.58583 285
74.60594 266
74.62606 281
74.64617 253
74.66628 276
74.6864 303
74.70651 258
74.72662 273
74.74674 288
74.76685 268
74.78697 290
74.80708 278
74.82719 256
74.84731 283
74.86742 289
74.88753 290
74.90765 268
74.92776 269
74.94787 286
74.96799 278
74.9881 287
75.00822 281
