3.00117 21245
3.02128 20561
3.0414 20151
3.06151 19690
3.08162 18893
3.10174 18610
3.12185 18262
3.14197 17689
3.16208 17004
3.18219 16280
3.20231 16200
3.22242 15664
3.24253 15100
3.26265 15002
3.28276 14048
3.30288 14060
3.32299 13431
3.3431 12873
3.36322 12740
3.38333 11821
3.40344 11814
3.42356 11479
3.44367 10966
3.46379 10733
3.4839 10216
3.50401 9961
3.52413 9554
3.54424 9422
3.56435 9121
3.58447 8522
3.60458 8361
3.62469 8001
3.64481 7588
3.66492 7561
3.68504 7104
3.70515 7117
3.72526 6664
3.74538 6181
3.76549 6353
3.7856 5914
3.80572 5665
3.82583 5413
3.84595 5088
3.86606 4969
3.88617 4738
3.90629 4614
3.9264 4428
3.94651 4295
3.96663 4037
3.98674 3922
4.00686 3726
4.02697 3673
4.04708 3435
4.0672 3357
4.08731 3058
4.10742 3107
4.12754 2851
4.14765 2641
4.16776 2743
4.18788 2542
4.20799 2415
4.22811 2329
4.24822 2261
4.26833 2284
4.28845 2010
4.30856 2027
4.32867 1965
4.34879 1990
4.3689 1994
4.38902 1640
4.40913 1740
4.42924 1827
4.44936 1712
4.46947 1745
4.48958 1596
4.5097 1568
4.52981 1572
4.54992 1519
4.57004 1530
4.59015 1373
4.61027 1434
4.63038 1388
4.65049 1354
4.67061 1385
4.69072 1180
4.71083 1290
4.73095 1261
4.75106 1177
4.77118 1211
4.79129 1119
4.8114 1164
4.83152 1112
4.85163 1116
4.87174 1065
4.89186 1049
4.91197 1077
4.93209 1055
4.9522 1012
4.97231 1015
4.99243 870
5.01254 957
5.03265 914
5.05277 879
5.07288 850
5.09299 830
5.11311 909
5.13322 862
5.15334 813
5.17345 795
5.19356 792
5.21368 813
5.23379 776
5.2539 774
5.27402 700
5.29413 706
5.31425 730
5.33436 710
5.35447 678
5.37459 671
5.3947 725
5.41481 644
5.43493 654
5.45504 666
5.47516 596
5.49527 689
5.51538 614
5.5355 589
5.55561 619
5.57572 580
5.59584 587
5.61595 578
5.63606 543
5.65618 611
5.67629 561
5.69641 540
5.71652 560
5.73663 528
5.75675 512
5.77686 519
5.79697 504
5.81709 532
5.8372 545
5.85732 477
5.87743 516
5.89754 468
5.91766 508
5.93777 516
5.95788 531
5.978 548
5.99811 508
6.01823 567
6.03834 506
6.05845 513
6.07857 514
6.09868 489
6.11879 500
6.13891 518
6.15902 484
6.17913 493
6.19925 507
6.21936 523
6.23948 480
6.25959 521
6.2797 487
6.29982 464
6.31993 447
6.34004 485
6.36016 494
6.38027 420
6.40039 466
6.4205 499
6.44061 473
6.46073 435
6.48084 427
6.50095 407
6.52107 429
6.54118 430
6.56129 436
6.58141 488
6.60152 431
6.62164 441
6.64175 447
6.66186 415
6.68198 433
6.70209 434
6.7222 427
6.74232 451
6.76243 413
6.78255 440
6.80266 458
6.82277 483
6.84289 457
6.863 453
6.88311 450
6.90323 415
6.92334 433
6.94346 427
6.96357 405
6.98368 416
7.0038 406
7.02391 394
7.04402 431
7.06414 413
7.08425 408
7.10436 410
7.12448 448
7.14459 446
7.16471 414
7.18482 415
7.20493 425
7.22505 418
7.24516 390
7.26527 420
7.28539 414
7.3055 430
7.32562 468
7.34573 462
7.36584 437
7.38596 401
7.40607 383
7.42618 425
7.4463 421
7.46641 393
7.48653 436
7.50664 403
7.52675 408
7.54687 440
7.56698 398
7.58709 404
7.60721 400
7.62732 452
7.64743 439
7.66755 412
7.68766 416
7.70778 417
7.72789 409
7.748 400
7.76812 436
7.78823 386
7.80834 433
7.82846 402
7.84857 375
7.86869 454
7.8888 401
7.90891 406
7.92903 404
7.94914 394
7.96925 446
7.98937 419
8.00948 412
8.0296 386
8.04971 392
8.06982 377
8.08994 443
8.11005 418
8.13016 421
8.15028 401
8.17039 439
8.1905 434
8.21062 416
8.23073 399
8.25085 438
8.27096 420
8.29107 433
8.31119 414
8.3313 417
8.35141 435
8.37153 422
8.39164 393
8.41176 399
8.43187 427
8.45198 399
8.4721 413
8.49221 450
8.51232 422
8.53244 412
8.55255 435
8.57266 397
8.59278 377
8.61289 435
8.63301 367
8.65312 393
8.67323 394
8.69335 427
8.71346 417
8.73357 437
8.75369 402
8.7738 412
8.79392 403
8.81403 396
8.83414 433
8.85426 408
8.87437 418
8.89448 435
8.9146 391
8.93471 420
8.95483 376
8.97494 388
8.99505 441
9.01517 430
9.03528 423
9.05539 409
9.07551 420
9.09562 381
9.11573 411
9.13585 395
9.15596 423
9.17608 439
9.19619 439
9.2163 354
9.23642 411
9.25653 414
9.27664 374
9.29676 450
9.31687 389
9.33699 416
9.3571 400
9.37721 437
9.39733 432
9.41744 430
9.43755 407
9.45767 408
9.47778 396
9.4979 403
9.51801 421
9.53812 411
9.55824 462
9.57835 411
9.59846 399
9.61858 384
9.63869 406
9.6588 403
9.67892 387
9.69903 448
9.71915 433
9.73926 402
9.75937 394
9.77949 396
9.7996 421
9.81971 375
9.83983 398
9.85994 393
9.88006 373
9.90017 398
9.92028 407
9.9404 391
9.96051 385
9.98062 426
10.00074 385
10.02085 428
10.04097 406
10.06108 392
10.08119 413
10.10131 376
10.12142 423
10.14153 406
10.16165 431
10.18176 471
10.20187 398
10.22199 372
10.2421 375
10.26222 383
10.28233 386
10.30244 415
10.32256 393
10.34267 401
10.36278 392
10.3829 382
10.40301 385
10.42313 400
10.44324 407
10.46335 438
10.48347 436
10.50358 460
10.52369 440
10.54381 395
10.56392 424
10.58403 391
10.60415 401
10.62426 428
10.64438 397
10.66449 418
10.6846 415
10.70472 396
10.72483 420
10.74494 411
10.76506 387
10.78517 411
10.80529 442
10.8254 371
10.84551 432
10.86563 458
10.88574 389
10.90585 457
10.92597 389
10.94608 424
10.9662 401
10.98631 415
11.00642 442
11.02654 395
11.04665 387
11.06676 437
11.08688 384
11.10699 404
11.1271 402
11.14722 410
11.16733 429
11.18745 406
11.20756 394
11.22767 443
11.24779 393
11.2679 438
11.28801 430
11.30813 455
11.32824 397
11.34836 441
11.36847 455
11.38858 417
11.4087 420
11.42881 418
11.44892 456
11.46904 428
11.48915 417
11.50927 460
11.52938 444
11.54949 409
11.56961 411
11.58972 467
11.60983 425
11.62995 436
11.65006 468
11.67017 426
11.69029 417
11.7104 458
11.73052 435
11.75063 438
11.77074 426
11.79086 463
11.81097 440
11.83108 467
11.8512 505
11.87131 494
11.89143 475
11.91154 525
11.93165 472
11.95177 510
11.97188 481
11.99199 488
12.01211 452
12.03222 556
12.05234 504
12.07245 486
12.09256 552
12.11268 559
12.13279 524
12.1529 540
12.17302 542
12.19313 555
12.21324 622
12.23336 581
12.25347 576
12.27359 594
12.2937 583
12.31381 608
12.33393 667
12.35404 617
12.37415 634
12.39427 643
12.41438 528
12.4345 573
12.45461 527
12.47472 535
12.49484 475
12.51495 494
12.53506 464
12.55518 472
12.57529 486
12.5954 451
12.61552 453
12.63563 405
12.65575 451
12.67586 441
12.69597 403
12.71609 397
12.7362 434
12.75631 428
12.77643 399
12.79654 411
12.81666 433
12.83677 384
12.85688 391
12.877 403
12.89711 374
12.91722 407
12.93734 384
12.95745 402
12.97757 418
12.99768 423
13.01779 412
13.03791 398
13.05802 354
13.07813 376
13.09825 397
13.11836 414
13.13847 381
13.15859 407
13.1787 394
13.19882 430
13.21893 411
13.23904 366
13.25916 401
13.27927 358
13.29938 396
13.3195 409
13.33961 368
13.35973 403
13.37984 381
13.39995 420
13.42007 406
13.44018 380
13.46029 394
13.48041 378
13.50052 372
13.52064 360
13.54075 409
13.56086 346
13.58098 376
13.60109 412
13.6212 362
13.64132 340
13.66143 374
13.68154 364
13.70166 350
13.72177 391
13.74189 351
13.762 353
13.78211 389
13.80223 361
13.82234 374
13.84245 397
13.86257 367
13.88268 395
13.9028 381
13.92291 320
13.94302 364
13.96314 351
13.98325 337
14.00336 365
14.02348 392
14.04359 364
14.06371 370
14.08382 376
14.10393 378
14.12405 396
14.14416 340
14.16427 361
14.18439 402
14.2045 396
14.22461 379
14.24473 377
14.26484 389
14.28496 301
14.30507 387
14.32518 388
14.3453 439
14.36541 376
14.38552 352
14.40564 392
14.42575 379
14.44587 409
14.46598 381
14.48609 395
14.50621 371
14.52632 352
14.54643 373
14.56655 403
14.58666 362
14.60677 350
14.62689 333
14.647 363
14.66712 360
14.68723 368
14.70734 369
14.72746 396
14.74757 373
14.76768 346
14.7878 376
14.80791 340
14.82803 356
14.84814 331
14.86825 410
14.88837 332
14.90848 362
14.92859 320
14.94871 336
14.96882 349
14.98894 333
15.00905 381
15.02916 382
15.04928 360
15.06939 355
15.0895 361
15.10962 326
15.12973 370
15.14984 381
15.16996 370
15.19007 384
15.21019 319
15.2303 387
15.25041 379
15.27053 368
15.29064 331
15.31075 329
15.33087 346
15.35098 391
15.3711 344
15.39121 359
15.41132 367
15.43144 379
15.45155 362
15.47166 364
15.49178 360
15.51189 336
15.53201 404
15.55212 367
15.57223 332
15.59235 351
15.61246 375
15.63257 326
15.65269 390
15.6728 351
15.69291 355
15.71303 406
15.73314 358
15.75326 363
15.77337 366
15.79348 354
15.8136 328
15.83371 385
15.85382 419
15.87394 392
15.89405 422
15.91417 427
15.93428 431
15.95439 415
15.97451 395
15.99462 440
16.01473 404
16.03485 395
16.05496 408
16.07508 372
16.09519 334
16.1153 394
16.13542 372
16.15553 374
16.17564 341
16.19576 375
16.21587 380
16.23598 375
16.2561 385
16.27621 322
16.29633 420
16.31644 369
16.33655 382
16.35667 369
16.37678 376
16.39689 359
16.41701 343
16.43712 383
16.45724 348
16.47735 385
16.49746 343
16.51758 354
16.53769 363
16.5578 353
16.57792 405
16.59803 351
16.61814 394
16.63826 337
16.65837 381
16.67849 308
16.6986 379
16.71871 375
16.73883 351
16.75894 355
16.77905 359
16.79917 370
16.81928 370
16.8394 351
16.85951 390
16.87962 368
16.89974 388
16.91985 339
16.93996 379
16.96008 380
16.98019 358
17.00031 388
17.02042 375
17.04053 359
17.06065 349
17.08076 360
17.10087 376
17.12099 395
17.1411 330
17.16121 378
17.18133 340
17.20144 354
17.22156 374
17.24167 336
17.26178 389
17.2819 348
17.30201 385
17.32212 381
17.34224 357
17.36235 339
17.38247 388
17.40258 357
17.42269 321
17.44281 383
17.46292 377
17.48303 340
17.50315 394
17.52326 378
17.54338 360
17.56349 367
17.5836 338
17.60372 415
17.62383 357
17.64394 390
17.66406 386
17.68417 397
17.70428 366
17.7244 380
17.74451 406
17.76463 363
17.78474 377
17.80485 370
17.82497 367
17.84508 405
17.86519 334
17.88531 387
17.90542 368
17.92554 411
17.94565 410
17.96576 375
17.98588 388
18.00599 387
18.0261 380
18.04622 370
18.06633 412
18.08645 406
18.10656 424
18.12667 397
18.14679 415
18.1669 435
18.18701 511
18.20713 521
18.22724 512
18.24735 621
18.26747 665
18.28758 688
18.3077 653
18.32781 595
18.34792 589
18.36804 461
18.38815 478
18.40826 469
18.42838 433
18.44849 419
18.46861 400
18.48872 407
18.50883 389
18.52895 371
18.54906 381
18.56917 371
18.58929 396
18.6094 426
18.62951 390
18.64963 372
18.66974 389
18.68986 348
18.70997 354
18.73008 390
18.7502 356
18.77031 414
18.79042 383
18.81054 385
18.83065 377
18.85077 362
18.87088 392
18.89099 402
18.91111 365
18.93122 425
18.95133 384
18.97145 370
18.99156 372
19.01168 365
19.03179 398
19.0519 370
19.07202 379
19.09213 392
19.11224 399
19.13236 344
19.15247 354
19.17258 406
19.1927 409
19.21281 435
19.23293 436
19.25304 423
19.27315 436
19.29327 400
19.31338 413
19.33349 420
19.35361 421
19.37372 410
19.39384 466
19.41395 455
19.43406 463
19.45418 469
19.47429 455
19.4944 490
19.51452 487
19.53463 535
19.55475 554
19.57486 514
19.59497 570
19.61509 544
19.6352 536
19.65531 489
19.67543 557
19.69554 543
19.71565 538
19.73577 539
19.75588 569
19.776 582
19.79611 664
19.81622 636
19.83634 640
19.85645 639
19.87656 660
19.89668 690
19.91679 683
19.93691 688
19.95702 672
19.97713 683
19.99725 632
20.01736 658
20.03747 617
20.05759 635
20.0777 684
20.09782 644
20.11793 614
20.13804 659
20.15816 645
20.17827 647
20.19838 658
20.2185 699
20.23861 675
20.25872 662
20.27884 748
20.29895 645
20.31907 639
20.33918 704
20.35929 616
20.37941 677
20.39952 683
20.41963 650
20.43975 655
20.45986 682
20.47998 703
20.50009 688
20.5202 625
20.54032 645
20.56043 723
20.58054 679
20.60066 694
20.62077 685
20.64088 712
20.661 767
20.68111 876
20.70123 1049
20.72134 1217
20.74145 1573
20.76157 1957
20.78168 2444
20.80179 3123
20.82191 3689
20.84202 3992
20.86214 3811
20.88225 3269
20.90236 2618
20.92248 1927
20.94259 1379
20.9627 1061
20.98282 857
21.00293 789
21.02305 758
21.04316 709
21.06327 677
21.08339 696
21.1035 701
21.12361 661
21.14373 684
21.16384 679
21.18395 679
21.20407 715
21.22418 621
21.2443 667
21.26441 708
21.28452 675
21.30464 707
21.32475 715
21.34486 723
21.36498 740
21.38509 699
21.40521 677
21.42532 718
21.44543 670
21.46555 694
21.48566 634
21.50577 645
21.52589 640
21.546 590
21.56612 638
21.58623 690
21.60634 603
21.62646 606
21.64657 582
21.66668 628
21.6868 651
21.70691 515
21.72702 543
21.74714 522
21.76725 568
21.78737 540
21.80748 558
21.82759 571
21.84771 547
21.86782 530
21.88793 524
21.90805 505
21.92816 548
21.94828 505
21.96839 501
21.9885 505
22.00862 545
22.02873 498
22.04884 505
22.06896 482
22.08907 491
22.10919 465
22.1293 509
22.14941 515
22.16953 494
22.18964 554
22.20975 507
22.22987 524
22.24998 501
22.27009 496
22.29021 472
22.31032 473
22.33044 518
22.35055 447
22.37066 449
22.39078 517
22.41089 474
22.431 467
22.45112 519
22.47123 494
22.49135 472
22.51146 484
22.53157 485
22.55169 495
22.5718 547
22.59191 515
22.61203 494
22.63214 558
22.65225 471
22.67237 483
22.69248 521
22.7126 502
22.73271 476
22.75282 443
22.77294 445
22.79305 409
22.81316 465
22.83328 456
22.85339 462
22.87351 445
22.89362 470
22.91373 526
22.93385 423
22.95396 440
22.97407 432
22.99419 466
23.0143 457
23.03442 451
23.05453 450
23.07464 459
23.09476 460
23.11487 474
23.13498 465
23.1551 429
23.17521 441
23.19532 415
23.21544 420
23.23555 483
23.25567 448
23.27578 467
23.29589 426
23.31601 409
23.33612 474
23.35623 483
23.37635 436
23.39646 458
23.41658 467
23.43669 433
23.4568 455
23.47692 480
23.49703 450
23.51714 479
23.53726 497
23.55737 457
23.57749 471
23.5976 473
23.61771 461
23.63783 427
23.65794 455
23.67805 466
23.69817 466
23.71828 516
23.73839 537
23.75851 515
23.77862 542
23.79874 587
23.81885 578
23.83896 563
23.85908 533
23.87919 539
23.8993 514
23.91942 540
23.93953 517
23.95965 538
23.97976 521
23.99987 509
24.01999 468
24.0401 540
24.06021 486
24.08033 497
24.10044 482
24.12056 468
24.14067 469
24.16078 524
24.1809 467
24.20101 470
24.22112 520
24.24124 489
24.26135 498
24.28146 467
24.30158 470
24.32169 460
24.34181 448
24.36192 463
24.38203 511
24.40215 476
24.42226 512
24.44237 535
24.46249 470
24.4826 477
24.50272 486
24.52283 496
24.54294 492
24.56306 495
24.58317 551
24.60328 493
24.6234 494
24.64351 525
24.66362 504
24.68374 519
24.70385 501
24.72397 568
24.74408 562
24.76419 570
24.78431 546
24.80442 584
24.82453 596
24.84465 622
24.86476 587
24.88488 590
24.90499 567
24.9251 583
24.94522 534
24.96533 581
24.98544 504
25.00556 559
25.02567 565
25.04579 513
25.0659 517
25.08601 543
25.10613 575
25.12624 593
25.14635 513
25.16647 553
25.18658 537
25.20669 549
25.22681 554
25.24692 593
25.26704 573
25.28715 539
25.30726 516
25.32738 526
25.34749 551
25.3676 473
25.38772 544
25.40783 469
25.42795 467
25.44806 480
25.46817 512
25.48829 502
25.5084 496
25.52851 465
25.54863 474
25.56874 503
25.58886 508
25.60897 486
25.62908 493
25.6492 502
25.66931 511
25.68942 512
25.70954 522
25.72965 534
25.74976 540
25.76988 560
25.78999 562
25.81011 539
25.83022 543
25.85033 559
25.87045 548
25.89056 508
25.91067 550
25.93079 574
25.9509 592
25.97102 584
25.99113 584
26.01124 598
26.03136 555
26.05147 590
26.07158 608
26.0917 591
26.11181 590
26.13193 628
26.15204 661
26.17215 669
26.19227 682
26.21238 719
26.23249 727
26.25261 779
26.27272 836
26.29283 826
26.31295 842
26.33306 921
26.35318 998
26.37329 1078
26.3934 1143
26.41352 1341
26.43363 1729
26.45374 2349
26.47386 2897
26.49397 3900
26.51409 5610
26.5342 7643
26.55431 10210
26.57443 12979
26.59454 15471
26.61465 16073
26.63477 15173
26.65488 13487
26.67499 10582
26.69511 7917
26.71522 5668
26.73534 3692
26.75545 2258
26.77556 1580
26.79568 1200
26.81579 1138
26.8359 1090
26.85602 969
26.87613 911
26.89625 856
26.91636 807
26.93647 752
26.95659 740
26.9767 737
26.99681 648
27.01693 624
27.03704 583
27.05716 575
27.07727 571
27.09738 545
27.1175 582
27.13761 563
27.15772 519
27.17784 558
27.19795 553
27.21806 546
27.23818 488
27.25829 489
27.27841 528
27.29852 498
27.31863 510
27.33875 482
27.35886 495
27.37897 497
27.39909 507
27.4192 481
27.43932 500
27.45943 482
27.47954 502
27.49966 508
27.51977 515
27.53988 531
27.56 486
27.58011 481
27.60023 483
27.62034 461
27.64045 490
27.66057 455
27.68068 443
27.70079 503
27.72091 491
27.74102 471
27.76113 484
27.78125 455
27.80136 503
27.82148 452
27.84159 500
27.8617 478
27.88182 506
27.90193 476
27.92204 484
27.94216 501
27.96227 453
27.98239 516
28.0025 461
28.02261 465
28.04273 436
28.06284 487
28.08295 499
28.10307 472
28.12318 462
28.1433 443
28.16341 425
28.18352 451
28.20364 490
28.22375 426
28.24386 452
28.26398 410
28.28409 453
28.3042 443
28.32432 414
28.34443 434
28.36455 451
28.38466 429
28.40477 426
28.42489 428
28.445 423
28.46511 421
28.48523 459
28.50534 412
28.52546 424
28.54557 425
28.56568 425
28.5858 406
28.60591 422
28.62602 453
28.64614 427
28.66625 426
28.68636 415
28.70648 445
28.72659 403
28.74671 416
28.76682 427
28.78693 412
28.80705 439
28.82716 409
28.84727 364
28.86739 424
28.8875 380
28.90762 408
28.92773 413
28.94784 396
28.96796 435
28.98807 420
29.00818 410
29.0283 419
29.04841 405
29.06853 420
29.08864 387
29.10875 409
29.12887 370
29.14898 430
29.16909 391
29.18921 404
29.20932 431
29.22943 416
29.24955 422
29.26966 427
29.28978 411
29.30989 421
29.33 404
29.35012 406
29.37023 415
29.39034 421
29.41046 412
29.43057 436
29.45069 392
29.4708 426
29.49091 383
29.51103 426
29.53114 374
29.55125 414
29.57137 412
29.59148 441
29.6116 410
29.63171 418
29.65182 414
29.67194 422
29.69205 400
29.71216 413
29.73228 409
29.75239 422
29.7725 432
29.79262 402
29.81273 397
29.83285 420
29.85296 389
29.87307 401
29.89319 407
29.9133 362
29.93341 396
29.95353 414
29.97364 401
29.99376 370
30.01387 375
30.03398 398
30.0541 402
30.07421 405
30.09432 406
30.11444 384
30.13455 415
30.15467 403
30.17478 415
30.19489 425
30.21501 403
30.23512 454
30.25523 415
30.27535 375
30.29546 430
30.31557 440
30.33569 401
30.3558 427
30.37592 438
30.39603 415
30.41614 423
30.43626 430
30.45637 414
30.47648 382
30.4966 401
30.51671 411
30.53683 387
30.55694 388
30.57705 377
30.59717 388
30.61728 409
30.63739 395
30.65751 433
30.67762 421
30.69773 403
30.71785 360
30.73796 413
30.75808 428
30.77819 375
30.7983 392
30.81842 397
30.83853 392
30.85864 407
30.87876 388
30.89887 407
30.91899 404
30.9391 417
30.95921 384
30.97933 403
30.99944 401
31.01955 419
31.03967 396
31.05978 418
31.0799 375
31.10001 383
31.12012 373
31.14024 372
31.16035 369
31.18046 379
31.20058 404
31.22069 376
31.2408 418
31.26092 378
31.28103 405
31.30115 406
31.32126 387
31.34137 380
31.36149 368
31.3816 386
31.40171 352
31.42183 355
31.44194 374
31.46206 382
31.48217 394
31.50228 371
31.5224 428
31.54251 384
31.56262 381
31.58274 420
31.60285 402
31.62297 392
31.64308 394
31.66319 408
31.68331 407
31.70342 389
31.72353 403
31.74365 369
31.76376 408
31.78387 373
31.80399 345
31.8241 383
31.84422 382
31.86433 379
31.88444 406
31.90456 353
31.92467 413
31.94478 411
31.9649 391
31.98501 391
32.00513 439
32.02524 380
32.04535 392
32.06547 419
32.08558 443
32.10569 454
32.12581 461
32.14592 433
32.16604 437
32.18615 473
32.20626 476
32.22638 454
32.24649 477
32.2666 447
32.28672 476
32.30683 468
32.32694 488
32.34706 468
32.36717 499
32.38729 509
32.4074 529
32.42751 549
32.44763 526
32.46774 557
32.48785 600
32.50797 575
32.52808 611
32.5482 621
32.56831 598
32.58842 611
32.60854 615
32.62865 537
32.64876 537
32.66888 513
32.68899 525
32.7091 516
32.72922 485
32.74933 435
32.76945 427
32.78956 464
32.80967 490
32.82979 446
32.8499 424
32.87001 447
32.89013 414
32.91024 471
32.93036 454
32.95047 473
32.97058 463
32.9907 469
33.01081 421
33.03092 463
33.05104 442
33.07115 419
33.09127 434
33.11138 422
33.13149 469
33.15161 459
33.17172 465
33.19183 494
33.21195 435
33.23206 420
33.25217 470
33.27229 433
33.2924 471
33.31252 445
33.33263 469
33.35274 474
33.37286 459
33.39297 448
33.41308 478
33.4332 465
33.45331 442
33.47343 422
33.49354 440
33.51365 427
33.53377 448
33.55388 480
33.57399 474
33.59411 459
33.61422 467
33.63434 460
33.65445 460
33.67456 440
33.69468 470
33.71479 492
33.7349 458
33.75502 454
33.77513 440
33.79524 443
33.81536 439
33.83547 432
33.85559 407
33.8757 402
33.89581 412
33.91593 403
33.93604 426
33.95615 432
33.97627 433
33.99638 396
34.0165 423
34.03661 395
34.05672 385
34.07684 430
34.09695 400
34.11706 438
34.13718 434
34.15729 415
34.17741 430
34.19752 467
34.21763 399
34.23775 425
34.25786 448
34.27797 395
34.29809 444
34.3182 389
34.33831 416
34.35843 462
34.37854 475
34.39866 422
34.41877 410
34.43888 428
34.459 416
34.47911 421
34.49922 433
34.51934 444
34.53945 422
34.55957 442
34.57968 426
34.59979 453
34.61991 469
34.64002 453
34.66013 471
34.68025 466
34.70036 508
34.72047 518
34.74059 477
34.7607 509
34.78082 501
34.80093 497
34.82104 534
34.84116 526
34.86127 541
34.88138 514
34.9015 556
34.92161 576
34.94173 581
34.96184 577
34.98195 525
35.00207 561
35.02218 573
35.04229 569
35.06241 553
35.08252 622
35.10264 587
35.12275 614
35.14286 645
35.16298 655
35.18309 646
35.2032 667
35.22332 687
35.24343 684
35.26354 702
35.28366 625
35.30377 632
35.32389 660
35.344 668
35.36411 598
35.38423 618
35.40434 582
35.42445 596
35.44457 565
35.46468 601
35.4848 591
35.50491 552
35.52502 599
35.54514 571
35.56525 600
35.58536 589
35.60548 537
35.62559 605
35.64571 618
35.66582 588
35.68593 585
35.70605 537
35.72616 569
35.74627 627
35.76639 589
35.7865 559
35.80661 577
35.82673 605
35.84684 560
35.86696 547
35.88707 556
35.90718 589
35.9273 613
35.94741 575
35.96752 583
35.98764 586
36.00775 564
36.02787 530
36.04798 550
36.06809 528
36.08821 598
36.10832 560
36.12843 568
36.14855 567
36.16866 529
36.18878 574
36.20889 566
36.229 588
36.24912 500
36.26923 551
36.28934 584
36.30946 537
36.32957 624
36.34968 710
36.3698 720
36.38991 827
36.41003 910
36.43014 998
36.45025 1219
36.47037 1337
36.49048 1509
36.51059 1474
36.53071 1418
36.55082 1325
36.57094 1169
36.59105 1041
36.61116 941
36.63128 837
36.65139 793
36.6715 638
36.69162 617
36.71173 573
36.73184 541
36.75196 560
36.77207 523
36.79219 566
36.8123 504
36.83241 537
36.85253 515
36.87264 552
36.89275 545
36.91287 546
36.93298 532
36.9531 554
36.97321 517
36.99332 529
37.01344 587
37.03355 540
37.05366 539
37.07378 509
37.09389 565
37.11401 559
37.13412 572
37.15423 488
37.17435 538
37.19446 518
37.21457 512
37.23469 537
37.2548 466
37.27491 499
37.29503 538
37.31514 552
37.33526 532
37.35537 542
37.37548 497
37.3956 514
37.41571 521
37.43582 513
37.45594 520
37.47605 503
37.49617 484
37.51628 501
37.53639 502
37.55651 498
37.57662 484
37.59673 504
37.61685 534
37.63696 475
37.65708 528
37.67719 527
37.6973 503
37.71742 517
37.73753 508
37.75764 538
37.77776 495
37.79787 476
37.81798 491
37.8381 485
37.85821 485
37.87833 479
37.89844 480
37.91855 464
37.93867 477
37.95878 467
37.97889 441
37.99901 487
38.01912 459
38.03924 483
38.05935 500
38.07946 526
38.09958 466
38.11969 466
38.1398 475
38.15992 462
38.18003 506
38.20015 494
38.22026 509
38.24037 503
38.26049 500
38.2806 518
38.30071 457
38.32083 547
38.34094 515
38.36105 551
38.38117 519
38.40128 508
38.4214 503
38.44151 530
38.46162 510
38.48174 472
38.50185 506
38.52196 518
38.54208 485
38.56219 493
38.58231 497
38.60242 489
38.62253 511
38.64265 517
38.66276 467
38.68287 469
38.70299 458
38.7231 452
38.74321 438
38.76333 464
38.78344 463
38.80356 393
38.82367 437
38.84378 468
38.8639 424
38.88401 465
38.90412 474
38.92424 427
38.94435 438
38.96447 465
38.98458 443
39.00469 473
39.02481 467
39.04492 451
39.06503 487
39.08515 475
39.10526 470
39.12538 502
39.14549 481
39.1656 534
39.18572 484
39.20583 544
39.22594 531
39.24606 573
39.26617 632
39.28628 654
39.3064 703
39.32651 804
39.34663 903
39.36674 1008
39.38685 1196
39.40697 1360
39.42708 1399
39.44719 1380
39.46731 1247
39.48742 1165
39.50754 1028
39.52765 934
39.54776 911
39.56788 744
39.58799 659
39.6081 584
39.62822 534
39.64833 507
39.66845 448
39.68856 484
39.70867 420
39.72879 467
39.7489 424
39.76901 451
39.78913 479
39.80924 458
39.82935 445
39.84947 452
39.86958 448
39.8897 443
39.90981 430
39.92992 472
39.95004 462
39.97015 465
39.99026 445
40.01038 471
40.03049 521
40.05061 486
40.07072 540
40.09083 517
40.11095 567
40.13106 588
40.15117 657
40.17129 722
40.1914 787
40.21152 870
40.23163 935
40.25174 918
40.27186 896
40.29197 820
40.31208 814
40.3322 740
40.35231 693
40.37242 642
40.39254 626
40.41265 596
40.43277 569
40.45288 473
40.47299 481
40.49311 476
40.51322 495
40.53333 471
40.55345 460
40.57356 500
40.59368 451
40.61379 426
40.6339 463
40.65402 453
40.67413 424
40.69424 444
40.71436 484
40.73447 482
40.75458 464
40.7747 430
40.79481 474
40.81493 484
40.83504 466
40.85515 452
40.87527 471
40.89538 430
40.91549 453
40.93561 447
40.95572 419
40.97584 474
40.99595 460
41.01606 424
41.03618 471
41.05629 431
41.0764 453
41.09652 469
41.11663 469
41.13675 434
41.15686 445
41.17697 492
41.19709 449
41.2172 458
41.23731 471
41.25743 458
41.27754 477
41.29765 474
41.31777 464
41.33788 452
41.358 425
41.37811 473
41.39822 462
41.41834 456
41.43845 506
41.45856 510
41.47868 487
41.49879 486
41.51891 417
41.53902 449
41.55913 484
41.57925 467
41.59936 486
41.61947 429
41.63959 438
41.6597 422
41.67982 439
41.69993 475
41.72004 442
41.74016 406
41.76027 426
41.78038 407
41.8005 422
41.82061 441
41.84072 449
41.86084 401
41.88095 414
41.90107 417
41.92118 414
41.94129 434
41.96141 449
41.98152 432
42.00163 422
42.02175 434
42.04186 419
42.06198 419
42.08209 447
42.1022 469
42.12232 432
42.14243 422
42.16254 413
42.18266 465
42.20277 443
42.22289 482
42.243 515
42.26311 503
42.28323 542
42.30334 650
42.32345 749
42.34357 813
42.36368 931
42.38379 934
42.40391 1036
42.42402 1004
42.44414 991
42.46425 850
42.48436 798
42.50448 772
42.52459 697
42.5447 608
42.56482 615
42.58493 529
42.60505 453
42.62516 430
42.64527 465
42.66539 415
42.6855 390
42.70561 394
42.72573 380
42.74584 371
42.76595 389
42.78607 408
42.80618 384
42.8263 430
42.84641 400
42.86652 390
42.88664 385
42.90675 398
42.92686 339
42.94698 345
42.96709 346
42.98721 394
43.00732 353
43.02743 394
43.04755 361
43.06766 380
43.08777 394
43.10789 367
43.128 383
43.14812 367
43.16823 369
43.18834 365
43.20846 354
43.22857 382
43.24868 386
43.2688 381
43.28891 396
43.30902 374
43.32914 386
43.34925 417
43.36937 345
43.38948 402
43.40959 395
43.42971 376
43.44982 357
43.46993 375
43.49005 393
43.51016 387
43.53028 398
43.55039 399
43.5705 376
43.59062 341
43.61073 364
43.63084 400
43.65096 359
43.67107 349
43.69119 399
43.7113 396
43.73141 352
43.75153 367
43.77164 378
43.79175 361
43.81187 353
43.83198 394
43.85209 367
43.87221 381
43.89232 387
43.91244 358
43.93255 384
43.95266 379
43.97278 411
43.99289 378
44.013 360
44.03312 368
44.05323 402
44.07335 380
44.09346 397
44.11357 362
44.13369 384
44.1538 392
44.17391 389
44.19403 376
44.21414 380
44.23426 425
44.25437 398
44.27448 407
44.2946 386
44.31471 375
44.33482 392
44.35494 371
44.37505 364
44.39516 387
44.41528 368
44.43539 362
44.45551 367
44.47562 385
44.49573 369
44.51585 369
44.53596 341
44.55607 398
44.57619 357
44.5963 343
44.61642 395
44.63653 387
44.65664 367
44.67676 390
44.69687 366
44.71698 364
44.7371 365
44.75721 345
44.77732 395
44.79744 388
44.81755 350
44.83767 393
44.85778 402
44.87789 389
44.89801 377
44.91812 375
44.93823 396
44.95835 407
44.97846 420
44.99858 371
45.01869 402
45.0388 371
45.05892 398
45.07903 373
45.09914 382
45.11926 421
45.13937 416
45.15949 348
45.1796 399
45.19971 406
45.21983 433
45.23994 400
45.26005 390
45.28017 412
45.30028 408
45.32039 398
45.34051 414
45.36062 374
45.38074 415
45.40085 405
45.42096 412
45.44108 406
45.46119 431
45.4813 433
45.50142 398
45.52153 412
45.54165 463
45.56176 460
45.58187 462
45.60199 452
45.6221 509
45.64221 503
45.66233 608
45.68244 660
45.70256 682
45.72267 807
45.74278 825
45.7629 738
45.78301 713
45.80312 728
45.82324 628
45.84335 626
45.86346 625
45.88358 580
45.90369 567
45.92381 464
45.94392 441
45.96403 433
45.98415 425
46.00426 409
46.02437 421
46.04449 394
46.0646 419
46.08472 380
46.10483 378
46.12494 388
46.14506 389
46.16517 427
46.18528 405
46.2054 417
46.22551 391
46.24563 422
46.26574 392
46.28585 383
46.30597 388
46.32608 362
46.34619 404
46.36631 379
46.38642 373
46.40653 370
46.42665 367
46.44676 382
46.46688 368
46.48699 395
46.5071 382
46.52722 381
46.54733 384
46.56744 390
46.58756 356
46.60767 440
46.62779 358
46.6479 363
46.66801 361
46.68813 364
46.70824 382
46.72835 361
46.74847 367
46.76858 381
46.78869 348
46.80881 367
46.82892 381
46.84904 373
46.86915 410
46.88926 389
46.90938 365
46.92949 351
46.9496 363
46.96972 345
46.98983 370
47.00995 347
47.03006 372
47.05017 394
47.07029 385
47.0904 408
47.11051 320
47.13063 355
47.15074 362
47.17086 334
47.19097 361
47.21108 359
47.2312 349
47.25131 371
47.27142 321
47.29154 396
47.31165 385
47.33176 411
47.35188 367
47.37199 374
47.39211 402
47.41222 375
47.43233 374
47.45245 361
47.47256 361
47.49267 363
47.51279 377
47.5329 348
47.55302 379
47.57313 404
47.59324 353
47.61336 379
47.63347 356
47.65358 376
47.6737 349
47.69381 422
47.71393 374
47.73404 379
47.75415 424
47.77427 375
47.79438 365
47.81449 338
47.83461 367
47.85472 378
47.87483 374
47.89495 356
47.91506 394
47.93518 391
47.95529 370
47.9754 394
47.99552 375
48.01563 354
48.03574 387
48.05586 397
48.07597 366
48.09609 371
48.1162 412
48.13631 404
48.15643 375
48.17654 392
48.19665 358
48.21677 349
48.23688 346
48.257 359
48.27711 355
48.29722 393
48.31734 367
48.33745 395
48.35756 389
48.37768 393
48.39779 349
48.4179 390
48.43802 424
48.45813 387
48.47825 374
48.49836 394
48.51847 377
48.53859 394
48.5587 414
48.57881 437
48.59893 416
48.61904 426
48.63916 410
48.65927 416
48.67938 414
48.6995 402
48.71961 426
48.73972 431
48.75984 413
48.77995 415
48.80006 418
48.82018 395
48.84029 411
48.86041 428
48.88052 401
48.90063 407
48.92075 400
48.94086 402
48.96097 418
48.98109 339
49.0012 398
49.02132 429
49.04143 410
49.06154 401
49.08166 402
49.10177 379
49.12188 406
49.142 391
49.16211 416
49.18223 341
49.20234 383
49.22245 436
49.24257 411
49.26268 383
49.28279 377
49.30291 386
49.32302 400
49.34313 378
49.36325 417
49.38336 371
49.40348 347
49.42359 393
49.4437 376
49.46382 397
49.48393 364
49.50404 378
49.52416 396
49.54427 406
49.56439 361
49.5845 381
49.60461 404
49.62473 403
49.64484 381
49.66495 358
49.68507 425
49.70518 423
49.7253 423
49.74541 414
49.76552 402
49.78564 453
49.80575 458
49.82586 454
49.84598 509
49.86609 561
49.8862 555
49.90632 609
49.92643 666
49.94655 796
49.96666 835
49.98677 1021
50.00689 1128
50.027 1352
50.04711 1668
50.06723 1906
50.08734 1999
50.10746 1859
50.12757 1641
50.14768 1498
50.1678 1310
50.18791 1243
50.20802 1234
50.22814 1109
50.24825 1039
50.26837 880
50.28848 699
50.30859 569
50.32871 532
50.34882 522
50.36893 416
50.38905 466
50.40916 464
50.42927 429
50.44939 434
50.4695 477
50.48962 451
50.50973 438
50.52984 407
50.54996 462
50.57007 437
50.59018 456
50.6103 414
50.63041 462
50.65053 428
50.67064 396
50.69075 411
50.71087 427
50.73098 427
50.75109 408
50.77121 427
50.79132 389
50.81143 390
50.83155 398
50.85166 397
50.87178 362
50.89189 388
50.912 359
50.93212 396
50.95223 377
50.97234 421
50.99246 391
51.01257 377
51.03269 390
51.0528 407
51.07291 370
51.09303 372
51.11314 403
51.13325 356
51.15337 342
51.17348 373
51.1936 333
51.21371 354
51.23382 358
51.25394 369
51.27405 382
51.29416 348
51.31428 362
51.33439 381
51.3545 357
51.37462 347
51.39473 338
51.41485 370
51.43496 327
51.45507 373
51.47519 393
51.4953 376
51.51541 376
51.53553 342
51.55564 393
51.57576 351
51.59587 383
51.61598 338
51.6361 343
51.65621 362
51.67632 359
51.69644 357
51.71655 336
51.73667 348
51.75678 386
51.77689 360
51.79701 374
51.81712 354
51.83723 333
51.85735 367
51.87746 366
51.89757 363
51.91769 322
51.9378 361
51.95792 381
51.97803 381
51.99814 370
52.01826 377
52.03837 404
52.05848 394
52.0786 397
52.09871 386
52.11883 391
52.13894 344
52.15905 405
52.17917 361
52.19928 399
52.21939 348
52.23951 372
52.25962 387
52.27974 381
52.29985 366
52.31996 357
52.34008 370
52.36019 385
52.3803 353
52.40042 366
52.42053 346
52.44064 359
52.46076 347
52.48087 353
52.50099 353
52.5211 359
52.54121 374
52.56133 366
52.58144 347
52.60155 358
52.62167 358
52.64178 378
52.6619 375
52.68201 410
52.70212 353
52.72224 374
52.74235 382
52.76246 356
52.78258 352
52.80269 387
52.8228 406
52.84292 412
52.86303 412
52.88315 412
52.90326 364
52.92337 408
52.94349 413
52.9636 411
52.98371 433
53.00383 469
53.02394 441
53.04406 427
53.06417 508
53.08428 452
53.1044 458
53.12451 477
53.14462 468
53.16474 474
53.18485 438
53.20497 455
53.22508 403
53.24519 429
53.26531 418
53.28542 413
53.30553 472
53.32565 455
53.34576 435
53.36587 445
53.38599 426
53.4061 445
53.42622 444
53.44633 420
53.46644 422
53.48656 430
53.50667 443
53.52678 421
53.5469 427
53.56701 450
53.58713 445
53.60724 451
53.62735 444
53.64747 416
53.66758 432
53.68769 421
53.70781 443
53.72792 448
53.74804 431
53.76815 412
53.78826 449
53.80838 446
53.82849 410
53.8486 446
53.86872 477
53.88883 438
53.90894 407
53.92906 431
53.94917 459
53.96929 451
53.9894 410
54.00951 461
54.02963 483
54.04974 484
54.06985 482
54.08997 466
54.11008 478
54.1302 464
54.15031 464
54.17042 450
54.19054 484
54.21065 450
54.23076 472
54.25088 432
54.27099 485
54.29111 471
54.31122 480
54.33133 481
54.35145 468
54.37156 458
54.39167 455
54.41179 460
54.4319 467
54.45201 445
54.47213 405
54.49224 444
54.51236 430
54.53247 477
54.55258 487
54.5727 462
54.59281 490
54.61292 483
54.63304 483
54.65315 515
54.67327 563
54.69338 547
54.71349 594
54.73361 639
54.75372 705
54.77383 747
54.79395 812
54.81406 849
54.83417 886
54.85429 826
54.8744 801
54.89452 715
54.91463 667
54.93474 662
54.95486 656
54.97497 621
54.99508 578
55.0152 587
55.03531 524
55.05543 484
55.07554 470
55.09565 461
55.11577 455
55.13588 458
55.15599 525
55.17611 512
55.19622 546
55.21634 525
55.23645 595
55.25656 583
55.27668 591
55.29679 519
55.3169 537
55.33702 535
55.35713 511
55.37724 546
55.39736 538
55.41747 522
55.43759 532
55.4577 494
55.47781 440
55.49793 459
55.51804 393
55.53815 430
55.55827 429
55.57838 408
55.5985 408
55.61861 403
55.63872 433
55.65884 415
55.67895 406
55.69906 403
55.71918 379
55.73929 410
55.75941 400
55.77952 375
55.79963 379
55.81975 413
55.83986 410
55.85997 404
55.88009 407
55.9002 390
55.92031 402
55.94043 363
55.96054 405
55.98066 386
56.00077 389
56.02088 389
56.041 383
56.06111 377
56.08122 370
56.10134 388
56.12145 403
56.14157 355
56.16168 400
56.18179 370
56.20191 352
56.22202 349
56.24213 351
56.26225 379
56.28236 373
56.30248 401
56.32259 433
56.3427 397
56.36282 395
56.38293 385
56.40304 402
56.42316 373
56.44327 373
56.46338 340
56.4835 372
56.50361 379
56.52373 385
56.54384 376
56.56395 374
56.58407 381
56.60418 373
56.62429 380
56.64441 368
56.66452 348
56.68464 383
56.70475 398
56.72486 397
56.74498 389
56.76509 355
56.7852 375
56.80532 399
56.82543 384
56.84554 385
56.86566 384
56.88577 414
56.90589 410
56.926 360
56.94611 389
56.96623 361
56.98634 365
57.00645 346
57.02657 405
57.04668 368
57.0668 392
57.08691 379
57.10702 340
57.12714 378
57.14725 400
57.16736 382
57.18748 351
57.20759 407
57.22771 387
57.24782 365
57.26793 355
57.28805 405
57.30816 392
57.32827 355
57.34839 359
57.3685 363
57.38861 325
57.40873 354
57.42884 393
57.44896 364
57.46907 370
57.48918 352
57.5093 371
57.52941 359
57.54952 376
57.56964 333
57.58975 367
57.60987 389
57.62998 376
57.65009 374
57.67021 368
57.69032 368
57.71043 346
57.73055 374
57.75066 364
57.77078 394
57.79089 372
57.811 376
57.83112 353
57.85123 366
57.87134 385
57.89146 343
57.91157 359
57.93168 383
57.9518 380
57.97191 387
57.99203 360
58.01214 342
58.03225 375
58.05237 335
58.07248 373
58.09259 368
58.11271 385
58.13282 345
58.15294 368
58.17305 387
58.19316 395
58.21328 366
58.23339 372
58.2535 339
58.27362 361
58.29373 352
58.31385 358
58.33396 383
58.35407 371
58.37419 345
58.3943 360
58.41441 391
58.43453 352
58.45464 333
58.47475 349
58.49487 353
58.51498 342
58.5351 375
58.55521 357
58.57532 371
58.59544 364
58.61555 377
58.63566 330
58.65578 364
58.67589 343
58.69601 364
58.71612 360
58.73623 358
58.75635 361
58.77646 320
58.79657 374
58.81669 355
58.8368 345
58.85691 345
58.87703 361
58.89714 352
58.91726 347
58.93737 344
58.95748 379
58.9776 358
58.99771 356
59.01782 353
59.03794 376
59.05805 387
59.07817 366
59.09828 355
59.11839 366
59.13851 356
59.15862 388
59.17873 357
59.19885 367
59.21896 363
59.23908 352
59.25919 403
59.2793 378
59.29942 377
59.31953 376
59.33964 355
59.35976 367
59.37987 395
59.39998 372
59.4201 366
59.44021 406
59.46033 398
59.48044 374
59.50055 398
59.52067 435
59.54078 400
59.56089 397
59.58101 432
59.60112 431
59.62124 437
59.64135 459
59.66146 487
59.68158 505
59.70169 526
59.7218 552
59.74192 550
59.76203 669
59.78215 723
59.80226 832
59.82237 974
59.84249 1115
59.8626 1234
59.88271 1291
59.90283 1331
59.92294 1348
59.94305 1141
59.96317 1031
59.98328 894
60.0034 839
60.02351 840
60.04362 914
60.06374 845
60.08385 855
60.10396 745
60.12408 635
60.14419 585
60.16431 470
60.18442 482
60.20453 506
60.22465 445
60.24476 420
60.26487 422
60.28499 397
60.3051 407
60.32522 413
60.34533 380
60.36544 408
60.38556 378
60.40567 396
60.42578 397
60.4459 388
60.46601 400
60.48612 375
60.50624 364
60.52635 402
60.54647 404
60.56658 363
60.58669 379
60.60681 370
60.62692 405
60.64703 381
60.66715 337
60.68726 371
60.70738 378
60.72749 341
60.7476 328
60.76772 349
60.78783 394
60.80794 339
60.82806 376
60.84817 341
60.86828 352
60.8884 387
60.90851 353
60.92863 349
60.94874 392
60.96885 328
60.98897 373
61.00908 357
61.02919 359
61.04931 373
61.06942 365
61.08954 361
61.10965 356
61.12976 393
61.14988 386
61.16999 372
61.1901 364
61.21022 357
61.23033 365
61.25045 375
61.27056 386
61.29067 379
61.31079 376
61.3309 426
61.35101 368
61.37113 381
61.39124 388
61.41135 417
61.43147 407
61.45158 400
61.4717 417
61.49181 445
61.51192 395
61.53204 427
61.55215 426
61.57226 423
61.59238 410
61.61249 396
61.63261 428
61.65272 385
61.67283 408
61.69295 417
61.71306 393
61.73317 418
61.75329 406
61.7734 411
61.79352 409
61.81363 402
61.83374 414
61.85386 439
61.87397 411
61.89408 431
61.9142 428
61.93431 391
61.95442 448
61.97454 428
61.99465 426
62.01477 460
62.03488 472
62.05499 459
62.07511 451
62.09522 471
62.11533 458
62.13545 469
62.15556 433
62.17568 439
62.19579 467
62.2159 448
62.23602 447
62.25613 485
62.27624 448
62.29636 472
62.31647 490
62.33659 482
62.3567 470
62.37681 435
62.39693 465
62.41704 454
62.43715 416
62.45727 423
62.47738 436
62.49749 424
62.51761 426
62.53772 427
62.55784 433
62.57795 384
62.59806 377
62.61818 380
62.63829 411
62.6584 398
62.67852 402
62.69863 353
62.71875 403
62.73886 423
62.75897 375
62.77909 417
62.7992 394
62.81931 434
62.83943 379
62.85954 427
62.87965 395
62.89977 397
62.91988 354
62.94 412
62.96011 406
62.98022 387
63.00034 426
63.02045 393
63.04056 379
63.06068 394
63.08079 395
63.10091 400
63.12102 383
63.14113 414
63.16125 400
63.18136 421
63.20147 389
63.22159 433
63.2417 398
63.26182 403
63.28193 401
63.30204 407
63.32216 409
63.34227 420
63.36238 400
63.3825 421
63.40261 413
63.42272 396
63.44284 363
63.46295 377
63.48307 370
63.50318 349
63.52329 384
63.54341 419
63.56352 382
63.58363 399
63.60375 415
63.62386 361
63.64398 389
63.66409 410
63.6842 416
63.70432 392
63.72443 354
63.74454 434
63.76466 406
63.78477 387
63.80489 411
63.825 408
63.84511 398
63.86523 419
63.88534 462
63.90545 477
63.92557 518
63.94568 543
63.96579 547
63.98591 535
64.00602 515
64.02614 547
64.04625 476
64.06636 467
64.08648 463
64.10659 444
64.1267 435
64.14682 430
64.16693 435
64.18705 455
64.20716 454
64.22727 410
64.24739 405
64.2675 399
64.28761 390
64.30773 370
64.32784 351
64.34796 349
64.36807 384
64.38818 347
64.4083 383
64.42841 342
64.44852 394
64.46864 351
64.48875 357
64.50886 363
64.52898 378
64.54909 378
64.56921 360
64.58932 383
64.60943 364
64.62955 329
64.64966 367
64.66977 369
64.68989 366
64.71 348
64.73012 348
64.75023 339
64.77034 368
64.79046 393
64.81057 344
64.83068 363
64.8508 371
64.87091 363
64.89102 381
64.91114 365
64.93125 351
64.95137 335
64.97148 359
64.99159 339
65.01171 360
65.03182 370
65.05193 365
65.07205 359
65.09216 359
65.11228 368
65.13239 372
65.1525 346
65.17262 341
65.19273 351
65.21284 365
65.23296 343
65.25307 355
65.27319 337
65.2933 300
65.31341 323
65.33353 305
65.35364 347
65.37375 373
65.39387 330
65.41398 362
65.43409 357
65.45421 334
65.47432 344
65.49444 328
65.51455 364
65.53466 345
65.55478 347
65.57489 355
65.595 366
65.61512 375
65.63523 355
65.65535 378
65.67546 361
65.69557 395
65.71569 370
65.7358 381
65.75591 379
65.77603 361
65.79614 374
65.81626 383
65.83637 399
65.85648 372
65.8766 361
65.89671 362
65.91682 349
65.93694 374
65.95705 342
65.97716 375
65.99728 347
66.01739 339
66.03751 358
66.05762 345
66.07773 352
66.09785 408
66.11796 368
66.13807 379
66.15819 325
66.1783 324
66.19842 328
66.21853 340
66.23864 317
66.25876 319
66.27887 345
66.29898 344
66.3191 327
66.33921 334
66.35933 340
66.37944 313
66.39955 323
66.41967 336
66.43978 360
66.45989 349
66.48001 332
66.50012 327
66.52023 381
66.54035 348
66.56046 363
66.58058 351
66.60069 407
66.6208 358
66.64092 366
66.66103 375
66.68114 332
66.70126 355
66.72137 365
66.74149 331
66.7616 366
66.78171 355
66.80183 338
66.82194 340
66.84205 356
66.86217 347
66.88228 345
66.90239 347
66.92251 360
66.94262 338
66.96274 372
66.98285 368
67.00296 375
67.02308 352
67.04319 339
67.0633 342
67.08342 340
67.10353 349
67.12365 337
67.14376 340
67.16387 360
67.18399 368
67.2041 343
67.22421 392
67.24433 389
67.26444 343
67.28456 383
67.30467 361
67.32478 387
67.3449 388
67.36501 375
67.38512 361
67.40524 375
67.42535 421
67.44546 420
67.46558 402
67.48569 409
67.50581 480
67.52592 498
67.54603 521
67.56615 522
67.58626 646
67.60637 684
67.62649 775
67.6466 855
67.66672 874
67.68683 862
67.70694 845
67.72706 816
67.74717 785
67.76728 690
67.7874 664
67.80751 672
67.82763 655
67.84774 694
67.86785 709
67.88797 762
67.90808 665
67.92819 685
67.94831 735
67.96842 696
67.98853 811
68.00865 839
68.02876 874
68.04888 1049
68.06899 1050
68.0891 1113
68.10922 1129
68.12933 972
68.14944 920
68.16956 912
68.18967 887
68.20979 964
68.2299 1032
68.25001 1039
68.27013 994
68.29024 962
68.31035 882
68.33047 817
68.35058 700
68.3707 619
68.39081 582
68.41092 582
68.43104 550
68.45115 537
68.47126 531
68.49138 525
68.51149 436
68.5316 428
68.55172 397
68.57183 400
68.59195 401
68.61206 362
68.63217 373
68.65229 360
68.6724 334
68.69251 363
68.71263 367
68.73274 337
68.75286 340
68.77297 310
68.79308 362
68.8132 344
68.83331 311
68.85342 342
68.87354 357
68.89365 332
68.91376 354
68.93388 353
68.95399 342
68.97411 339
68.99422 369
69.01433 369
69.03445 343
69.05456 334
69.07467 363
69.09479 325
69.1149 352
69.13502 334
69.15513 307
69.17524 308
69.19536 317
69.21547 336
69.23558 334
69.2557 312
69.27581 340
69.29593 342
69.31604 360
69.33615 302
69.35627 348
69.37638 340
69.39649 329
69.41661 366
69.43672 358
69.45683 339
69.47695 352
69.49706 307
69.51718 332
69.53729 315
69.5574 319
69.57752 329
69.59763 311
69.61774 352
69.63786 322
69.65797 346
69.67809 356
69.6982 355
69.71831 296
69.73843 307
69.75854 351
69.77865 315
69.79877 311
69.81888 330
69.839 340
69.85911 345
69.87922 328
69.89934 343
69.91945 300
69.93956 344
69.95968 328
69.97979 348
69.9999 353
70.02002 333
70.04013 315
70.06025 351
70.08036 313
70.10047 337
70.12059 374
70.1407 324
70.16081 344
70.18093 346
70.20104 347
70.22116 362
70.24127 358
70.26138 336
70.2815 329
70.30161 342
70.32172 334
70.34184 360
70.36195 337
70.38207 301
70.40218 340
70.42229 344
70.44241 330
70.46252 315
70.48263 304
70.50275 338
70.52286 351
70.54297 330
70.56309 333
70.5832 347
70.60332 328
70.62343 332
70.64354 355
70.66366 328
70.68377 331
70.70388 335
70.724 309
70.74411 345
70.76423 315
70.78434 360
70.80445 338
70.82457 326
70.84468 366
70.86479 334
70.88491 331
70.90502 331
70.92513 324
70.94525 377
70.96536 302
70.98548 297
71.00559 351
71.0257 356
71.04582 316
71.06593 313
71.08604 336
71.10616 328
71.12627 319
71.14639 351
71.1665 317
71.18661 301
71.20673 325
71.22684 335
71.24695 327
71.26707 320
71.28718 302
71.3073 335
71.32741 296
71.34752 346
71.36764 323
71.38775 296
71.40786 344
71.42798 301
71.44809 298
71.4682 327
71.48832 319
71.50843 297
71.52855 306
71.54866 348
71.56877 353
71.58889 341
71.609 312
71.62911 351
71.64923 330
71.66934 322
71.68946 331
71.70957 332
71.72968 325
71.7498 341
71.76991 312
71.79002 340
71.81014 330
71.83025 308
71.85037 307
71.87048 313
71.89059 326
71.91071 313
71.93082 324
71.95093 298
71.97105 365
71.99116 334
72.01127 320
72.03139 297
72.0515 296
72.07162 310
72.09173 344
72.11184 327
72.13196 394
72.15207 333
72.17218 331
72.1923 316
72.21241 343
72.23253 346
72.25264 314
72.27275 330
72.29287 344
72.31298 340
72.33309 306
72.35321 329
72.37332 324
72.39344 319
72.41355 291
72.43366 333
72.45378 326
72.47389 360
72.494 311
72.51412 350
72.53423 317
72.55434 365
72.57446 322
72.59457 317
72.61469 320
72.6348 328
72.65491 335
72.67503 312
72.69514 341
72.71525 311
72.73537 317
72.75548 324
72.7756 310
72.79571 321
72.81582 321
72.83594 323
72.85605 322
72.87616 317
72.89628 309
72.91639 321
72.9365 318
72.95662 365
72.97673 351
72.99685 332
73.01696 317
73.03707 347
73.05719 317
73.0773 309
73.09741 316
73.11753 335
73.13764 373
73.15776 314
73.17787 330
73.19798 372
73.2181 342
73.23821 357
73.25832 363
73.27844 380
73.29855 408
73.31867 418
73.33878 454
73.35889 449
73.37901 484
73.39912 553
73.41923 553
73.43935 513
73.45946 440
73.47957 461
73.49969 428
73.5198 420
73.53992 394
73.56003 432
73.58014 449
73.60026 418
73.62037 434
73.64048 429
73.6606 409
73.68071 390
73.70083 409
73.72094 368
73.74105 361
73.76117 339
73.78128 349
73.80139 307
73.82151 314
73.84162 321
73.86174 330
73.88185 330
73.90196 332
73.92208 323
73.94219 341
73.9623 321
73.98242 327
74.00253 315
74.02264 331
74.04276 309
74.06287 335
74.08299 324
74.1031 342
74.12321 329
74.14333 295
74.16344 337
74.18355 316
74.20367 326
74.22378 349
74.2439 309
74.26401 350
74.28412 308
74.30424 304
74.32435 328
74.34446 326
74.36458 321
74.38469 343
74.40481 325
74.42492 303
74.44503 334
74.46515 334
74.48526 328
74.50537 339
74.52549 321
74.5456 349
74.56571 323
74.58583 330
74.60594 304
74.62606 315
74.64617 339
74.66628 285
74.6864 336
74.70651 288
74.72662 320
74.74674 332
74.76685 302
74.78697 309
74.80708 349
74.82719 315
74.84731 320
74.86742 309
74.88753 317
74.90765 339
74.92776 325
74.94787 306
74.96799 328
74.9881 332
75.00822 325
