3.00117 20939
3.02128 21108
3.0414 19878
3.06151 19396
3.08162 18987
3.10174 18518
3.12185 17964
3.14197 17322
3.16208 17210
3.18219 16454
3.20231 15986
3.22242 15572
3.24253 15047
3.26265 14938
3.28276 14206
3.30288 13593
3.32299 13474
3.3431 12694
3.36322 12583
3.38333 12161
3.40344 11793
3.42356 11453
3.44367 10897
3.46379 10570
3.4839 10212
3.50401 10033
3.52413 9785
3.54424 9007
3.56435 8782
3.58447 8572
3.60458 8373
3.62469 7991
3.64481 7559
3.66492 7360
3.68504 6936
3.70515 6838
3.72526 6693
3.74538 6124
3.76549 6112
3.7856 5630
3.80572 5557
3.82583 5411
3.84595 5031
3.86606 5059
3.88617 4705
3.90629 4542
3.9264 4395
3.94651 4170
3.96663 4133
3.98674 3859
4.00686 3631
4.02697 3665
4.04708 3254
4.0672 3217
4.08731 3267
4.10742 3037
4.12754 2997
4.14765 2595
4.16776 2541
4.18788 2524
4.20799 2463
4.22811 2451
4.24822 2125
4.26833 2328
4.28845 2165
4.30856 2122
4.32867 2149
4.34879 1857
4.3689 1921
4.38902 1869
4.40913 1766
4.42924 1825
4.44936 1635
4.46947 1610
4.48958 1608
4.5097 1684
4.52981 1649
4.54992 1498
4.57004 1538
4.59015 1427
4.61027 1409
4.63038 1428
4.65049 1326
4.67061 1329
4.69072 1321
4.71083 1275
4.73095 1275
4.75106 1186
4.77118 1226
4.79129 1157
4.8114 1224
4.83152 1108
4.85163 1078
4.87174 1086
4.89186 1092
4.91197 997
4.93209 1066
4.9522 959
4.97231 978
4.99243 989
5.01254 909
5.03265 973
5.05277 922
5.07288 864
5.09299 862
5.11311 894
5.13322 871
5.15334 767
5.17345 780
5.19356 833
5.21368 813
5.23379 725
5.2539 767
5.27402 763
5.29413 763
5.31425 784
5.33436 696
5.35447 665
5.37459 645
5.3947 620
5.41481 702
5.43493 626
5.45504 666
5.47516 603
5.49527 680
5.51538 653
5.5355 581
5.55561 599
5.57572 582
5.59584 553
5.61595 587
5.63606 545
5.65618 551
5.67629 511
5.69641 525
5.71652 567
5.73663 536
5.75675 539
5.77686 538
5.79697 543
5.81709 526
5.8372 546
5.85732 473
5.87743 453
5.89754 526
5.91766 504
5.93777 523
5.95788 519
5.978 516
5.99811 452
6.01823 457
6.03834 446
6.05845 445
6.07857 438
6.09868 499
6.11879 498
6.13891 428
6.15902 478
6.17913 422
6.19925 426
6.21936 475
6.23948 415
6.25959 401
6.2797 443
6.29982 450
6.31993 456
6.34004 442
6.36016 431
6.38027 432
6.40039 414
6.4205 412
6.44061 386
6.46073 405
6.48084 392
6.50095 416
6.52107 453
6.54118 403
6.56129 392
6.58141 401
6.60152 393
6.62164 415
6.64175 391
6.66186 412
6.68198 425
6.70209 419
6.7222 413
6.74232 424
6.76243 388
6.78255 423
6.80266 384
6.82277 403
6.84289 407
6.863 413
6.88311 453
6.90323 400
6.92334 384
6.94346 386
6.96357 411
6.98368 381
7.0038 375
7.02391 368
7.04402 427
7.06414 388
7.08425 419
7.10436 398
7.12448 342
7.14459 400
7.16471 455
7.18482 412
7.20493 393
7.22505 405
7.24516 390
7.26527 423
7.28539 466
7.3055 363
7.32562 393
7.34573 428
7.36584 364
7.38596 430
7.40607 400
7.42618 381
7.4463 371
7.46641 406
7.48653 400
7.50664 416
7.52675 454
7.54687 417
7.56698 400
7.58709 393
7.60721 366
7.62732 399
7.64743 430
7.66755 410
7.68766 381
7.70778 373
7.72789 369
7.748 409
7.76812 439
7.78823 404
7.80834 417
7.82846 400
7.84857 410
7.86869 427
7.8888 388
7.90891 400
7.92903 386
7.94914 361
7.96925 394
7.98937 364
8.00948 397
8.0296 414
8.04971 376
8.06982 414
8.08994 369
8.11005 400
8.13016 439
8.15028 384
8.17039 357
8.1905 372
8.21062 403
8.23073 427
8.25085 396
8.27096 398
8.29107 364
8.31119 355
8.3313 400
8.35141 383
8.37153 403
8.39164 411
8.41176 417
8.43187 402
8.45198 426
8.4721 435
8.49221 403
8.51232 411
8.53244 391
8.55255 420
8.57266 366
8.59278 438
8.61289 405
8.63301 368
8.65312 408
8.67323 423
8.69335 408
8.71346 355
8.73357 355
8.75369 358
8.7738 422
8.79392 423
8.81403 360
8.83414 380
8.85426 402
8.87437 387
8.89448 396
8.9146 384
8.93471 379
8.95483 409
8.97494 377
8.99505 343
9.01517 370
9.03528 445
9.05539 413
9.07551 387
9.09562 340
9.11573 393
9.13585 416
9.15596 396
9.17608 405
9.19619 369
9.2163 372
9.23642 341
9.25653 390
9.27664 414
9.29676 391
9.31687 392
9.33699 366
9.3571 361
9.37721 391
9.39733 400
9.41744 380
9.43755 404
9.45767 404
9.47778 347
9.4979 386
9.51801 410
9.53812 370
9.55824 401
9.57835 387
9.59846 351
9.61858 345
9.63869 377
9.6588 386
9.67892 411
9.69903 371
9.71915 389
9.73926 391
9.75937 397
9.77949 381
9.7996 350
9.81971 428
9.83983 421
9.85994 364
9.88006 395
9.90017 419
9.92028 400
9.9404 368
9.96051 390
9.98062 416
10.00074 374
10.02085 392
10.04097 394
10.06108 410
10.08119 402
10.10131 373
10.12142 376
10.14153 361
10.16165 457
10.18176 353
10.20187 379
10.22199 408
10.2421 401
10.26222 386
10.28233 363
10.30244 376
10.32256 373
10.34267 351
10.36278 425
10.3829 434
10.40301 425
10.42313 384
10.44324 411
10.46335 406
10.48347 381
10.50358 353
10.52369 399
10.54381 371
10.56392 399
10.58403 395
10.60415 424
10.62426 368
10.64438 387
10.66449 414
10.6846 385
10.70472 364
10.72483 424
10.74494 383
10.76506 471
10.78517 392
10.80529 411
10.8254 407
10.84551 385
10.86563 394
10.88574 439
10.90585 337
10.92597 397
10.94608 426
10.9662 391
10.98631 399
11.00642 362
11.02654 414
11.04665 430
11.06676 429
11.08688 405
11.10699 400
11.1271 423
11.14722 438
11.16733 416
11.18745 365
11.20756 413
11.22767 412
11.24779 448
11.2679 370
11.28801 434
11.30813 411
11.32824 442
11.34836 438
11.36847 408
11.38858 421
11.4087 440
11.42881 416
11.44892 460
11.46904 443
11.48915 422
11.50927 440
11.52938 478
11.54949 448
11.56961 448
11.58972 415
11.60983 486
11.62995 455
11.65006 444
11.67017 434
11.69029 502
11.7104 512
11.73052 494
11.75063 476
11.77074 496
11.79086 456
11.81097 512
11.83108 513
11.8512 497
11.87131 511
11.89143 527
11.91154 514
11.93165 601
11.95177 571
11.97188 612
11.99199 579
12.01211 644
12.03222 667
12.05234 648
12.07245 687
12.09256 684
12.11268 734
12.13279 796
12.1529 836
12.17302 781
12.19313 818
12.21324 907
12.23336 880
12.25347 913
12.27359 879
12.2937 863
12.31381 911
12.33393 890
12.35404 803
12.37415 898
12.39427 779
12.41438 796
12.4345 723
12.45461 699
12.47472 757
12.49484 647
12.51495 647
12.53506 603
12.55518 579
12.57529 553
12.5954 520
12.61552 480
12.63563 481
12.65575 484
12.67586 474
12.69597 463
12.71609 449
12.7362 438
12.75631 443
12.77643 433
12.79654 419
12.81666 428
12.83677 414
12.85688 457
12.877 410
12.89711 376
12.91722 400
12.93734 396
12.95745 396
12.97757 424
12.99768 364
13.01779 352
13.03791 399
13.05802 386
13.07813 351
13.09825 403
13.11836 404
13.13847 397
13.15859 383
13.1787 372
13.19882 368
13.21893 394
13.23904 371
13.25916 403
13.27927 394
13.29938 362
13.3195 370
13.33961 389
13.35973 374
13.37984 365
13.39995 384
13.42007 363
13.44018 368
13.46029 358
13.48041 344
13.50052 371
13.52064 374
13.54075 366
13.56086 409
13.58098 352
13.60109 353
13.6212 372
13.64132 345
13.66143 371
13.68154 369
13.70166 370
13.72177 351
13.74189 368
13.762 359
13.78211 340
13.80223 357
13.82234 373
13.84245 349
13.86257 318
13.88268 334
13.9028 343
13.92291 369
13.94302 386
13.96314 352
13.98325 378
14.00336 326
14.02348 334
14.04359 339
14.06371 372
14.08382 345
14.10393 371
14.12405 318
14.14416 369
14.16427 360
14.18439 373
14.2045 368
14.22461 361
14.24473 319
14.26484 329
14.28496 373
14.30507 357
14.32518 320
14.3453 345
14.36541 329
14.38552 369
14.40564 377
14.42575 338
14.44587 336
14.46598 350
14.48609 320
14.50621 330
14.52632 354
14.54643 362
14.56655 385
14.58666 329
14.60677 352
14.62689 360
14.647 348
14.66712 363
14.68723 357
14.70734 371
14.72746 366
14.74757 344
14.76768 350
14.7878 383
14.80791 349
14.82803 344
14.84814 346
14.86825 376
14.88837 309
14.90848 357
14.92859 368
14.94871 322
14.96882 349
14.98894 354
15.00905 362
15.02916 340
15.04928 326
15.06939 329
15.0895 344
15.10962 344
15.12973 376
15.14984 350
15.16996 320
15.19007 333
15.21019 348
15.2303 323
15.25041 340
15.27053 332
15.29064 331
15.31075 318
15.33087 338
15.35098 334
15.3711 319
15.39121 332
15.41132 348
15.43144 369
15.45155 356
15.47166 366
15.49178 353
15.51189 309
15.53201 316
15.55212 340
15.57223 348
15.59235 331
15.61246 335
15.63257 337
15.65269 338
15.6728 368
15.69291 309
15.71303 328
15.73314 307
15.75326 324
15.77337 337
15.79348 351
15.8136 349
15.83371 316
15.85382 315
15.87394 334
15.89405 288
15.91417 370
15.93428 355
15.95439 340
15.97451 353
15.99462 336
16.01473 330
16.03485 352
16.05496 371
16.07508 323
16.09519 339
16.1153 319
16.13542 315
16.15553 339
16.17564 318
16.19576 352
16.21587 373
16.23598 343
16.2561 317
16.27621 362
16.29633 357
16.31644 344
16.33655 334
16.35667 357
16.37678 347
16.39689 331
16.41701 328
16.43712 325
16.45724 347
16.47735 303
16.49746 369
16.51758 336
16.53769 306
16.5578 354
16.57792 319
16.59803 322
16.61814 340
16.63826 321
16.65837 345
16.67849 374
16.6986 379
16.71871 330
16.73883 373
16.75894 329
16.77905 338
16.79917 333
16.81928 322
16.8394 357
16.85951 359
16.87962 306
16.89974 332
16.91985 356
16.93996 325
16.96008 384
16.98019 329
17.00031 298
17.02042 343
17.04053 300
17.06065 384
17.08076 351
17.10087 317
17.12099 334
17.1411 327
17.16121 325
17.18133 366
17.20144 360
17.22156 323
17.24167 353
17.26178 347
17.2819 295
17.30201 327
17.32212 359
17.34224 347
17.36235 324
17.38247 353
17.40258 366
17.42269 338
17.44281 350
17.46292 318
17.48303 346
17.50315 326
17.52326 341
17.54338 332
17.56349 349
17.5836 381
17.60372 315
17.62383 354
17.64394 340
17.66406 336
17.68417 351
17.70428 399
17.7244 330
17.74451 359
17.76463 384
17.78474 337
17.80485 354
17.82497 358
17.84508 328
17.86519 381
17.88531 368
17.90542 348
17.92554 362
17.94565 397
17.96576 321
17.98588 374
18.00599 326
18.0261 344
18.04622 362
18.06633 313
18.08645 380
18.10656 347
18.12667 363
18.14679 359
18.1669 388
18.18701 402
18.20713 402
18.22724 391
18.24735 399
18.26747 403
18.28758 411
18.3077 375
18.32781 387
18.34792 363
18.36804 357
18.38815 355
18.40826 331
18.42838 341
18.44849 370
18.46861 345
18.48872 363
18.50883 365
18.52895 322
18.54906 389
18.56917 318
18.58929 326
18.6094 365
18.62951 313
18.64963 373
18.66974 321
18.68986 329
18.70997 372
18.73008 351
18.7502 341
18.77031 344
18.79042 365
18.81054 329
18.83065 332
18.85077 336
18.87088 353
18.89099 354
18.91111 351
18.93122 346
18.95133 362
18.97145 336
18.99156 321
19.01168 322
19.03179 378
19.0519 353
19.07202 330
19.09213 319
19.11224 367
19.13236 371
19.15247 343
19.17258 383
19.1927 346
19.21281 371
19.23293 331
19.25304 381
19.27315 405
19.29327 370
19.31338 359
19.33349 354
19.35361 373
19.37372 403
19.39384 397
19.41395 378
19.43406 420
19.45418 395
19.47429 409
19.4944 425
19.51452 409
19.53463 404
19.55475 421
19.57486 448
19.59497 444
19.61509 498
19.6352 494
19.65531 524
19.67543 486
19.69554 561
19.71565 566
19.73577 612
19.75588 643
19.776 701
19.79611 716
19.81622 764
19.83634 810
19.85645 859
19.87656 821
19.89668 781
19.91679 831
19.93691 733
19.95702 796
19.97713 802
19.99725 723
20.01736 724
20.03747 776
20.05759 726
20.0777 685
20.09782 732
20.11793 671
20.13804 686
20.15816 736
20.17827 746
20.19838 728
20.2185 739
20.23861 688
20.25872 706
20.27884 707
20.29895 722
20.31907 740
20.33918 707
20.35929 763
20.37941 694
20.39952 717
20.41963 727
20.43975 733
20.45986 829
20.47998 788
20.50009 777
20.5202 750
20.54032 708
20.56043 766
20.58054 802
20.60066 801
20.62077 951
20.64088 955
20.661 998
20.68111 1229
20.70123 1431
20.72134 1730
20.74145 2132
20.76157 2586
20.78168 3014
20.80179 3298
20.82191 3196
20.84202 2997
20.86214 2637
20.88225 2151
20.90236 1632
20.92248 1334
20.94259 1072
20.9627 967
20.98282 896
21.00293 854
21.02305 780
21.04316 735
21.06327 771
21.08339 721
21.1035 748
21.12361 740
21.14373 760
21.16384 737
21.18395 718
21.20407 694
21.22418 753
21.2443 670
21.26441 729
21.28452 732
21.30464 731
21.32475 719
21.34486 688
21.36498 793
21.38509 667
21.40521 685
21.42532 662
21.44543 700
21.46555 664
21.48566 666
21.50577 701
21.52589 663
21.546 611
21.56612 583
21.58623 613
21.60634 625
21.62646 602
21.64657 600
21.66668 598
21.6868 589
21.70691 625
21.72702 606
21.74714 574
21.76725 578
21.78737 582
21.80748 566
21.82759 589
21.84771 557
21.86782 574
21.88793 586
21.90805 598
21.92816 567
21.94828 607
21.96839 609
21.9885 555
22.00862 533
22.02873 530
22.04884 579
22.06896 519
22.08907 535
22.10919 543
22.1293 564
22.14941 528
22.16953 531
22.18964 459
22.20975 504
22.22987 531
22.24998 488
22.27009 571
22.29021 511
22.31032 530
22.33044 517
22.35055 518
22.37066 506
22.39078 473
22.41089 507
22.431 520
22.45112 507
22.47123 498
22.49135 452
22.51146 497
22.53157 474
22.55169 510
22.5718 509
22.59191 509
22.61203 496
22.63214 519
22.65225 469
22.67237 497
22.69248 494
22.7126 529
22.73271 495
22.75282 494
22.77294 464
22.79305 479
22.81316 460
22.83328 520
22.85339 503
22.87351 498
22.89362 508
22.91373 486
22.93385 491
22.95396 505
22.97407 456
22.99419 472
23.0143 435
23.03442 442
23.05453 464
23.07464 489
23.09476 476
23.11487 492
23.13498 509
23.1551 500
23.17521 457
23.19532 493
23.21544 498
23.23555 469
23.25567 486
23.27578 519
23.29589 456
23.31601 447
23.33612 464
23.35623 465
23.37635 493
23.39646 437
23.41658 475
23.43669 480
23.4568 468
23.47692 489
23.49703 471
23.51714 510
23.53726 557
23.55737 524
23.57749 491
23.5976 499
23.61771 480
23.63783 505
23.65794 508
23.67805 483
23.69817 521
23.71828 540
23.73839 453
23.75851 514
23.77862 563
23.79874 558
23.81885 561
23.83896 565
23.85908 560
23.87919 499
23.8993 555
23.91942 521
23.93953 584
23.95965 549
23.97976 558
23.99987 566
24.01999 578
24.0401 549
24.06021 512
24.08033 568
24.10044 597
24.12056 561
24.14067 513
24.16078 510
24.1809 534
24.20101 532
24.22112 560
24.24124 537
24.26135 565
24.28146 578
24.30158 540
24.32169 554
24.34181 553
24.36192 571
24.38203 592
24.40215 504
24.42226 527
24.44237 561
24.46249 586
24.4826 598
24.50272 577
24.52283 631
24.54294 602
24.56306 586
24.58317 618
24.60328 626
24.6234 686
24.64351 681
24.66362 726
24.68374 717
24.70385 689
24.72397 755
24.74408 788
24.76419 796
24.78431 803
24.80442 805
24.82453 801
24.84465 807
24.86476 877
24.88488 769
24.90499 798
24.9251 821
24.94522 813
24.96533 827
24.98544 680
25.00556 747
25.02567 700
25.04579 711
25.0659 701
25.08601 652
25.10613 675
25.12624 673
25.14635 657
25.16647 624
25.18658 592
25.20669 668
25.22681 685
25.24692 598
25.26704 638
25.28715 597
25.30726 577
25.32738 605
25.34749 592
25.3676 601
25.38772 589
25.40783 546
25.42795 545
25.44806 527
25.46817 535
25.48829 540
25.5084 583
25.52851 559
25.54863 547
25.56874 538
25.58886 540
25.60897 561
25.62908 514
25.6492 544
25.66931 562
25.68942 563
25.70954 538
25.72965 553
25.74976 506
25.76988 534
25.78999 535
25.81011 542
25.83022 520
25.85033 537
25.87045 497
25.89056 495
25.91067 542
25.93079 512
25.9509 556
25.97102 571
25.99113 491
26.01124 540
26.03136 533
26.05147 549
26.07158 594
26.0917 563
26.11181 626
26.13193 659
26.15204 606
26.17215 637
26.19227 704
26.21238 706
26.23249 764
26.25261 786
26.27272 813
26.29283 848
26.31295 953
26.33306 1026
26.35318 1155
26.37329 1309
26.3934 1624
26.41352 2004
26.43363 2531
26.45374 3423
26.47386 4566
26.49397 5961
26.51409 7864
26.5342 9869
26.55431 11104
26.57443 12495
26.59454 12477
26.61465 11933
26.63477 10224
26.65488 8148
26.67499 6351
26.69511 4726
26.71522 3168
26.73534 2161
26.75545 1562
26.77556 1269
26.79568 1057
26.81579 902
26.8359 940
26.85602 838
26.87613 856
26.89625 825
26.91636 770
26.93647 709
26.95659 680
26.9767 709
26.99681 605
27.01693 634
27.03704 572
27.05716 608
27.07727 537
27.09738 550
27.1175 503
27.13761 533
27.15772 502
27.17784 468
27.19795 533
27.21806 521
27.23818 523
27.25829 551
27.27841 549
27.29852 500
27.31863 600
27.33875 543
27.35886 614
27.37897 613
27.39909 576
27.4192 609
27.43932 612
27.45943 581
27.47954 570
27.49966 540
27.51977 451
27.53988 504
27.56 493
27.58011 460
27.60023 472
27.62034 442
27.64045 498
27.66057 473
27.68068 453
27.70079 502
27.72091 477
27.74102 531
27.76113 523
27.78125 486
27.80136 526
27.82148 500
27.84159 514
27.8617 528
27.88182 479
27.90193 467
27.92204 559
27.94216 493
27.96227 476
27.98239 498
28.0025 479
28.02261 427
28.04273 477
28.06284 398
28.08295 420
28.10307 441
28.12318 419
28.1433 426
28.16341 448
28.18352 438
28.20364 428
28.22375 428
28.24386 443
28.26398 438
28.28409 422
28.3042 451
28.32432 431
28.34443 445
28.36455 422
28.38466 409
28.40477 419
28.42489 424
28.445 418
28.46511 371
28.48523 437
28.50534 417
28.52546 385
28.54557 436
28.56568 419
28.5858 420
28.60591 378
28.62602 426
28.64614 392
28.66625 382
28.68636 381
28.70648 400
28.72659 346
28.74671 368
28.76682 422
28.78693 405
28.80705 417
28.82716 424
28.84727 406
28.86739 388
28.8875 355
28.90762 379
28.92773 430
28.94784 387
28.96796 363
28.98807 393
29.00818 412
29.0283 417
29.04841 341
29.06853 392
29.08864 372
29.10875 371
29.12887 360
29.14898 368
29.16909 371
29.18921 351
29.20932 380
29.22943 434
29.24955 419
29.26966 383
29.28978 359
29.30989 405
29.33 395
29.35012 383
29.37023 380
29.39034 422
29.41046 401
29.43057 409
29.45069 404
29.4708 421
29.49091 369
29.51103 433
29.53114 422
29.55125 373
29.57137 380
29.59148 377
29.6116 381
29.63171 340
29.65182 381
29.67194 412
29.69205 386
29.71216 374
29.73228 344
29.75239 402
29.7725 368
29.79262 400
29.81273 437
29.83285 384
29.85296 382
29.87307 371
29.89319 414
29.9133 367
29.93341 409
29.95353 386
29.97364 386
29.99376 394
30.01387 382
30.03398 378
30.0541 399
30.07421 388
30.09432 413
30.11444 419
30.13455 402
30.15467 436
30.17478 437
30.19489 424
30.21501 398
30.23512 432
30.25523 412
30.27535 404
30.29546 407
30.31557 401
30.33569 374
30.3558 416
30.37592 387
30.39603 415
30.41614 397
30.43626 442
30.45637 410
30.47648 377
30.4966 399
30.51671 399
30.53683 366
30.55694 377
30.57705 382
30.59717 370
30.61728 425
30.63739 402
30.65751 390
30.67762 415
30.69773 417
30.71785 375
30.73796 380
30.75808 380
30.77819 398
30.7983 412
30.81842 403
30.83853 398
30.85864 372
30.87876 344
30.89887 387
30.91899 371
30.9391 365
30.95921 351
30.97933 367
30.99944 361
31.01955 341
31.03967 375
31.05978 364
31.0799 363
31.10001 374
31.12012 365
31.14024 400
31.16035 381
31.18046 364
31.20058 346
31.22069 350
31.2408 390
31.26092 325
31.28103 400
31.30115 393
31.32126 397
31.34137 391
31.36149 414
31.3816 373
31.40171 379
31.42183 395
31.44194 348
31.46206 381
31.48217 359
31.50228 362
31.5224 356
31.54251 348
31.56262 338
31.58274 370
31.60285 401
31.62297 351
31.64308 383
31.66319 360
31.68331 367
31.70342 388
31.72353 344
31.74365 342
31.76376 363
31.78387 368
31.80399 358
31.8241 370
31.84422 378
31.86433 373
31.88444 373
31.90456 396
31.92467 381
31.94478 366
31.9649 383
31.98501 367
32.00513 411
32.02524 396
32.04535 401
32.06547 399
32.08558 381
32.10569 402
32.12581 410
32.14592 379
32.16604 381
32.18615 401
32.20626 396
32.22638 437
32.24649 421
32.2666 415
32.28672 400
32.30683 394
32.32694 448
32.34706 401
32.36717 473
32.38729 452
32.4074 465
32.42751 499
32.44763 474
32.46774 532
32.48785 552
32.50797 528
32.52808 568
32.5482 531
32.56831 533
32.58842 495
32.60854 512
32.62865 515
32.64876 448
32.66888 452
32.68899 418
32.7091 458
32.72922 420
32.74933 413
32.76945 400
32.78956 457
32.80967 456
32.82979 447
32.8499 438
32.87001 455
32.89013 510
32.91024 483
32.93036 484
32.95047 520
32.97058 537
32.9907 547
33.01081 605
33.03092 584
33.05104 591
33.07115 546
33.09127 531
33.11138 564
33.13149 491
33.15161 510
33.17172 500
33.19183 498
33.21195 485
33.23206 500
33.25217 452
33.27229 460
33.2924 435
33.31252 458
33.33263 456
33.35274 463
33.37286 459
33.39297 428
33.41308 414
33.4332 407
33.45331 428
33.47343 439
33.49354 458
33.51365 460
33.53377 462
33.55388 457
33.57399 443
33.59411 426
33.61422 449
33.63434 427
33.65445 393
33.67456 377
33.69468 421
33.71479 401
33.7349 417
33.75502 423
33.77513 392
33.79524 384
33.81536 414
33.83547 412
33.85559 424
33.8757 382
33.89581 422
33.91593 401
33.93604 390
33.95615 374
33.97627 388
33.99638 399
34.0165 396
34.03661 404
34.05672 419
34.07684 396
34.09695 392
34.11706 407
34.13718 434
34.15729 440
34.17741 419
34.19752 458
34.21763 426
34.23775 419
34.25786 396
34.27797 417
34.29809 432
34.3182 397
34.33831 394
34.35843 407
34.37854 403
34.39866 431
34.41877 438
34.43888 386
34.459 393
34.47911 383
34.49922 420
34.51934 389
34.53945 459
34.55957 416
34.57968 452
34.59979 416
34.61991 457
34.64002 461
34.66013 478
34.68025 463
34.70036 482
34.72047 511
34.74059 547
34.7607 523
34.78082 502
34.80093 586
34.82104 587
34.84116 573
34.86127 606
34.88138 632
34.9015 641
34.92161 604
34.94173 609
34.96184 603
34.98195 568
35.00207 626
35.02218 574
35.04229 596
35.06241 581
35.08252 593
35.10264 601
35.12275 594
35.14286 611
35.16298 657
35.18309 665
35.2032 565
35.22332 671
35.24343 678
35.26354 639
35.28366 594
35.30377 589
35.32389 619
35.344 610
35.36411 618
35.38423 660
35.40434 636
35.42445 666
35.44457 634
35.46468 658
35.4848 681
35.50491 714
35.52502 704
35.54514 713
35.56525 729
35.58536 715
35.60548 665
35.62559 687
35.64571 672
35.66582 663
35.68593 668
35.70605 662
35.72616 652
35.74627 686
35.76639 651
35.7865 654
35.80661 615
35.82673 671
35.84684 689
35.86696 634
35.88707 644
35.90718 638
35.9273 630
35.94741 630
35.96752 628
35.98764 623
36.00775 595
36.02787 553
36.04798 544
36.06809 550
36.08821 523
36.10832 548
36.12843 558
36.14855 545
36.16866 487
36.18878 520
36.20889 536
36.229 567
36.24912 470
36.26923 551
36.28934 570
36.30946 642
36.32957 661
36.34968 688
36.3698 812
36.38991 868
36.41003 1030
36.43014 1074
36.45025 1213
36.47037 1220
36.49048 1238
36.51059 1158
36.53071 1107
36.55082 1012
36.57094 953
36.59105 804
36.61116 717
36.63128 615
36.65139 623
36.6715 544
36.69162 551
36.71173 495
36.73184 526
36.75196 532
36.77207 444
36.79219 523
36.8123 513
36.83241 530
36.85253 504
36.87264 494
36.89275 540
36.91287 503
36.93298 500
36.9531 513
36.97321 553
36.99332 503
37.01344 537
37.03355 509
37.05366 525
37.07378 478
37.09389 506
37.11401 519
37.13412 501
37.15423 505
37.17435 504
37.19446 537
37.21457 501
37.23469 450
37.2548 496
37.27491 482
37.29503 451
37.31514 465
37.33526 470
37.35537 467
37.37548 472
37.3956 451
37.41571 494
37.43582 468
37.45594 473
37.47605 491
37.49617 472
37.51628 524
37.53639 503
37.55651 505
37.57662 530
37.59673 453
37.61685 481
37.63696 498
37.65708 537
37.67719 500
37.6973 497
37.71742 491
37.73753 537
37.75764 479
37.77776 489
37.79787 455
37.81798 554
37.8381 459
37.85821 496
37.87833 499
37.89844 514
37.91855 497
37.93867 522
37.95878 513
37.97889 508
37.99901 515
38.01912 506
38.03924 500
38.05935 491
38.07946 489
38.09958 549
38.11969 557
38.1398 551
38.15992 605
38.18003 545
38.20015 591
38.22026 578
38.24037 576
38.26049 598
38.2806 594
38.30071 603
38.32083 612
38.34094 570
38.36105 618
38.38117 579
38.40128 583
38.4214 576
38.44151 586
38.46162 614
38.48174 584
38.50185 530
38.52196 577
38.54208 565
38.56219 535
38.58231 527
38.60242 507
38.62253 507
38.64265 513
38.66276 528
38.68287 502
38.70299 490
38.7231 516
38.74321 514
38.76333 512
38.78344 518
38.80356 517
38.82367 484
38.84378 452
38.8639 513
38.88401 491
38.90412 510
38.92424 515
38.94435 491
38.96447 500
38.98458 481
39.00469 516
39.02481 541
39.04492 545
39.06503 507
39.08515 516
39.10526 516
39.12538 572
39.14549 556
39.1656 575
39.18572 572
39.20583 568
39.22594 644
39.24606 680
39.26617 663
39.28628 766
39.3064 842
39.32651 898
39.34663 994
39.36674 1113
39.38685 1202
39.40697 1141
39.42708 1103
39.44719 967
39.46731 1018
39.48742 900
39.50754 784
39.52765 757
39.54776 661
39.56788 554
39.58799 530
39.6081 496
39.62822 455
39.64833 428
39.66845 440
39.68856 419
39.70867 452
39.72879 429
39.7489 376
39.76901 386
39.78913 407
39.80924 399
39.82935 400
39.84947 438
39.86958 401
39.8897 430
39.90981 432
39.92992 390
39.95004 440
39.97015 471
39.99026 420
40.01038 492
40.03049 451
40.05061 502
40.07072 491
40.09083 536
40.11095 594
40.13106 620
40.15117 658
40.17129 756
40.1914 731
40.21152 834
40.23163 758
40.25174 760
40.27186 758
40.29197 747
40.31208 665
40.3322 640
40.35231 584
40.37242 555
40.39254 523
40.41265 480
40.43277 493
40.45288 426
40.47299 436
40.49311 467
40.51322 441
40.53333 458
40.55345 441
40.57356 470
40.59368 436
40.61379 444
40.6339 433
40.65402 452
40.67413 444
40.69424 463
40.71436 462
40.73447 490
40.75458 405
40.7747 463
40.79481 427
40.81493 439
40.83504 436
40.85515 453
40.87527 441
40.89538 458
40.91549 422
40.93561 442
40.95572 424
40.97584 466
40.99595 478
41.01606 417
41.03618 452
41.05629 456
41.0764 417
41.09652 456
41.11663 425
41.13675 417
41.15686 425
41.17697 449
41.19709 454
41.2172 422
41.23731 408
41.25743 391
41.27754 428
41.29765 373
41.31777 385
41.33788 397
41.358 390
41.37811 395
41.39822 404
41.41834 395
41.43845 427
41.45856 398
41.47868 403
41.49879 395
41.51891 424
41.53902 425
41.55913 369
41.57925 431
41.59936 403
41.61947 460
41.63959 413
41.6597 382
41.67982 390
41.69993 393
41.72004 450
41.74016 430
41.76027 423
41.78038 398
41.8005 361
41.82061 386
41.84072 409
41.86084 391
41.88095 397
41.90107 428
41.92118 416
41.94129 409
41.96141 397
41.98152 359
42.00163 440
42.02175 372
42.04186 361
42.06198 403
42.08209 361
42.1022 391
42.12232 412
42.14243 441
42.16254 396
42.18266 468
42.20277 430
42.22289 507
42.243 511
42.26311 574
42.28323 636
42.30334 734
42.32345 802
42.34357 906
42.36368 922
42.38379 959
42.40391 825
42.42402 873
42.44414 741
42.46425 703
42.48436 677
42.50448 587
42.52459 530
42.5447 523
42.56482 467
42.58493 416
42.60505 411
42.62516 371
42.64527 349
42.66539 352
42.6855 399
42.70561 327
42.72573 362
42.74584 375
42.76595 364
42.78607 365
42.80618 380
42.8263 403
42.84641 335
42.86652 344
42.88664 350
42.90675 363
42.92686 355
42.94698 355
42.96709 324
42.98721 361
43.00732 311
43.02743 345
43.04755 366
43.06766 353
43.08777 394
43.10789 337
43.128 347
43.14812 358
43.16823 360
43.18834 343
43.20846 375
43.22857 342
43.24868 325
43.2688 354
43.28891 362
43.30902 338
43.32914 324
43.34925 349
43.36937 367
43.38948 371
43.40959 328
43.42971 374
43.44982 345
43.46993 351
43.49005 374
43.51016 339
43.53028 367
43.55039 349
43.5705 361
43.59062 354
43.61073 338
43.63084 332
43.65096 353
43.67107 400
43.69119 325
43.7113 379
43.73141 374
43.75153 372
43.77164 339
43.79175 372
43.81187 379
43.83198 348
43.85209 369
43.87221 360
43.89232 334
43.91244 367
43.93255 353
43.95266 360
43.97278 341
43.99289 369
44.013 361
44.03312 366
44.05323 342
44.07335 335
44.09346 338
44.11357 340
44.13369 338
44.1538 345
44.17391 354
44.19403 357
44.21414 384
44.23426 363
44.25437 337
44.27448 328
44.2946 354
44.31471 357
44.33482 324
44.35494 330
44.37505 360
44.39516 341
44.41528 357
44.43539 368
44.45551 328
44.47562 348
44.49573 333
44.51585 357
44.53596 342
44.55607 328
44.57619 353
44.5963 359
44.61642 337
44.63653 354
44.65664 379
44.67676 321
44.69687 357
44.71698 374
44.7371 354
44.75721 333
44.77732 386
44.79744 369
44.81755 347
44.83767 352
44.85778 395
44.87789 418
44.89801 362
44.91812 360
44.93823 380
44.95835 344
44.97846 382
44.99858 328
45.01869 371
45.0388 391
45.05892 426
45.07903 342
45.09914 394
45.11926 384
45.13937 376
45.15949 390
45.1796 420
45.19971 395
45.21983 378
45.23994 424
45.26005 361
45.28017 419
45.30028 415
45.32039 410
45.34051 419
45.36062 436
45.38074 406
45.40085 421
45.42096 433
45.44108 453
45.46119 442
45.4813 428
45.50142 476
45.52153 461
45.54165 462
45.56176 447
45.58187 510
45.60199 566
45.6221 582
45.64221 633
45.66233 665
45.68244 684
45.70256 692
45.72267 750
45.74278 755
45.7629 681
45.78301 664
45.80312 633
45.82324 617
45.84335 591
45.86346 555
45.88358 477
45.90369 477
45.92381 455
45.94392 425
45.96403 428
45.98415 394
46.00426 400
46.02437 414
46.04449 404
46.0646 413
46.08472 364
46.10483 430
46.12494 396
46.14506 374
46.16517 375
46.18528 403
46.2054 375
46.22551 383
46.24563 374
46.26574 361
46.28585 399
46.30597 370
46.32608 361
46.34619 371
46.36631 401
46.38642 373
46.40653 390
46.42665 393
46.44676 371
46.46688 380
46.48699 383
46.5071 353
46.52722 358
46.54733 394
46.56744 406
46.58756 380
46.60767 370
46.62779 366
46.6479 372
46.66801 371
46.68813 351
46.70824 380
46.72835 370
46.74847 375
46.76858 394
46.78869 343
46.80881 382
46.82892 353
46.84904 373
46.86915 383
46.88926 365
46.90938 406
46.92949 379
46.9496 379
46.96972 377
46.98983 373
47.00995 394
47.03006 367
47.05017 381
47.07029 387
47.0904 364
47.11051 389
47.13063 375
47.15074 392
47.17086 372
47.19097 377
47.21108 397
47.2312 364
47.25131 382
47.27142 394
47.29154 403
47.31165 378
47.33176 396
47.35188 383
47.37199 384
47.39211 381
47.41222 393
47.43233 332
47.45245 393
47.47256 380
47.49267 388
47.51279 374
47.5329 370
47.55302 371
47.57313 373
47.59324 402
47.61336 393
47.63347 400
47.65358 353
47.6737 360
47.69381 362
47.71393 388
47.73404 400
47.75415 411
47.77427 366
47.79438 380
47.81449 369
47.83461 390
47.85472 377
47.87483 380
47.89495 369
47.91506 385
47.93518 354
47.95529 388
47.9754 389
47.99552 393
48.01563 399
48.03574 354
48.05586 380
48.07597 374
48.09609 382
48.1162 385
48.13631 387
48.15643 415
48.17654 363
48.19665 367
48.21677 412
48.23688 363
48.257 379
48.27711 381
48.29722 362
48.31734 369
48.33745 398
48.35756 400
48.37768 400
48.39779 361
48.4179 399
48.43802 387
48.45813 404
48.47825 374
48.49836 388
48.51847 414
48.53859 346
48.5587 389
48.57881 375
48.59893 393
48.61904 368
48.63916 425
48.65927 366
48.67938 405
48.6995 392
48.71961 396
48.73972 436
48.75984 428
48.77995 427
48.80006 377
48.82018 395
48.84029 374
48.86041 347
48.88052 440
48.90063 401
48.92075 366
48.94086 421
48.96097 376
48.98109 388
49.0012 392
49.02132 381
49.04143 406
49.06154 408
49.08166 382
49.10177 356
49.12188 364
49.142 394
49.16211 422
49.18223 414
49.20234 397
49.22245 398
49.24257 403
49.26268 410
49.28279 404
49.30291 424
49.32302 421
49.34313 423
49.36325 417
49.38336 438
49.40348 409
49.42359 402
49.4437 386
49.46382 425
49.48393 405
49.50404 398
49.52416 434
49.54427 457
49.56439 396
49.5845 437
49.60461 397
49.62473 427
49.64484 405
49.66495 403
49.68507 422
49.70518 439
49.7253 431
49.74541 425
49.76552 453
49.78564 496
49.80575 483
49.82586 487
49.84598 529
49.86609 590
49.8862 634
49.90632 658
49.92643 774
49.94655 864
49.96666 1071
49.98677 1111
50.00689 1294
50.027 1490
50.04711 1583
50.06723 1622
50.08734 1514
50.10746 1493
50.12757 1314
50.14768 1197
50.1678 1066
50.18791 991
50.20802 919
50.22814 876
50.24825 726
50.26837 649
50.28848 532
50.30859 481
50.32871 457
50.34882 410
50.36893 438
50.38905 442
50.40916 376
50.42927 434
50.44939 422
50.4695 405
50.48962 428
50.50973 450
50.52984 444
50.54996 410
50.57007 415
50.59018 440
50.6103 409
50.63041 390
50.65053 398
50.67064 418
50.69075 384
50.71087 419
50.73098 403
50.75109 380
50.77121 356
50.79132 410
50.81143 411
50.83155 381
50.85166 411
50.87178 390
50.89189 385
50.912 368
50.93212 359
50.95223 336
50.97234 349
50.99246 367
51.01257 328
51.03269 345
51.0528 368
51.07291 371
51.09303 389
51.11314 351
51.13325 360
51.15337 337
51.17348 342
51.1936 347
51.21371 342
51.23382 364
51.25394 354
51.27405 379
51.29416 354
51.31428 356
51.33439 370
51.3545 391
51.37462 353
51.39473 355
51.41485 355
51.43496 329
51.45507 358
51.47519 335
51.4953 342
51.51541 349
51.53553 317
51.55564 319
51.57576 355
51.59587 343
51.61598 357
51.6361 401
51.65621 323
51.67632 356
51.69644 356
51.71655 349
51.73667 313
51.75678 352
51.77689 318
51.79701 327
51.81712 336
51.83723 370
51.85735 355
51.87746 333
51.89757 307
51.91769 347
51.9378 379
51.95792 359
51.97803 311
51.99814 338
52.01826 384
52.03837 353
52.05848 356
52.0786 380
52.09871 347
52.11883 319
52.13894 356
52.15905 343
52.17917 332
52.19928 330
52.21939 325
52.23951 344
52.25962 341
52.27974 358
52.29985 366
52.31996 335
52.34008 355
52.36019 366
52.3803 338
52.40042 367
52.42053 359
52.44064 341
52.46076 319
52.48087 371
52.50099 373
52.5211 384
52.54121 327
52.56133 336
52.58144 344
52.60155 342
52.62167 338
52.64178 378
52.6619 374
52.68201 381
52.70212 360
52.72224 347
52.74235 372
52.76246 374
52.78258 360
52.80269 364
52.8228 345
52.84292 360
52.86303 359
52.88315 357
52.90326 401
52.92337 397
52.94349 394
52.9636 400
52.98371 436
53.00383 407
53.02394 414
53.04406 415
53.06417 412
53.08428 414
53.1044 426
53.12451 414
53.14462 415
53.16474 411
53.18485 402
53.20497 403
53.22508 386
53.24519 399
53.26531 470
53.28542 391
53.30553 412
53.32565 435
53.34576 450
53.36587 385
53.38599 407
53.4061 442
53.42622 398
53.44633 406
53.46644 407
53.48656 385
53.50667 422
53.52678 410
53.5469 428
53.56701 390
53.58713 447
53.60724 425
53.62735 428
53.64747 452
53.66758 440
53.68769 420
53.70781 449
53.72792 423
53.74804 454
53.76815 429
53.78826 435
53.80838 492
53.82849 482
53.8486 480
53.86872 476
53.88883 491
53.90894 506
53.92906 443
53.94917 464
53.96929 495
53.9894 504
54.00951 497
54.02963 486
54.04974 481
54.06985 509
54.08997 476
54.11008 488
54.1302 478
54.15031 500
54.17042 489
54.19054 509
54.21065 476
54.23076 530
54.25088 490
54.27099 485
54.29111 488
54.31122 472
54.33133 507
54.35145 489
54.37156 511
54.39167 512
54.41179 499
54.4319 464
54.45201 458
54.47213 480
54.49224 508
54.51236 458
54.53247 490
54.55258 500
54.5727 499
54.59281 528
54.61292 554
54.63304 572
54.65315 574
54.67327 578
54.69338 636
54.71349 638
54.73361 765
54.75372 760
54.77383 803
54.79395 774
54.81406 780
54.83417 827
54.85429 779
54.8744 650
54.89452 713
54.91463 686
54.93474 671
54.95486 598
54.97497 609
54.99508 593
55.0152 540
55.03531 554
55.05543 528
55.07554 504
55.09565 514
55.11577 497
55.13588 560
55.15599 567
55.17611 555
55.19622 602
55.21634 615
55.23645 555
55.25656 593
55.27668 628
55.29679 567
55.3169 537
55.33702 574
55.35713 518
55.37724 528
55.39736 497
55.41747 477
55.43759 493
55.4577 478
55.47781 487
55.49793 464
55.51804 419
55.53815 411
55.55827 395
55.57838 411
55.5985 408
55.61861 423
55.63872 427
55.65884 427
55.67895 400
55.69906 397
55.71918 403
55.73929 400
55.75941 399
55.77952 391
55.79963 415
55.81975 418
55.83986 361
55.85997 368
55.88009 425
55.9002 381
55.92031 382
55.94043 400
55.96054 404
55.98066 396
56.00077 402
56.02088 372
56.041 403
56.06111 454
56.08122 433
56.10134 426
56.12145 383
56.14157 387
56.16168 410
56.18179 398
56.20191 436
56.22202 426
56.24213 351
56.26225 403
56.28236 414
56.30248 381
56.32259 419
56.3427 379
56.36282 416
56.38293 372
56.40304 398
56.42316 393
56.44327 412
56.46338 379
56.4835 367
56.50361 404
56.52373 365
56.54384 379
56.56395 375
56.58407 377
56.60418 380
56.62429 371
56.64441 354
56.66452 386
56.68464 401
56.70475 423
56.72486 384
56.74498 375
56.76509 390
56.7852 400
56.80532 382
56.82543 392
56.84554 354
56.86566 413
56.88577 404
56.90589 388
56.926 370
56.94611 364
56.96623 389
56.98634 389
57.00645 376
57.02657 373
57.04668 398
57.0668 374
57.08691 366
57.10702 404
57.12714 413
57.14725 399
57.16736 400
57.18748 418
57.20759 397
57.22771 387
57.24782 370
57.26793 392
57.28805 378
57.30816 393
57.32827 396
57.34839 367
57.3685 391
57.38861 363
57.40873 376
57.42884 356
57.44896 377
57.46907 408
57.48918 408
57.5093 380
57.52941 396
57.54952 370
57.56964 360
57.58975 360
57.60987 362
57.62998 351
57.65009 377
57.67021 380
57.69032 382
57.71043 390
57.73055 363
57.75066 373
57.77078 344
57.79089 378
57.811 382
57.83112 348
57.85123 344
57.87134 377
57.89146 363
57.91157 345
57.93168 377
57.9518 333
57.97191 381
57.99203 322
58.01214 368
58.03225 360
58.05237 375
58.07248 383
58.09259 338
58.11271 355
58.13282 333
58.15294 377
58.17305 374
58.19316 359
58.21328 354
58.23339 358
58.2535 344
58.27362 338
58.29373 357
58.31385 354
58.33396 346
58.35407 315
58.37419 368
58.3943 359
58.41441 364
58.43453 320
58.45464 350
58.47475 346
58.49487 360
58.51498 358
58.5351 363
58.55521 385
58.57532 402
58.59544 384
58.61555 354
58.63566 386
58.65578 354
58.67589 346
58.69601 411
58.71612 364
58.73623 305
58.75635 350
58.77646 354
58.79657 369
58.81669 383
58.8368 334
58.85691 359
58.87703 369
58.89714 335
58.91726 365
58.93737 350
58.95748 341
58.9776 361
58.99771 340
59.01782 322
59.03794 372
59.05805 391
59.07817 379
59.09828 378
59.11839 352
59.13851 332
59.15862 366
59.17873 355
59.19885 404
59.21896 341
59.23908 384
59.25919 357
59.2793 339
59.29942 393
59.31953 343
59.33964 361
59.35976 366
59.37987 356
59.39998 381
59.4201 384
59.44021 391
59.46033 396
59.48044 366
59.50055 413
59.52067 400
59.54078 385
59.56089 411
59.58101 405
59.60112 424
59.62124 475
59.64135 488
59.66146 517
59.68158 507
59.70169 539
59.7218 627
59.74192 642
59.76203 739
59.78215 844
59.80226 924
59.82237 1008
59.84249 1103
59.8626 1164
59.88271 1159
59.90283 1204
59.92294 1138
59.94305 1000
59.96317 870
59.98328 849
60.0034 830
60.02351 766
60.04362 783
60.06374 716
60.08385 716
60.10396 641
60.12408 543
60.14419 470
60.16431 459
60.18442 438
60.20453 397
60.22465 440
60.24476 399
60.26487 405
60.28499 403
60.3051 344
60.32522 380
60.34533 380
60.36544 399
60.38556 385
60.40567 411
60.42578 398
60.4459 382
60.46601 359
60.48612 369
60.50624 387
60.52635 364
60.54647 384
60.56658 353
60.58669 336
60.60681 391
60.62692 368
60.64703 358
60.66715 350
60.68726 373
60.70738 368
60.72749 369
60.7476 374
60.76772 372
60.78783 380
60.80794 360
60.82806 366
60.84817 341
60.86828 365
60.8884 353
60.90851 379
60.92863 351
60.94874 382
60.96885 342
60.98897 351
61.00908 350
61.02919 337
61.04931 354
61.06942 380
61.08954 374
61.10965 366
61.12976 341
61.14988 376
61.16999 345
61.1901 367
61.21022 405
61.23033 356
61.25045 400
61.27056 377
61.29067 374
61.31079 409
61.3309 386
61.35101 372
61.37113 375
61.39124 371
61.41135 393
61.43147 392
61.45158 365
61.4717 414
61.49181 377
61.51192 415
61.53204 389
61.55215 425
61.57226 393
61.59238 446
61.61249 397
61.63261 362
61.65272 420
61.67283 413
61.69295 383
61.71306 382
61.73317 417
61.75329 389
61.7734 410
61.79352 398
61.81363 422
61.83374 427
61.85386 430
61.87397 434
61.89408 483
61.9142 447
61.93431 438
61.95442 465
61.97454 442
61.99465 531
62.01477 530
62.03488 507
62.05499 513
62.07511 551
62.09522 530
62.11533 573
62.13545 555
62.15556 537
62.17568 543
62.19579 609
62.2159 594
62.23602 567
62.25613 532
62.27624 611
62.29636 521
62.31647 586
62.33659 537
62.3567 533
62.37681 547
62.39693 521
62.41704 480
62.43715 508
62.45727 476
62.47738 488
62.49749 431
62.51761 478
62.53772 440
62.55784 450
62.57795 418
62.59806 445
62.61818 424
62.63829 455
62.6584 439
62.67852 450
62.69863 375
62.71875 412
62.73886 395
62.75897 419
62.77909 390
62.7992 385
62.81931 400
62.83943 391
62.85954 373
62.87965 392
62.89977 361
62.91988 395
62.94 424
62.96011 400
62.98022 402
63.00034 362
63.02045 409
63.04056 355
63.06068 408
63.08079 408
63.10091 409
63.12102 430
63.14113 397
63.16125 404
63.18136 435
63.20147 450
63.22159 432
63.2417 424
63.26182 433
63.28193 358
63.30204 414
63.32216 376
63.34227 388
63.36238 389
63.3825 408
63.40261 395
63.42272 428
63.44284 378
63.46295 380
63.48307 411
63.50318 407
63.52329 388
63.54341 401
63.56352 402
63.58363 377
63.60375 413
63.62386 422
63.64398 434
63.66409 444
63.6842 452
63.70432 439
63.72443 417
63.74454 424
63.76466 449
63.78477 437
63.80489 455
63.825 511
63.84511 485
63.86523 492
63.88534 544
63.90545 538
63.92557 558
63.94568 548
63.96579 579
63.98591 551
64.00602 510
64.02614 526
64.04625 540
64.06636 492
64.08648 471
64.10659 478
64.1267 491
64.14682 500
64.16693 434
64.18705 435
64.20716 435
64.22727 417
64.24739 405
64.2675 405
64.28761 410
64.30773 366
64.32784 395
64.34796 377
64.36807 380
64.38818 387
64.4083 396
64.42841 375
64.44852 396
64.46864 348
64.48875 362
64.50886 361
64.52898 378
64.54909 371
64.56921 364
64.58932 393
64.60943 401
64.62955 350
64.64966 364
64.66977 363
64.68989 362
64.71 361
64.73012 337
64.75023 354
64.77034 374
64.79046 360
64.81057 351
64.83068 381
64.8508 381
64.87091 371
64.89102 357
64.91114 394
64.93125 368
64.95137 359
64.97148 375
64.99159 358
65.01171 378
65.03182 373
65.05193 345
65.07205 397
65.09216 345
65.11228 355
65.13239 333
65.1525 378
65.17262 350
65.19273 342
65.21284 332
65.23296 372
65.25307 320
65.27319 371
65.2933 368
65.31341 324
65.33353 373
65.35364 354
65.37375 358
65.39387 361
65.41398 372
65.43409 357
65.45421 387
65.47432 369
65.49444 346
65.51455 365
65.53466 339
65.55478 367
65.57489 338
65.595 357
65.61512 376
65.63523 382
65.65535 360
65.67546 336
65.69557 387
65.71569 376
65.7358 367
65.75591 368
65.77603 369
65.79614 362
65.81626 363
65.83637 361
65.85648 353
65.8766 389
65.89671 394
65.91682 341
65.93694 366
65.95705 353
65.97716 352
65.99728 348
66.01739 362
66.03751 336
66.05762 324
66.07773 371
66.09785 314
66.11796 355
66.13807 340
66.15819 345
66.1783 339
66.19842 352
66.21853 353
66.23864 391
66.25876 378
66.27887 333
66.29898 345
66.3191 363
66.33921 322
66.35933 345
66.37944 329
66.39955 329
66.41967 362
66.43978 335
66.45989 350
66.48001 351
66.50012 372
66.52023 360
66.54035 357
66.56046 368
66.58058 372
66.60069 349
66.6208 361
66.64092 349
66.66103 357
66.68114 343
66.70126 361
66.72137 341
66.74149 345
66.7616 332
66.78171 363
66.80183 352
66.82194 366
66.84205 379
66.86217 352
66.88228 326
66.90239 365
66.92251 360
66.94262 342
66.96274 344
66.98285 355
67.00296 343
67.02308 363
67.04319 348
67.0633 389
67.08342 358
67.10353 381
67.12365 345
67.14376 357
67.16387 363
67.18399 391
67.2041 376
67.22421 356
67.24433 385
67.26444 356
67.28456 336
67.30467 382
67.32478 370
67.3449 406
67.36501 406
67.38512 379
67.40524 358
67.42535 436
67.44546 467
67.46558 467
67.48569 486
67.50581 515
67.52592 540
67.54603 624
67.56615 633
67.58626 668
67.60637 785
67.62649 814
67.6466 835
67.66672 850
67.68683 842
67.70694 748
67.72706 717
67.74717 702
67.76728 621
67.7874 642
67.80751 645
67.82763 707
67.84774 691
67.86785 703
67.88797 724
67.90808 695
67.92819 685
67.94831 693
67.96842 780
67.98853 794
68.00865 869
68.02876 954
68.04888 1051
68.06899 1003
68.0891 998
68.10922 1017
68.12933 963
68.14944 879
68.16956 918
68.18967 913
68.20979 1013
68.2299 947
68.25001 1011
68.27013 909
68.29024 865
68.31035 778
68.33047 720
68.35058 600
68.3707 638
68.39081 607
68.41092 588
68.43104 541
68.45115 545
68.47126 521
68.49138 461
68.51149 427
68.5316 386
68.55172 397
68.57183 388
68.59195 388
68.61206 400
68.63217 392
68.65229 375
68.6724 386
68.69251 367
68.71263 368
68.73274 368
68.75286 346
68.77297 354
68.79308 364
68.8132 344
68.83331 352
68.85342 362
68.87354 348
68.89365 355
68.91376 356
68.93388 341
68.95399 355
68.97411 389
68.99422 383
69.01433 364
69.03445 349
69.05456 315
69.07467 376
69.09479 357
69.1149 338
69.13502 334
69.15513 344
69.17524 362
69.19536 348
69.21547 327
69.23558 367
69.2557 361
69.27581 356
69.29593 352
69.31604 349
69.33615 351
69.35627 345
69.37638 326
69.39649 354
69.41661 347
69.43672 344
69.45683 343
69.47695 361
69.49706 359
69.51718 342
69.53729 330
69.5574 352
69.57752 319
69.59763 346
69.61774 379
69.63786 363
69.65797 364
69.67809 355
69.6982 333
69.71831 349
69.73843 357
69.75854 349
69.77865 346
69.79877 363
69.81888 399
69.839 386
69.85911 357
69.87922 359
69.89934 339
69.91945 343
69.93956 369
69.95968 388
69.97979 353
69.9999 357
70.02002 336
70.04013 352
70.06025 381
70.08036 357
70.10047 389
70.12059 325
70.1407 332
70.16081 357
70.18093 388
70.20104 350
70.22116 343
70.24127 359
70.26138 368
70.2815 327
70.30161 343
70.32172 324
70.34184 333
70.36195 356
70.38207 361
70.40218 356
70.42229 347
70.44241 361
70.46252 334
70.48263 367
70.50275 337
70.52286 333
70.54297 341
70.56309 332
70.5832 334
70.60332 332
70.62343 352
70.64354 359
70.66366 342
70.68377 345
70.70388 352
70.724 371
70.74411 323
70.76423 330
70.78434 334
70.80445 336
70.82457 340
70.84468 349
70.86479 360
70.88491 325
70.90502 353
70.92513 336
70.94525 347
70.96536 363
70.98548 371
71.00559 341
71.0257 327
71.04582 334
71.06593 352
71.08604 336
71.10616 364
71.12627 353
71.14639 340
71.1665 336
71.18661 341
71.20673 322
71.22684 347
71.24695 360
71.26707 344
71.28718 319
71.3073 330
71.32741 346
71.34752 325
71.36764 348
71.38775 332
71.40786 327
71.42798 354
71.44809 314
71.4682 356
71.48832 352
71.50843 347
71.52855 364
71.54866 360
71.56877 362
71.58889 343
71.609 322
71.62911 330
71.64923 367
71.66934 377
71.68946 367
71.70957 342
71.72968 371
71.7498 348
71.76991 308
71.79002 329
71.81014 338
71.83025 358
71.85037 352
71.87048 349
71.89059 383
71.91071 349
71.93082 411
71.95093 349
71.97105 386
71.99116 331
72.01127 377
72.03139 352
72.0515 347
72.07162 359
72.09173 359
72.11184 357
72.13196 355
72.15207 356
72.17218 345
72.1923 380
72.21241 340
72.23253 361
72.25264 354
72.27275 323
72.29287 360
72.31298 337
72.33309 362
72.35321 339
72.37332 349
72.39344 350
72.41355 317
72.43366 327
72.45378 355
72.47389 342
72.494 356
72.51412 358
72.53423 327
72.55434 354
72.57446 364
72.59457 339
72.61469 323
72.6348 351
72.65491 329
72.67503 362
72.69514 343
72.71525 328
72.73537 344
72.75548 358
72.7756 311
72.79571 328
72.81582 372
72.83594 358
72.85605 324
72.87616 335
72.89628 345
72.91639 356
72.9365 327
72.95662 305
72.97673 375
72.99685 372
73.01696 364
73.03707 379
73.05719 365
73.0773 379
73.09741 411
73.11753 348
73.13764 396
73.15776 386
73.17787 408
73.19798 423
73.2181 431
73.23821 420
73.25832 445
73.27844 474
73.29855 429
73.31867 488
73.33878 531
73.35889 537
73.37901 502
73.39912 536
73.41923 509
73.43935 480
73.45946 509
73.47957 462
73.49969 444
73.5198 385
73.53992 431
73.56003 498
73.58014 482
73.60026 444
73.62037 447
73.64048 455
73.6606 435
73.68071 455
73.70083 400
73.72094 383
73.74105 365
73.76117 328
73.78128 378
73.80139 360
73.82151 357
73.84162 331
73.86174 338
73.88185 349
73.90196 357
73.92208 341
73.94219 358
73.9623 333
73.98242 336
74.00253 392
74.02264 358
74.04276 387
74.06287 347
74.08299 339
74.1031 366
74.12321 344
74.14333 340
74.16344 335
74.18355 365
74.20367 348
74.22378 335
74.2439 380
74.26401 333
74.28412 315
74.30424 321
74.32435 350
74.34446 365
74.36458 369
74.38469 384
74.40481 363
74.42492 359
74.44503 372
74.46515 346
74.48526 372
74.50537 360
74.52549 366
74.5456 353
74.56571 365
74.58583 365
74.60594 386
74.62606 365
74.64617 345
74.66628 331
74.6864 364
74.70651 348
74.72662 355
74.74674 330
74.76685 356
74.78697 354
74.80708 337
74.82719 338
74.84731 349
74.86742 384
74.88753 364
74.90765 354
74.92776 346
74.94787 366
74.96799 339
74.9881 317
75.00822 383
