3.00117 18519
3.02128 18005
3.0414 17448
3.06151 17312
3.08162 16680
3.10174 16253
3.12185 15707
3.14197 15147
3.16208 15261
3.18219 14429
3.20231 13934
3.22242 13767
3.24253 13370
3.26265 12987
3.28276 12342
3.30288 11711
3.32299 11714
3.3431 11079
3.36322 11020
3.38333 10402
3.40344 10245
3.42356 9961
3.44367 9585
3.46379 9257
3.4839 8872
3.50401 8482
3.52413 8369
3.54424 7995
3.56435 7857
3.58447 7255
3.60458 7144
3.62469 7004
3.64481 6447
3.66492 6562
3.68504 6127
3.70515 5943
3.72526 5875
3.74538 5358
3.76549 5410
3.7856 4896
3.80572 4751
3.82583 4604
3.84595 4460
3.86606 4243
3.88617 4016
3.90629 3643
3.9264 3713
3.94651 3430
3.96663 3415
3.98674 3174
4.00686 2973
4.02697 2969
4.04708 2803
4.0672 2693
4.08731 2539
4.10742 2422
4.12754 2416
4.14765 2289
4.16776 2241
4.18788 2043
4.20799 1962
4.22811 2028
4.24822 1849
4.26833 1793
4.28845 1556
4.30856 1576
4.32867 1661
4.34879 1504
4.3689 1489
4.38902 1430
4.40913 1380
4.42924 1487
4.44936 1395
4.46947 1343
4.48958 1306
4.5097 1156
4.52981 1229
4.54992 1202
4.57004 1158
4.59015 1115
4.61027 1121
4.63038 1061
4.65049 1086
4.67061 1030
4.69072 963
4.71083 900
4.73095 1017
4.75106 916
4.77118 877
4.79129 856
4.8114 826
4.83152 867
4.85163 837
4.87174 757
4.89186 828
4.91197 794
4.93209 736
4.9522 749
4.97231 732
4.99243 687
5.01254 681
5.03265 750
5.05277 658
5.07288 640
5.09299 664
5.11311 581
5.13322 631
5.15334 629
5.17345 516
5.19356 568
5.21368 561
5.23379 561
5.2539 575
5.27402 513
5.29413 488
5.31425 468
5.33436 506
5.35447 502
5.37459 448
5.3947 442
5.41481 476
5.43493 424
5.45504 434
5.47516 405
5.49527 393
5.51538 381
5.5355 367
5.55561 335
5.57572 367
5.59584 384
5.61595 354
5.63606 346
5.65618 381
5.67629 345
5.69641 319
5.71652 356
5.73663 308
5.75675 348
5.77686 315
5.79697 336
5.81709 335
5.8372 304
5.85732 288
5.87743 318
5.89754 272
5.91766 304
5.93777 281
5.95788 251
5.978 300
5.99811 270
6.01823 255
6.03834 280
6.05845 290
6.07857 245
6.09868 242
6.11879 276
6.13891 252
6.15902 259
6.17913 275
6.19925 253
6.21936 233
6.23948 251
6.25959 236
6.2797 264
6.29982 235
6.31993 250
6.34004 252
6.36016 269
6.38027 287
6.40039 250
6.4205 226
6.44061 246
6.46073 222
6.48084 221
6.50095 223
6.52107 222
6.54118 233
6.56129 237
6.58141 241
6.60152 223
6.62164 241
6.64175 238
6.66186 234
6.68198 230
6.70209 226
6.7222 207
6.74232 218
6.76243 185
6.78255 224
6.80266 214
6.82277 205
6.84289 226
6.863 200
6.88311 218
6.90323 274
6.92334 229
6.94346 219
6.96357 248
6.98368 214
7.0038 220
7.02391 223
7.04402 239
7.06414 201
7.08425 214
7.10436 208
7.12448 232
7.14459 223
7.16471 203
7.18482 247
7.20493 213
7.22505 210
7.24516 247
7.26527 230
7.28539 210
7.3055 243
7.32562 260
7.34573 251
7.36584 213
7.38596 279
7.40607 250
7.42618 265
7.4463 228
7.46641 227
7.48653 223
7.50664 238
7.52675 243
7.54687 262
7.56698 228
7.58709 231
7.60721 216
7.62732 231
7.64743 234
7.66755 224
7.68766 224
7.70778 221
7.72789 251
7.748 221
7.76812 238
7.78823 268
7.80834 276
7.82846 251
7.84857 208
7.86869 226
7.8888 201
7.90891 236
7.92903 220
7.94914 223
7.96925 241
7.98937 220
8.00948 223
8.0296 218
8.04971 232
8.06982 248
8.08994 255
8.11005 252
8.13016 225
8.15028 251
8.17039 240
8.1905 233
8.21062 216
8.23073 206
8.25085 213
8.27096 230
8.29107 266
8.31119 239
8.3313 249
8.35141 210
8.37153 207
8.39164 243
8.41176 221
8.43187 231
8.45198 289
8.4721 222
8.49221 240
8.51232 222
8.53244 270
8.55255 243
8.57266 254
8.59278 231
8.61289 260
8.63301 248
8.65312 263
8.67323 253
8.69335 216
8.71346 254
8.73357 274
8.75369 264
8.7738 238
8.79392 258
8.81403 244
8.83414 237
8.85426 256
8.87437 265
8.89448 264
8.9146 209
8.93471 223
8.95483 234
8.97494 238
8.99505 244
9.01517 233
9.03528 250
9.05539 228
9.07551 221
9.09562 238
9.11573 223
9.13585 224
9.15596 231
9.17608 229
9.19619 245
9.2163 224
9.23642 259
9.25653 203
9.27664 216
9.29676 266
9.31687 239
9.33699 231
9.3571 261
9.37721 265
9.39733 256
9.41744 239
9.43755 256
9.45767 253
9.47778 262
9.4979 250
9.51801 243
9.53812 251
9.55824 241
9.57835 248
9.59846 258
9.61858 259
9.63869 212
9.6588 227
9.67892 263
9.69903 249
9.71915 238
9.73926 229
9.75937 213
9.77949 238
9.7996 234
9.81971 236
9.83983 267
9.85994 225
9.88006 198
9.90017 234
9.92028 253
9.9404 238
9.96051 235
9.98062 195
10.00074 254
10.02085 273
10.04097 223
10.06108 238
10.08119 226
10.10131 229
10.12142 243
10.14153 229
10.16165 242
10.18176 236
10.20187 229
10.22199 258
10.2421 251
10.26222 231
10.28233 240
10.30244 233
10.32256 228
10.34267 216
10.36278 274
10.3829 230
10.40301 263
10.42313 229
10.44324 232
10.46335 210
10.48347 204
10.50358 246
10.52369 252
10.54381 248
10.56392 269
10.58403 220
10.60415 230
10.62426 266
10.64438 245
10.66449 266
10.6846 222
10.70472 244
10.72483 241
10.74494 233
10.76506 223
10.78517 238
10.80529 238
10.8254 240
10.84551 224
10.86563 232
10.88574 213
10.90585 239
10.92597 224
10.94608 228
10.9662 220
10.98631 233
11.00642 234
11.02654 250
11.04665 266
11.06676 234
11.08688 239
11.10699 228
11.1271 245
11.14722 244
11.16733 231
11.18745 239
11.20756 259
11.22767 212
11.24779 194
11.2679 206
11.28801 241
11.30813 211
11.32824 236
11.34836 222
11.36847 212
11.38858 240
11.4087 228
11.42881 246
11.44892 234
11.46904 251
11.48915 239
11.50927 226
11.52938 226
11.54949 246
11.56961 221
11.58972 244
11.60983 226
11.62995 208
11.65006 191
11.67017 232
11.69029 231
11.7104 235
11.73052 245
11.75063 236
11.77074 228
11.79086 256
11.81097 230
11.83108 222
11.8512 272
11.87131 253
11.89143 248
11.91154 250
11.93165 270
11.95177 243
11.97188 244
11.99199 242
12.01211 273
12.03222 219
12.05234 227
12.07245 277
12.09256 260
12.11268 233
12.13279 250
12.1529 279
12.17302 269
12.19313 255
12.21324 252
12.23336 253
12.25347 244
12.27359 284
12.2937 312
12.31381 250
12.33393 284
12.35404 240
12.37415 271
12.39427 274
12.41438 259
12.4345 296
12.45461 260
12.47472 235
12.49484 251
12.51495 234
12.53506 243
12.55518 216
12.57529 219
12.5954 232
12.61552 222
12.63563 207
12.65575 223
12.67586 209
12.69597 214
12.71609 218
12.7362 238
12.75631 242
12.77643 221
12.79654 223
12.81666 214
12.83677 209
12.85688 218
12.877 228
12.89711 218
12.91722 207
12.93734 197
12.95745 236
12.97757 226
12.99768 217
13.01779 214
13.03791 238
13.05802 189
13.07813 229
13.09825 215
13.11836 226
13.13847 249
13.15859 241
13.1787 235
13.19882 198
13.21893 215
13.23904 213
13.25916 204
13.27927 209
13.29938 226
13.3195 219
13.33961 227
13.35973 221
13.37984 194
13.39995 213
13.42007 236
13.44018 201
13.46029 232
13.48041 184
13.50052 201
13.52064 226
13.54075 215
13.56086 233
13.58098 200
13.60109 196
13.6212 226
13.64132 230
13.66143 223
13.68154 189
13.70166 189
13.72177 195
13.74189 226
13.762 201
13.78211 182
13.80223 263
13.82234 218
13.84245 209
13.86257 217
13.88268 225
13.9028 205
13.92291 198
13.94302 214
13.96314 201
13.98325 203
14.00336 173
14.02348 194
14.04359 236
14.06371 210
14.08382 209
14.10393 210
14.12405 201
14.14416 219
14.16427 199
14.18439 229
14.2045 203
14.22461 233
14.24473 195
14.26484 211
14.28496 222
14.30507 216
14.32518 232
14.3453 188
14.36541 174
14.38552 212
14.40564 185
14.42575 187
14.44587 192
14.46598 199
14.48609 218
14.50621 195
14.52632 206
14.54643 177
14.56655 224
14.58666 195
14.60677 190
14.62689 173
14.647 185
14.66712 189
14.68723 219
14.70734 198
14.72746 191
14.74757 209
14.76768 207
14.7878 195
14.80791 215
14.82803 183
14.84814 192
14.86825 188
14.88837 184
14.90848 201
14.92859 198
14.94871 241
14.96882 188
14.98894 216
15.00905 204
15.02916 200
15.04928 211
15.06939 183
15.0895 199
15.10962 196
15.12973 193
15.14984 192
15.16996 184
15.19007 193
15.21019 212
15.2303 193
15.25041 193
15.27053 207
15.29064 191
15.31075 206
15.33087 169
15.35098 202
15.3711 199
15.39121 180
15.41132 217
15.43144 206
15.45155 181
15.47166 194
15.49178 201
15.51189 178
15.53201 170
15.55212 195
15.57223 186
15.59235 182
15.61246 174
15.63257 204
15.65269 207
15.6728 176
15.69291 185
15.71303 184
15.73314 174
15.75326 207
15.77337 196
15.79348 188
15.8136 197
15.83371 177
15.85382 187
15.87394 197
15.89405 181
15.91417 202
15.93428 195
15.95439 160
15.97451 174
15.99462 200
16.01473 213
16.03485 192
16.05496 195
16.07508 161
16.09519 181
16.1153 170
16.13542 170
16.15553 188
16.17564 200
16.19576 185
16.21587 168
16.23598 179
16.2561 177
16.27621 169
16.29633 203
16.31644 193
16.33655 206
16.35667 203
16.37678 201
16.39689 174
16.41701 189
16.43712 182
16.45724 197
16.47735 178
16.49746 183
16.51758 202
16.53769 163
16.5578 171
16.57792 169
16.59803 235
16.61814 166
16.63826 185
16.65837 195
16.67849 163
16.6986 185
16.71871 193
16.73883 193
16.75894 168
16.77905 198
16.79917 185
16.81928 177
16.8394 160
16.85951 189
16.87962 175
16.89974 163
16.91985 176
16.93996 181
16.96008 186
16.98019 191
17.00031 216
17.02042 171
17.04053 165
17.06065 215
17.08076 216
17.10087 183
17.12099 180
17.1411 192
17.16121 183
17.18133 160
17.20144 209
17.22156 163
17.24167 169
17.26178 184
17.2819 207
17.30201 220
17.32212 220
17.34224 182
17.36235 160
17.38247 186
17.40258 150
17.42269 191
17.44281 193
17.46292 199
17.48303 188
17.50315 203
17.52326 179
17.54338 186
17.56349 179
17.5836 209
17.60372 183
17.62383 201
17.64394 192
17.66406 189
17.68417 191
17.70428 190
17.7244 176
17.74451 176
17.76463 185
17.78474 183
17.80485 157
17.82497 184
17.84508 204
17.86519 184
17.88531 169
17.90542 186
17.92554 181
17.94565 187
17.96576 198
17.98588 177
18.00599 180
18.0261 189
18.04622 188
18.06633 195
18.08645 186
18.10656 168
18.12667 178
18.14679 210
18.1669 190
18.18701 207
18.20713 204
18.22724 190
18.24735 195
18.26747 188
18.28758 188
18.3077 181
18.32781 172
18.34792 200
18.36804 231
18.38815 168
18.40826 208
18.42838 174
18.44849 167
18.46861 164
18.48872 167
18.50883 190
18.52895 168
18.54906 189
18.56917 199
18.58929 201
18.6094 162
18.62951 189
18.64963 186
18.66974 177
18.68986 189
18.70997 211
18.73008 186
18.7502 186
18.77031 184
18.79042 210
18.81054 213
18.83065 196
18.85077 205
18.87088 192
18.89099 146
18.91111 181
18.93122 215
18.95133 176
18.97145 190
18.99156 182
19.01168 198
19.03179 187
19.0519 218
19.07202 174
19.09213 183
19.11224 189
19.13236 189
19.15247 174
19.17258 211
19.1927 214
19.21281 205
19.23293 196
19.25304 181
19.27315 162
19.29327 201
19.31338 189
19.33349 193
19.35361 199
19.37372 207
19.39384 219
19.41395 209
19.43406 224
19.45418 210
19.47429 204
19.4944 204
19.51452 235
19.53463 213
19.55475 222
19.57486 210
19.59497 225
19.61509 227
19.6352 202
19.65531 242
19.67543 235
19.69554 262
19.71565 206
19.73577 265
19.75588 265
19.776 276
19.79611 264
19.81622 263
19.83634 270
19.85645 273
19.87656 279
19.89668 283
19.91679 289
19.93691 280
19.95702 268
19.97713 288
19.99725 268
20.01736 280
20.03747 244
20.05759 293
20.0777 268
20.09782 269
20.11793 273
20.13804 276
20.15816 285
20.17827 306
20.19838 294
20.2185 310
20.23861 256
20.25872 312
20.27884 306
20.29895 347
20.31907 315
20.33918 328
20.35929 310
20.37941 314
20.39952 327
20.41963 352
20.43975 365
20.45986 388
20.47998 385
20.50009 387
20.5202 380
20.54032 449
20.56043 424
20.58054 438
20.60066 452
20.62077 507
20.64088 583
20.661 695
20.68111 768
20.70123 990
20.72134 1402
20.74145 1919
20.76157 2739
20.78168 3856
20.80179 5088
20.82191 6561
20.84202 7711
20.86214 8450
20.88225 7604
20.90236 6501
20.92248 4518
20.94259 3238
20.9627 1907
20.98282 1185
21.00293 827
21.02305 651
21.04316 588
21.06327 528
21.08339 511
21.1035 469
21.12361 422
21.14373 417
21.16384 387
21.18395 381
21.20407 347
21.22418 332
21.2443 334
21.26441 332
21.28452 303
21.30464 307
21.32475 272
21.34486 322
21.36498 304
21.38509 320
21.40521 266
21.42532 293
21.44543 285
21.46555 280
21.48566 286
21.50577 251
21.52589 278
21.546 256
21.56612 277
21.58623 292
21.60634 271
21.62646 250
21.64657 255
21.66668 273
21.6868 263
21.70691 251
21.72702 247
21.74714 259
21.76725 261
21.78737 265
21.80748 256
21.82759 232
21.84771 240
21.86782 244
21.88793 241
21.90805 229
21.92816 234
21.94828 238
21.96839 235
21.9885 244
22.00862 252
22.02873 251
22.04884 237
22.06896 231
22.08907 239
22.10919 259
22.1293 218
22.14941 240
22.16953 216
22.18964 237
22.20975 222
22.22987 266
22.24998 207
22.27009 270
22.29021 204
22.31032 237
22.33044 231
22.35055 259
22.37066 239
22.39078 255
22.41089 247
22.431 267
22.45112 231
22.47123 226
22.49135 239
22.51146 243
22.53157 239
22.55169 221
22.5718 234
22.59191 235
22.61203 225
22.63214 225
22.65225 212
22.67237 206
22.69248 231
22.7126 234
22.73271 212
22.75282 222
22.77294 214
22.79305 233
22.81316 217
22.83328 205
22.85339 234
22.87351 188
22.89362 228
22.91373 219
22.93385 224
22.95396 185
22.97407 215
22.99419 230
23.0143 238
23.03442 240
23.05453 219
23.07464 179
23.09476 229
23.11487 218
23.13498 226
23.1551 218
23.17521 205
23.19532 212
23.21544 234
23.23555 218
23.25567 224
23.27578 187
23.29589 214
23.31601 229
23.33612 204
23.35623 223
23.37635 216
23.39646 223
23.41658 203
23.43669 258
23.4568 191
23.47692 192
23.49703 225
23.51714 183
23.53726 219
23.55737 205
23.57749 208
23.5976 216
23.61771 253
23.63783 229
23.65794 205
23.67805 208
23.69817 202
23.71828 201
23.73839 218
23.75851 230
23.77862 196
23.79874 240
23.81885 236
23.83896 201
23.85908 237
23.87919 234
23.8993 257
23.91942 242
23.93953 269
23.95965 262
23.97976 304
23.99987 326
24.01999 331
24.0401 305
24.06021 274
24.08033 275
24.10044 246
24.12056 251
24.14067 225
24.16078 252
24.1809 245
24.20101 235
24.22112 205
24.24124 226
24.26135 228
24.28146 252
24.30158 257
24.32169 244
24.34181 221
24.36192 235
24.38203 220
24.40215 194
24.42226 239
24.44237 240
24.46249 240
24.4826 226
24.50272 228
24.52283 225
24.54294 224
24.56306 207
24.58317 239
24.60328 223
24.6234 205
24.64351 214
24.66362 237
24.68374 240
24.70385 242
24.72397 241
24.74408 217
24.76419 268
24.78431 261
24.80442 223
24.82453 216
24.84465 250
24.86476 250
24.88488 248
24.90499 220
24.9251 255
24.94522 271
24.96533 245
24.98544 253
25.00556 237
25.02567 253
25.04579 241
25.0659 239
25.08601 207
25.10613 201
25.12624 236
25.14635 252
25.16647 242
25.18658 223
25.20669 237
25.22681 261
25.24692 226
25.26704 242
25.28715 262
25.30726 253
25.32738 253
25.34749 256
25.3676 250
25.38772 239
25.40783 269
25.42795 238
25.44806 241
25.46817 264
25.48829 260
25.5084 277
25.52851 269
25.54863 270
25.56874 300
25.58886 281
25.60897 309
25.62908 270
25.6492 341
25.66931 342
25.68942 367
25.70954 416
25.72965 426
25.74976 438
25.76988 432
25.78999 440
25.81011 459
25.83022 442
25.85033 484
25.87045 448
25.89056 433
25.91067 458
25.93079 487
25.9509 460
25.97102 489
25.99113 469
26.01124 507
26.03136 518
26.05147 539
26.07158 585
26.0917 543
26.11181 635
26.13193 658
26.15204 714
26.17215 724
26.19227 772
26.21238 837
26.23249 858
26.25261 978
26.27272 1016
26.29283 1047
26.31295 1160
26.33306 1321
26.35318 1440
26.37329 1654
26.3934 1836
26.41352 2240
26.43363 2899
26.45374 3610
26.47386 4899
26.49397 6736
26.51409 9602
26.5342 13473
26.55431 18578
26.57443 24876
26.59454 31463
26.61465 36441
26.63477 38030
26.65488 36169
26.67499 30401
26.69511 23167
26.71522 17352
26.73534 12140
26.75545 7195
26.77556 4047
26.79568 2721
26.81579 1999
26.8359 1692
26.85602 1487
26.87613 1344
26.89625 1287
26.91636 1112
26.93647 959
26.95659 916
26.9767 855
26.99681 762
27.01693 691
27.03704 670
27.05716 640
27.07727 574
27.09738 586
27.1175 531
27.13761 491
27.15772 496
27.17784 515
27.19795 423
27.21806 467
27.23818 445
27.25829 444
27.27841 425
27.29852 397
27.31863 427
27.33875 416
27.35886 444
27.37897 401
27.39909 385
27.4192 427
27.43932 417
27.45943 415
27.47954 431
27.49966 402
27.51977 397
27.53988 353
27.56 387
27.58011 359
27.60023 374
27.62034 324
27.64045 325
27.66057 366
27.68068 328
27.70079 334
27.72091 296
27.74102 318
27.76113 328
27.78125 308
27.80136 346
27.82148 343
27.84159 347
27.8617 349
27.88182 291
27.90193 327
27.92204 311
27.94216 295
27.96227 305
27.98239 323
28.0025 277
28.02261 325
28.04273 288
28.06284 284
28.08295 297
28.10307 261
28.12318 270
28.1433 281
28.16341 275
28.18352 290
28.20364 300
28.22375 281
28.24386 306
28.26398 309
28.28409 262
28.3042 268
28.32432 291
28.34443 263
28.36455 289
28.38466 271
28.40477 261
28.42489 276
28.445 269
28.46511 275
28.48523 255
28.50534 283
28.52546 264
28.54557 297
28.56568 267
28.5858 257
28.60591 261
28.62602 262
28.64614 227
28.66625 249
28.68636 231
28.70648 249
28.72659 265
28.74671 260
28.76682 256
28.78693 209
28.80705 234
28.82716 243
28.84727 265
28.86739 272
28.8875 251
28.90762 250
28.92773 257
28.94784 242
28.96796 223
28.98807 270
29.00818 245
29.0283 273
29.04841 239
29.06853 262
29.08864 219
29.10875 231
29.12887 247
29.14898 235
29.16909 253
29.18921 243
29.20932 241
29.22943 254
29.24955 252
29.26966 227
29.28978 237
29.30989 249
29.33 249
29.35012 233
29.37023 261
29.39034 230
29.41046 228
29.43057 234
29.45069 231
29.4708 255
29.49091 239
29.51103 265
29.53114 255
29.55125 259
29.57137 254
29.59148 223
29.6116 235
29.63171 216
29.65182 237
29.67194 228
29.69205 237
29.71216 234
29.73228 215
29.75239 250
29.7725 203
29.79262 214
29.81273 188
29.83285 221
29.85296 218
29.87307 230
29.89319 225
29.9133 250
29.93341 231
29.95353 202
29.97364 221
29.99376 239
30.01387 224
30.03398 206
30.0541 236
30.07421 240
30.09432 198
30.11444 237
30.13455 252
30.15467 231
30.17478 225
30.19489 241
30.21501 243
30.23512 238
30.25523 241
30.27535 247
30.29546 241
30.31557 226
30.33569 223
30.3558 244
30.37592 229
30.39603 203
30.41614 227
30.43626 221
30.45637 230
30.47648 245
30.4966 219
30.51671 230
30.53683 226
30.55694 209
30.57705 231
30.59717 231
30.61728 232
30.63739 232
30.65751 192
30.67762 227
30.69773 227
30.71785 210
30.73796 232
30.75808 236
30.77819 237
30.7983 234
30.81842 229
30.83853 233
30.85864 204
30.87876 229
30.89887 213
30.91899 201
30.9391 206
30.95921 207
30.97933 175
30.99944 179
31.01955 198
31.03967 198
31.05978 189
31.0799 197
31.10001 238
31.12012 174
31.14024 209
31.16035 209
31.18046 211
31.20058 210
31.22069 219
31.2408 194
31.26092 186
31.28103 210
31.30115 199
31.32126 206
31.34137 181
31.36149 209
31.3816 182
31.40171 200
31.42183 203
31.44194 209
31.46206 183
31.48217 195
31.50228 173
31.5224 188
31.54251 201
31.56262 176
31.58274 180
31.60285 186
31.62297 194
31.64308 191
31.66319 176
31.68331 176
31.70342 192
31.72353 170
31.74365 226
31.76376 205
31.78387 182
31.80399 171
31.8241 180
31.84422 178
31.86433 213
31.88444 203
31.90456 175
31.92467 191
31.94478 195
31.9649 213
31.98501 218
32.00513 184
32.02524 221
32.04535 197
32.06547 177
32.08558 197
32.10569 191
32.12581 167
32.14592 194
32.16604 182
32.18615 190
32.20626 198
32.22638 196
32.24649 170
32.2666 166
32.28672 172
32.30683 203
32.32694 192
32.34706 218
32.36717 195
32.38729 205
32.4074 202
32.42751 205
32.44763 178
32.46774 203
32.48785 178
32.50797 153
32.52808 193
32.5482 176
32.56831 202
32.58842 186
32.60854 223
32.62865 174
32.64876 224
32.66888 161
32.68899 184
32.7091 199
32.72922 176
32.74933 194
32.76945 175
32.78956 192
32.80967 164
32.82979 161
32.8499 203
32.87001 184
32.89013 224
32.91024 188
32.93036 189
32.95047 214
32.97058 205
32.9907 196
33.01081 169
33.03092 187
33.05104 196
33.07115 187
33.09127 232
33.11138 202
33.13149 156
33.15161 208
33.17172 188
33.19183 191
33.21195 183
33.23206 182
33.25217 209
33.27229 193
33.2924 204
33.31252 193
33.33263 205
33.35274 175
33.37286 200
33.39297 168
33.41308 196
33.4332 172
33.45331 181
33.47343 181
33.49354 170
33.51365 186
33.53377 168
33.55388 176
33.57399 149
33.59411 178
33.61422 166
33.63434 169
33.65445 150
33.67456 205
33.69468 170
33.71479 175
33.7349 185
33.75502 168
33.77513 190
33.79524 166
33.81536 198
33.83547 163
33.85559 147
33.8757 161
33.89581 180
33.91593 189
33.93604 166
33.95615 159
33.97627 186
33.99638 178
34.0165 165
34.03661 184
34.05672 171
34.07684 163
34.09695 208
34.11706 187
34.13718 172
34.15729 182
34.17741 163
34.19752 178
34.21763 186
34.23775 181
34.25786 185
34.27797 185
34.29809 184
34.3182 185
34.33831 186
34.35843 186
34.37854 178
34.39866 184
34.41877 165
34.43888 181
34.459 194
34.47911 194
34.49922 194
34.51934 188
34.53945 202
34.55957 189
34.57968 217
34.59979 197
34.61991 202
34.64002 206
34.66013 195
34.68025 184
34.70036 226
34.72047 214
34.74059 218
34.7607 213
34.78082 204
34.80093 228
34.82104 208
34.84116 203
34.86127 213
34.88138 199
34.9015 219
34.92161 233
34.94173 182
34.96184 211
34.98195 203
35.00207 204
35.02218 200
35.04229 204
35.06241 228
35.08252 215
35.10264 182
35.12275 194
35.14286 190
35.16298 197
35.18309 190
35.2032 225
35.22332 219
35.24343 231
35.26354 217
35.28366 217
35.30377 202
35.32389 204
35.344 210
35.36411 232
35.38423 224
35.40434 244
35.42445 218
35.44457 247
35.46468 218
35.4848 206
35.50491 201
35.52502 233
35.54514 190
35.56525 248
35.58536 240
35.60548 208
35.62559 218
35.64571 204
35.66582 196
35.68593 211
35.70605 213
35.72616 189
35.74627 223
35.76639 220
35.7865 218
35.80661 220
35.82673 215
35.84684 196
35.86696 223
35.88707 217
35.90718 241
35.9273 246
35.94741 248
35.96752 223
35.98764 218
36.00775 265
36.02787 217
36.04798 217
36.06809 218
36.08821 225
36.10832 245
36.12843 268
36.14855 255
36.16866 247
36.18878 263
36.20889 255
36.229 262
36.24912 287
36.26923 325
36.28934 348
36.30946 414
36.32957 454
36.34968 520
36.3698 623
36.38991 788
36.41003 960
36.43014 1192
36.45025 1539
36.47037 1854
36.49048 2224
36.51059 2524
36.53071 2627
36.55082 2446
36.57094 2092
36.59105 1829
36.61116 1420
36.63128 1293
36.65139 1077
36.6715 807
36.69162 588
36.71173 414
36.73184 375
36.75196 319
36.77207 348
36.79219 282
36.8123 293
36.83241 266
36.85253 244
36.87264 270
36.89275 256
36.91287 235
36.93298 217
36.9531 248
36.97321 209
36.99332 213
37.01344 204
37.03355 218
37.05366 216
37.07378 208
37.09389 209
37.11401 184
37.13412 180
37.15423 202
37.17435 186
37.19446 209
37.21457 195
37.23469 192
37.2548 194
37.27491 193
37.29503 211
37.31514 217
37.33526 180
37.35537 180
37.37548 201
37.3956 194
37.41571 224
37.43582 184
37.45594 195
37.47605 171
37.49617 199
37.51628 174
37.53639 193
37.55651 215
37.57662 183
37.59673 199
37.61685 170
37.63696 196
37.65708 168
37.67719 182
37.6973 204
37.71742 197
37.73753 173
37.75764 200
37.77776 193
37.79787 192
37.81798 182
37.8381 186
37.85821 178
37.87833 189
37.89844 180
37.91855 181
37.93867 204
37.95878 185
37.97889 191
37.99901 200
38.01912 172
38.03924 168
38.05935 182
38.07946 185
38.09958 203
38.11969 190
38.1398 224
38.15992 218
38.18003 198
38.20015 198
38.22026 170
38.24037 213
38.26049 189
38.2806 197
38.30071 229
38.32083 191
38.34094 211
38.36105 205
38.38117 197
38.40128 211
38.4214 210
38.44151 180
38.46162 214
38.48174 177
38.50185 203
38.52196 188
38.54208 230
38.56219 202
38.58231 207
38.60242 185
38.62253 201
38.64265 204
38.66276 173
38.68287 199
38.70299 192
38.7231 202
38.74321 198
38.76333 207
38.78344 202
38.80356 216
38.82367 180
38.84378 185
38.8639 208
38.88401 209
38.90412 198
38.92424 207
38.94435 212
38.96447 219
38.98458 225
39.00469 189
39.02481 250
39.04492 242
39.06503 226
39.08515 226
39.10526 252
39.12538 273
39.14549 295
39.1656 249
39.18572 316
39.20583 351
39.22594 335
39.24606 405
39.26617 493
39.28628 601
39.3064 709
39.32651 857
39.34663 1138
39.36674 1355
39.38685 1780
39.40697 2014
39.42708 2278
39.44719 2376
39.46731 2440
39.48742 2066
39.50754 1635
39.52765 1464
39.54776 1279
39.56788 1153
39.58799 907
39.6081 639
39.62822 461
39.64833 357
39.66845 283
39.68856 307
39.70867 276
39.72879 274
39.7489 262
39.76901 239
39.78913 240
39.80924 257
39.82935 236
39.84947 235
39.86958 214
39.8897 264
39.90981 222
39.92992 237
39.95004 251
39.97015 249
39.99026 221
40.01038 268
40.03049 308
40.05061 304
40.07072 334
40.09083 328
40.11095 462
40.13106 470
40.15117 557
40.17129 671
40.1914 762
40.21152 985
40.23163 1095
40.25174 1260
40.27186 1236
40.29197 1223
40.31208 1051
40.3322 901
40.35231 824
40.37242 690
40.39254 651
40.41265 479
40.43277 418
40.45288 293
40.47299 229
40.49311 252
40.51322 211
40.53333 219
40.55345 196
40.57356 204
40.59368 214
40.61379 212
40.6339 207
40.65402 185
40.67413 228
40.69424 200
40.71436 205
40.73447 206
40.75458 192
40.7747 201
40.79481 193
40.81493 175
40.83504 229
40.85515 197
40.87527 167
40.89538 181
40.91549 193
40.93561 204
40.95572 197
40.97584 190
40.99595 203
41.01606 183
41.03618 193
41.05629 180
41.0764 194
41.09652 190
41.11663 187
41.13675 181
41.15686 180
41.17697 209
41.19709 192
41.2172 176
41.23731 199
41.25743 182
41.27754 242
41.29765 200
41.31777 208
41.33788 193
41.358 203
41.37811 196
41.39822 182
41.41834 197
41.43845 189
41.45856 218
41.47868 192
41.49879 198
41.51891 184
41.53902 210
41.55913 184
41.57925 176
41.59936 179
41.61947 174
41.63959 188
41.6597 205
41.67982 195
41.69993 197
41.72004 210
41.74016 184
41.76027 174
41.78038 190
41.8005 201
41.82061 196
41.84072 201
41.86084 185
41.88095 192
41.90107 206
41.92118 217
41.94129 237
41.96141 186
41.98152 205
42.00163 205
42.02175 196
42.04186 189
42.06198 196
42.08209 231
42.1022 234
42.12232 241
42.14243 251
42.16254 290
42.18266 297
42.20277 317
42.22289 333
42.243 377
42.26311 444
42.28323 576
42.30334 681
42.32345 798
42.34357 954
42.36368 1150
42.38379 1304
42.40391 1603
42.42402 1808
42.44414 1790
42.46425 1497
42.48436 1293
42.50448 1061
42.52459 987
42.5447 925
42.56482 782
42.58493 610
42.60505 451
42.62516 343
42.64527 275
42.66539 244
42.6855 240
42.70561 229
42.72573 236
42.74584 229
42.76595 219
42.78607 177
42.80618 199
42.8263 208
42.84641 191
42.86652 179
42.88664 191
42.90675 194
42.92686 187
42.94698 181
42.96709 185
42.98721 179
43.00732 171
43.02743 175
43.04755 178
43.06766 187
43.08777 165
43.10789 173
43.128 143
43.14812 175
43.16823 176
43.18834 161
43.20846 145
43.22857 165
43.24868 165
43.2688 178
43.28891 179
43.30902 169
43.32914 158
43.34925 166
43.36937 170
43.38948 172
43.40959 165
43.42971 155
43.44982 185
43.46993 138
43.49005 153
43.51016 183
43.53028 172
43.55039 156
43.5705 172
43.59062 178
43.61073 167
43.63084 161
43.65096 154
43.67107 171
43.69119 165
43.7113 134
43.73141 162
43.75153 138
43.77164 153
43.79175 165
43.81187 161
43.83198 148
43.85209 164
43.87221 169
43.89232 170
43.91244 177
43.93255 163
43.95266 185
43.97278 172
43.99289 194
44.013 174
44.03312 156
44.05323 144
44.07335 162
44.09346 150
44.11357 163
44.13369 196
44.1538 179
44.17391 162
44.19403 174
44.21414 160
44.23426 175
44.25437 184
44.27448 176
44.2946 184
44.31471 150
44.33482 177
44.35494 169
44.37505 184
44.39516 166
44.41528 163
44.43539 166
44.45551 185
44.47562 168
44.49573 146
44.51585 172
44.53596 167
44.55607 161
44.57619 176
44.5963 153
44.61642 148
44.63653 168
44.65664 178
44.67676 179
44.69687 165
44.71698 169
44.7371 191
44.75721 190
44.77732 183
44.79744 175
44.81755 192
44.83767 197
44.85778 190
44.87789 166
44.89801 179
44.91812 162
44.93823 172
44.95835 192
44.97846 176
44.99858 175
45.01869 163
45.0388 164
45.05892 173
45.07903 185
45.09914 187
45.11926 181
45.13937 167
45.15949 197
45.1796 201
45.19971 188
45.21983 173
45.23994 162
45.26005 180
45.28017 206
45.30028 190
45.32039 196
45.34051 176
45.36062 168
45.38074 217
45.40085 193
45.42096 201
45.44108 204
45.46119 195
45.4813 207
45.50142 239
45.52153 260
45.54165 280
45.56176 279
45.58187 302
45.60199 359
45.6221 409
45.64221 496
45.66233 654
45.68244 748
45.70256 840
45.72267 1023
45.74278 1172
45.7629 1201
45.78301 1114
45.80312 1049
45.82324 898
45.84335 700
45.86346 773
45.88358 736
45.90369 629
45.92381 488
45.94392 446
45.96403 307
45.98415 223
46.00426 233
46.02437 201
46.04449 204
46.0646 187
46.08472 192
46.10483 182
46.12494 177
46.14506 169
46.16517 172
46.18528 147
46.2054 167
46.22551 153
46.24563 171
46.26574 146
46.28585 162
46.30597 145
46.32608 159
46.34619 170
46.36631 198
46.38642 171
46.40653 174
46.42665 166
46.44676 179
46.46688 164
46.48699 158
46.5071 159
46.52722 160
46.54733 157
46.56744 155
46.58756 156
46.60767 168
46.62779 149
46.6479 155
46.66801 139
46.68813 151
46.70824 157
46.72835 149
46.74847 138
46.76858 161
46.78869 140
46.80881 146
46.82892 133
46.84904 176
46.86915 160
46.88926 135
46.90938 142
46.92949 151
46.9496 160
46.96972 157
46.98983 147
47.00995 168
47.03006 171
47.05017 158
47.07029 152
47.0904 172
47.11051 157
47.13063 150
47.15074 158
47.17086 145
47.19097 168
47.21108 160
47.2312 163
47.25131 160
47.27142 149
47.29154 155
47.31165 151
47.33176 143
47.35188 172
47.37199 169
47.39211 159
47.41222 158
47.43233 166
47.45245 151
47.47256 159
47.49267 165
47.51279 154
47.5329 159
47.55302 166
47.57313 173
47.59324 169
47.61336 157
47.63347 162
47.65358 155
47.6737 174
47.69381 155
47.71393 144
47.73404 166
47.75415 154
47.77427 155
47.79438 164
47.81449 164
47.83461 134
47.85472 146
47.87483 161
47.89495 143
47.91506 149
47.93518 148
47.95529 146
47.9754 157
47.99552 159
48.01563 162
48.03574 179
48.05586 154
48.07597 145
48.09609 168
48.1162 147
48.13631 150
48.15643 169
48.17654 160
48.19665 166
48.21677 179
48.23688 173
48.257 147
48.27711 160
48.29722 162
48.31734 173
48.33745 172
48.35756 159
48.37768 177
48.39779 166
48.4179 158
48.43802 175
48.45813 155
48.47825 161
48.49836 170
48.51847 139
48.53859 150
48.5587 164
48.57881 157
48.59893 129
48.61904 180
48.63916 156
48.65927 174
48.67938 177
48.6995 157
48.71961 169
48.73972 183
48.75984 154
48.77995 171
48.80006 163
48.82018 165
48.84029 175
48.86041 165
48.88052 162
48.90063 144
48.92075 171
48.94086 160
48.96097 157
48.98109 172
49.0012 188
49.02132 173
49.04143 164
49.06154 182
49.08166 197
49.10177 207
49.12188 204
49.142 182
49.16211 145
49.18223 178
49.20234 169
49.22245 171
49.24257 153
49.26268 163
49.28279 166
49.30291 212
49.32302 166
49.34313 178
49.36325 175
49.38336 190
49.40348 186
49.42359 183
49.4437 171
49.46382 190
49.48393 182
49.50404 174
49.52416 195
49.54427 206
49.56439 203
49.5845 201
49.60461 235
49.62473 226
49.64484 243
49.66495 216
49.68507 250
49.70518 258
49.7253 258
49.74541 275
49.76552 336
49.78564 321
49.80575 365
49.82586 412
49.84598 420
49.86609 512
49.8862 556
49.90632 690
49.92643 773
49.94655 877
49.96666 1159
49.98677 1411
50.00689 1786
50.027 2219
50.04711 2622
50.06723 3225
50.08734 3557
50.10746 3801
50.12757 3652
50.14768 3310
50.1678 2730
50.18791 2230
50.20802 2055
50.22814 1959
50.24825 1853
50.26837 1586
50.28848 1307
50.30859 958
50.32871 610
50.34882 445
50.36893 431
50.38905 324
50.40916 347
50.42927 303
50.44939 309
50.4695 301
50.48962 285
50.50973 305
50.52984 284
50.54996 271
50.57007 287
50.59018 254
50.6103 298
50.63041 289
50.65053 235
50.67064 247
50.69075 222
50.71087 226
50.73098 235
50.75109 244
50.77121 223
50.79132 197
50.81143 190
50.83155 197
50.85166 183
50.87178 165
50.89189 172
50.912 182
50.93212 188
50.95223 197
50.97234 170
50.99246 168
51.01257 184
51.03269 174
51.0528 162
51.07291 168
51.09303 162
51.11314 163
51.13325 149
51.15337 160
51.17348 165
51.1936 149
51.21371 176
51.23382 150
51.25394 185
51.27405 161
51.29416 151
51.31428 169
51.33439 141
51.3545 161
51.37462 164
51.39473 152
51.41485 142
51.43496 167
51.45507 167
51.47519 151
51.4953 175
51.51541 165
51.53553 173
51.55564 182
51.57576 150
51.59587 148
51.61598 146
51.6361 143
51.65621 163
51.67632 152
51.69644 148
51.71655 146
51.73667 168
51.75678 139
51.77689 167
51.79701 152
51.81712 185
51.83723 164
51.85735 155
51.87746 158
51.89757 155
51.91769 143
51.9378 129
51.95792 154
51.97803 162
51.99814 132
52.01826 130
52.03837 152
52.05848 161
52.0786 158
52.09871 160
52.11883 162
52.13894 136
52.15905 145
52.17917 159
52.19928 149
52.21939 159
52.23951 152
52.25962 153
52.27974 151
52.29985 146
52.31996 149
52.34008 139
52.36019 192
52.3803 159
52.40042 147
52.42053 165
52.44064 152
52.46076 169
52.48087 155
52.50099 155
52.5211 147
52.54121 168
52.56133 160
52.58144 126
52.60155 169
52.62167 134
52.64178 133
52.6619 174
52.68201 171
52.70212 157
52.72224 147
52.74235 139
52.76246 156
52.78258 137
52.80269 156
52.8228 144
52.84292 168
52.86303 148
52.88315 165
52.90326 146
52.92337 160
52.94349 163
52.9636 135
52.98371 149
53.00383 139
53.02394 163
53.04406 140
53.06417 160
53.08428 145
53.1044 162
53.12451 187
53.14462 185
53.16474 175
53.18485 151
53.20497 182
53.22508 190
53.24519 171
53.26531 187
53.28542 186
53.30553 195
53.32565 188
53.34576 206
53.36587 186
53.38599 187
53.4061 165
53.42622 158
53.44633 182
53.46644 191
53.48656 175
53.50667 181
53.52678 175
53.5469 191
53.56701 168
53.58713 194
53.60724 176
53.62735 172
53.64747 177
53.66758 163
53.68769 203
53.70781 172
53.72792 169
53.74804 188
53.76815 160
53.78826 164
53.80838 196
53.82849 168
53.8486 165
53.86872 192
53.88883 162
53.90894 165
53.92906 176
53.94917 159
53.96929 185
53.9894 186
54.00951 176
54.02963 174
54.04974 166
54.06985 177
54.08997 159
54.11008 170
54.1302 178
54.15031 186
54.17042 209
54.19054 177
54.21065 204
54.23076 189
54.25088 198
54.27099 164
54.29111 172
54.31122 190
54.33133 194
54.35145 214
54.37156 203
54.39167 224
54.41179 190
54.4319 198
54.45201 212
54.47213 198
54.49224 200
54.51236 237
54.53247 236
54.55258 252
54.5727 259
54.59281 246
54.61292 293
54.63304 294
54.65315 383
54.67327 393
54.69338 446
54.71349 529
54.73361 631
54.75372 740
54.77383 858
54.79395 1046
54.81406 1193
54.83417 1206
54.85429 1174
54.8744 1070
54.89452 916
54.91463 856
54.93474 703
54.95486 748
54.97497 743
54.99508 692
55.0152 673
55.03531 561
55.05543 454
55.07554 359
55.09565 340
55.11577 330
55.13588 317
55.15599 361
55.17611 363
55.19622 401
55.21634 457
55.23645 487
55.25656 559
55.27668 609
55.29679 620
55.3169 659
55.33702 518
55.35713 475
55.37724 429
55.39736 405
55.41747 404
55.43759 371
55.4577 399
55.47781 334
55.49793 303
55.51804 266
55.53815 229
55.55827 205
55.57838 195
55.5985 161
55.61861 180
55.63872 199
55.65884 186
55.67895 174
55.69906 180
55.71918 165
55.73929 197
55.75941 180
55.77952 170
55.79963 153
55.81975 170
55.83986 175
55.85997 166
55.88009 161
55.9002 157
55.92031 185
55.94043 148
55.96054 125
55.98066 179
56.00077 178
56.02088 162
56.041 176
56.06111 169
56.08122 158
56.10134 150
56.12145 177
56.14157 176
56.16168 164
56.18179 138
56.20191 144
56.22202 180
56.24213 157
56.26225 181
56.28236 174
56.30248 168
56.32259 136
56.3427 147
56.36282 133
56.38293 146
56.40304 161
56.42316 166
56.44327 148
56.46338 154
56.4835 148
56.50361 170
56.52373 150
56.54384 155
56.56395 176
56.58407 162
56.60418 173
56.62429 155
56.64441 164
56.66452 167
56.68464 147
56.70475 143
56.72486 149
56.74498 148
56.76509 183
56.7852 161
56.80532 151
56.82543 141
56.84554 158
56.86566 133
56.88577 167
56.90589 165
56.926 140
56.94611 152
56.96623 188
56.98634 155
57.00645 177
57.02657 168
57.04668 160
57.0668 163
57.08691 201
57.10702 174
57.12714 195
57.14725 196
57.16736 201
57.18748 226
57.20759 204
57.22771 215
57.24782 216
57.26793 206
57.28805 195
57.30816 186
57.32827 177
57.34839 191
57.3685 152
57.38861 168
57.40873 176
57.42884 171
57.44896 157
57.46907 179
57.48918 145
57.5093 166
57.52941 151
57.54952 154
57.56964 155
57.58975 135
57.60987 185
57.62998 138
57.65009 136
57.67021 149
57.69032 157
57.71043 165
57.73055 158
57.75066 156
57.77078 158
57.79089 144
57.811 178
57.83112 160
57.85123 176
57.87134 145
57.89146 157
57.91157 156
57.93168 158
57.9518 153
57.97191 170
57.99203 135
58.01214 157
58.03225 145
58.05237 171
58.07248 146
58.09259 159
58.11271 156
58.13282 165
58.15294 135
58.17305 175
58.19316 124
58.21328 140
58.23339 151
58.2535 152
58.27362 165
58.29373 155
58.31385 158
58.33396 158
58.35407 175
58.37419 147
58.3943 145
58.41441 131
58.43453 160
58.45464 172
58.47475 168
58.49487 171
58.51498 155
58.5351 150
58.55521 158
58.57532 164
58.59544 164
58.61555 165
58.63566 166
58.65578 164
58.67589 156
58.69601 160
58.71612 148
58.73623 158
58.75635 177
58.77646 167
58.79657 165
58.81669 171
58.8368 171
58.85691 159
58.87703 163
58.89714 160
58.91726 181
58.93737 185
58.95748 141
58.9776 164
58.99771 168
59.01782 183
59.03794 179
59.05805 177
59.07817 148
59.09828 177
59.11839 204
59.13851 215
59.15862 175
59.17873 169
59.19885 170
59.21896 155
59.23908 185
59.25919 184
59.2793 182
59.29942 168
59.31953 198
59.33964 183
59.35976 180
59.37987 209
59.39998 226
59.4201 180
59.44021 204
59.46033 199
59.48044 247
59.50055 266
59.52067 239
59.54078 234
59.56089 256
59.58101 282
59.60112 308
59.62124 342
59.64135 339
59.66146 395
59.68158 446
59.70169 509
59.7218 585
59.74192 686
59.76203 811
59.78215 906
59.80226 1121
59.82237 1323
59.84249 1636
59.8626 1870
59.88271 2134
59.90283 2439
59.92294 2482
59.94305 2391
59.96317 2074
59.98328 1621
60.0034 1401
60.02351 1298
60.04362 1274
60.06374 1306
60.08385 1284
60.10396 1201
60.12408 1016
60.14419 817
60.16431 552
60.18442 430
60.20453 367
60.22465 304
60.24476 267
60.26487 235
60.28499 268
60.3051 208
60.32522 226
60.34533 197
60.36544 199
60.38556 180
60.40567 198
60.42578 190
60.4459 196
60.46601 191
60.48612 192
60.50624 174
60.52635 186
60.54647 180
60.56658 171
60.58669 170
60.60681 178
60.62692 178
60.64703 181
60.66715 154
60.68726 170
60.70738 172
60.72749 165
60.7476 161
60.76772 170
60.78783 164
60.80794 176
60.82806 181
60.84817 175
60.86828 178
60.8884 178
60.90851 171
60.92863 172
60.94874 155
60.96885 160
60.98897 161
61.00908 183
61.02919 156
61.04931 139
61.06942 188
61.08954 167
61.10965 161
61.12976 135
61.14988 165
61.16999 173
61.1901 149
61.21022 139
61.23033 173
61.25045 168
61.27056 177
61.29067 174
61.31079 178
61.3309 175
61.35101 151
61.37113 171
61.39124 182
61.41135 164
61.43147 182
61.45158 190
61.4717 185
61.49181 175
61.51192 180
61.53204 167
61.55215 178
61.57226 174
61.59238 166
61.61249 157
61.63261 170
61.65272 162
61.67283 175
61.69295 171
61.71306 164
61.73317 163
61.75329 158
61.7734 166
61.79352 142
61.81363 162
61.83374 142
61.85386 165
61.87397 156
61.89408 170
61.9142 153
61.93431 163
61.95442 172
61.97454 181
61.99465 178
62.01477 154
62.03488 179
62.05499 146
62.07511 165
62.09522 154
62.11533 157
62.13545 160
62.15556 187
62.17568 164
62.19579 165
62.2159 162
62.23602 163
62.25613 150
62.27624 173
62.29636 175
62.31647 170
62.33659 175
62.3567 169
62.37681 167
62.39693 163
62.41704 174
62.43715 159
62.45727 146
62.47738 158
62.49749 163
62.51761 158
62.53772 163
62.55784 146
62.57795 184
62.59806 166
62.61818 141
62.63829 167
62.6584 149
62.67852 150
62.69863 171
62.71875 160
62.73886 153
62.75897 141
62.77909 165
62.7992 152
62.81931 146
62.83943 152
62.85954 154
62.87965 165
62.89977 144
62.91988 156
62.94 151
62.96011 156
62.98022 158
63.00034 147
63.02045 163
63.04056 141
63.06068 134
63.08079 145
63.10091 149
63.12102 149
63.14113 167
63.16125 143
63.18136 155
63.20147 137
63.22159 150
63.2417 145
63.26182 171
63.28193 163
63.30204 154
63.32216 165
63.34227 139
63.36238 150
63.3825 145
63.40261 164
63.42272 172
63.44284 153
63.46295 154
63.48307 162
63.50318 134
63.52329 135
63.54341 166
63.56352 168
63.58363 161
63.60375 172
63.62386 155
63.64398 174
63.66409 176
63.6842 181
63.70432 183
63.72443 189
63.74454 179
63.76466 216
63.78477 209
63.80489 226
63.825 248
63.84511 238
63.86523 307
63.88534 371
63.90545 397
63.92557 465
63.94568 484
63.96579 555
63.98591 548
64.00602 593
64.02614 555
64.04625 476
64.06636 413
64.08648 378
64.10659 335
64.1267 391
64.14682 360
64.16693 382
64.18705 340
64.20716 325
64.22727 274
64.24739 236
64.2675 193
64.28761 207
64.30773 198
64.32784 196
64.34796 152
64.36807 147
64.38818 162
64.4083 159
64.42841 161
64.44852 173
64.46864 164
64.48875 161
64.50886 172
64.52898 141
64.54909 156
64.56921 136
64.58932 161
64.60943 167
64.62955 152
64.64966 141
64.66977 135
64.68989 151
64.71 141
64.73012 142
64.75023 136
64.77034 143
64.79046 136
64.81057 155
64.83068 145
64.8508 141
64.87091 137
64.89102 169
64.91114 147
64.93125 142
64.95137 129
64.97148 148
64.99159 163
65.01171 117
65.03182 131
65.05193 152
65.07205 159
65.09216 149
65.11228 166
65.13239 165
65.1525 156
65.17262 145
65.19273 158
65.21284 157
65.23296 131
65.25307 138
65.27319 148
65.2933 176
65.31341 157
65.33353 155
65.35364 162
65.37375 154
65.39387 171
65.41398 156
65.43409 165
65.45421 145
65.47432 131
65.49444 180
65.51455 157
65.53466 158
65.55478 201
65.57489 203
65.595 188
65.61512 208
65.63523 221
65.65535 211
65.67546 242
65.69557 261
65.71569 245
65.7358 242
65.75591 250
65.77603 249
65.79614 255
65.81626 193
65.83637 183
65.85648 209
65.8766 194
65.89671 209
65.91682 200
65.93694 202
65.95705 189
65.97716 173
65.99728 175
66.01739 153
66.03751 157
66.05762 170
66.07773 174
66.09785 154
66.11796 171
66.13807 175
66.15819 131
66.1783 174
66.19842 160
66.21853 161
66.23864 166
66.25876 164
66.27887 155
66.29898 170
66.3191 162
66.33921 163
66.35933 157
66.37944 163
66.39955 171
66.41967 163
66.43978 174
66.45989 143
66.48001 148
66.50012 178
66.52023 160
66.54035 176
66.56046 156
66.58058 149
66.60069 147
66.6208 160
66.64092 156
66.66103 170
66.68114 169
66.70126 176
66.72137 173
66.74149 182
66.7616 171
66.78171 163
66.80183 175
66.82194 184
66.84205 156
66.86217 181
66.88228 164
66.90239 150
66.92251 160
66.94262 172
66.96274 166
66.98285 167
67.00296 175
67.02308 193
67.04319 169
67.0633 176
67.08342 172
67.10353 199
67.12365 176
67.14376 187
67.16387 214
67.18399 168
67.2041 184
67.22421 207
67.24433 198
67.26444 199
67.28456 210
67.30467 214
67.32478 236
67.3449 243
67.36501 217
67.38512 282
67.40524 280
67.42535 290
67.44546 302
67.46558 368
67.48569 352
67.50581 462
67.52592 462
67.54603 581
67.56615 625
67.58626 789
67.60637 881
67.62649 1022
67.6466 1169
67.66672 1407
67.68683 1507
67.70694 1471
67.72706 1459
67.74717 1314
67.76728 1116
67.7874 985
67.80751 904
67.82763 870
67.84774 940
67.86785 1084
67.88797 1123
67.90808 1203
67.92819 1129
67.94831 1086
67.96842 1122
67.98853 1128
68.00865 1273
68.02876 1406
68.04888 1595
68.06899 1856
68.0891 1942
68.10922 1971
68.12933 2009
68.14944 1843
68.16956 1673
68.18967 1629
68.20979 1657
68.2299 1702
68.25001 1807
68.27013 1889
68.29024 1873
68.31035 1794
68.33047 1493
68.35058 1221
68.3707 952
68.39081 820
68.41092 736
68.43104 705
68.45115 712
68.47126 726
68.49138 617
68.51149 563
68.5316 434
68.55172 380
68.57183 300
68.59195 285
68.61206 235
68.63217 258
68.65229 205
68.6724 214
68.69251 191
68.71263 198
68.73274 177
68.75286 186
68.77297 189
68.79308 205
68.8132 185
68.83331 192
68.85342 197
68.87354 206
68.89365 172
68.91376 158
68.93388 186
68.95399 161
68.97411 170
68.99422 157
69.01433 180
69.03445 160
69.05456 155
69.07467 144
69.09479 166
69.1149 168
69.13502 161
69.15513 169
69.17524 170
69.19536 160
69.21547 159
69.23558 142
69.2557 178
69.27581 180
69.29593 138
69.31604 175
69.33615 158
69.35627 168
69.37638 190
69.39649 145
69.41661 159
69.43672 159
69.45683 161
69.47695 154
69.49706 162
69.51718 154
69.53729 171
69.5574 162
69.57752 155
69.59763 135
69.61774 162
69.63786 135
69.65797 131
69.67809 164
69.6982 145
69.71831 148
69.73843 168
69.75854 155
69.77865 153
69.79877 127
69.81888 144
69.839 165
69.85911 172
69.87922 162
69.89934 149
69.91945 135
69.93956 146
69.95968 160
69.97979 130
69.9999 158
70.02002 170
70.04013 153
70.06025 139
70.08036 139
70.10047 163
70.12059 155
70.1407 159
70.16081 139
70.18093 154
70.20104 125
70.22116 136
70.24127 148
70.26138 154
70.2815 141
70.30161 129
70.32172 147
70.34184 145
70.36195 149
70.38207 142
70.40218 133
70.42229 152
70.44241 158
70.46252 168
70.48263 138
70.50275 145
70.52286 153
70.54297 139
70.56309 134
70.5832 145
70.60332 157
70.62343 127
70.64354 156
70.66366 125
70.68377 159
70.70388 143
70.724 152
70.74411 139
70.76423 140
70.78434 148
70.80445 135
70.82457 153
70.84468 142
70.86479 139
70.88491 155
70.90502 128
70.92513 132
70.94525 156
70.96536 124
70.98548 119
71.00559 115
71.0257 138
71.04582 156
71.06593 168
71.08604 150
71.10616 134
71.12627 145
71.14639 151
71.1665 152
71.18661 142
71.20673 144
71.22684 170
71.24695 140
71.26707 127
71.28718 145
71.3073 155
71.32741 137
71.34752 160
71.36764 132
71.38775 144
71.40786 150
71.42798 139
71.44809 166
71.4682 148
71.48832 160
71.50843 168
71.52855 136
71.54866 155
71.56877 152
71.58889 165
71.609 143
71.62911 147
71.64923 147
71.66934 144
71.68946 156
71.70957 150
71.72968 155
71.7498 167
71.76991 127
71.79002 134
71.81014 136
71.83025 127
71.85037 156
71.87048 115
71.89059 131
71.91071 136
71.93082 143
71.95093 168
71.97105 144
71.99116 146
72.01127 159
72.03139 139
72.0515 145
72.07162 151
72.09173 161
72.11184 148
72.13196 157
72.15207 151
72.17218 146
72.1923 129
72.21241 152
72.23253 146
72.25264 140
72.27275 156
72.29287 138
72.31298 160
72.33309 140
72.35321 154
72.37332 140
72.39344 169
72.41355 124
72.43366 169
72.45378 128
72.47389 132
72.494 128
72.51412 148
72.53423 139
72.55434 130
72.57446 148
72.59457 134
72.61469 144
72.6348 135
72.65491 144
72.67503 151
72.69514 148
72.71525 137
72.73537 145
72.75548 134
72.7756 133
72.79571 140
72.81582 140
72.83594 148
72.85605 149
72.87616 168
72.89628 136
72.91639 155
72.9365 160
72.95662 181
72.97673 151
72.99685 155
73.01696 168
73.03707 159
73.05719 181
73.0773 153
73.09741 197
73.11753 191
73.13764 191
73.15776 209
73.17787 210
73.19798 242
73.2181 242
73.23821 265
73.25832 268
73.27844 307
73.29855 309
73.31867 364
73.33878 425
73.35889 494
73.37901 507
73.39912 620
73.41923 590
73.43935 591
73.45946 529
73.47957 448
73.49969 408
73.5198 374
73.53992 334
73.56003 338
73.58014 345
73.60026 353
73.62037 357
73.64048 326
73.6606 350
73.68071 334
73.70083 281
73.72094 246
73.74105 197
73.76117 209
73.78128 191
73.80139 182
73.82151 173
73.84162 162
73.86174 155
73.88185 159
73.90196 169
73.92208 137
73.94219 172
73.9623 145
73.98242 141
74.00253 147
74.02264 124
74.04276 152
74.06287 175
74.08299 150
74.1031 136
74.12321 150
74.14333 132
74.16344 143
74.18355 144
74.20367 161
74.22378 136
74.2439 159
74.26401 134
74.28412 131
74.30424 135
74.32435 141
74.34446 120
74.36458 135
74.38469 153
74.40481 139
74.42492 142
74.44503 135
74.46515 155
74.48526 140
74.50537 167
74.52549 153
74.5456 142
74.56571 116
74.58583 148
74.60594 150
74.62606 138
74.64617 158
74.66628 142
74.6864 152
74.70651 159
74.72662 142
74.74674 151
74.76685 146
74.78697 129
74.80708 140
74.82719 140
74.84731 129
74.86742 145
74.88753 138
74.90765 158
74.92776 147
74.94787 140
74.96799 148
74.9881 172
75.00822 126
