3.00117 20611
3.02128 19983
3.0414 19526
3.06151 18795
3.08162 18229
3.10174 18018
3.12185 17148
3.14197 17073
3.16208 16588
3.18219 15692
3.20231 15625
3.22242 14862
3.24253 14465
3.26265 13946
3.28276 13715
3.30288 13288
3.32299 12762
3.3431 12393
3.36322 11762
3.38333 11488
3.40344 11496
3.42356 10525
3.44367 10538
3.46379 10073
3.4839 9833
3.50401 9856
3.52413 9119
3.54424 8865
3.56435 8515
3.58447 8198
3.60458 7913
3.62469 7284
3.64481 7340
3.66492 6997
3.68504 6640
3.70515 6693
3.72526 6033
3.74538 6028
3.76549 5636
3.7856 5525
3.80572 5276
3.82583 4997
3.84595 4783
3.86606 4664
3.88617 4513
3.90629 4276
3.9264 3900
3.94651 3904
3.96663 3670
3.98674 3491
4.00686 3441
4.02697 3229
4.04708 3174
4.0672 3027
4.08731 2817
4.10742 2955
4.12754 2511
4.14765 2587
4.16776 2428
4.18788 2335
4.20799 2366
4.22811 2060
4.24822 2017
4.26833 2076
4.28845 1991
4.30856 2025
4.32867 1803
4.34879 1686
4.3689 1685
4.38902 1696
4.40913 1644
4.42924 1485
4.44936 1571
4.46947 1582
4.48958 1443
4.5097 1480
4.52981 1239
4.54992 1370
4.57004 1391
4.59015 1330
4.61027 1274
4.63038 1168
4.65049 1173
4.67061 1215
4.69072 1209
4.71083 1144
4.73095 1141
4.75106 1100
4.77118 1089
4.79129 996
4.8114 997
4.83152 989
4.85163 935
4.87174 973
4.89186 960
4.91197 986
4.93209 850
4.9522 851
4.97231 851
4.99243 853
5.01254 777
5.03265 804
5.05277 795
5.07288 790
5.09299 717
5.11311 720
5.13322 729
5.15334 702
5.17345 694
5.19356 714
5.21368 662
5.23379 661
5.2539 610
5.27402 604
5.29413 619
5.31425 562
5.33436 645
5.35447 561
5.37459 594
5.3947 604
5.41481 516
5.43493 498
5.45504 553
5.47516 495
5.49527 527
5.51538 459
5.5355 481
5.55561 479
5.57572 491
5.59584 464
5.61595 494
5.63606 450
5.65618 488
5.67629 505
5.69641 467
5.71652 404
5.73663 450
5.75675 437
5.77686 460
5.79697 398
5.81709 415
5.8372 397
5.85732 420
5.87743 382
5.89754 389
5.91766 410
5.93777 405
5.95788 393
5.978 364
5.99811 384
6.01823 349
6.03834 340
6.05845 343
6.07857 370
6.09868 359
6.11879 351
6.13891 336
6.15902 366
6.17913 346
6.19925 333
6.21936 317
6.23948 353
6.25959 339
6.2797 328
6.29982 346
6.31993 302
6.34004 326
6.36016 338
6.38027 342
6.40039 287
6.4205 340
6.44061 315
6.46073 299
6.48084 333
6.50095 324
6.52107 347
6.54118 273
6.56129 312
6.58141 312
6.60152 330
6.62164 322
6.64175 317
6.66186 343
6.68198 306
6.70209 311
6.7222 292
6.74232 325
6.76243 295
6.78255 308
6.80266 302
6.82277 316
6.84289 338
6.863 318
6.88311 334
6.90323 288
6.92334 308
6.94346 327
6.96357 274
6.98368 322
7.0038 297
7.02391 361
7.04402 300
7.06414 286
7.08425 310
7.10436 328
7.12448 325
7.14459 316
7.16471 321
7.18482 296
7.20493 311
7.22505 315
7.24516 321
7.26527 316
7.28539 290
7.3055 294
7.32562 293
7.34573 311
7.36584 319
7.38596 334
7.40607 317
7.42618 294
7.4463 317
7.46641 296
7.48653 301
7.50664 303
7.52675 319
7.54687 345
7.56698 306
7.58709 298
7.60721 320
7.62732 330
7.64743 297
7.66755 303
7.68766 312
7.70778 325
7.72789 350
7.748 333
7.76812 291
7.78823 320
7.80834 291
7.82846 330
7.84857 293
7.86869 306
7.8888 290
7.90891 337
7.92903 314
7.94914 341
7.96925 302
7.98937 316
8.00948 333
8.0296 307
8.04971 332
8.06982 310
8.08994 312
8.11005 297
8.13016 331
8.15028 317
8.17039 336
8.1905 364
8.21062 360
8.23073 346
8.25085 355
8.27096 371
8.29107 321
8.31119 360
8.3313 338
8.35141 333
8.37153 313
8.39164 337
8.41176 368
8.43187 341
8.45198 347
8.4721 344
8.49221 382
8.51232 363
8.53244 367
8.55255 380
8.57266 376
8.59278 407
8.61289 411
8.63301 380
8.65312 418
8.67323 411
8.69335 408
8.71346 468
8.73357 491
8.75369 484
8.7738 471
8.79392 505
8.81403 478
8.83414 537
8.85426 486
8.87437 480
8.89448 460
8.9146 474
8.93471 464
8.95483 369
8.97494 377
8.99505 418
9.01517 337
9.03528 359
9.05539 371
9.07551 327
9.09562 370
9.11573 349
9.13585 345
9.15596 344
9.17608 347
9.19619 342
9.2163 335
9.23642 313
9.25653 324
9.27664 302
9.29676 346
9.31687 340
9.33699 350
9.3571 341
9.37721 347
9.39733 319
9.41744 352
9.43755 323
9.45767 328
9.47778 308
9.4979 338
9.51801 270
9.53812 325
9.55824 317
9.57835 298
9.59846 323
9.61858 312
9.63869 322
9.6588 310
9.67892 299
9.69903 298
9.71915 293
9.73926 322
9.75937 288
9.77949 291
9.7996 339
9.81971 351
9.83983 335
9.85994 310
9.88006 328
9.90017 342
9.92028 266
9.9404 299
9.96051 288
9.98062 291
10.00074 341
10.02085 305
10.04097 297
10.06108 335
10.08119 312
10.10131 303
10.12142 328
10.14153 322
10.16165 321
10.18176 295
10.20187 289
10.22199 295
10.2421 305
10.26222 317
10.28233 312
10.30244 323
10.32256 290
10.34267 339
10.36278 283
10.3829 323
10.40301 334
10.42313 308
10.44324 269
10.46335 294
10.48347 314
10.50358 311
10.52369 295
10.54381 298
10.56392 300
10.58403 314
10.60415 283
10.62426 305
10.64438 323
10.66449 266
10.6846 288
10.70472 367
10.72483 278
10.74494 309
10.76506 322
10.78517 303
10.80529 325
10.8254 304
10.84551 288
10.86563 307
10.88574 319
10.90585 343
10.92597 324
10.94608 294
10.9662 325
10.98631 338
11.00642 307
11.02654 315
11.04665 306
11.06676 350
11.08688 313
11.10699 318
11.1271 310
11.14722 319
11.16733 325
11.18745 320
11.20756 333
11.22767 277
11.24779 297
11.2679 284
11.28801 295
11.30813 318
11.32824 281
11.34836 313
11.36847 314
11.38858 331
11.4087 335
11.42881 352
11.44892 337
11.46904 339
11.48915 303
11.50927 288
11.52938 344
11.54949 317
11.56961 310
11.58972 360
11.60983 314
11.62995 307
11.65006 297
11.67017 325
11.69029 339
11.7104 352
11.73052 396
11.75063 349
11.77074 308
11.79086 351
11.81097 341
11.83108 346
11.8512 377
11.87131 414
11.89143 315
11.91154 359
11.93165 365
11.95177 370
11.97188 371
11.99199 357
12.01211 370
12.03222 358
12.05234 364
12.07245 381
12.09256 395
12.11268 401
12.13279 379
12.1529 429
12.17302 455
12.19313 439
12.21324 454
12.23336 455
12.25347 451
12.27359 492
12.2937 503
12.31381 515
12.33393 514
12.35404 455
12.37415 479
12.39427 461
12.41438 453
12.4345 415
12.45461 414
12.47472 406
12.49484 410
12.51495 375
12.53506 388
12.55518 412
12.57529 364
12.5954 356
12.61552 328
12.63563 336
12.65575 336
12.67586 308
12.69597 354
12.71609 321
12.7362 301
12.75631 304
12.77643 318
12.79654 330
12.81666 337
12.83677 340
12.85688 316
12.877 342
12.89711 311
12.91722 273
12.93734 304
12.95745 322
12.97757 293
12.99768 283
13.01779 311
13.03791 272
13.05802 310
13.07813 294
13.09825 303
13.11836 321
13.13847 263
13.15859 336
13.1787 284
13.19882 265
13.21893 276
13.23904 272
13.25916 272
13.27927 321
13.29938 288
13.3195 299
13.33961 271
13.35973 302
13.37984 259
13.39995 277
13.42007 293
13.44018 272
13.46029 279
13.48041 309
13.50052 287
13.52064 309
13.54075 302
13.56086 272
13.58098 253
13.60109 249
13.6212 298
13.64132 303
13.66143 281
13.68154 280
13.70166 269
13.72177 283
13.74189 294
13.762 264
13.78211 260
13.80223 257
13.82234 287
13.84245 280
13.86257 284
13.88268 277
13.9028 268
13.92291 270
13.94302 288
13.96314 255
13.98325 274
14.00336 266
14.02348 244
14.04359 236
14.06371 271
14.08382 259
14.10393 262
14.12405 269
14.14416 277
14.16427 277
14.18439 281
14.2045 236
14.22461 266
14.24473 281
14.26484 288
14.28496 280
14.30507 262
14.32518 252
14.3453 281
14.36541 282
14.38552 292
14.40564 266
14.42575 274
14.44587 276
14.46598 261
14.48609 244
14.50621 256
14.52632 269
14.54643 255
14.56655 284
14.58666 251
14.60677 266
14.62689 274
14.647 274
14.66712 276
14.68723 252
14.70734 252
14.72746 281
14.74757 263
14.76768 278
14.7878 280
14.80791 279
14.82803 282
14.84814 274
14.86825 263
14.88837 297
14.90848 266
14.92859 255
14.94871 275
14.96882 250
14.98894 279
15.00905 262
15.02916 232
15.04928 279
15.06939 273
15.0895 304
15.10962 280
15.12973 247
15.14984 270
15.16996 267
15.19007 230
15.21019 257
15.2303 243
15.25041 273
15.27053 241
15.29064 259
15.31075 265
15.33087 246
15.35098 264
15.3711 256
15.39121 279
15.41132 222
15.43144 261
15.45155 272
15.47166 270
15.49178 266
15.51189 264
15.53201 265
15.55212 239
15.57223 261
15.59235 269
15.61246 251
15.63257 291
15.65269 254
15.6728 272
15.69291 275
15.71303 245
15.73314 240
15.75326 260
15.77337 260
15.79348 261
15.8136 242
15.83371 290
15.85382 255
15.87394 226
15.89405 283
15.91417 240
15.93428 250
15.95439 259
15.97451 273
15.99462 263
16.01473 256
16.03485 260
16.05496 236
16.07508 271
16.09519 297
16.1153 251
16.13542 262
16.15553 266
16.17564 275
16.19576 242
16.21587 274
16.23598 274
16.2561 246
16.27621 275
16.29633 225
16.31644 249
16.33655 258
16.35667 264
16.37678 275
16.39689 231
16.41701 249
16.43712 223
16.45724 236
16.47735 258
16.49746 265
16.51758 271
16.53769 285
16.5578 265
16.57792 259
16.59803 263
16.61814 270
16.63826 282
16.65837 228
16.67849 273
16.6986 292
16.71871 250
16.73883 280
16.75894 263
16.77905 282
16.79917 249
16.81928 269
16.8394 246
16.85951 244
16.87962 229
16.89974 252
16.91985 299
16.93996 256
16.96008 234
16.98019 310
17.00031 262
17.02042 281
17.04053 255
17.06065 258
17.08076 273
17.10087 282
17.12099 294
17.1411 272
17.16121 282
17.18133 278
17.20144 260
17.22156 257
17.24167 270
17.26178 275
17.2819 280
17.30201 260
17.32212 264
17.34224 274
17.36235 256
17.38247 259
17.40258 283
17.42269 263
17.44281 252
17.46292 290
17.48303 300
17.50315 288
17.52326 295
17.54338 291
17.56349 277
17.5836 307
17.60372 313
17.62383 322
17.64394 349
17.66406 289
17.68417 341
17.70428 333
17.7244 340
17.74451 357
17.76463 353
17.78474 324
17.80485 332
17.82497 344
17.84508 352
17.86519 340
17.88531 327
17.90542 315
17.92554 271
17.94565 287
17.96576 285
17.98588 264
18.00599 295
18.0261 294
18.04622 302
18.06633 272
18.08645 251
18.10656 287
18.12667 270
18.14679 280
18.1669 267
18.18701 261
18.20713 258
18.22724 270
18.24735 293
18.26747 273
18.28758 284
18.3077 288
18.32781 243
18.34792 267
18.36804 280
18.38815 267
18.40826 260
18.42838 285
18.44849 296
18.46861 253
18.48872 261
18.50883 267
18.52895 237
18.54906 274
18.56917 268
18.58929 258
18.6094 276
18.62951 284
18.64963 269
18.66974 236
18.68986 250
18.70997 272
18.73008 276
18.7502 269
18.77031 280
18.79042 266
18.81054 271
18.83065 282
18.85077 259
18.87088 273
18.89099 257
18.91111 271
18.93122 251
18.95133 268
18.97145 272
18.99156 295
19.01168 243
19.03179 240
19.0519 292
19.07202 282
19.09213 290
19.11224 285
19.13236 275
19.15247 289
19.17258 266
19.1927 287
19.21281 291
19.23293 294
19.25304 267
19.27315 291
19.29327 310
19.31338 279
19.33349 273
19.35361 284
19.37372 327
19.39384 312
19.41395 298
19.43406 273
19.45418 312
19.47429 336
19.4944 310
19.51452 342
19.53463 322
19.55475 381
19.57486 421
19.59497 413
19.61509 414
19.6352 477
19.65531 509
19.67543 518
19.69554 649
19.71565 674
19.73577 751
19.75588 784
19.776 760
19.79611 863
19.81622 800
19.83634 819
19.85645 794
19.87656 853
19.89668 771
19.91679 738
19.93691 702
19.95702 635
19.97713 606
19.99725 582
20.01736 558
20.03747 530
20.05759 563
20.0777 497
20.09782 564
20.11793 543
20.13804 583
20.15816 550
20.17827 530
20.19838 510
20.2185 507
20.23861 497
20.25872 453
20.27884 497
20.29895 488
20.31907 508
20.33918 504
20.35929 517
20.37941 539
20.39952 505
20.41963 498
20.43975 549
20.45986 544
20.47998 511
20.50009 567
20.5202 571
20.54032 586
20.56043 587
20.58054 626
20.60066 658
20.62077 726
20.64088 789
20.661 917
20.68111 1068
20.70123 1403
20.72134 1708
20.74145 2348
20.76157 2846
20.78168 3563
20.80179 4249
20.82191 4624
20.84202 4507
20.86214 4147
20.88225 3376
20.90236 2521
20.92248 1766
20.94259 1292
20.9627 851
20.98282 746
21.00293 686
21.02305 615
21.04316 603
21.06327 548
21.08339 514
21.1035 575
21.12361 592
21.14373 602
21.16384 583
21.18395 575
21.20407 569
21.22418 582
21.2443 571
21.26441 556
21.28452 535
21.30464 585
21.32475 600
21.34486 575
21.36498 588
21.38509 520
21.40521 553
21.42532 553
21.44543 506
21.46555 525
21.48566 524
21.50577 512
21.52589 470
21.546 506
21.56612 470
21.58623 455
21.60634 479
21.62646 495
21.64657 455
21.66668 441
21.6868 453
21.70691 441
21.72702 432
21.74714 424
21.76725 418
21.78737 422
21.80748 425
21.82759 385
21.84771 427
21.86782 396
21.88793 384
21.90805 418
21.92816 391
21.94828 367
21.96839 375
21.9885 376
22.00862 377
22.02873 381
22.04884 374
22.06896 380
22.08907 386
22.10919 341
22.1293 348
22.14941 359
22.16953 363
22.18964 371
22.20975 340
22.22987 405
22.24998 387
22.27009 391
22.29021 383
22.31032 378
22.33044 406
22.35055 376
22.37066 375
22.39078 381
22.41089 352
22.431 374
22.45112 364
22.47123 359
22.49135 345
22.51146 402
22.53157 360
22.55169 350
22.5718 350
22.59191 360
22.61203 371
22.63214 359
22.65225 404
22.67237 406
22.69248 350
22.7126 452
22.73271 387
22.75282 435
22.77294 424
22.79305 429
22.81316 432
22.83328 403
22.85339 440
22.87351 450
22.89362 428
22.91373 440
22.93385 432
22.95396 424
22.97407 395
22.99419 403
23.0143 380
23.03442 381
23.05453 380
23.07464 376
23.09476 371
23.11487 358
23.13498 338
23.1551 374
23.17521 345
23.19532 363
23.21544 343
23.23555 341
23.25567 330
23.27578 345
23.29589 307
23.31601 362
23.33612 362
23.35623 371
23.37635 371
23.39646 370
23.41658 344
23.43669 318
23.4568 362
23.47692 354
23.49703 340
23.51714 359
23.53726 374
23.55737 361
23.57749 383
23.5976 393
23.61771 416
23.63783 407
23.65794 390
23.67805 421
23.69817 423
23.71828 395
23.73839 437
23.75851 450
23.77862 436
23.79874 453
23.81885 482
23.83896 453
23.85908 397
23.87919 404
23.8993 425
23.91942 404
23.93953 422
23.95965 407
23.97976 447
23.99987 421
24.01999 403
24.0401 396
24.06021 353
24.08033 361
24.10044 362
24.12056 332
24.14067 337
24.16078 386
24.1809 396
24.20101 407
24.22112 371
24.24124 364
24.26135 365
24.28146 382
24.30158 376
24.32169 373
24.34181 342
24.36192 369
24.38203 341
24.40215 383
24.42226 397
24.44237 324
24.46249 396
24.4826 348
24.50272 397
24.52283 383
24.54294 388
24.56306 378
24.58317 398
24.60328 406
24.6234 443
24.64351 438
24.66362 429
24.68374 444
24.70385 427
24.72397 426
24.74408 453
24.76419 436
24.78431 476
24.80442 500
24.82453 464
24.84465 484
24.86476 539
24.88488 475
24.90499 453
24.9251 469
24.94522 499
24.96533 446
24.98544 437
25.00556 428
25.02567 429
25.04579 462
25.0659 422
25.08601 417
25.10613 426
25.12624 452
25.14635 419
25.16647 394
25.18658 442
25.20669 448
25.22681 440
25.24692 394
25.26704 436
25.28715 445
25.30726 443
25.32738 454
25.34749 477
25.3676 506
25.38772 498
25.40783 528
25.42795 515
25.44806 481
25.46817 501
25.48829 487
25.5084 511
25.52851 481
25.54863 478
25.56874 435
25.58886 414
25.60897 456
25.62908 431
25.6492 491
25.66931 499
25.68942 480
25.70954 425
25.72965 507
25.74976 476
25.76988 497
25.78999 495
25.81011 462
25.83022 511
25.85033 498
25.87045 485
25.89056 508
25.91067 475
25.93079 478
25.9509 487
25.97102 480
25.99113 509
26.01124 562
26.03136 523
26.05147 540
26.07158 604
26.0917 607
26.11181 582
26.13193 639
26.15204 664
26.17215 692
26.19227 721
26.21238 764
26.23249 786
26.25261 805
26.27272 874
26.29283 953
26.31295 1033
26.33306 1135
26.35318 1311
26.37329 1508
26.3934 1909
26.41352 2238
26.43363 2978
26.45374 3936
26.47386 5353
26.49397 7350
26.51409 9856
26.5342 12671
26.55431 15426
26.57443 18082
26.59454 20172
26.61465 20273
26.63477 18751
26.65488 15533
26.67499 11893
26.69511 8741
26.71522 6174
26.73534 4025
26.75545 2567
26.77556 1746
26.79568 1412
26.81579 1174
26.8359 1108
26.85602 1027
26.87613 936
26.89625 866
26.91636 784
26.93647 768
26.95659 668
26.9767 668
26.99681 597
27.01693 606
27.03704 589
27.05716 538
27.07727 571
27.09738 545
27.1175 577
27.13761 500
27.15772 493
27.17784 461
27.19795 433
27.21806 452
27.23818 475
27.25829 452
27.27841 503
27.29852 510
27.31863 533
27.33875 548
27.35886 548
27.37897 558
27.39909 565
27.4192 543
27.43932 553
27.45943 490
27.47954 467
27.49966 457
27.51977 485
27.53988 453
27.56 455
27.58011 454
27.60023 471
27.62034 442
27.64045 456
27.66057 435
27.68068 499
27.70079 481
27.72091 524
27.74102 506
27.76113 507
27.78125 512
27.80136 537
27.82148 478
27.84159 521
27.8617 445
27.88182 485
27.90193 438
27.92204 446
27.94216 416
27.96227 451
27.98239 435
28.0025 413
28.02261 395
28.04273 375
28.06284 382
28.08295 349
28.10307 334
28.12318 370
28.1433 371
28.16341 339
28.18352 343
28.20364 368
28.22375 368
28.24386 364
28.26398 380
28.28409 377
28.3042 380
28.32432 371
28.34443 387
28.36455 354
28.38466 335
28.40477 295
28.42489 336
28.445 340
28.46511 332
28.48523 327
28.50534 332
28.52546 369
28.54557 308
28.56568 346
28.5858 341
28.60591 352
28.62602 355
28.64614 364
28.66625 356
28.68636 338
28.70648 323
28.72659 338
28.74671 303
28.76682 325
28.78693 301
28.80705 304
28.82716 315
28.84727 339
28.86739 319
28.8875 314
28.90762 325
28.92773 299
28.94784 331
28.96796 324
28.98807 300
29.00818 340
29.0283 323
29.04841 328
29.06853 295
29.08864 302
29.10875 305
29.12887 342
29.14898 325
29.16909 328
29.18921 315
29.20932 384
29.22943 362
29.24955 376
29.26966 332
29.28978 347
29.30989 290
29.33 305
29.35012 338
29.37023 318
29.39034 311
29.41046 332
29.43057 308
29.45069 361
29.4708 356
29.49091 370
29.51103 316
29.53114 381
29.55125 349
29.57137 361
29.59148 356
29.6116 348
29.63171 415
29.65182 348
29.67194 376
29.69205 399
29.71216 406
29.73228 417
29.75239 468
29.7725 440
29.79262 445
29.81273 417
29.83285 402
29.85296 446
29.87307 463
29.89319 416
29.9133 365
29.93341 375
29.95353 388
29.97364 398
29.99376 356
30.01387 385
30.03398 339
30.0541 343
30.07421 307
30.09432 338
30.11444 328
30.13455 318
30.15467 325
30.17478 333
30.19489 373
30.21501 340
30.23512 344
30.25523 286
30.27535 322
30.29546 333
30.31557 364
30.33569 295
30.3558 319
30.37592 335
30.39603 325
30.41614 328
30.43626 324
30.45637 341
30.47648 317
30.4966 310
30.51671 317
30.53683 330
30.55694 323
30.57705 306
30.59717 276
30.61728 317
30.63739 335
30.65751 338
30.67762 313
30.69773 280
30.71785 335
30.73796 350
30.75808 341
30.77819 349
30.7983 339
30.81842 346
30.83853 330
30.85864 321
30.87876 363
30.89887 325
30.91899 322
30.9391 330
30.95921 345
30.97933 333
30.99944 325
31.01955 361
31.03967 367
31.05978 319
31.0799 360
31.10001 393
31.12012 374
31.14024 378
31.16035 399
31.18046 364
31.20058 382
31.22069 394
31.2408 387
31.26092 336
31.28103 361
31.30115 359
31.32126 276
31.34137 336
31.36149 294
31.3816 336
31.40171 321
31.42183 362
31.44194 329
31.46206 303
31.48217 311
31.50228 306
31.5224 304
31.54251 293
31.56262 308
31.58274 311
31.60285 306
31.62297 301
31.64308 324
31.66319 311
31.68331 311
31.70342 298
31.72353 305
31.74365 284
31.76376 337
31.78387 342
31.80399 305
31.8241 307
31.84422 301
31.86433 360
31.88444 343
31.90456 318
31.92467 324
31.94478 351
31.9649 393
31.98501 338
32.00513 319
32.02524 311
32.04535 299
32.06547 343
32.08558 350
32.10569 341
32.12581 320
32.14592 314
32.16604 281
32.18615 296
32.20626 319
32.22638 321
32.24649 287
32.2666 311
32.28672 280
32.30683 293
32.32694 298
32.34706 289
32.36717 311
32.38729 284
32.4074 295
32.42751 302
32.44763 308
32.46774 299
32.48785 325
32.50797 322
32.52808 289
32.5482 280
32.56831 304
32.58842 285
32.60854 269
32.62865 274
32.64876 286
32.66888 290
32.68899 288
32.7091 296
32.72922 312
32.74933 278
32.76945 275
32.78956 325
32.80967 307
32.82979 261
32.8499 279
32.87001 279
32.89013 308
32.91024 304
32.93036 291
32.95047 282
32.97058 283
32.9907 292
33.01081 301
33.03092 334
33.05104 336
33.07115 293
33.09127 293
33.11138 318
33.13149 333
33.15161 324
33.17172 299
33.19183 313
33.21195 352
33.23206 354
33.25217 343
33.27229 345
33.2924 345
33.31252 326
33.33263 325
33.35274 318
33.37286 389
33.39297 310
33.41308 333
33.4332 330
33.45331 308
33.47343 322
33.49354 341
33.51365 304
33.53377 348
33.55388 303
33.57399 330
33.59411 325
33.61422 325
33.63434 358
33.65445 333
33.67456 288
33.69468 298
33.71479 292
33.7349 282
33.75502 330
33.77513 300
33.79524 295
33.81536 316
33.83547 285
33.85559 283
33.8757 291
33.89581 255
33.91593 314
33.93604 273
33.95615 288
33.97627 274
33.99638 291
34.0165 267
34.03661 282
34.05672 291
34.07684 282
34.09695 282
34.11706 315
34.13718 281
34.15729 329
34.17741 280
34.19752 301
34.21763 304
34.23775 295
34.25786 326
34.27797 313
34.29809 355
34.3182 347
34.33831 331
34.35843 384
34.37854 425
34.39866 379
34.41877 406
34.43888 444
34.459 473
34.47911 527
34.49922 470
34.51934 448
34.53945 450
34.55957 481
34.57968 503
34.59979 477
34.61991 506
34.64002 455
34.66013 488
34.68025 441
34.70036 572
34.72047 559
34.74059 558
34.7607 530
34.78082 626
34.80093 665
34.82104 687
34.84116 721
34.86127 707
34.88138 677
34.9015 805
34.92161 820
34.94173 749
34.96184 747
34.98195 717
35.00207 687
35.02218 630
35.04229 653
35.06241 595
35.08252 559
35.10264 554
35.12275 445
35.14286 450
35.16298 392
35.18309 442
35.2032 380
35.22332 409
35.24343 372
35.26354 412
35.28366 381
35.30377 423
35.32389 382
35.344 383
35.36411 374
35.38423 391
35.40434 394
35.42445 404
35.44457 386
35.46468 409
35.4848 369
35.50491 388
35.52502 387
35.54514 408
35.56525 410
35.58536 403
35.60548 433
35.62559 400
35.64571 398
35.66582 365
35.68593 421
35.70605 423
35.72616 409
35.74627 417
35.76639 402
35.7865 417
35.80661 439
35.82673 412
35.84684 423
35.86696 416
35.88707 401
35.90718 407
35.9273 431
35.94741 411
35.96752 449
35.98764 439
36.00775 408
36.02787 472
36.04798 454
36.06809 437
36.08821 452
36.10832 465
36.12843 421
36.14855 444
36.16866 397
36.18878 431
36.20889 409
36.229 413
36.24912 473
36.26923 496
36.28934 519
36.30946 531
36.32957 615
36.34968 794
36.3698 809
36.38991 929
36.41003 1051
36.43014 1234
36.45025 1409
36.47037 1489
36.49048 1681
36.51059 1644
36.53071 1583
36.55082 1429
36.57094 1224
36.59105 1063
36.61116 881
36.63128 779
36.65139 676
36.6715 622
36.69162 525
36.71173 479
36.73184 506
36.75196 452
36.77207 513
36.79219 481
36.8123 462
36.83241 427
36.85253 434
36.87264 436
36.89275 424
36.91287 437
36.93298 394
36.9531 420
36.97321 382
36.99332 406
37.01344 420
37.03355 426
37.05366 399
37.07378 375
37.09389 395
37.11401 358
37.13412 355
37.15423 409
37.17435 337
37.19446 375
37.21457 375
37.23469 384
37.2548 387
37.27491 361
37.29503 367
37.31514 350
37.33526 389
37.35537 385
37.37548 398
37.3956 382
37.41571 404
37.43582 391
37.45594 397
37.47605 372
37.49617 423
37.51628 416
37.53639 400
37.55651 402
37.57662 447
37.59673 395
37.61685 441
37.63696 431
37.65708 448
37.67719 436
37.6973 445
37.71742 408
37.73753 431
37.75764 425
37.77776 453
37.79787 397
37.81798 411
37.8381 375
37.85821 380
37.87833 350
37.89844 375
37.91855 356
37.93867 313
37.95878 362
37.97889 362
37.99901 317
38.01912 360
38.03924 334
38.05935 346
38.07946 348
38.09958 382
38.11969 341
38.1398 352
38.15992 370
38.18003 364
38.20015 344
38.22026 363
38.24037 367
38.26049 359
38.2806 365
38.30071 367
38.32083 377
38.34094 366
38.36105 407
38.38117 378
38.40128 384
38.4214 375
38.44151 384
38.46162 370
38.48174 385
38.50185 378
38.52196 387
38.54208 334
38.56219 361
38.58231 320
38.60242 351
38.62253 334
38.64265 369
38.66276 337
38.68287 323
38.70299 331
38.7231 317
38.74321 308
38.76333 346
38.78344 343
38.80356 324
38.82367 333
38.84378 318
38.8639 316
38.88401 337
38.90412 327
38.92424 328
38.94435 337
38.96447 339
38.98458 349
39.00469 382
39.02481 350
39.04492 321
39.06503 379
39.08515 332
39.10526 364
39.12538 411
39.14549 362
39.1656 417
39.18572 445
39.20583 421
39.22594 494
39.24606 493
39.26617 591
39.28628 694
39.3064 774
39.32651 886
39.34663 1069
39.36674 1202
39.38685 1362
39.40697 1418
39.42708 1448
39.44719 1368
39.46731 1282
39.48742 1143
39.50754 890
39.52765 865
39.54776 722
39.56788 633
39.58799 522
39.6081 456
39.62822 412
39.64833 345
39.66845 379
39.68856 340
39.70867 346
39.72879 351
39.7489 354
39.76901 339
39.78913 340
39.80924 362
39.82935 311
39.84947 344
39.86958 368
39.8897 330
39.90981 350
39.92992 366
39.95004 405
39.97015 391
39.99026 373
40.01038 426
40.03049 427
40.05061 410
40.07072 470
40.09083 545
40.11095 502
40.13106 553
40.15117 609
40.17129 691
40.1914 817
40.21152 847
40.23163 884
40.25174 865
40.27186 838
40.29197 759
40.31208 689
40.3322 614
40.35231 584
40.37242 588
40.39254 498
40.41265 429
40.43277 417
40.45288 365
40.47299 350
40.49311 348
40.51322 357
40.53333 320
40.55345 328
40.57356 335
40.59368 308
40.61379 346
40.6339 330
40.65402 301
40.67413 319
40.69424 324
40.71436 315
40.73447 344
40.75458 317
40.7747 352
40.79481 325
40.81493 357
40.83504 342
40.85515 340
40.87527 357
40.89538 282
40.91549 316
40.93561 339
40.95572 320
40.97584 339
40.99595 346
41.01606 357
41.03618 330
41.05629 348
41.0764 336
41.09652 299
41.11663 362
41.13675 328
41.15686 317
41.17697 358
41.19709 382
41.2172 331
41.23731 355
41.25743 322
41.27754 355
41.29765 335
41.31777 329
41.33788 348
41.358 281
41.37811 329
41.39822 330
41.41834 329
41.43845 319
41.45856 316
41.47868 328
41.49879 343
41.51891 324
41.53902 317
41.55913 316
41.57925 307
41.59936 331
41.61947 296
41.63959 318
41.6597 343
41.67982 310
41.69993 323
41.72004 337
41.74016 325
41.76027 317
41.78038 301
41.8005 330
41.82061 328
41.84072 311
41.86084 345
41.88095 324
41.90107 330
41.92118 348
41.94129 355
41.96141 335
41.98152 376
42.00163 342
42.02175 349
42.04186 317
42.06198 378
42.08209 352
42.1022 363
42.12232 347
42.14243 391
42.16254 383
42.18266 438
42.20277 437
42.22289 485
42.243 550
42.26311 595
42.28323 669
42.30334 782
42.32345 880
42.34357 987
42.36368 1052
42.38379 1137
42.40391 1098
42.42402 1121
42.44414 1044
42.46425 938
42.48436 814
42.50448 715
42.52459 694
42.5447 582
42.56482 500
42.58493 451
42.60505 382
42.62516 334
42.64527 310
42.66539 310
42.6855 318
42.70561 321
42.72573 267
42.74584 307
42.76595 271
42.78607 292
42.80618 273
42.8263 290
42.84641 282
42.86652 289
42.88664 286
42.90675 287
42.92686 291
42.94698 296
42.96709 266
42.98721 271
43.00732 255
43.02743 231
43.04755 277
43.06766 274
43.08777 286
43.10789 266
43.128 280
43.14812 245
43.16823 272
43.18834 286
43.20846 253
43.22857 277
43.24868 263
43.2688 237
43.28891 281
43.30902 245
43.32914 253
43.34925 237
43.36937 266
43.38948 247
43.40959 244
43.42971 256
43.44982 286
43.46993 246
43.49005 267
43.51016 261
43.53028 280
43.55039 276
43.5705 272
43.59062 239
43.61073 259
43.63084 252
43.65096 293
43.67107 278
43.69119 267
43.7113 274
43.73141 279
43.75153 259
43.77164 267
43.79175 269
43.81187 268
43.83198 297
43.85209 259
43.87221 280
43.89232 270
43.91244 285
43.93255 282
43.95266 244
43.97278 280
43.99289 275
44.013 289
44.03312 266
44.05323 299
44.07335 293
44.09346 254
44.11357 250
44.13369 259
44.1538 235
44.17391 276
44.19403 313
44.21414 279
44.23426 275
44.25437 239
44.27448 258
44.2946 254
44.31471 266
44.33482 256
44.35494 261
44.37505 284
44.39516 268
44.41528 285
44.43539 245
44.45551 265
44.47562 274
44.49573 287
44.51585 255
44.53596 249
44.55607 254
44.57619 255
44.5963 257
44.61642 292
44.63653 246
44.65664 270
44.67676 260
44.69687 230
44.71698 255
44.7371 274
44.75721 245
44.77732 254
44.79744 297
44.81755 245
44.83767 279
44.85778 281
44.87789 273
44.89801 299
44.91812 237
44.93823 247
44.95835 259
44.97846 269
44.99858 290
45.01869 330
45.0388 268
45.05892 289
45.07903 306
45.09914 291
45.11926 327
45.13937 305
45.15949 305
45.1796 322
45.19971 331
45.21983 331
45.23994 364
45.26005 345
45.28017 320
45.30028 370
45.32039 326
45.34051 341
45.36062 349
45.38074 353
45.40085 343
45.42096 366
45.44108 354
45.46119 353
45.4813 358
45.50142 413
45.52153 373
45.54165 374
45.56176 407
45.58187 419
45.60199 501
45.6221 475
45.64221 594
45.66233 638
45.68244 638
45.70256 810
45.72267 782
45.74278 823
45.7629 801
45.78301 785
45.80312 687
45.82324 661
45.84335 625
45.86346 579
45.88358 562
45.90369 471
45.92381 423
45.94392 381
45.96403 342
45.98415 331
46.00426 316
46.02437 326
46.04449 330
46.0646 285
46.08472 299
46.10483 298
46.12494 306
46.14506 263
46.16517 263
46.18528 272
46.2054 291
46.22551 293
46.24563 251
46.26574 285
46.28585 264
46.30597 294
46.32608 288
46.34619 272
46.36631 265
46.38642 291
46.40653 262
46.42665 283
46.44676 294
46.46688 304
46.48699 239
46.5071 265
46.52722 276
46.54733 270
46.56744 277
46.58756 271
46.60767 267
46.62779 273
46.6479 300
46.66801 308
46.68813 299
46.70824 286
46.72835 289
46.74847 255
46.76858 279
46.78869 244
46.80881 256
46.82892 254
46.84904 272
46.86915 293
46.88926 270
46.90938 259
46.92949 242
46.9496 228
46.96972 262
46.98983 234
47.00995 268
47.03006 276
47.05017 249
47.07029 250
47.0904 236
47.11051 248
47.13063 256
47.15074 258
47.17086 244
47.19097 269
47.21108 236
47.2312 237
47.25131 238
47.27142 262
47.29154 239
47.31165 254
47.33176 240
47.35188 229
47.37199 249
47.39211 250
47.41222 272
47.43233 269
47.45245 295
47.47256 266
47.49267 263
47.51279 252
47.5329 254
47.55302 261
47.57313 262
47.59324 262
47.61336 264
47.63347 230
47.65358 238
47.6737 251
47.69381 274
47.71393 273
47.73404 278
47.75415 263
47.77427 279
47.79438 224
47.81449 275
47.83461 256
47.85472 260
47.87483 296
47.89495 270
47.91506 238
47.93518 265
47.95529 275
47.9754 262
47.99552 255
48.01563 288
48.03574 258
48.05586 227
48.07597 259
48.09609 261
48.1162 223
48.13631 236
48.15643 274
48.17654 259
48.19665 219
48.21677 222
48.23688 246
48.257 241
48.27711 290
48.29722 256
48.31734 230
48.33745 254
48.35756 276
48.37768 256
48.39779 249
48.4179 241
48.43802 261
48.45813 259
48.47825 282
48.49836 249
48.51847 283
48.53859 259
48.5587 281
48.57881 280
48.59893 229
48.61904 296
48.63916 270
48.65927 250
48.67938 270
48.6995 262
48.71961 279
48.73972 272
48.75984 269
48.77995 244
48.80006 267
48.82018 251
48.84029 242
48.86041 259
48.88052 281
48.90063 247
48.92075 259
48.94086 274
48.96097 263
48.98109 274
49.0012 247
49.02132 238
49.04143 269
49.06154 256
49.08166 247
49.10177 241
49.12188 260
49.142 254
49.16211 248
49.18223 277
49.20234 296
49.22245 276
49.24257 269
49.26268 269
49.28279 278
49.30291 255
49.32302 269
49.34313 263
49.36325 257
49.38336 297
49.40348 286
49.42359 238
49.4437 271
49.46382 284
49.48393 312
49.50404 269
49.52416 270
49.54427 283
49.56439 281
49.5845 274
49.60461 295
49.62473 278
49.64484 321
49.66495 290
49.68507 277
49.70518 289
49.7253 337
49.74541 319
49.76552 330
49.78564 357
49.80575 449
49.82586 393
49.84598 505
49.86609 543
49.8862 625
49.90632 661
49.92643 776
49.94655 916
49.96666 1075
49.98677 1313
50.00689 1521
50.027 1863
50.04711 1987
50.06723 2145
50.08734 2196
50.10746 2087
50.12757 1895
50.14768 1670
50.1678 1420
50.18791 1293
50.20802 1206
50.22814 1130
50.24825 988
50.26837 819
50.28848 631
50.30859 512
50.32871 396
50.34882 399
50.36893 352
50.38905 316
50.40916 331
50.42927 309
50.44939 295
50.4695 302
50.48962 312
50.50973 327
50.52984 302
50.54996 298
50.57007 320
50.59018 323
50.6103 307
50.63041 267
50.65053 317
50.67064 299
50.69075 282
50.71087 310
50.73098 295
50.75109 301
50.77121 297
50.79132 249
50.81143 280
50.83155 254
50.85166 279
50.87178 270
50.89189 317
50.912 292
50.93212 282
50.95223 285
50.97234 271
50.99246 259
51.01257 265
51.03269 265
51.0528 248
51.07291 261
51.09303 281
51.11314 239
51.13325 260
51.15337 266
51.17348 265
51.1936 272
51.21371 255
51.23382 240
51.25394 259
51.27405 248
51.29416 241
51.31428 245
51.33439 239
51.3545 285
51.37462 241
51.39473 221
51.41485 228
51.43496 246
51.45507 236
51.47519 260
51.4953 244
51.51541 225
51.53553 226
51.55564 247
51.57576 245
51.59587 225
51.61598 230
51.6361 224
51.65621 218
51.67632 218
51.69644 259
51.71655 249
51.73667 259
51.75678 250
51.77689 272
51.79701 224
51.81712 231
51.83723 256
51.85735 246
51.87746 254
51.89757 257
51.91769 248
51.9378 231
51.95792 241
51.97803 236
51.99814 248
52.01826 244
52.03837 241
52.05848 222
52.0786 250
52.09871 263
52.11883 266
52.13894 239
52.15905 255
52.17917 264
52.19928 238
52.21939 261
52.23951 242
52.25962 256
52.27974 213
52.29985 241
52.31996 268
52.34008 237
52.36019 276
52.3803 280
52.40042 246
52.42053 252
52.44064 249
52.46076 240
52.48087 231
52.50099 255
52.5211 229
52.54121 248
52.56133 257
52.58144 255
52.60155 256
52.62167 245
52.64178 242
52.6619 238
52.68201 247
52.70212 254
52.72224 268
52.74235 254
52.76246 260
52.78258 237
52.80269 256
52.8228 264
52.84292 263
52.86303 291
52.88315 258
52.90326 280
52.92337 280
52.94349 265
52.9636 257
52.98371 253
53.00383 266
53.02394 276
53.04406 232
53.06417 278
53.08428 264
53.1044 271
53.12451 267
53.14462 264
53.16474 277
53.18485 275
53.20497 259
53.22508 286
53.24519 238
53.26531 282
53.28542 282
53.30553 272
53.32565 281
53.34576 284
53.36587 291
53.38599 324
53.4061 293
53.42622 288
53.44633 300
53.46644 305
53.48656 288
53.50667 289
53.52678 313
53.5469 307
53.56701 285
53.58713 316
53.60724 294
53.62735 332
53.64747 321
53.66758 326
53.68769 332
53.70781 331
53.72792 269
53.74804 316
53.76815 342
53.78826 303
53.80838 292
53.82849 301
53.8486 328
53.86872 318
53.88883 317
53.90894 281
53.92906 304
53.94917 308
53.96929 311
53.9894 295
54.00951 312
54.02963 315
54.04974 330
54.06985 312
54.08997 307
54.11008 294
54.1302 334
54.15031 328
54.17042 342
54.19054 328
54.21065 357
54.23076 328
54.25088 332
54.27099 354
54.29111 347
54.31122 348
54.33133 370
54.35145 374
54.37156 342
54.39167 341
54.41179 308
54.4319 330
54.45201 411
54.47213 342
54.49224 328
54.51236 369
54.53247 380
54.55258 336
54.5727 371
54.59281 379
54.61292 418
54.63304 445
54.65315 487
54.67327 514
54.69338 544
54.71349 583
54.73361 653
54.75372 756
54.77383 761
54.79395 802
54.81406 820
54.83417 755
54.85429 747
54.8744 732
54.89452 638
54.91463 596
54.93474 664
54.95486 602
54.97497 552
54.99508 496
55.0152 502
55.03531 467
55.05543 464
55.07554 393
55.09565 420
55.11577 384
55.13588 411
55.15599 473
55.17611 422
55.19622 463
55.21634 527
55.23645 535
55.25656 568
55.27668 600
55.29679 539
55.3169 530
55.33702 491
55.35713 455
55.37724 442
55.39736 414
55.41747 434
55.43759 375
55.4577 393
55.47781 352
55.49793 375
55.51804 364
55.53815 319
55.55827 281
55.57838 325
55.5985 366
55.61861 335
55.63872 357
55.65884 346
55.67895 356
55.69906 316
55.71918 348
55.73929 350
55.75941 356
55.77952 354
55.79963 340
55.81975 320
55.83986 334
55.85997 344
55.88009 330
55.9002 308
55.92031 298
55.94043 260
55.96054 284
55.98066 279
56.00077 320
56.02088 327
56.041 339
56.06111 303
56.08122 290
56.10134 286
56.12145 267
56.14157 299
56.16168 290
56.18179 265
56.20191 266
56.22202 271
56.24213 273
56.26225 308
56.28236 287
56.30248 269
56.32259 271
56.3427 263
56.36282 295
56.38293 243
56.40304 306
56.42316 275
56.44327 321
56.46338 286
56.4835 257
56.50361 295
56.52373 282
56.54384 281
56.56395 305
56.58407 270
56.60418 265
56.62429 282
56.64441 259
56.66452 267
56.68464 269
56.70475 304
56.72486 288
56.74498 289
56.76509 269
56.7852 223
56.80532 287
56.82543 260
56.84554 274
56.86566 280
56.88577 284
56.90589 259
56.926 269
56.94611 284
56.96623 261
56.98634 284
57.00645 289
57.02657 256
57.04668 299
57.0668 273
57.08691 297
57.10702 280
57.12714 285
57.14725 277
57.16736 251
57.18748 284
57.20759 282
57.22771 266
57.24782 294
57.26793 311
57.28805 274
57.30816 269
57.32827 268
57.34839 330
57.3685 284
57.38861 279
57.40873 286
57.42884 301
57.44896 252
57.46907 271
57.48918 280
57.5093 279
57.52941 276
57.54952 294
57.56964 268
57.58975 291
57.60987 231
57.62998 284
57.65009 245
57.67021 261
57.69032 262
57.71043 249
57.73055 260
57.75066 218
57.77078 252
57.79089 283
57.811 271
57.83112 255
57.85123 251
57.87134 256
57.89146 256
57.91157 254
57.93168 237
57.9518 240
57.97191 260
57.99203 255
58.01214 262
58.03225 237
58.05237 259
58.07248 221
58.09259 244
58.11271 235
58.13282 250
58.15294 232
58.17305 231
58.19316 241
58.21328 253
58.23339 229
58.2535 234
58.27362 234
58.29373 238
58.31385 264
58.33396 257
58.35407 243
58.37419 225
58.3943 253
58.41441 236
58.43453 254
58.45464 244
58.47475 238
58.49487 247
58.51498 252
58.5351 239
58.55521 247
58.57532 236
58.59544 231
58.61555 251
58.63566 255
58.65578 240
58.67589 240
58.69601 259
58.71612 249
58.73623 246
58.75635 235
58.77646 261
58.79657 270
58.81669 237
58.8368 255
58.85691 231
58.87703 258
58.89714 230
58.91726 258
58.93737 255
58.95748 274
58.9776 239
58.99771 269
59.01782 263
59.03794 268
59.05805 259
59.07817 230
59.09828 265
59.11839 263
59.13851 277
59.15862 279
59.17873 274
59.19885 276
59.21896 281
59.23908 282
59.25919 310
59.2793 275
59.29942 293
59.31953 290
59.33964 250
59.35976 272
59.37987 290
59.39998 319
59.4201 289
59.44021 296
59.46033 344
59.48044 328
59.50055 329
59.52067 340
59.54078 361
59.56089 336
59.58101 339
59.60112 362
59.62124 402
59.64135 443
59.66146 420
59.68158 461
59.70169 540
59.7218 603
59.74192 664
59.76203 766
59.78215 863
59.80226 975
59.82237 1072
59.84249 1286
59.8626 1334
59.88271 1419
59.90283 1418
59.92294 1349
59.94305 1213
59.96317 1036
59.98328 976
60.0034 930
60.02351 835
60.04362 865
60.06374 831
60.08385 725
60.10396 632
60.12408 547
60.14419 465
60.16431 409
60.18442 310
60.20453 343
60.22465 341
60.24476 306
60.26487 272
60.28499 274
60.3051 286
60.32522 283
60.34533 283
60.36544 269
60.38556 265
60.40567 267
60.42578 264
60.4459 285
60.46601 262
60.48612 229
60.50624 252
60.52635 278
60.54647 274
60.56658 286
60.58669 275
60.60681 268
60.62692 255
60.64703 245
60.66715 265
60.68726 275
60.70738 301
60.72749 263
60.7476 259
60.76772 304
60.78783 247
60.80794 261
60.82806 306
60.84817 281
60.86828 277
60.8884 286
60.90851 274
60.92863 249
60.94874 223
60.96885 262
60.98897 265
61.00908 265
61.02919 239
61.04931 274
61.06942 261
61.08954 267
61.10965 263
61.12976 264
61.14988 247
61.16999 254
61.1901 269
61.21022 264
61.23033 291
61.25045 277
61.27056 301
61.29067 270
61.31079 281
61.3309 274
61.35101 300
61.37113 313
61.39124 290
61.41135 286
61.43147 301
61.45158 332
61.4717 340
61.49181 356
61.51192 373
61.53204 347
61.55215 407
61.57226 373
61.59238 361
61.61249 358
61.63261 392
61.65272 366
61.67283 362
61.69295 384
61.71306 363
61.73317 426
61.75329 363
61.7734 364
61.79352 371
61.81363 394
61.83374 344
61.85386 349
61.87397 328
61.89408 375
61.9142 355
61.93431 317
61.95442 341
61.97454 333
61.99465 310
62.01477 322
62.03488 331
62.05499 336
62.07511 333
62.09522 355
62.11533 327
62.13545 310
62.15556 342
62.17568 322
62.19579 342
62.2159 317
62.23602 297
62.25613 307
62.27624 338
62.29636 325
62.31647 314
62.33659 280
62.3567 314
62.37681 322
62.39693 295
62.41704 311
62.43715 288
62.45727 284
62.47738 266
62.49749 257
62.51761 288
62.53772 289
62.55784 251
62.57795 261
62.59806 269
62.61818 267
62.63829 248
62.6584 259
62.67852 253
62.69863 250
62.71875 250
62.73886 239
62.75897 274
62.77909 247
62.7992 241
62.81931 253
62.83943 243
62.85954 235
62.87965 227
62.89977 248
62.91988 252
62.94 248
62.96011 269
62.98022 226
63.00034 236
63.02045 262
63.04056 235
63.06068 258
63.08079 270
63.10091 248
63.12102 265
63.14113 247
63.16125 224
63.18136 242
63.20147 261
63.22159 244
63.2417 250
63.26182 261
63.28193 232
63.30204 266
63.32216 262
63.34227 249
63.36238 243
63.3825 242
63.40261 218
63.42272 278
63.44284 257
63.46295 259
63.48307 228
63.50318 245
63.52329 262
63.54341 255
63.56352 251
63.58363 244
63.60375 258
63.62386 245
63.64398 271
63.66409 284
63.6842 254
63.70432 268
63.72443 258
63.74454 246
63.76466 299
63.78477 285
63.80489 302
63.825 328
63.84511 321
63.86523 376
63.88534 390
63.90545 445
63.92557 450
63.94568 436
63.96579 503
63.98591 484
64.00602 438
64.02614 388
64.04625 374
64.06636 331
64.08648 367
64.10659 323
64.1267 350
64.14682 339
64.16693 335
64.18705 324
64.20716 327
64.22727 293
64.24739 281
64.2675 266
64.28761 249
64.30773 245
64.32784 271
64.34796 198
64.36807 231
64.38818 231
64.4083 227
64.42841 260
64.44852 269
64.46864 263
64.48875 252
64.50886 216
64.52898 232
64.54909 231
64.56921 235
64.58932 249
64.60943 227
64.62955 271
64.64966 230
64.66977 226
64.68989 244
64.71 241
64.73012 210
64.75023 242
64.77034 218
64.79046 216
64.81057 226
64.83068 235
64.8508 253
64.87091 239
64.89102 254
64.91114 225
64.93125 237
64.95137 272
64.97148 227
64.99159 214
65.01171 228
65.03182 218
65.05193 237
65.07205 243
65.09216 225
65.11228 226
65.13239 235
65.1525 239
65.17262 230
65.19273 228
65.21284 226
65.23296 227
65.25307 249
65.27319 226
65.2933 225
65.31341 230
65.33353 225
65.35364 238
65.37375 224
65.39387 212
65.41398 240
65.43409 206
65.45421 214
65.47432 249
65.49444 241
65.51455 238
65.53466 221
65.55478 233
65.57489 251
65.595 278
65.61512 260
65.63523 302
65.65535 281
65.67546 291
65.69557 292
65.71569 276
65.7358 244
65.75591 286
65.77603 270
65.79614 233
65.81626 257
65.83637 259
65.85648 251
65.8766 250
65.89671 248
65.91682 255
65.93694 255
65.95705 249
65.97716 258
65.99728 252
66.01739 236
66.03751 243
66.05762 255
66.07773 237
66.09785 225
66.11796 237
66.13807 227
66.15819 234
66.1783 223
66.19842 212
66.21853 225
66.23864 218
66.25876 223
66.27887 219
66.29898 255
66.3191 215
66.33921 232
66.35933 220
66.37944 238
66.39955 227
66.41967 217
66.43978 235
66.45989 219
66.48001 232
66.50012 233
66.52023 229
66.54035 239
66.56046 237
66.58058 222
66.60069 233
66.6208 220
66.64092 237
66.66103 224
66.68114 229
66.70126 220
66.72137 235
66.74149 233
66.7616 244
66.78171 226
66.80183 240
66.82194 231
66.84205 238
66.86217 241
66.88228 239
66.90239 211
66.92251 246
66.94262 255
66.96274 218
66.98285 232
67.00296 241
67.02308 212
67.04319 199
67.0633 234
67.08342 241
67.10353 266
67.12365 260
67.14376 230
67.16387 217
67.18399 260
67.2041 261
67.22421 273
67.24433 258
67.26444 238
67.28456 267
67.30467 266
67.32478 270
67.3449 272
67.36501 281
67.38512 318
67.40524 345
67.42535 332
67.44546 346
67.46558 390
67.48569 387
67.50581 425
67.52592 477
67.54603 546
67.56615 609
67.58626 685
67.60637 745
67.62649 738
67.6466 841
67.66672 891
67.68683 879
67.70694 843
67.72706 808
67.74717 695
67.76728 687
67.7874 686
67.80751 656
67.82763 695
67.84774 682
67.86785 713
67.88797 714
67.90808 749
67.92819 789
67.94831 780
67.96842 803
67.98853 885
68.00865 926
68.02876 1079
68.04888 1097
68.06899 1124
68.0891 1128
68.10922 1167
68.12933 1119
68.14944 1056
68.16956 1000
68.18967 1053
68.20979 969
68.2299 1066
68.25001 1029
68.27013 1002
68.29024 929
68.31035 852
68.33047 754
68.35058 647
68.3707 562
68.39081 490
68.41092 520
68.43104 478
68.45115 471
68.47126 468
68.49138 412
68.51149 348
68.5316 349
68.55172 317
68.57183 301
68.59195 261
68.61206 294
68.63217 273
68.65229 247
68.6724 294
68.69251 242
68.71263 260
68.73274 245
68.75286 256
68.77297 288
68.79308 271
68.8132 252
68.83331 269
68.85342 281
68.87354 251
68.89365 226
68.91376 232
68.93388 249
68.95399 253
68.97411 236
68.99422 251
69.01433 239
69.03445 274
69.05456 249
69.07467 257
69.09479 236
69.1149 247
69.13502 224
69.15513 245
69.17524 256
69.19536 252
69.21547 236
69.23558 228
69.2557 243
69.27581 264
69.29593 233
69.31604 254
69.33615 276
69.35627 239
69.37638 248
69.39649 255
69.41661 236
69.43672 230
69.45683 241
69.47695 267
69.49706 232
69.51718 265
69.53729 259
69.5574 263
69.57752 243
69.59763 227
69.61774 230
69.63786 246
69.65797 262
69.67809 234
69.6982 237
69.71831 278
69.73843 244
69.75854 234
69.77865 269
69.79877 253
69.81888 246
69.839 269
69.85911 244
69.87922 248
69.89934 244
69.91945 234
69.93956 249
69.95968 242
69.97979 243
69.9999 234
70.02002 253
70.04013 265
70.06025 241
70.08036 239
70.10047 248
70.12059 241
70.1407 223
70.16081 225
70.18093 236
70.20104 235
70.22116 239
70.24127 266
70.26138 233
70.2815 241
70.30161 225
70.32172 220
70.34184 208
70.36195 226
70.38207 221
70.40218 234
70.42229 242
70.44241 208
70.46252 204
70.48263 216
70.50275 245
70.52286 228
70.54297 206
70.56309 247
70.5832 232
70.60332 192
70.62343 220
70.64354 195
70.66366 225
70.68377 213
70.70388 234
70.724 181
70.74411 247
70.76423 216
70.78434 204
70.80445 216
70.82457 198
70.84468 210
70.86479 214
70.88491 212
70.90502 218
70.92513 229
70.94525 216
70.96536 223
70.98548 217
71.00559 188
71.0257 219
71.04582 195
71.06593 238
71.08604 219
71.10616 235
71.12627 201
71.14639 203
71.1665 212
71.18661 219
71.20673 227
71.22684 231
71.24695 220
71.26707 222
71.28718 253
71.3073 212
71.32741 179
71.34752 183
71.36764 216
71.38775 216
71.40786 209
71.42798 200
71.44809 227
71.4682 198
71.48832 206
71.50843 210
71.52855 203
71.54866 214
71.56877 234
71.58889 224
71.609 209
71.62911 196
71.64923 232
71.66934 224
71.68946 225
71.70957 207
71.72968 216
71.7498 196
71.76991 213
71.79002 208
71.81014 220
71.83025 212
71.85037 218
71.87048 234
71.89059 218
71.91071 202
71.93082 217
71.95093 216
71.97105 214
71.99116 211
72.01127 229
72.03139 234
72.0515 222
72.07162 237
72.09173 223
72.11184 214
72.13196 217
72.15207 198
72.17218 210
72.1923 230
72.21241 213
72.23253 215
72.25264 252
72.27275 215
72.29287 222
72.31298 226
72.33309 247
72.35321 227
72.37332 248
72.39344 240
72.41355 243
72.43366 227
72.45378 242
72.47389 227
72.494 212
72.51412 250
72.53423 243
72.55434 251
72.57446 244
72.59457 230
72.61469 260
72.6348 254
72.65491 259
72.67503 241
72.69514 289
72.71525 230
72.73537 252
72.75548 251
72.7756 238
72.79571 260
72.81582 253
72.83594 284
72.85605 280
72.87616 246
72.89628 250
72.91639 241
72.9365 249
72.95662 257
72.97673 239
72.99685 253
73.01696 280
73.03707 274
73.05719 269
73.0773 257
73.09741 274
73.11753 263
73.13764 271
73.15776 286
73.17787 298
73.19798 273
73.2181 314
73.23821 292
73.25832 305
73.27844 348
73.29855 390
73.31867 399
73.33878 412
73.35889 413
73.37901 426
73.39912 488
73.41923 464
73.43935 434
73.45946 406
73.47957 337
73.49969 385
73.5198 334
73.53992 334
73.56003 284
73.58014 323
73.60026 319
73.62037 332
73.64048 310
73.6606 291
73.68071 280
73.70083 285
73.72094 244
73.74105 242
73.76117 241
73.78128 235
73.80139 238
73.82151 246
73.84162 204
73.86174 248
73.88185 213
73.90196 234
73.92208 214
73.94219 239
73.9623 245
73.98242 213
74.00253 209
74.02264 216
74.04276 218
74.06287 211
74.08299 226
74.1031 233
74.12321 236
74.14333 221
74.16344 197
74.18355 226
74.20367 210
74.22378 228
74.2439 238
74.26401 243
74.28412 206
74.30424 222
74.32435 219
74.34446 216
74.36458 221
74.38469 217
74.40481 200
74.42492 212
74.44503 224
74.46515 223
74.48526 222
74.50537 224
74.52549 218
74.5456 221
74.56571 249
74.58583 242
74.60594 229
74.62606 190
74.64617 214
74.66628 216
74.6864 213
74.70651 232
74.72662 225
74.74674 199
74.76685 186
74.78697 225
74.80708 217
74.82719 226
74.84731 228
74.86742 206
74.88753 198
74.90765 216
74.92776 238
74.94787 211
74.96799 247
74.9881 213
75.00822 215
