3.00117 20538
3.02128 19848
3.0414 19435
3.06151 18863
3.08162 18419
3.10174 18055
3.12185 17211
3.14197 16936
3.16208 16311
3.18219 16194
3.20231 15441
3.22242 14651
3.24253 14676
3.26265 13983
3.28276 13668
3.30288 13136
3.32299 12669
3.3431 12567
3.36322 12056
3.38333 11631
3.40344 11470
3.42356 10830
3.44367 10467
3.46379 9757
3.4839 10029
3.50401 9725
3.52413 8955
3.54424 8780
3.56435 8426
3.58447 8277
3.60458 7902
3.62469 7535
3.64481 7569
3.66492 6873
3.68504 6843
3.70515 6582
3.72526 6215
3.74538 6154
3.76549 5744
3.7856 5651
3.80572 5400
3.82583 5077
3.84595 4879
3.86606 4591
3.88617 4673
3.90629 4220
3.9264 3817
3.94651 3990
3.96663 3614
3.98674 3611
4.00686 3472
4.02697 3217
4.04708 3149
4.0672 3016
4.08731 2769
4.10742 2931
4.12754 2544
4.14765 2575
4.16776 2416
4.18788 2386
4.20799 2399
4.22811 2116
4.24822 2101
4.26833 1965
4.28845 1955
4.30856 2013
4.32867 1734
4.34879 1726
4.3689 1736
4.38902 1663
4.40913 1688
4.42924 1592
4.44936 1548
4.46947 1510
4.48958 1498
4.5097 1558
4.52981 1330
4.54992 1312
4.57004 1303
4.59015 1329
4.61027 1338
4.63038 1222
4.65049 1235
4.67061 1197
4.69072 1041
4.71083 1153
4.73095 1091
4.75106 1067
4.77118 1119
4.79129 1036
4.8114 1002
4.83152 929
4.85163 996
4.87174 955
4.89186 885
4.91197 929
4.93209 835
4.9522 848
4.97231 897
4.99243 844
5.01254 873
5.03265 830
5.05277 757
5.07288 807
5.09299 767
5.11311 751
5.13322 636
5.15334 742
5.17345 692
5.19356 707
5.21368 731
5.23379 569
5.2539 601
5.27402 605
5.29413 608
5.31425 563
5.33436 575
5.35447 535
5.37459 565
5.3947 581
5.41481 527
5.43493 502
5.45504 476
5.47516 509
5.49527 489
5.51538 512
5.5355 486
5.55561 458
5.57572 421
5.59584 486
5.61595 450
5.63606 472
5.65618 441
5.67629 440
5.69641 444
5.71652 404
5.73663 425
5.75675 374
5.77686 380
5.79697 387
5.81709 357
5.8372 376
5.85732 344
5.87743 393
5.89754 410
5.91766 364
5.93777 351
5.95788 394
5.978 385
5.99811 369
6.01823 373
6.03834 331
6.05845 320
6.07857 324
6.09868 380
6.11879 347
6.13891 316
6.15902 320
6.17913 341
6.19925 338
6.21936 368
6.23948 303
6.25959 336
6.2797 297
6.29982 334
6.31993 300
6.34004 336
6.36016 294
6.38027 314
6.40039 298
6.4205 335
6.44061 352
6.46073 322
6.48084 289
6.50095 292
6.52107 313
6.54118 268
6.56129 291
6.58141 320
6.60152 280
6.62164 337
6.64175 285
6.66186 284
6.68198 330
6.70209 293
6.7222 314
6.74232 301
6.76243 288
6.78255 294
6.80266 327
6.82277 266
6.84289 251
6.863 285
6.88311 283
6.90323 300
6.92334 282
6.94346 306
6.96357 282
6.98368 323
7.0038 268
7.02391 313
7.04402 319
7.06414 315
7.08425 285
7.10436 307
7.12448 275
7.14459 313
7.16471 268
7.18482 345
7.20493 287
7.22505 275
7.24516 294
7.26527 288
7.28539 265
7.3055 302
7.32562 274
7.34573 302
7.36584 306
7.38596 302
7.40607 286
7.42618 285
7.4463 273
7.46641 317
7.48653 283
7.50664 254
7.52675 292
7.54687 277
7.56698 293
7.58709 289
7.60721 269
7.62732 266
7.64743 294
7.66755 267
7.68766 263
7.70778 265
7.72789 285
7.748 305
7.76812 344
7.78823 271
7.80834 288
7.82846 282
7.84857 287
7.86869 307
7.8888 288
7.90891 270
7.92903 282
7.94914 297
7.96925 302
7.98937 313
8.00948 299
8.0296 231
8.04971 290
8.06982 284
8.08994 275
8.11005 296
8.13016 306
8.15028 269
8.17039 296
8.1905 309
8.21062 298
8.23073 309
8.25085 302
8.27096 321
8.29107 296
8.31119 299
8.3313 311
8.35141 302
8.37153 318
8.39164 291
8.41176 292
8.43187 279
8.45198 290
8.4721 311
8.49221 317
8.51232 304
8.53244 269
8.55255 346
8.57266 311
8.59278 268
8.61289 316
8.63301 303
8.65312 270
8.67323 300
8.69335 333
8.71346 287
8.73357 295
8.75369 340
8.7738 276
8.79392 279
8.81403 311
8.83414 278
8.85426 296
8.87437 297
8.89448 291
8.9146 307
8.93471 306
8.95483 291
8.97494 263
8.99505 305
9.01517 284
9.03528 276
9.05539 277
9.07551 309
9.09562 319
9.11573 337
9.13585 289
9.15596 295
9.17608 304
9.19619 271
9.2163 321
9.23642 304
9.25653 279
9.27664 299
9.29676 303
9.31687 274
9.33699 294
9.3571 300
9.37721 303
9.39733 306
9.41744 277
9.43755 323
9.45767 288
9.47778 245
9.4979 301
9.51801 332
9.53812 291
9.55824 286
9.57835 286
9.59846 273
9.61858 301
9.63869 270
9.6588 308
9.67892 300
9.69903 281
9.71915 288
9.73926 303
9.75937 249
9.77949 295
9.7996 285
9.81971 302
9.83983 285
9.85994 292
9.88006 264
9.90017 279
9.92028 280
9.9404 291
9.96051 307
9.98062 316
10.00074 274
10.02085 302
10.04097 280
10.06108 313
10.08119 336
10.10131 272
10.12142 301
10.14153 326
10.16165 309
10.18176 283
10.20187 294
10.22199 325
10.2421 333
10.26222 276
10.28233 296
10.30244 255
10.32256 281
10.34267 302
10.36278 293
10.3829 297
10.40301 294
10.42313 281
10.44324 293
10.46335 280
10.48347 286
10.50358 303
10.52369 326
10.54381 291
10.56392 277
10.58403 303
10.60415 304
10.62426 308
10.64438 288
10.66449 320
10.6846 316
10.70472 379
10.72483 281
10.74494 312
10.76506 332
10.78517 303
10.80529 293
10.8254 317
10.84551 325
10.86563 290
10.88574 289
10.90585 325
10.92597 310
10.94608 281
10.9662 289
10.98631 318
11.00642 335
11.02654 285
11.04665 316
11.06676 304
11.08688 329
11.10699 302
11.1271 346
11.14722 288
11.16733 342
11.18745 299
11.20756 314
11.22767 323
11.24779 323
11.2679 293
11.28801 315
11.30813 314
11.32824 320
11.34836 321
11.36847 284
11.38858 325
11.4087 340
11.42881 352
11.44892 332
11.46904 343
11.48915 321
11.50927 342
11.52938 355
11.54949 319
11.56961 380
11.58972 306
11.60983 353
11.62995 339
11.65006 368
11.67017 341
11.69029 370
11.7104 382
11.73052 376
11.75063 345
11.77074 359
11.79086 385
11.81097 402
11.83108 446
11.8512 399
11.87131 400
11.89143 454
11.91154 460
11.93165 448
11.95177 454
11.97188 495
11.99199 475
12.01211 547
12.03222 494
12.05234 574
12.07245 624
12.09256 579
12.11268 677
12.13279 669
12.1529 695
12.17302 815
12.19313 782
12.21324 864
12.23336 833
12.25347 910
12.27359 919
12.2937 927
12.31381 931
12.33393 885
12.35404 871
12.37415 781
12.39427 806
12.41438 777
12.4345 724
12.45461 703
12.47472 633
12.49484 617
12.51495 569
12.53506 539
12.55518 494
12.57529 505
12.5954 405
12.61552 437
12.63563 407
12.65575 412
12.67586 386
12.69597 355
12.71609 368
12.7362 336
12.75631 338
12.77643 331
12.79654 364
12.81666 316
12.83677 340
12.85688 303
12.877 302
12.89711 331
12.91722 300
12.93734 364
12.95745 294
12.97757 311
12.99768 286
13.01779 308
13.03791 285
13.05802 296
13.07813 287
13.09825 299
13.11836 323
13.13847 301
13.15859 338
13.1787 302
13.19882 300
13.21893 297
13.23904 260
13.25916 265
13.27927 291
13.29938 287
13.3195 287
13.33961 276
13.35973 281
13.37984 276
13.39995 258
13.42007 297
13.44018 245
13.46029 285
13.48041 287
13.50052 253
13.52064 293
13.54075 299
13.56086 306
13.58098 308
13.60109 302
13.6212 265
13.64132 307
13.66143 272
13.68154 289
13.70166 294
13.72177 284
13.74189 275
13.762 293
13.78211 255
13.80223 273
13.82234 262
13.84245 302
13.86257 283
13.88268 288
13.9028 270
13.92291 275
13.94302 282
13.96314 283
13.98325 254
14.00336 223
14.02348 253
14.04359 278
14.06371 253
14.08382 253
14.10393 260
14.12405 304
14.14416 272
14.16427 272
14.18439 274
14.2045 250
14.22461 274
14.24473 235
14.26484 261
14.28496 285
14.30507 290
14.32518 282
14.3453 267
14.36541 294
14.38552 251
14.40564 262
14.42575 258
14.44587 257
14.46598 264
14.48609 273
14.50621 237
14.52632 273
14.54643 280
14.56655 293
14.58666 275
14.60677 280
14.62689 245
14.647 277
14.66712 239
14.68723 276
14.70734 243
14.72746 281
14.74757 266
14.76768 246
14.7878 258
14.80791 258
14.82803 272
14.84814 247
14.86825 272
14.88837 257
14.90848 255
14.92859 273
14.94871 262
14.96882 259
14.98894 246
15.00905 302
15.02916 305
15.04928 264
15.06939 266
15.0895 247
15.10962 260
15.12973 271
15.14984 289
15.16996 266
15.19007 258
15.21019 251
15.2303 258
15.25041 266
15.27053 286
15.29064 245
15.31075 242
15.33087 277
15.35098 241
15.3711 258
15.39121 259
15.41132 233
15.43144 206
15.45155 235
15.47166 219
15.49178 208
15.51189 205
15.53201 252
15.55212 250
15.57223 258
15.59235 257
15.61246 260
15.63257 277
15.65269 244
15.6728 239
15.69291 247
15.71303 246
15.73314 212
15.75326 263
15.77337 204
15.79348 265
15.8136 267
15.83371 259
15.85382 302
15.87394 269
15.89405 272
15.91417 261
15.93428 234
15.95439 292
15.97451 236
15.99462 238
16.01473 215
16.03485 247
16.05496 262
16.07508 250
16.09519 266
16.1153 246
16.13542 251
16.15553 245
16.17564 244
16.19576 258
16.21587 242
16.23598 238
16.2561 279
16.27621 236
16.29633 245
16.31644 261
16.33655 235
16.35667 242
16.37678 242
16.39689 217
16.41701 250
16.43712 212
16.45724 237
16.47735 246
16.49746 267
16.51758 255
16.53769 234
16.5578 229
16.57792 257
16.59803 193
16.61814 263
16.63826 267
16.65837 246
16.67849 242
16.6986 246
16.71871 236
16.73883 278
16.75894 278
16.77905 258
16.79917 222
16.81928 210
16.8394 248
16.85951 264
16.87962 267
16.89974 235
16.91985 236
16.93996 217
16.96008 236
16.98019 256
17.00031 237
17.02042 214
17.04053 223
17.06065 258
17.08076 243
17.10087 260
17.12099 267
17.1411 219
17.16121 235
17.18133 264
17.20144 255
17.22156 221
17.24167 240
17.26178 256
17.2819 259
17.30201 247
17.32212 239
17.34224 253
17.36235 230
17.38247 224
17.40258 270
17.42269 222
17.44281 237
17.46292 256
17.48303 262
17.50315 223
17.52326 259
17.54338 271
17.56349 248
17.5836 234
17.60372 234
17.62383 215
17.64394 243
17.66406 240
17.68417 257
17.70428 245
17.7244 244
17.74451 227
17.76463 287
17.78474 276
17.80485 251
17.82497 264
17.84508 255
17.86519 270
17.88531 246
17.90542 237
17.92554 239
17.94565 246
17.96576 257
17.98588 241
18.00599 251
18.0261 251
18.04622 254
18.06633 250
18.08645 267
18.10656 253
18.12667 243
18.14679 282
18.1669 292
18.18701 307
18.20713 300
18.22724 312
18.24735 311
18.26747 343
18.28758 326
18.3077 293
18.32781 300
18.34792 281
18.36804 260
18.38815 290
18.40826 268
18.42838 267
18.44849 266
18.46861 246
18.48872 246
18.50883 243
18.52895 260
18.54906 270
18.56917 228
18.58929 229
18.6094 258
18.62951 261
18.64963 248
18.66974 231
18.68986 256
18.70997 248
18.73008 228
18.7502 236
18.77031 254
18.79042 273
18.81054 241
18.83065 254
18.85077 249
18.87088 241
18.89099 262
18.91111 269
18.93122 259
18.95133 252
18.97145 240
18.99156 246
19.01168 241
19.03179 265
19.0519 278
19.07202 275
19.09213 272
19.11224 256
19.13236 270
19.15247 267
19.17258 262
19.1927 254
19.21281 280
19.23293 255
19.25304 245
19.27315 267
19.29327 278
19.31338 263
19.33349 257
19.35361 299
19.37372 256
19.39384 295
19.41395 270
19.43406 274
19.45418 285
19.47429 299
19.4944 315
19.51452 306
19.53463 268
19.55475 286
19.57486 323
19.59497 310
19.61509 325
19.6352 367
19.65531 375
19.67543 390
19.69554 409
19.71565 404
19.73577 498
19.75588 510
19.776 548
19.79611 627
19.81622 652
19.83634 657
19.85645 643
19.87656 683
19.89668 612
19.91679 635
19.93691 677
19.95702 663
19.97713 594
19.99725 612
20.01736 630
20.03747 610
20.05759 542
20.0777 584
20.09782 628
20.11793 559
20.13804 577
20.15816 614
20.17827 605
20.19838 598
20.2185 617
20.23861 684
20.25872 643
20.27884 654
20.29895 637
20.31907 668
20.33918 666
20.35929 658
20.37941 671
20.39952 698
20.41963 666
20.43975 673
20.45986 674
20.47998 663
20.50009 613
20.5202 706
20.54032 721
20.56043 712
20.58054 745
20.60066 847
20.62077 826
20.64088 978
20.661 1208
20.68111 1339
20.70123 1760
20.72134 2185
20.74145 2817
20.76157 3615
20.78168 4327
20.80179 4803
20.82191 4975
20.84202 4630
20.86214 4136
20.88225 3286
20.90236 2386
20.92248 1714
20.94259 1278
20.9627 1085
20.98282 1023
21.00293 874
21.02305 816
21.04316 762
21.06327 781
21.08339 707
21.1035 640
21.12361 619
21.14373 629
21.16384 615
21.18395 656
21.20407 587
21.22418 619
21.2443 624
21.26441 529
21.28452 595
21.30464 590
21.32475 575
21.34486 597
21.36498 550
21.38509 579
21.40521 576
21.42532 562
21.44543 485
21.46555 528
21.48566 516
21.50577 525
21.52589 563
21.546 527
21.56612 563
21.58623 504
21.60634 468
21.62646 470
21.64657 458
21.66668 474
21.6868 525
21.70691 469
21.72702 432
21.74714 438
21.76725 455
21.78737 468
21.80748 488
21.82759 452
21.84771 423
21.86782 431
21.88793 423
21.90805 439
21.92816 427
21.94828 453
21.96839 401
21.9885 442
22.00862 400
22.02873 435
22.04884 415
22.06896 415
22.08907 418
22.10919 428
22.1293 408
22.14941 407
22.16953 403
22.18964 420
22.20975 440
22.22987 442
22.24998 440
22.27009 419
22.29021 427
22.31032 424
22.33044 414
22.35055 417
22.37066 414
22.39078 396
22.41089 373
22.431 394
22.45112 368
22.47123 401
22.49135 385
22.51146 408
22.53157 394
22.55169 397
22.5718 406
22.59191 360
22.61203 376
22.63214 381
22.65225 400
22.67237 400
22.69248 365
22.7126 371
22.73271 332
22.75282 365
22.77294 392
22.79305 404
22.81316 352
22.83328 369
22.85339 363
22.87351 354
22.89362 412
22.91373 354
22.93385 379
22.95396 413
22.97407 381
22.99419 387
23.0143 375
23.03442 357
23.05453 376
23.07464 389
23.09476 403
23.11487 399
23.13498 448
23.1551 430
23.17521 383
23.19532 465
23.21544 407
23.23555 399
23.25567 408
23.27578 335
23.29589 370
23.31601 362
23.33612 370
23.35623 345
23.37635 396
23.39646 384
23.41658 369
23.43669 377
23.4568 392
23.47692 396
23.49703 357
23.51714 375
23.53726 358
23.55737 346
23.57749 373
23.5976 336
23.61771 339
23.63783 376
23.65794 352
23.67805 394
23.69817 393
23.71828 361
23.73839 382
23.75851 428
23.77862 406
23.79874 378
23.81885 405
23.83896 419
23.85908 428
23.87919 467
23.8993 496
23.91942 464
23.93953 490
23.95965 489
23.97976 487
23.99987 455
24.01999 480
24.0401 417
24.06021 402
24.08033 392
24.10044 404
24.12056 410
24.14067 398
24.16078 389
24.1809 369
24.20101 429
24.22112 423
24.24124 431
24.26135 415
24.28146 403
24.30158 448
24.32169 452
24.34181 424
24.36192 403
24.38203 437
24.40215 447
24.42226 477
24.44237 468
24.46249 478
24.4826 487
24.50272 492
24.52283 488
24.54294 527
24.56306 537
24.58317 552
24.60328 565
24.6234 558
24.64351 606
24.66362 631
24.68374 673
24.70385 732
24.72397 732
24.74408 746
24.76419 771
24.78431 771
24.80442 757
24.82453 800
24.84465 790
24.86476 791
24.88488 752
24.90499 726
24.9251 762
24.94522 673
24.96533 676
24.98544 643
25.00556 582
25.02567 577
25.04579 589
25.0659 582
25.08601 525
25.10613 544
25.12624 493
25.14635 512
25.16647 498
25.18658 535
25.20669 475
25.22681 490
25.24692 491
25.26704 479
25.28715 506
25.30726 526
25.32738 476
25.34749 468
25.3676 440
25.38772 463
25.40783 435
25.42795 479
25.44806 476
25.46817 494
25.48829 480
25.5084 493
25.52851 536
25.54863 485
25.56874 476
25.58886 492
25.60897 487
25.62908 554
25.6492 485
25.66931 524
25.68942 540
25.70954 457
25.72965 489
25.74976 462
25.76988 465
25.78999 485
25.81011 520
25.83022 469
25.85033 482
25.87045 509
25.89056 484
25.91067 475
25.93079 489
25.9509 481
25.97102 532
25.99113 552
26.01124 501
26.03136 534
26.05147 538
26.07158 551
26.0917 651
26.11181 606
26.13193 658
26.15204 704
26.17215 750
26.19227 807
26.21238 803
26.23249 874
26.25261 945
26.27272 986
26.29283 1082
26.31295 1228
26.33306 1444
26.35318 1642
26.37329 2003
26.3934 2388
26.41352 3026
26.43363 3822
26.45374 5129
26.47386 6710
26.49397 8982
26.51409 11899
26.5342 15169
26.55431 18474
26.57443 20844
26.59454 21136
26.61465 20469
26.63477 18000
26.65488 14407
26.67499 10679
26.69511 7730
26.71522 5156
26.73534 3352
26.75545 2195
26.77556 1615
26.79568 1380
26.81579 1214
26.8359 1012
26.85602 1001
26.87613 924
26.89625 925
26.91636 883
26.93647 794
26.95659 800
26.9767 736
26.99681 743
27.01693 726
27.03704 644
27.05716 703
27.07727 652
27.09738 565
27.1175 575
27.13761 522
27.15772 515
27.17784 491
27.19795 543
27.21806 519
27.23818 485
27.25829 525
27.27841 544
27.29852 595
27.31863 568
27.33875 647
27.35886 663
27.37897 719
27.39909 668
27.4192 708
27.43932 663
27.45943 647
27.47954 623
27.49966 512
27.51977 500
27.53988 438
27.56 402
27.58011 455
27.60023 429
27.62034 410
27.64045 368
27.66057 424
27.68068 361
27.70079 382
27.72091 403
27.74102 386
27.76113 413
27.78125 375
27.80136 358
27.82148 374
27.84159 405
27.8617 390
27.88182 387
27.90193 372
27.92204 349
27.94216 381
27.96227 358
27.98239 358
28.0025 372
28.02261 340
28.04273 355
28.06284 375
28.08295 343
28.10307 342
28.12318 346
28.1433 349
28.16341 341
28.18352 327
28.20364 345
28.22375 329
28.24386 328
28.26398 324
28.28409 328
28.3042 289
28.32432 349
28.34443 298
28.36455 335
28.38466 341
28.40477 355
28.42489 305
28.445 332
28.46511 301
28.48523 315
28.50534 311
28.52546 340
28.54557 339
28.56568 336
28.5858 293
28.60591 299
28.62602 290
28.64614 315
28.66625 294
28.68636 315
28.70648 321
28.72659 305
28.74671 316
28.76682 322
28.78693 294
28.80705 305
28.82716 313
28.84727 306
28.86739 336
28.8875 324
28.90762 298
28.92773 296
28.94784 280
28.96796 299
28.98807 300
29.00818 308
29.0283 312
29.04841 312
29.06853 306
29.08864 305
29.10875 294
29.12887 270
29.14898 300
29.16909 305
29.18921 260
29.20932 314
29.22943 315
29.24955 304
29.26966 300
29.28978 287
29.30989 311
29.33 341
29.35012 341
29.37023 324
29.39034 354
29.41046 367
29.43057 361
29.45069 350
29.4708 318
29.49091 327
29.51103 295
29.53114 278
29.55125 290
29.57137 289
29.59148 299
29.6116 310
29.63171 293
29.65182 301
29.67194 321
29.69205 286
29.71216 339
29.73228 335
29.75239 305
29.7725 302
29.79262 311
29.81273 295
29.83285 347
29.85296 283
29.87307 297
29.89319 280
29.9133 300
29.93341 297
29.95353 287
29.97364 316
29.99376 282
30.01387 338
30.03398 323
30.0541 308
30.07421 337
30.09432 365
30.11444 345
30.13455 320
30.15467 361
30.17478 330
30.19489 326
30.21501 340
30.23512 324
30.25523 324
30.27535 309
30.29546 292
30.31557 297
30.33569 287
30.3558 292
30.37592 274
30.39603 294
30.41614 276
30.43626 304
30.45637 281
30.47648 297
30.4966 280
30.51671 286
30.53683 308
30.55694 311
30.57705 278
30.59717 293
30.61728 323
30.63739 333
30.65751 326
30.67762 333
30.69773 333
30.71785 326
30.73796 346
30.75808 340
30.77819 315
30.7983 310
30.81842 361
30.83853 320
30.85864 324
30.87876 302
30.89887 294
30.91899 288
30.9391 272
30.95921 301
30.97933 309
30.99944 282
31.01955 280
31.03967 287
31.05978 279
31.0799 256
31.10001 272
31.12012 286
31.14024 278
31.16035 279
31.18046 271
31.20058 239
31.22069 252
31.2408 278
31.26092 286
31.28103 260
31.30115 268
31.32126 280
31.34137 256
31.36149 264
31.3816 252
31.40171 255
31.42183 273
31.44194 268
31.46206 256
31.48217 263
31.50228 271
31.5224 257
31.54251 263
31.56262 287
31.58274 246
31.60285 266
31.62297 269
31.64308 264
31.66319 287
31.68331 263
31.70342 291
31.72353 227
31.74365 272
31.76376 262
31.78387 255
31.80399 270
31.8241 286
31.84422 266
31.86433 259
31.88444 277
31.90456 243
31.92467 257
31.94478 286
31.9649 251
31.98501 285
32.00513 300
32.02524 258
32.04535 277
32.06547 272
32.08558 269
32.10569 320
32.12581 278
32.14592 275
32.16604 302
32.18615 272
32.20626 298
32.22638 260
32.24649 299
32.2666 261
32.28672 287
32.30683 302
32.32694 298
32.34706 308
32.36717 294
32.38729 307
32.4074 339
32.42751 288
32.44763 315
32.46774 344
32.48785 309
32.50797 301
32.52808 308
32.5482 315
32.56831 295
32.58842 311
32.60854 332
32.62865 315
32.64876 263
32.66888 325
32.68899 293
32.7091 317
32.72922 287
32.74933 298
32.76945 297
32.78956 297
32.80967 285
32.82979 316
32.8499 282
32.87001 285
32.89013 305
32.91024 313
32.93036 320
32.95047 331
32.97058 334
32.9907 357
33.01081 333
33.03092 343
33.05104 339
33.07115 323
33.09127 343
33.11138 374
33.13149 324
33.15161 321
33.17172 339
33.19183 348
33.21195 292
33.23206 325
33.25217 315
33.27229 284
33.2924 343
33.31252 301
33.33263 315
33.35274 311
33.37286 327
33.39297 279
33.41308 320
33.4332 293
33.45331 291
33.47343 316
33.49354 301
33.51365 277
33.53377 272
33.55388 338
33.57399 290
33.59411 289
33.61422 300
33.63434 285
33.65445 244
33.67456 277
33.69468 281
33.71479 282
33.7349 292
33.75502 297
33.77513 263
33.79524 292
33.81536 258
33.83547 252
33.85559 245
33.8757 281
33.89581 290
33.91593 268
33.93604 293
33.95615 273
33.97627 272
33.99638 301
34.0165 306
34.03661 305
34.05672 296
34.07684 277
34.09695 286
34.11706 276
34.13718 276
34.15729 310
34.17741 295
34.19752 310
34.21763 295
34.23775 260
34.25786 312
34.27797 284
34.29809 290
34.3182 293
34.33831 285
34.35843 282
34.37854 293
34.39866 291
34.41877 285
34.43888 263
34.459 313
34.47911 285
34.49922 303
34.51934 310
34.53945 294
34.55957 291
34.57968 344
34.59979 320
34.61991 317
34.64002 343
34.66013 335
34.68025 340
34.70036 358
34.72047 352
34.74059 428
34.7607 417
34.78082 444
34.80093 402
34.82104 428
34.84116 456
34.86127 459
34.88138 495
34.9015 451
34.92161 484
34.94173 455
34.96184 470
34.98195 500
35.00207 488
35.02218 409
35.04229 442
35.06241 427
35.08252 428
35.10264 414
35.12275 431
35.14286 437
35.16298 419
35.18309 414
35.2032 414
35.22332 466
35.24343 425
35.26354 445
35.28366 415
35.30377 476
35.32389 478
35.344 442
35.36411 433
35.38423 476
35.40434 442
35.42445 514
35.44457 546
35.46468 493
35.4848 527
35.50491 524
35.52502 544
35.54514 541
35.56525 496
35.58536 569
35.60548 493
35.62559 507
35.64571 521
35.66582 534
35.68593 553
35.70605 530
35.72616 521
35.74627 509
35.76639 510
35.7865 543
35.80661 506
35.82673 518
35.84684 520
35.86696 508
35.88707 501
35.90718 511
35.9273 508
35.94741 540
35.96752 476
35.98764 456
36.00775 448
36.02787 427
36.04798 434
36.06809 434
36.08821 438
36.10832 418
36.12843 425
36.14855 444
36.16866 400
36.18878 416
36.20889 410
36.229 428
36.24912 467
36.26923 471
36.28934 490
36.30946 588
36.32957 662
36.34968 697
36.3698 862
36.38991 972
36.41003 1116
36.43014 1346
36.45025 1508
36.47037 1617
36.49048 1733
36.51059 1582
36.53071 1466
36.55082 1356
36.57094 1099
36.59105 981
36.61116 873
36.63128 727
36.65139 574
36.6715 522
36.69162 440
36.71173 377
36.73184 399
36.75196 404
36.77207 360
36.79219 429
36.8123 373
36.83241 400
36.85253 360
36.87264 387
36.89275 355
36.91287 376
36.93298 358
36.9531 326
36.97321 388
36.99332 355
37.01344 373
37.03355 371
37.05366 358
37.07378 362
37.09389 347
37.11401 368
37.13412 397
37.15423 359
37.17435 351
37.19446 366
37.21457 355
37.23469 358
37.2548 382
37.27491 311
37.29503 386
37.31514 349
37.33526 364
37.35537 317
37.37548 353
37.3956 342
37.41571 358
37.43582 346
37.45594 377
37.47605 355
37.49617 397
37.51628 312
37.53639 374
37.55651 345
37.57662 403
37.59673 355
37.61685 346
37.63696 350
37.65708 382
37.67719 374
37.6973 366
37.71742 397
37.73753 355
37.75764 399
37.77776 349
37.79787 394
37.81798 367
37.8381 410
37.85821 342
37.87833 379
37.89844 403
37.91855 363
37.93867 382
37.95878 379
37.97889 366
37.99901 376
38.01912 396
38.03924 370
38.05935 421
38.07946 393
38.09958 382
38.11969 401
38.1398 441
38.15992 399
38.18003 476
38.20015 438
38.22026 476
38.24037 482
38.26049 489
38.2806 483
38.30071 544
38.32083 478
38.34094 491
38.36105 503
38.38117 498
38.40128 513
38.4214 527
38.44151 481
38.46162 463
38.48174 502
38.50185 459
38.52196 482
38.54208 470
38.56219 451
38.58231 452
38.60242 437
38.62253 434
38.64265 411
38.66276 376
38.68287 398
38.70299 397
38.7231 418
38.74321 386
38.76333 384
38.78344 371
38.80356 382
38.82367 405
38.84378 382
38.8639 348
38.88401 393
38.90412 383
38.92424 420
38.94435 407
38.96447 392
38.98458 395
39.00469 456
39.02481 432
39.04492 461
39.06503 467
39.08515 436
39.10526 436
39.12538 505
39.14549 487
39.1656 513
39.18572 504
39.20583 520
39.22594 577
39.24606 677
39.26617 671
39.28628 846
39.3064 949
39.32651 1048
39.34663 1265
39.36674 1446
39.38685 1555
39.40697 1645
39.42708 1461
39.44719 1450
39.46731 1238
39.48742 1125
39.50754 993
39.52765 872
39.54776 749
39.56788 592
39.58799 470
39.6081 409
39.62822 387
39.64833 364
39.66845 361
39.68856 359
39.70867 328
39.72879 349
39.7489 305
39.76901 281
39.78913 350
39.80924 295
39.82935 315
39.84947 326
39.86958 339
39.8897 324
39.90981 282
39.92992 308
39.95004 324
39.97015 335
39.99026 367
40.01038 409
40.03049 400
40.05061 427
40.07072 480
40.09083 505
40.11095 520
40.13106 560
40.15117 675
40.17129 694
40.1914 846
40.21152 881
40.23163 905
40.25174 866
40.27186 814
40.29197 745
40.31208 694
40.3322 603
40.35231 549
40.37242 535
40.39254 476
40.41265 429
40.43277 398
40.45288 343
40.47299 312
40.49311 339
40.51322 316
40.53333 309
40.55345 319
40.57356 325
40.59368 302
40.61379 303
40.6339 328
40.65402 297
40.67413 305
40.69424 303
40.71436 325
40.73447 308
40.75458 314
40.7747 314
40.79481 293
40.81493 333
40.83504 264
40.85515 317
40.87527 315
40.89538 300
40.91549 322
40.93561 317
40.95572 330
40.97584 292
40.99595 310
41.01606 338
41.03618 344
41.05629 325
41.0764 293
41.09652 292
41.11663 321
41.13675 287
41.15686 322
41.17697 316
41.19709 292
41.2172 314
41.23731 308
41.25743 313
41.27754 286
41.29765 286
41.31777 271
41.33788 309
41.358 268
41.37811 292
41.39822 270
41.41834 272
41.43845 301
41.45856 307
41.47868 319
41.49879 311
41.51891 316
41.53902 290
41.55913 308
41.57925 280
41.59936 307
41.61947 324
41.63959 322
41.6597 345
41.67982 298
41.69993 344
41.72004 312
41.74016 347
41.76027 313
41.78038 350
41.8005 303
41.82061 308
41.84072 283
41.86084 296
41.88095 285
41.90107 309
41.92118 265
41.94129 290
41.96141 304
41.98152 299
42.00163 287
42.02175 268
42.04186 311
42.06198 270
42.08209 297
42.1022 306
42.12232 324
42.14243 304
42.16254 320
42.18266 368
42.20277 426
42.22289 432
42.243 497
42.26311 582
42.28323 703
42.30334 771
42.32345 885
42.34357 970
42.36368 1104
42.38379 1083
42.40391 1074
42.42402 1040
42.44414 907
42.46425 808
42.48436 747
42.50448 692
42.52459 610
42.5447 555
42.56482 454
42.58493 368
42.60505 319
42.62516 290
42.64527 294
42.66539 276
42.6855 291
42.70561 262
42.72573 304
42.74584 290
42.76595 275
42.78607 277
42.80618 270
42.8263 243
42.84641 273
42.86652 264
42.88664 251
42.90675 284
42.92686 258
42.94698 238
42.96709 267
42.98721 286
43.00732 258
43.02743 254
43.04755 255
43.06766 238
43.08777 256
43.10789 272
43.128 263
43.14812 236
43.16823 253
43.18834 222
43.20846 283
43.22857 240
43.24868 238
43.2688 257
43.28891 272
43.30902 247
43.32914 249
43.34925 244
43.36937 227
43.38948 271
43.40959 260
43.42971 271
43.44982 258
43.46993 251
43.49005 276
43.51016 240
43.53028 211
43.55039 256
43.5705 231
43.59062 250
43.61073 229
43.63084 252
43.65096 232
43.67107 255
43.69119 267
43.7113 272
43.73141 238
43.75153 232
43.77164 232
43.79175 258
43.81187 250
43.83198 249
43.85209 260
43.87221 271
43.89232 247
43.91244 253
43.93255 209
43.95266 241
43.97278 263
43.99289 249
44.013 247
44.03312 263
44.05323 230
44.07335 241
44.09346 268
44.11357 279
44.13369 267
44.1538 264
44.17391 236
44.19403 272
44.21414 244
44.23426 256
44.25437 230
44.27448 233
44.2946 250
44.31471 240
44.33482 259
44.35494 220
44.37505 258
44.39516 251
44.41528 215
44.43539 237
44.45551 253
44.47562 260
44.49573 253
44.51585 238
44.53596 284
44.55607 251
44.57619 260
44.5963 250
44.61642 246
44.63653 239
44.65664 244
44.67676 239
44.69687 244
44.71698 265
44.7371 275
44.75721 252
44.77732 258
44.79744 248
44.81755 254
44.83767 264
44.85778 276
44.87789 228
44.89801 256
44.91812 283
44.93823 285
44.95835 250
44.97846 271
44.99858 255
45.01869 262
45.0388 254
45.05892 241
45.07903 278
45.09914 298
45.11926 280
45.13937 275
45.15949 271
45.1796 256
45.19971 290
45.21983 273
45.23994 300
45.26005 302
45.28017 314
45.30028 314
45.32039 296
45.34051 329
45.36062 321
45.38074 372
45.40085 356
45.42096 328
45.44108 338
45.46119 368
45.4813 389
45.50142 365
45.52153 368
45.54165 408
45.56176 463
45.58187 501
45.60199 479
45.6221 542
45.64221 627
45.66233 690
45.68244 760
45.70256 920
45.72267 839
45.74278 844
45.7629 800
45.78301 762
45.80312 670
45.82324 638
45.84335 570
45.86346 506
45.88358 495
45.90369 432
45.92381 394
45.94392 343
45.96403 309
45.98415 317
46.00426 265
46.02437 286
46.04449 286
46.0646 280
46.08472 262
46.10483 292
46.12494 274
46.14506 283
46.16517 267
46.18528 264
46.2054 304
46.22551 289
46.24563 266
46.26574 272
46.28585 233
46.30597 267
46.32608 257
46.34619 277
46.36631 282
46.38642 239
46.40653 276
46.42665 305
46.44676 277
46.46688 256
46.48699 243
46.5071 252
46.52722 262
46.54733 246
46.56744 268
46.58756 235
46.60767 264
46.62779 257
46.6479 246
46.66801 236
46.68813 239
46.70824 254
46.72835 248
46.74847 281
46.76858 276
46.78869 265
46.80881 246
46.82892 264
46.84904 272
46.86915 262
46.88926 253
46.90938 272
46.92949 259
46.9496 278
46.96972 269
46.98983 254
47.00995 267
47.03006 256
47.05017 252
47.07029 294
47.0904 254
47.11051 244
47.13063 301
47.15074 299
47.17086 230
47.19097 264
47.21108 286
47.2312 252
47.25131 257
47.27142 243
47.29154 279
47.31165 274
47.33176 275
47.35188 269
47.37199 251
47.39211 291
47.41222 283
47.43233 266
47.45245 264
47.47256 272
47.49267 304
47.51279 289
47.5329 276
47.55302 270
47.57313 322
47.59324 246
47.61336 256
47.63347 247
47.65358 252
47.6737 251
47.69381 277
47.71393 252
47.73404 254
47.75415 267
47.77427 291
47.79438 304
47.81449 274
47.83461 279
47.85472 274
47.87483 246
47.89495 295
47.91506 275
47.93518 263
47.95529 284
47.9754 274
47.99552 303
48.01563 277
48.03574 303
48.05586 262
48.07597 258
48.09609 256
48.1162 265
48.13631 265
48.15643 262
48.17654 259
48.19665 277
48.21677 245
48.23688 265
48.257 248
48.27711 257
48.29722 231
48.31734 235
48.33745 271
48.35756 233
48.37768 263
48.39779 248
48.4179 242
48.43802 259
48.45813 259
48.47825 263
48.49836 248
48.51847 248
48.53859 282
48.5587 249
48.57881 297
48.59893 250
48.61904 297
48.63916 289
48.65927 245
48.67938 295
48.6995 285
48.71961 282
48.73972 302
48.75984 289
48.77995 287
48.80006 255
48.82018 303
48.84029 277
48.86041 290
48.88052 284
48.90063 292
48.92075 306
48.94086 283
48.96097 268
48.98109 296
49.0012 286
49.02132 260
49.04143 289
49.06154 294
49.08166 271
49.10177 275
49.12188 293
49.142 289
49.16211 313
49.18223 283
49.20234 259
49.22245 298
49.24257 294
49.26268 283
49.28279 290
49.30291 289
49.32302 274
49.34313 313
49.36325 290
49.38336 290
49.40348 302
49.42359 311
49.4437 312
49.46382 323
49.48393 289
49.50404 305
49.52416 290
49.54427 324
49.56439 304
49.5845 323
49.60461 320
49.62473 311
49.64484 325
49.66495 329
49.68507 335
49.70518 358
49.7253 377
49.74541 393
49.76552 420
49.78564 403
49.80575 479
49.82586 473
49.84598 559
49.86609 639
49.8862 717
49.90632 756
49.92643 935
49.94655 1117
49.96666 1257
49.98677 1471
50.00689 1894
50.027 2117
50.04711 2244
50.06723 2268
50.08734 2290
50.10746 2181
50.12757 1843
50.14768 1605
50.1678 1517
50.18791 1320
50.20802 1233
50.22814 1149
50.24825 992
50.26837 787
50.28848 631
50.30859 504
50.32871 434
50.34882 374
50.36893 375
50.38905 389
50.40916 379
50.42927 350
50.44939 399
50.4695 379
50.48962 374
50.50973 382
50.52984 361
50.54996 378
50.57007 371
50.59018 373
50.6103 343
50.63041 361
50.65053 393
50.67064 320
50.69075 318
50.71087 309
50.73098 303
50.75109 323
50.77121 297
50.79132 301
50.81143 298
50.83155 310
50.85166 274
50.87178 294
50.89189 311
50.912 294
50.93212 295
50.95223 274
50.97234 303
50.99246 287
51.01257 276
51.03269 271
51.0528 295
51.07291 268
51.09303 251
51.11314 266
51.13325 288
51.15337 274
51.17348 263
51.1936 275
51.21371 230
51.23382 263
51.25394 238
51.27405 251
51.29416 240
51.31428 237
51.33439 228
51.3545 247
51.37462 233
51.39473 244
51.41485 234
51.43496 246
51.45507 246
51.47519 256
51.4953 255
51.51541 223
51.53553 230
51.55564 213
51.57576 218
51.59587 246
51.61598 227
51.6361 273
51.65621 256
51.67632 228
51.69644 256
51.71655 240
51.73667 237
51.75678 231
51.77689 238
51.79701 229
51.81712 241
51.83723 239
51.85735 231
51.87746 217
51.89757 226
51.91769 235
51.9378 211
51.95792 223
51.97803 253
51.99814 219
52.01826 220
52.03837 258
52.05848 263
52.0786 257
52.09871 248
52.11883 244
52.13894 226
52.15905 270
52.17917 235
52.19928 240
52.21939 237
52.23951 239
52.25962 267
52.27974 238
52.29985 259
52.31996 230
52.34008 221
52.36019 242
52.3803 240
52.40042 261
52.42053 234
52.44064 244
52.46076 236
52.48087 240
52.50099 250
52.5211 235
52.54121 232
52.56133 228
52.58144 253
52.60155 270
52.62167 226
52.64178 211
52.6619 228
52.68201 252
52.70212 261
52.72224 246
52.74235 267
52.76246 235
52.78258 245
52.80269 240
52.8228 257
52.84292 226
52.86303 257
52.88315 221
52.90326 240
52.92337 266
52.94349 248
52.9636 249
52.98371 245
53.00383 250
53.02394 268
53.04406 267
53.06417 280
53.08428 266
53.1044 235
53.12451 270
53.14462 241
53.16474 265
53.18485 280
53.20497 246
53.22508 246
53.24519 270
53.26531 261
53.28542 266
53.30553 264
53.32565 277
53.34576 292
53.36587 304
53.38599 291
53.4061 328
53.42622 298
53.44633 303
53.46644 272
53.48656 279
53.50667 294
53.52678 256
53.5469 327
53.56701 306
53.58713 274
53.60724 274
53.62735 286
53.64747 305
53.66758 274
53.68769 279
53.70781 289
53.72792 264
53.74804 314
53.76815 268
53.78826 314
53.80838 324
53.82849 299
53.8486 322
53.86872 282
53.88883 308
53.90894 300
53.92906 362
53.94917 323
53.96929 338
53.9894 315
54.00951 348
54.02963 340
54.04974 330
54.06985 318
54.08997 335
54.11008 349
54.1302 362
54.15031 306
54.17042 337
54.19054 322
54.21065 349
54.23076 345
54.25088 332
54.27099 345
54.29111 340
54.31122 343
54.33133 359
54.35145 372
54.37156 351
54.39167 320
54.41179 323
54.4319 344
54.45201 360
54.47213 394
54.49224 349
54.51236 383
54.53247 387
54.55258 375
54.5727 408
54.59281 443
54.61292 436
54.63304 463
54.65315 523
54.67327 570
54.69338 613
54.71349 657
54.73361 760
54.75372 789
54.77383 855
54.79395 990
54.81406 943
54.83417 903
54.85429 824
54.8744 786
54.89452 641
54.91463 656
54.93474 683
54.95486 637
54.97497 631
54.99508 563
55.0152 490
55.03531 463
55.05543 429
55.07554 430
55.09565 433
55.11577 443
55.13588 460
55.15599 501
55.17611 567
55.19622 525
55.21634 532
55.23645 588
55.25656 587
55.27668 562
55.29679 557
55.3169 539
55.33702 486
55.35713 465
55.37724 516
55.39736 435
55.41747 449
55.43759 447
55.4577 420
55.47781 388
55.49793 340
55.51804 328
55.53815 336
55.55827 279
55.57838 344
55.5985 300
55.61861 313
55.63872 281
55.65884 296
55.67895 296
55.69906 272
55.71918 288
55.73929 317
55.75941 289
55.77952 270
55.79963 315
55.81975 269
55.83986 280
55.85997 274
55.88009 248
55.9002 305
55.92031 256
55.94043 272
55.96054 251
55.98066 277
56.00077 280
56.02088 266
56.041 253
56.06111 301
56.08122 231
56.10134 285
56.12145 272
56.14157 290
56.16168 258
56.18179 259
56.20191 251
56.22202 271
56.24213 294
56.26225 265
56.28236 272
56.30248 304
56.32259 249
56.3427 309
56.36282 267
56.38293 296
56.40304 269
56.42316 266
56.44327 297
56.46338 236
56.4835 281
56.50361 299
56.52373 278
56.54384 269
56.56395 272
56.58407 272
56.60418 274
56.62429 264
56.64441 297
56.66452 296
56.68464 260
56.70475 262
56.72486 271
56.74498 290
56.76509 262
56.7852 240
56.80532 257
56.82543 255
56.84554 276
56.86566 271
56.88577 292
56.90589 251
56.926 257
56.94611 263
56.96623 270
56.98634 270
57.00645 285
57.02657 290
57.04668 278
57.0668 285
57.08691 291
57.10702 214
57.12714 295
57.14725 269
57.16736 296
57.18748 285
57.20759 308
57.22771 270
57.24782 297
57.26793 250
57.28805 256
57.30816 281
57.32827 292
57.34839 262
57.3685 273
57.38861 260
57.40873 258
57.42884 238
57.44896 263
57.46907 260
57.48918 245
57.5093 272
57.52941 252
57.54952 267
57.56964 257
57.58975 228
57.60987 239
57.62998 243
57.65009 264
57.67021 269
57.69032 244
57.71043 282
57.73055 250
57.75066 245
57.77078 254
57.79089 227
57.811 235
57.83112 254
57.85123 266
57.87134 264
57.89146 234
57.91157 251
57.93168 259
57.9518 225
57.97191 277
57.99203 261
58.01214 255
58.03225 265
58.05237 266
58.07248 250
58.09259 265
58.11271 272
58.13282 273
58.15294 246
58.17305 244
58.19316 282
58.21328 265
58.23339 257
58.2535 257
58.27362 243
58.29373 245
58.31385 260
58.33396 242
58.35407 233
58.37419 251
58.3943 262
58.41441 243
58.43453 254
58.45464 245
58.47475 268
58.49487 248
58.51498 265
58.5351 255
58.55521 254
58.57532 255
58.59544 235
58.61555 244
58.63566 251
58.65578 250
58.67589 247
58.69601 254
58.71612 254
58.73623 244
58.75635 240
58.77646 252
58.79657 226
58.81669 239
58.8368 249
58.85691 229
58.87703 236
58.89714 257
58.91726 251
58.93737 253
58.95748 241
58.9776 227
58.99771 234
59.01782 279
59.03794 265
59.05805 248
59.07817 240
59.09828 247
59.11839 274
59.13851 243
59.15862 260
59.17873 251
59.19885 274
59.21896 260
59.23908 249
59.25919 271
59.2793 246
59.29942 291
59.31953 263
59.33964 274
59.35976 299
59.37987 273
59.39998 287
59.4201 293
59.44021 292
59.46033 314
59.48044 309
59.50055 302
59.52067 338
59.54078 344
59.56089 354
59.58101 382
59.60112 363
59.62124 429
59.64135 445
59.66146 470
59.68158 531
59.70169 553
59.7218 657
59.74192 743
59.76203 816
59.78215 975
59.80226 1101
59.82237 1234
59.84249 1432
59.8626 1568
59.88271 1637
59.90283 1607
59.92294 1420
59.94305 1276
59.96317 1102
59.98328 909
60.0034 957
60.02351 930
60.04362 913
60.06374 891
60.08385 783
60.10396 739
60.12408 575
60.14419 458
60.16431 405
60.18442 354
60.20453 308
60.22465 313
60.24476 299
60.26487 308
60.28499 313
60.3051 292
60.32522 288
60.34533 277
60.36544 297
60.38556 268
60.40567 285
60.42578 266
60.4459 245
60.46601 245
60.48612 240
60.50624 264
60.52635 235
60.54647 248
60.56658 285
60.58669 246
60.60681 244
60.62692 238
60.64703 251
60.66715 242
60.68726 268
60.70738 270
60.72749 275
60.7476 256
60.76772 276
60.78783 236
60.80794 264
60.82806 237
60.84817 238
60.86828 244
60.8884 233
60.90851 288
60.92863 259
60.94874 243
60.96885 228
60.98897 255
61.00908 231
61.02919 250
61.04931 245
61.06942 254
61.08954 238
61.10965 251
61.12976 242
61.14988 254
61.16999 252
61.1901 272
61.21022 245
61.23033 229
61.25045 263
61.27056 246
61.29067 257
61.31079 251
61.3309 238
61.35101 275
61.37113 273
61.39124 250
61.41135 251
61.43147 250
61.45158 233
61.4717 260
61.49181 240
61.51192 290
61.53204 235
61.55215 239
61.57226 243
61.59238 250
61.61249 276
61.63261 287
61.65272 260
61.67283 283
61.69295 279
61.71306 281
61.73317 289
61.75329 262
61.7734 266
61.79352 291
61.81363 291
61.83374 281
61.85386 298
61.87397 335
61.89408 318
61.9142 299
61.93431 325
61.95442 317
61.97454 350
61.99465 315
62.01477 363
62.03488 361
62.05499 344
62.07511 381
62.09522 446
62.11533 402
62.13545 417
62.15556 432
62.17568 436
62.19579 440
62.2159 425
62.23602 451
62.25613 470
62.27624 433
62.29636 428
62.31647 430
62.33659 396
62.3567 387
62.37681 391
62.39693 413
62.41704 382
62.43715 409
62.45727 339
62.47738 338
62.49749 311
62.51761 319
62.53772 341
62.55784 313
62.57795 308
62.59806 305
62.61818 282
62.63829 287
62.6584 292
62.67852 300
62.69863 290
62.71875 282
62.73886 287
62.75897 271
62.77909 270
62.7992 292
62.81931 275
62.83943 285
62.85954 277
62.87965 259
62.89977 258
62.91988 273
62.94 274
62.96011 285
62.98022 267
63.00034 299
63.02045 255
63.04056 297
63.06068 282
63.08079 266
63.10091 260
63.12102 275
63.14113 264
63.16125 275
63.18136 260
63.20147 249
63.22159 282
63.2417 299
63.26182 303
63.28193 272
63.30204 270
63.32216 276
63.34227 254
63.36238 260
63.3825 265
63.40261 273
63.42272 273
63.44284 255
63.46295 266
63.48307 249
63.50318 262
63.52329 297
63.54341 288
63.56352 302
63.58363 290
63.60375 285
63.62386 321
63.64398 301
63.66409 310
63.6842 286
63.70432 315
63.72443 300
63.74454 323
63.76466 336
63.78477 364
63.80489 381
63.825 403
63.84511 408
63.86523 423
63.88534 454
63.90545 475
63.92557 502
63.94568 480
63.96579 518
63.98591 493
64.00602 503
64.02614 453
64.04625 443
64.06636 411
64.08648 391
64.10659 403
64.1267 398
64.14682 408
64.16693 406
64.18705 337
64.20716 360
64.22727 342
64.24739 309
64.2675 290
64.28761 259
64.30773 265
64.32784 274
64.34796 271
64.36807 247
64.38818 266
64.4083 279
64.42841 240
64.44852 273
64.46864 252
64.48875 219
64.50886 247
64.52898 264
64.54909 270
64.56921 251
64.58932 197
64.60943 234
64.62955 252
64.64966 221
64.66977 246
64.68989 225
64.71 250
64.73012 267
64.75023 253
64.77034 235
64.79046 240
64.81057 246
64.83068 234
64.8508 279
64.87091 252
64.89102 245
64.91114 247
64.93125 242
64.95137 218
64.97148 244
64.99159 218
65.01171 227
65.03182 242
65.05193 233
65.07205 236
65.09216 252
65.11228 261
65.13239 234
65.1525 242
65.17262 241
65.19273 270
65.21284 233
65.23296 219
65.25307 253
65.27319 255
65.2933 237
65.31341 254
65.33353 217
65.35364 224
65.37375 230
65.39387 242
65.41398 237
65.43409 227
65.45421 234
65.47432 258
65.49444 236
65.51455 267
65.53466 247
65.55478 247
65.57489 290
65.595 272
65.61512 279
65.63523 271
65.65535 297
65.67546 291
65.69557 305
65.71569 313
65.7358 316
65.75591 305
65.77603 276
65.79614 270
65.81626 254
65.83637 283
65.85648 262
65.8766 253
65.89671 251
65.91682 249
65.93694 270
65.95705 263
65.97716 220
65.99728 254
66.01739 241
66.03751 231
66.05762 247
66.07773 240
66.09785 240
66.11796 223
66.13807 262
66.15819 228
66.1783 238
66.19842 243
66.21853 263
66.23864 235
66.25876 245
66.27887 233
66.29898 248
66.3191 236
66.33921 240
66.35933 252
66.37944 262
66.39955 251
66.41967 250
66.43978 228
66.45989 248
66.48001 252
66.50012 269
66.52023 269
66.54035 211
66.56046 247
66.58058 256
66.60069 258
66.6208 270
66.64092 271
66.66103 243
66.68114 246
66.70126 258
66.72137 230
66.74149 254
66.7616 239
66.78171 274
66.80183 245
66.82194 258
66.84205 239
66.86217 274
66.88228 250
66.90239 237
66.92251 261
66.94262 246
66.96274 258
66.98285 244
67.00296 264
67.02308 263
67.04319 265
67.0633 263
67.08342 289
67.10353 281
67.12365 274
67.14376 270
67.16387 285
67.18399 294
67.2041 287
67.22421 284
67.24433 276
67.26444 316
67.28456 313
67.30467 312
67.32478 313
67.3449 330
67.36501 336
67.38512 321
67.40524 356
67.42535 345
67.44546 435
67.46558 442
67.48569 443
67.50581 465
67.52592 581
67.54603 611
67.56615 711
67.58626 764
67.60637 822
67.62649 949
67.6466 1002
67.66672 1058
67.68683 1020
67.70694 1004
67.72706 867
67.74717 812
67.76728 700
67.7874 732
67.80751 760
67.82763 815
67.84774 811
67.86785 860
67.88797 864
67.90808 841
67.92819 878
67.94831 859
67.96842 929
67.98853 1056
68.00865 1094
68.02876 1257
68.04888 1290
68.06899 1408
68.0891 1374
68.10922 1301
68.12933 1232
68.14944 1185
68.16956 1086
68.18967 1150
68.20979 1236
68.2299 1261
68.25001 1289
68.27013 1113
68.29024 1104
68.31035 966
68.33047 818
68.35058 704
68.3707 634
68.39081 590
68.41092 601
68.43104 547
68.45115 583
68.47126 533
68.49138 478
68.51149 381
68.5316 336
68.55172 332
68.57183 298
68.59195 293
68.61206 286
68.63217 267
68.65229 277
68.6724 276
68.69251 282
68.71263 254
68.73274 266
68.75286 260
68.77297 279
68.79308 257
68.8132 231
68.83331 260
68.85342 269
68.87354 219
68.89365 259
68.91376 287
68.93388 267
68.95399 272
68.97411 252
68.99422 287
69.01433 244
69.03445 249
69.05456 250
69.07467 269
69.09479 240
69.1149 241
69.13502 231
69.15513 251
69.17524 247
69.19536 230
69.21547 230
69.23558 247
69.2557 233
69.27581 223
69.29593 233
69.31604 240
69.33615 219
69.35627 257
69.37638 228
69.39649 266
69.41661 258
69.43672 219
69.45683 215
69.47695 220
69.49706 225
69.51718 238
69.53729 204
69.5574 229
69.57752 257
69.59763 233
69.61774 210
69.63786 251
69.65797 260
69.67809 254
69.6982 230
69.71831 235
69.73843 243
69.75854 250
69.77865 244
69.79877 232
69.81888 220
69.839 228
69.85911 248
69.87922 229
69.89934 229
69.91945 264
69.93956 255
69.95968 242
69.97979 253
69.9999 227
70.02002 228
70.04013 233
70.06025 266
70.08036 251
70.10047 264
70.12059 221
70.1407 231
70.16081 228
70.18093 262
70.20104 236
70.22116 245
70.24127 244
70.26138 233
70.2815 236
70.30161 234
70.32172 264
70.34184 273
70.36195 235
70.38207 234
70.40218 232
70.42229 253
70.44241 239
70.46252 241
70.48263 255
70.50275 272
70.52286 210
70.54297 237
70.56309 235
70.5832 259
70.60332 260
70.62343 224
70.64354 218
70.66366 229
70.68377 244
70.70388 229
70.724 237
70.74411 242
70.76423 233
70.78434 276
70.80445 245
70.82457 216
70.84468 233
70.86479 231
70.88491 228
70.90502 220
70.92513 235
70.94525 230
70.96536 237
70.98548 245
71.00559 228
71.0257 196
71.04582 243
71.06593 218
71.08604 222
71.10616 234
71.12627 223
71.14639 241
71.1665 229
71.18661 246
71.20673 247
71.22684 254
71.24695 197
71.26707 225
71.28718 237
71.3073 228
71.32741 221
71.34752 246
71.36764 230
71.38775 232
71.40786 244
71.42798 247
71.44809 248
71.4682 239
71.48832 230
71.50843 244
71.52855 233
71.54866 223
71.56877 222
71.58889 226
71.609 235
71.62911 251
71.64923 243
71.66934 254
71.68946 241
71.70957 217
71.72968 253
71.7498 220
71.76991 265
71.79002 228
71.81014 228
71.83025 251
71.85037 237
71.87048 258
71.89059 249
71.91071 259
71.93082 226
71.95093 231
71.97105 251
71.99116 267
72.01127 271
72.03139 231
72.0515 236
72.07162 252
72.09173 260
72.11184 248
72.13196 231
72.15207 242
72.17218 233
72.1923 249
72.21241 238
72.23253 271
72.25264 224
72.27275 217
72.29287 245
72.31298 256
72.33309 281
72.35321 238
72.37332 266
72.39344 243
72.41355 244
72.43366 225
72.45378 264
72.47389 261
72.494 235
72.51412 244
72.53423 252
72.55434 231
72.57446 271
72.59457 230
72.61469 226
72.6348 255
72.65491 246
72.67503 233
72.69514 221
72.71525 246
72.73537 240
72.75548 231
72.7756 228
72.79571 249
72.81582 227
72.83594 214
72.85605 215
72.87616 234
72.89628 249
72.91639 256
72.9365 268
72.95662 247
72.97673 218
72.99685 277
73.01696 249
73.03707 252
73.05719 275
73.0773 278
73.09741 306
73.11753 254
73.13764 270
73.15776 270
73.17787 339
73.19798 300
73.2181 324
73.23821 341
73.25832 369
73.27844 375
73.29855 444
73.31867 475
73.33878 513
73.35889 512
73.37901 531
73.39912 535
73.41923 556
73.43935 514
73.45946 410
73.47957 411
73.49969 410
73.5198 396
73.53992 382
73.56003 376
73.58014 431
73.60026 428
73.62037 361
73.64048 374
73.6606 333
73.68071 352
73.70083 313
73.72094 294
73.74105 273
73.76117 247
73.78128 249
73.80139 267
73.82151 253
73.84162 244
73.86174 252
73.88185 253
73.90196 279
73.92208 246
73.94219 282
73.9623 245
73.98242 243
74.00253 273
74.02264 220
74.04276 252
74.06287 220
74.08299 208
74.1031 219
74.12321 252
74.14333 242
74.16344 234
74.18355 225
74.20367 233
74.22378 222
74.2439 240
74.26401 226
74.28412 230
74.30424 233
74.32435 224
74.34446 262
74.36458 234
74.38469 222
74.40481 221
74.42492 195
74.44503 252
74.46515 234
74.48526 253
74.50537 234
74.52549 202
74.5456 203
74.56571 254
74.58583 246
74.60594 260
74.62606 232
74.64617 220
74.66628 241
74.6864 250
74.70651 244
74.72662 236
74.74674 247
74.76685 242
74.78697 247
74.80708 221
74.82719 258
74.84731 248
74.86742 226
74.88753 245
74.90765 284
74.92776 232
74.94787 244
74.96799 273
74.9881 235
75.00822 251
