3.00117 19980
3.02128 19395
3.0414 18793
3.06151 18683
3.08162 17814
3.10174 17419
3.12185 17085
3.14197 16359
3.16208 16115
3.18219 15504
3.20231 15120
3.22242 14530
3.24253 14095
3.26265 13970
3.28276 13215
3.30288 12840
3.32299 12657
3.3431 12199
3.36322 12074
3.38333 11119
3.40344 11116
3.42356 10700
3.44367 10084
3.46379 9875
3.4839 9635
3.50401 9251
3.52413 9117
3.54424 8609
3.56435 8453
3.58447 7870
3.60458 7674
3.62469 7477
3.64481 7125
3.66492 6981
3.68504 6376
3.70515 6508
3.72526 6135
3.74538 5809
3.76549 5703
3.7856 5269
3.80572 5283
3.82583 5265
3.84595 4738
3.86606 4689
3.88617 4538
3.90629 4307
3.9264 4069
3.94651 3923
3.96663 3896
3.98674 3547
4.00686 3492
4.02697 3385
4.04708 3230
4.0672 3268
4.08731 2881
4.10742 2778
4.12754 2764
4.14765 2686
4.16776 2643
4.18788 2409
4.20799 2422
4.22811 2276
4.24822 2148
4.26833 2262
4.28845 1990
4.30856 2007
4.32867 1977
4.34879 1881
4.3689 1857
4.38902 1752
4.40913 1780
4.42924 1758
4.44936 1693
4.46947 1710
4.48958 1525
4.5097 1565
4.52981 1622
4.54992 1583
4.57004 1457
4.59015 1339
4.61027 1393
4.63038 1380
4.65049 1374
4.67061 1295
4.69072 1349
4.71083 1310
4.73095 1237
4.75106 1198
4.77118 1272
4.79129 1185
4.8114 1113
4.83152 1158
4.85163 1152
4.87174 1035
4.89186 1035
4.91197 1092
4.93209 1057
4.9522 1037
4.97231 1002
4.99243 1031
5.01254 928
5.03265 974
5.05277 947
5.07288 906
5.09299 897
5.11311 878
5.13322 876
5.15334 858
5.17345 826
5.19356 854
5.21368 820
5.23379 791
5.2539 792
5.27402 740
5.29413 735
5.31425 736
5.33436 743
5.35447 738
5.37459 694
5.3947 697
5.41481 734
5.43493 665
5.45504 648
5.47516 709
5.49527 648
5.51538 714
5.5355 590
5.55561 620
5.57572 622
5.59584 630
5.61595 637
5.63606 590
5.65618 621
5.67629 637
5.69641 566
5.71652 629
5.73663 558
5.75675 558
5.77686 566
5.79697 484
5.81709 526
5.8372 581
5.85732 535
5.87743 571
5.89754 594
5.91766 506
5.93777 545
5.95788 564
5.978 512
5.99811 470
6.01823 545
6.03834 551
6.05845 546
6.07857 505
6.09868 517
6.11879 508
6.13891 492
6.15902 479
6.17913 487
6.19925 543
6.21936 521
6.23948 513
6.25959 503
6.2797 494
6.29982 498
6.31993 453
6.34004 489
6.36016 469
6.38027 455
6.40039 488
6.4205 497
6.44061 465
6.46073 452
6.48084 471
6.50095 487
6.52107 465
6.54118 476
6.56129 459
6.58141 464
6.60152 473
6.62164 484
6.64175 481
6.66186 488
6.68198 501
6.70209 495
6.7222 495
6.74232 487
6.76243 510
6.78255 481
6.80266 503
6.82277 472
6.84289 481
6.863 473
6.88311 476
6.90323 472
6.92334 467
6.94346 478
6.96357 476
6.98368 452
7.0038 446
7.02391 450
7.04402 445
7.06414 456
7.08425 435
7.10436 421
7.12448 466
7.14459 454
7.16471 450
7.18482 459
7.20493 481
7.22505 461
7.24516 461
7.26527 467
7.28539 448
7.3055 446
7.32562 463
7.34573 426
7.36584 460
7.38596 437
7.40607 430
7.42618 434
7.4463 451
7.46641 456
7.48653 396
7.50664 403
7.52675 483
7.54687 470
7.56698 458
7.58709 487
7.60721 442
7.62732 421
7.64743 456
7.66755 480
7.68766 451
7.70778 429
7.72789 472
7.748 421
7.76812 474
7.78823 477
7.80834 491
7.82846 468
7.84857 430
7.86869 455
7.8888 417
7.90891 436
7.92903 417
7.94914 446
7.96925 482
7.98937 455
8.00948 482
8.0296 463
8.04971 424
8.06982 447
8.08994 413
8.11005 453
8.13016 461
8.15028 445
8.17039 467
8.1905 450
8.21062 442
8.23073 423
8.25085 432
8.27096 453
8.29107 468
8.31119 477
8.3313 478
8.35141 443
8.37153 474
8.39164 447
8.41176 400
8.43187 451
8.45198 431
8.4721 421
8.49221 475
8.51232 448
8.53244 438
8.55255 429
8.57266 460
8.59278 485
8.61289 495
8.63301 422
8.65312 441
8.67323 473
8.69335 452
8.71346 498
8.73357 420
8.75369 438
8.7738 493
8.79392 482
8.81403 444
8.83414 445
8.85426 449
8.87437 482
8.89448 445
8.9146 393
8.93471 470
8.95483 508
8.97494 456
8.99505 477
9.01517 457
9.03528 457
9.05539 464
9.07551 443
9.09562 476
9.11573 391
9.13585 454
9.15596 442
9.17608 417
9.19619 436
9.2163 460
9.23642 452
9.25653 445
9.27664 436
9.29676 424
9.31687 421
9.33699 462
9.3571 454
9.37721 453
9.39733 425
9.41744 465
9.43755 467
9.45767 464
9.47778 464
9.4979 433
9.51801 413
9.53812 461
9.55824 431
9.57835 453
9.59846 461
9.61858 421
9.63869 452
9.6588 487
9.67892 488
9.69903 452
9.71915 458
9.73926 424
9.75937 444
9.77949 407
9.7996 436
9.81971 437
9.83983 437
9.85994 477
9.88006 479
9.90017 390
9.92028 429
9.9404 451
9.96051 443
9.98062 447
10.00074 407
10.02085 475
10.04097 457
10.06108 470
10.08119 450
10.10131 452
10.12142 442
10.14153 487
10.16165 421
10.18176 449
10.20187 490
10.22199 464
10.2421 461
10.26222 471
10.28233 462
10.30244 430
10.32256 458
10.34267 480
10.36278 464
10.3829 463
10.40301 475
10.42313 487
10.44324 442
10.46335 478
10.48347 485
10.50358 408
10.52369 479
10.54381 423
10.56392 477
10.58403 431
10.60415 409
10.62426 425
10.64438 421
10.66449 438
10.6846 442
10.70472 479
10.72483 457
10.74494 505
10.76506 468
10.78517 441
10.80529 443
10.8254 464
10.84551 431
10.86563 455
10.88574 456
10.90585 463
10.92597 454
10.94608 489
10.9662 473
10.98631 440
11.00642 432
11.02654 424
11.04665 433
11.06676 413
11.08688 458
11.10699 424
11.1271 454
11.14722 461
11.16733 459
11.18745 457
11.20756 470
11.22767 475
11.24779 511
11.2679 454
11.28801 508
11.30813 466
11.32824 482
11.34836 461
11.36847 440
11.38858 463
11.4087 448
11.42881 428
11.44892 457
11.46904 490
11.48915 475
11.50927 494
11.52938 457
11.54949 477
11.56961 460
11.58972 504
11.60983 496
11.62995 450
11.65006 501
11.67017 536
11.69029 542
11.7104 547
11.73052 550
11.75063 509
11.77074 546
11.79086 539
11.81097 520
11.83108 567
11.8512 573
11.87131 566
11.89143 548
11.91154 583
11.93165 568
11.95177 576
11.97188 590
11.99199 636
12.01211 649
12.03222 668
12.05234 661
12.07245 758
12.09256 757
12.11268 757
12.13279 792
12.1529 827
12.17302 841
12.19313 872
12.21324 878
12.23336 962
12.25347 990
12.27359 1022
12.2937 988
12.31381 927
12.33393 912
12.35404 969
12.37415 868
12.39427 882
12.41438 859
12.4345 793
12.45461 806
12.47472 740
12.49484 712
12.51495 732
12.53506 671
12.55518 662
12.57529 616
12.5954 623
12.61552 625
12.63563 549
12.65575 575
12.67586 506
12.69597 525
12.71609 554
12.7362 532
12.75631 498
12.77643 475
12.79654 502
12.81666 483
12.83677 514
12.85688 445
12.877 467
12.89711 466
12.91722 472
12.93734 447
12.95745 463
12.97757 474
12.99768 437
13.01779 483
13.03791 473
13.05802 430
13.07813 434
13.09825 420
13.11836 422
13.13847 450
13.15859 482
13.1787 444
13.19882 459
13.21893 426
13.23904 420
13.25916 456
13.27927 399
13.29938 437
13.3195 406
13.33961 430
13.35973 441
13.37984 419
13.39995 427
13.42007 419
13.44018 399
13.46029 394
13.48041 399
13.50052 417
13.52064 411
13.54075 403
13.56086 440
13.58098 422
13.60109 449
13.6212 461
13.64132 442
13.66143 421
13.68154 397
13.70166 400
13.72177 456
13.74189 381
13.762 421
13.78211 417
13.80223 468
13.82234 402
13.84245 456
13.86257 404
13.88268 412
13.9028 416
13.92291 359
13.94302 412
13.96314 404
13.98325 451
14.00336 379
14.02348 439
14.04359 444
14.06371 420
14.08382 394
14.10393 433
14.12405 439
14.14416 439
14.16427 416
14.18439 400
14.2045 414
14.22461 414
14.24473 397
14.26484 408
14.28496 403
14.30507 409
14.32518 401
14.3453 416
14.36541 401
14.38552 428
14.40564 419
14.42575 432
14.44587 422
14.46598 387
14.48609 395
14.50621 413
14.52632 430
14.54643 403
14.56655 393
14.58666 382
14.60677 424
14.62689 380
14.647 481
14.66712 417
14.68723 412
14.70734 392
14.72746 378
14.74757 402
14.76768 403
14.7878 402
14.80791 423
14.82803 372
14.84814 420
14.86825 365
14.88837 367
14.90848 416
14.92859 396
14.94871 422
14.96882 395
14.98894 417
15.00905 407
15.02916 433
15.04928 414
15.06939 407
15.0895 378
15.10962 393
15.12973 409
15.14984 421
15.16996 393
15.19007 445
15.21019 410
15.2303 409
15.25041 424
15.27053 420
15.29064 408
15.31075 432
15.33087 398
15.35098 378
15.3711 425
15.39121 408
15.41132 384
15.43144 399
15.45155 420
15.47166 422
15.49178 363
15.51189 416
15.53201 409
15.55212 417
15.57223 433
15.59235 406
15.61246 404
15.63257 422
15.65269 384
15.6728 376
15.69291 340
15.71303 398
15.73314 427
15.75326 382
15.77337 405
15.79348 402
15.8136 351
15.83371 396
15.85382 356
15.87394 387
15.89405 368
15.91417 406
15.93428 346
15.95439 419
15.97451 388
15.99462 401
16.01473 383
16.03485 396
16.05496 405
16.07508 392
16.09519 387
16.1153 406
16.13542 393
16.15553 399
16.17564 378
16.19576 410
16.21587 400
16.23598 397
16.2561 415
16.27621 412
16.29633 377
16.31644 374
16.33655 436
16.35667 386
16.37678 387
16.39689 384
16.41701 398
16.43712 375
16.45724 394
16.47735 388
16.49746 385
16.51758 410
16.53769 411
16.5578 365
16.57792 372
16.59803 425
16.61814 414
16.63826 399
16.65837 394
16.67849 387
16.6986 386
16.71871 380
16.73883 417
16.75894 416
16.77905 427
16.79917 371
16.81928 409
16.8394 463
16.85951 433
16.87962 366
16.89974 402
16.91985 391
16.93996 398
16.96008 387
16.98019 373
17.00031 390
17.02042 418
17.04053 420
17.06065 386
17.08076 396
17.10087 392
17.12099 408
17.1411 427
17.16121 452
17.18133 366
17.20144 391
17.22156 404
17.24167 403
17.26178 411
17.2819 409
17.30201 398
17.32212 407
17.34224 383
17.36235 355
17.38247 438
17.40258 409
17.42269 438
17.44281 436
17.46292 415
17.48303 413
17.50315 384
17.52326 421
17.54338 419
17.56349 430
17.5836 400
17.60372 377
17.62383 434
17.64394 409
17.66406 360
17.68417 394
17.70428 393
17.7244 412
17.74451 387
17.76463 420
17.78474 399
17.80485 418
17.82497 375
17.84508 389
17.86519 423
17.88531 384
17.90542 421
17.92554 372
17.94565 414
17.96576 392
17.98588 389
18.00599 401
18.0261 405
18.04622 395
18.06633 429
18.08645 416
18.10656 414
18.12667 454
18.14679 399
18.1669 424
18.18701 395
18.20713 410
18.22724 429
18.24735 373
18.26747 422
18.28758 442
18.3077 453
18.32781 391
18.34792 447
18.36804 394
18.38815 359
18.40826 443
18.42838 393
18.44849 400
18.46861 432
18.48872 404
18.50883 378
18.52895 432
18.54906 383
18.56917 413
18.58929 385
18.6094 400
18.62951 411
18.64963 385
18.66974 389
18.68986 398
18.70997 373
18.73008 415
18.7502 403
18.77031 428
18.79042 450
18.81054 388
18.83065 408
18.85077 386
18.87088 442
18.89099 387
18.91111 403
18.93122 416
18.95133 449
18.97145 411
18.99156 417
19.01168 388
19.03179 406
19.0519 407
19.07202 415
19.09213 408
19.11224 431
19.13236 406
19.15247 421
19.17258 431
19.1927 446
19.21281 430
19.23293 402
19.25304 427
19.27315 437
19.29327 404
19.31338 447
19.33349 401
19.35361 505
19.37372 455
19.39384 425
19.41395 352
19.43406 430
19.45418 459
19.47429 397
19.4944 449
19.51452 452
19.53463 480
19.55475 499
19.57486 486
19.59497 476
19.61509 478
19.6352 472
19.65531 551
19.67543 536
19.69554 575
19.71565 614
19.73577 656
19.75588 691
19.776 729
19.79611 735
19.81622 793
19.83634 766
19.85645 857
19.87656 844
19.89668 826
19.91679 874
19.93691 866
19.95702 837
19.97713 808
19.99725 777
20.01736 810
20.03747 773
20.05759 770
20.0777 741
20.09782 809
20.11793 737
20.13804 797
20.15816 717
20.17827 752
20.19838 764
20.2185 790
20.23861 720
20.25872 735
20.27884 757
20.29895 773
20.31907 764
20.33918 809
20.35929 798
20.37941 784
20.39952 779
20.41963 769
20.43975 750
20.45986 747
20.47998 800
20.50009 795
20.5202 787
20.54032 822
20.56043 798
20.58054 846
20.60066 863
20.62077 894
20.64088 978
20.661 986
20.68111 1081
20.70123 1187
20.72134 1553
20.74145 1838
20.76157 2309
20.78168 2672
20.80179 2992
20.82191 3301
20.84202 2988
20.86214 2674
20.88225 2222
20.90236 1695
20.92248 1406
20.94259 1102
20.9627 902
20.98282 886
21.00293 849
21.02305 791
21.04316 751
21.06327 772
21.08339 772
21.1035 727
21.12361 738
21.14373 654
21.16384 705
21.18395 760
21.20407 679
21.22418 752
21.2443 710
21.26441 644
21.28452 717
21.30464 701
21.32475 648
21.34486 665
21.36498 718
21.38509 635
21.40521 633
21.42532 692
21.44543 627
21.46555 629
21.48566 669
21.50577 614
21.52589 644
21.546 620
21.56612 563
21.58623 617
21.60634 587
21.62646 638
21.64657 618
21.66668 623
21.6868 555
21.70691 587
21.72702 596
21.74714 605
21.76725 601
21.78737 570
21.80748 588
21.82759 597
21.84771 567
21.86782 589
21.88793 597
21.90805 569
21.92816 557
21.94828 600
21.96839 616
21.9885 597
22.00862 574
22.02873 574
22.04884 581
22.06896 598
22.08907 570
22.10919 550
22.1293 541
22.14941 550
22.16953 561
22.18964 588
22.20975 568
22.22987 578
22.24998 538
22.27009 499
22.29021 573
22.31032 546
22.33044 554
22.35055 529
22.37066 528
22.39078 528
22.41089 522
22.431 583
22.45112 588
22.47123 555
22.49135 539
22.51146 548
22.53157 543
22.55169 532
22.5718 520
22.59191 555
22.61203 497
22.63214 512
22.65225 562
22.67237 575
22.69248 513
22.7126 555
22.73271 563
22.75282 505
22.77294 529
22.79305 529
22.81316 499
22.83328 543
22.85339 525
22.87351 512
22.89362 512
22.91373 529
22.93385 540
22.95396 573
22.97407 564
22.99419 502
23.0143 552
23.03442 489
23.05453 541
23.07464 497
23.09476 549
23.11487 505
23.13498 514
23.1551 529
23.17521 508
23.19532 513
23.21544 501
23.23555 537
23.25567 530
23.27578 500
23.29589 522
23.31601 504
23.33612 486
23.35623 540
23.37635 512
23.39646 529
23.41658 512
23.43669 537
23.4568 544
23.47692 585
23.49703 555
23.51714 537
23.53726 538
23.55737 521
23.57749 508
23.5976 542
23.61771 563
23.63783 544
23.65794 548
23.67805 555
23.69817 620
23.71828 612
23.73839 580
23.75851 620
23.77862 644
23.79874 653
23.81885 656
23.83896 626
23.85908 620
23.87919 611
23.8993 639
23.91942 636
23.93953 614
23.95965 627
23.97976 655
23.99987 656
24.01999 645
24.0401 629
24.06021 641
24.08033 683
24.10044 641
24.12056 659
24.14067 621
24.16078 636
24.1809 629
24.20101 636
24.22112 634
24.24124 597
24.26135 658
24.28146 603
24.30158 639
24.32169 626
24.34181 621
24.36192 553
24.38203 635
24.40215 608
24.42226 620
24.44237 613
24.46249 646
24.4826 573
24.50272 646
24.52283 647
24.54294 653
24.56306 680
24.58317 721
24.60328 749
24.6234 765
24.64351 681
24.66362 753
24.68374 765
24.70385 824
24.72397 735
24.74408 847
24.76419 901
24.78431 894
24.80442 884
24.82453 896
24.84465 849
24.86476 858
24.88488 843
24.90499 840
24.9251 887
24.94522 813
24.96533 748
24.98544 775
25.00556 685
25.02567 719
25.04579 747
25.0659 748
25.08601 678
25.10613 648
25.12624 617
25.14635 637
25.16647 648
25.18658 623
25.20669 606
25.22681 610
25.24692 590
25.26704 632
25.28715 573
25.30726 555
25.32738 574
25.34749 570
25.3676 561
25.38772 586
25.40783 508
25.42795 582
25.44806 549
25.46817 547
25.48829 546
25.5084 546
25.52851 508
25.54863 560
25.56874 529
25.58886 543
25.60897 549
25.62908 560
25.6492 558
25.66931 568
25.68942 562
25.70954 567
25.72965 597
25.74976 501
25.76988 546
25.78999 630
25.81011 592
25.83022 571
25.85033 535
25.87045 570
25.89056 602
25.91067 582
25.93079 607
25.9509 625
25.97102 621
25.99113 585
26.01124 611
26.03136 621
26.05147 626
26.07158 639
26.0917 631
26.11181 712
26.13193 625
26.15204 662
26.17215 708
26.19227 746
26.21238 768
26.23249 775
26.25261 876
26.27272 854
26.29283 869
26.31295 962
26.33306 946
26.35318 1081
26.37329 1194
26.3934 1447
26.41352 1657
26.43363 2059
26.45374 2765
26.47386 3577
26.49397 4851
26.51409 6238
26.5342 8307
26.55431 10161
26.57443 11632
26.59454 12293
26.61465 11886
26.63477 10434
26.65488 8540
26.67499 6590
26.69511 4938
26.71522 3318
26.73534 2301
26.75545 1622
26.77556 1203
26.79568 1066
26.81579 1032
26.8359 963
26.85602 878
26.87613 857
26.89625 805
26.91636 778
26.93647 717
26.95659 701
26.9767 767
26.99681 672
27.01693 660
27.03704 640
27.05716 671
27.07727 602
27.09738 564
27.1175 592
27.13761 543
27.15772 568
27.17784 533
27.19795 573
27.21806 534
27.23818 572
27.25829 560
27.27841 539
27.29852 530
27.31863 551
27.33875 532
27.35886 524
27.37897 536
27.39909 544
27.4192 527
27.43932 573
27.45943 550
27.47954 506
27.49966 527
27.51977 515
27.53988 542
27.56 476
27.58011 522
27.60023 541
27.62034 497
27.64045 480
27.66057 523
27.68068 478
27.70079 526
27.72091 532
27.74102 522
27.76113 496
27.78125 491
27.80136 482
27.82148 477
27.84159 481
27.8617 484
27.88182 480
27.90193 483
27.92204 478
27.94216 499
27.96227 507
27.98239 472
28.0025 447
28.02261 473
28.04273 484
28.06284 476
28.08295 489
28.10307 499
28.12318 449
28.1433 484
28.16341 417
28.18352 486
28.20364 501
28.22375 455
28.24386 443
28.26398 471
28.28409 509
28.3042 455
28.32432 502
28.34443 471
28.36455 478
28.38466 470
28.40477 492
28.42489 469
28.445 447
28.46511 453
28.48523 494
28.50534 439
28.52546 500
28.54557 485
28.56568 477
28.5858 459
28.60591 460
28.62602 457
28.64614 443
28.66625 436
28.68636 456
28.70648 420
28.72659 458
28.74671 436
28.76682 446
28.78693 434
28.80705 463
28.82716 447
28.84727 447
28.86739 445
28.8875 403
28.90762 434
28.92773 445
28.94784 416
28.96796 450
28.98807 467
29.00818 433
29.0283 450
29.04841 445
29.06853 463
29.08864 429
29.10875 470
29.12887 417
29.14898 450
29.16909 437
29.18921 433
29.20932 420
29.22943 453
29.24955 445
29.26966 448
29.28978 440
29.30989 429
29.33 442
29.35012 445
29.37023 452
29.39034 436
29.41046 455
29.43057 462
29.45069 475
29.4708 450
29.49091 470
29.51103 460
29.53114 480
29.55125 422
29.57137 431
29.59148 497
29.6116 431
29.63171 434
29.65182 467
29.67194 460
29.69205 476
29.71216 465
29.73228 406
29.75239 454
29.7725 451
29.79262 429
29.81273 454
29.83285 438
29.85296 446
29.87307 425
29.89319 480
29.9133 446
29.93341 447
29.95353 479
29.97364 438
29.99376 454
30.01387 475
30.03398 470
30.0541 473
30.07421 486
30.09432 467
30.11444 477
30.13455 449
30.15467 484
30.17478 497
30.19489 475
30.21501 500
30.23512 463
30.25523 416
30.27535 464
30.29546 428
30.31557 491
30.33569 487
30.3558 471
30.37592 483
30.39603 489
30.41614 471
30.43626 481
30.45637 448
30.47648 463
30.4966 454
30.51671 458
30.53683 422
30.55694 462
30.57705 469
30.59717 458
30.61728 434
30.63739 469
30.65751 487
30.67762 443
30.69773 453
30.71785 412
30.73796 470
30.75808 433
30.77819 466
30.7983 449
30.81842 429
30.83853 450
30.85864 453
30.87876 446
30.89887 458
30.91899 432
30.9391 411
30.95921 425
30.97933 429
30.99944 425
31.01955 454
31.03967 461
31.05978 448
31.0799 427
31.10001 433
31.12012 449
31.14024 427
31.16035 456
31.18046 430
31.20058 444
31.22069 447
31.2408 444
31.26092 438
31.28103 417
31.30115 371
31.32126 424
31.34137 450
31.36149 472
31.3816 461
31.40171 435
31.42183 418
31.44194 456
31.46206 455
31.48217 467
31.50228 464
31.5224 448
31.54251 483
31.56262 431
31.58274 431
31.60285 476
31.62297 450
31.64308 437
31.66319 446
31.68331 447
31.70342 417
31.72353 444
31.74365 438
31.76376 429
31.78387 457
31.80399 405
31.8241 442
31.84422 453
31.86433 420
31.88444 437
31.90456 417
31.92467 417
31.94478 466
31.9649 454
31.98501 490
32.00513 430
32.02524 452
32.04535 415
32.06547 431
32.08558 481
32.10569 444
32.12581 436
32.14592 426
32.16604 491
32.18615 491
32.20626 452
32.22638 449
32.24649 488
32.2666 459
32.28672 511
32.30683 465
32.32694 515
32.34706 549
32.36717 563
32.38729 544
32.4074 580
32.42751 630
32.44763 649
32.46774 689
32.48785 698
32.50797 701
32.52808 674
32.5482 652
32.56831 702
32.58842 663
32.60854 615
32.62865 650
32.64876 609
32.66888 555
32.68899 596
32.7091 551
32.72922 544
32.74933 574
32.76945 601
32.78956 579
32.80967 561
32.82979 574
32.8499 585
32.87001 613
32.89013 629
32.91024 597
32.93036 570
32.95047 667
32.97058 628
32.9907 662
33.01081 664
33.03092 723
33.05104 774
33.07115 689
33.09127 792
33.11138 769
33.13149 751
33.15161 731
33.17172 770
33.19183 733
33.21195 709
33.23206 640
33.25217 683
33.27229 681
33.2924 584
33.31252 592
33.33263 644
33.35274 595
33.37286 603
33.39297 583
33.41308 571
33.4332 559
33.45331 538
33.47343 493
33.49354 533
33.51365 483
33.53377 567
33.55388 530
33.57399 473
33.59411 490
33.61422 513
33.63434 507
33.65445 495
33.67456 478
33.69468 468
33.71479 482
33.7349 490
33.75502 481
33.77513 441
33.79524 452
33.81536 429
33.83547 419
33.85559 473
33.8757 442
33.89581 440
33.91593 449
33.93604 463
33.95615 446
33.97627 431
33.99638 435
34.0165 445
34.03661 473
34.05672 458
34.07684 456
34.09695 401
34.11706 431
34.13718 441
34.15729 463
34.17741 471
34.19752 453
34.21763 463
34.23775 482
34.25786 472
34.27797 459
34.29809 430
34.3182 456
34.33831 438
34.35843 462
34.37854 450
34.39866 423
34.41877 456
34.43888 458
34.459 434
34.47911 502
34.49922 457
34.51934 462
34.53945 513
34.55957 456
34.57968 454
34.59979 455
34.61991 502
34.64002 514
34.66013 522
34.68025 523
34.70036 528
34.72047 520
34.74059 566
34.7607 635
34.78082 574
34.80093 578
34.82104 590
34.84116 595
34.86127 631
34.88138 607
34.9015 637
34.92161 662
34.94173 648
34.96184 649
34.98195 661
35.00207 665
35.02218 659
35.04229 653
35.06241 621
35.08252 644
35.10264 667
35.12275 676
35.14286 731
35.16298 700
35.18309 725
35.2032 716
35.22332 741
35.24343 739
35.26354 781
35.28366 708
35.30377 724
35.32389 761
35.344 718
35.36411 726
35.38423 704
35.40434 732
35.42445 720
35.44457 743
35.46468 809
35.4848 794
35.50491 824
35.52502 832
35.54514 841
35.56525 915
35.58536 896
35.60548 1000
35.62559 961
35.64571 1024
35.66582 1051
35.68593 969
35.70605 1003
35.72616 945
35.74627 851
35.76639 863
35.7865 880
35.80661 839
35.82673 855
35.84684 788
35.86696 769
35.88707 812
35.90718 739
35.9273 740
35.94741 710
35.96752 686
35.98764 675
36.00775 646
36.02787 659
36.04798 639
36.06809 606
36.08821 590
36.10832 619
36.12843 596
36.14855 616
36.16866 611
36.18878 587
36.20889 559
36.229 591
36.24912 596
36.26923 637
36.28934 555
36.30946 653
36.32957 678
36.34968 698
36.3698 758
36.38991 841
36.41003 942
36.43014 1064
36.45025 1112
36.47037 1229
36.49048 1252
36.51059 1201
36.53071 1125
36.55082 1098
36.57094 888
36.59105 941
36.61116 789
36.63128 702
36.65139 613
36.6715 652
36.69162 527
36.71173 546
36.73184 572
36.75196 553
36.77207 520
36.79219 555
36.8123 522
36.83241 540
36.85253 534
36.87264 525
36.89275 516
36.91287 503
36.93298 513
36.9531 497
36.97321 534
36.99332 534
37.01344 541
37.03355 493
37.05366 480
37.07378 525
37.09389 484
37.11401 466
37.13412 532
37.15423 531
37.17435 490
37.19446 527
37.21457 490
37.23469 531
37.2548 511
37.27491 484
37.29503 507
37.31514 513
37.33526 517
37.35537 491
37.37548 507
37.3956 493
37.41571 477
37.43582 521
37.45594 484
37.47605 542
37.49617 496
37.51628 487
37.53639 562
37.55651 547
37.57662 543
37.59673 517
37.61685 521
37.63696 508
37.65708 546
37.67719 541
37.6973 502
37.71742 526
37.73753 541
37.75764 569
37.77776 543
37.79787 546
37.81798 543
37.8381 544
37.85821 500
37.87833 513
37.89844 557
37.91855 552
37.93867 538
37.95878 539
37.97889 576
37.99901 592
38.01912 548
38.03924 556
38.05935 530
38.07946 563
38.09958 547
38.11969 617
38.1398 535
38.15992 567
38.18003 577
38.20015 587
38.22026 618
38.24037 616
38.26049 591
38.2806 634
38.30071 624
38.32083 624
38.34094 642
38.36105 635
38.38117 631
38.40128 623
38.4214 617
38.44151 601
38.46162 590
38.48174 641
38.50185 583
38.52196 601
38.54208 556
38.56219 548
38.58231 585
38.60242 594
38.62253 592
38.64265 574
38.66276 546
38.68287 577
38.70299 548
38.7231 584
38.74321 594
38.76333 570
38.78344 569
38.80356 554
38.82367 515
38.84378 529
38.8639 586
38.88401 474
38.90412 554
38.92424 530
38.94435 554
38.96447 554
38.98458 541
39.00469 541
39.02481 545
39.04492 575
39.06503 569
39.08515 553
39.10526 573
39.12538 531
39.14549 536
39.1656 580
39.18572 589
39.20583 596
39.22594 610
39.24606 638
39.26617 745
39.28628 694
39.3064 802
39.32651 940
39.34663 975
39.36674 1043
39.38685 1170
39.40697 1173
39.42708 1140
39.44719 1073
39.46731 1004
39.48742 940
39.50754 834
39.52765 860
39.54776 737
39.56788 598
39.58799 579
39.6081 596
39.62822 476
39.64833 523
39.66845 461
39.68856 487
39.70867 508
39.72879 476
39.7489 539
39.76901 462
39.78913 491
39.80924 472
39.82935 485
39.84947 475
39.86958 488
39.8897 466
39.90981 459
39.92992 445
39.95004 463
39.97015 501
39.99026 520
40.01038 495
40.03049 519
40.05061 526
40.07072 582
40.09083 529
40.11095 558
40.13106 637
40.15117 658
40.17129 739
40.1914 790
40.21152 821
40.23163 803
40.25174 866
40.27186 779
40.29197 702
40.31208 689
40.3322 713
40.35231 628
40.37242 606
40.39254 567
40.41265 534
40.43277 524
40.45288 528
40.47299 501
40.49311 510
40.51322 492
40.53333 545
40.55345 470
40.57356 491
40.59368 482
40.61379 516
40.6339 559
40.65402 535
40.67413 466
40.69424 503
40.71436 536
40.73447 492
40.75458 529
40.7747 528
40.79481 550
40.81493 526
40.83504 541
40.85515 550
40.87527 597
40.89538 552
40.91549 582
40.93561 567
40.95572 564
40.97584 522
40.99595 527
41.01606 538
41.03618 505
41.05629 479
41.0764 523
41.09652 518
41.11663 470
41.13675 509
41.15686 492
41.17697 508
41.19709 445
41.2172 514
41.23731 459
41.25743 467
41.27754 432
41.29765 472
41.31777 445
41.33788 431
41.358 447
41.37811 434
41.39822 468
41.41834 470
41.43845 442
41.45856 428
41.47868 412
41.49879 491
41.51891 450
41.53902 430
41.55913 397
41.57925 461
41.59936 480
41.61947 458
41.63959 429
41.6597 439
41.67982 436
41.69993 439
41.72004 443
41.74016 430
41.76027 426
41.78038 446
41.8005 456
41.82061 453
41.84072 463
41.86084 444
41.88095 442
41.90107 460
41.92118 422
41.94129 411
41.96141 424
41.98152 429
42.00163 500
42.02175 385
42.04186 440
42.06198 434
42.08209 429
42.1022 441
42.12232 454
42.14243 441
42.16254 456
42.18266 494
42.20277 490
42.22289 549
42.243 535
42.26311 609
42.28323 623
42.30334 674
42.32345 741
42.34357 882
42.36368 832
42.38379 918
42.40391 876
42.42402 864
42.44414 805
42.46425 748
42.48436 720
42.50448 675
42.52459 610
42.5447 571
42.56482 548
42.58493 491
42.60505 449
42.62516 485
42.64527 440
42.66539 399
42.6855 437
42.70561 436
42.72573 433
42.74584 397
42.76595 443
42.78607 373
42.80618 453
42.8263 424
42.84641 414
42.86652 438
42.88664 443
42.90675 417
42.92686 437
42.94698 416
42.96709 416
42.98721 435
43.00732 401
43.02743 420
43.04755 422
43.06766 413
43.08777 402
43.10789 430
43.128 446
43.14812 466
43.16823 407
43.18834 419
43.20846 419
43.22857 441
43.24868 412
43.2688 440
43.28891 395
43.30902 417
43.32914 387
43.34925 407
43.36937 410
43.38948 371
43.40959 503
43.42971 424
43.44982 457
43.46993 439
43.49005 419
43.51016 403
43.53028 416
43.55039 398
43.5705 413
43.59062 403
43.61073 410
43.63084 420
43.65096 389
43.67107 431
43.69119 442
43.7113 386
43.73141 408
43.75153 385
43.77164 451
43.79175 381
43.81187 415
43.83198 407
43.85209 410
43.87221 417
43.89232 413
43.91244 422
43.93255 394
43.95266 398
43.97278 407
43.99289 458
44.013 404
44.03312 421
44.05323 404
44.07335 456
44.09346 471
44.11357 424
44.13369 389
44.1538 407
44.17391 411
44.19403 381
44.21414 436
44.23426 411
44.25437 457
44.27448 394
44.2946 398
44.31471 415
44.33482 451
44.35494 421
44.37505 417
44.39516 406
44.41528 408
44.43539 414
44.45551 412
44.47562 398
44.49573 391
44.51585 410
44.53596 424
44.55607 399
44.57619 420
44.5963 420
44.61642 403
44.63653 440
44.65664 407
44.67676 382
44.69687 368
44.71698 388
44.7371 387
44.75721 428
44.77732 444
44.79744 422
44.81755 444
44.83767 475
44.85778 412
44.87789 457
44.89801 453
44.91812 404
44.93823 442
44.95835 386
44.97846 403
44.99858 416
45.01869 444
45.0388 416
45.05892 420
45.07903 434
45.09914 410
45.11926 421
45.13937 427
45.15949 479
45.1796 398
45.19971 429
45.21983 454
45.23994 455
45.26005 421
45.28017 443
45.30028 411
45.32039 464
45.34051 444
45.36062 484
45.38074 391
45.40085 472
45.42096 455
45.44108 459
45.46119 455
45.4813 468
45.50142 465
45.52153 488
45.54165 491
45.56176 493
45.58187 503
45.60199 521
45.6221 546
45.64221 617
45.66233 622
45.68244 676
45.70256 728
45.72267 779
45.74278 758
45.7629 714
45.78301 673
45.80312 632
45.82324 627
45.84335 599
45.86346 583
45.88358 512
45.90369 518
45.92381 478
45.94392 488
45.96403 465
45.98415 482
46.00426 429
46.02437 423
46.04449 447
46.0646 452
46.08472 440
46.10483 490
46.12494 381
46.14506 417
46.16517 435
46.18528 419
46.2054 442
46.22551 415
46.24563 414
46.26574 420
46.28585 440
46.30597 443
46.32608 431
46.34619 411
46.36631 467
46.38642 450
46.40653 448
46.42665 431
46.44676 401
46.46688 412
46.48699 448
46.5071 464
46.52722 433
46.54733 432
46.56744 393
46.58756 433
46.60767 427
46.62779 442
46.6479 474
46.66801 450
46.68813 428
46.70824 421
46.72835 424
46.74847 421
46.76858 432
46.78869 439
46.80881 445
46.82892 463
46.84904 432
46.86915 438
46.88926 435
46.90938 435
46.92949 417
46.9496 391
46.96972 435
46.98983 402
47.00995 419
47.03006 397
47.05017 440
47.07029 410
47.0904 452
47.11051 440
47.13063 447
47.15074 431
47.17086 417
47.19097 440
47.21108 464
47.2312 413
47.25131 428
47.27142 444
47.29154 397
47.31165 387
47.33176 442
47.35188 442
47.37199 433
47.39211 416
47.41222 414
47.43233 419
47.45245 406
47.47256 453
47.49267 459
47.51279 451
47.5329 441
47.55302 412
47.57313 433
47.59324 418
47.61336 432
47.63347 394
47.65358 420
47.6737 403
47.69381 420
47.71393 419
47.73404 404
47.75415 398
47.77427 430
47.79438 428
47.81449 423
47.83461 445
47.85472 428
47.87483 414
47.89495 403
47.91506 442
47.93518 467
47.95529 447
47.9754 444
47.99552 423
48.01563 445
48.03574 436
48.05586 438
48.07597 413
48.09609 415
48.1162 466
48.13631 400
48.15643 410
48.17654 412
48.19665 435
48.21677 440
48.23688 401
48.257 449
48.27711 440
48.29722 406
48.31734 435
48.33745 432
48.35756 459
48.37768 435
48.39779 427
48.4179 437
48.43802 461
48.45813 450
48.47825 455
48.49836 467
48.51847 428
48.53859 499
48.5587 443
48.57881 435
48.59893 492
48.61904 472
48.63916 453
48.65927 498
48.67938 472
48.6995 470
48.71961 484
48.73972 466
48.75984 481
48.77995 510
48.80006 457
48.82018 479
48.84029 492
48.86041 455
48.88052 453
48.90063 450
48.92075 450
48.94086 436
48.96097 418
48.98109 471
49.0012 477
49.02132 432
49.04143 473
49.06154 475
49.08166 447
49.10177 459
49.12188 497
49.142 453
49.16211 449
49.18223 514
49.20234 462
49.22245 482
49.24257 479
49.26268 496
49.28279 484
49.30291 473
49.32302 509
49.34313 487
49.36325 481
49.38336 533
49.40348 566
49.42359 511
49.4437 527
49.46382 508
49.48393 528
49.50404 511
49.52416 521
49.54427 500
49.56439 532
49.5845 514
49.60461 551
49.62473 547
49.64484 508
49.66495 574
49.68507 503
49.70518 498
49.7253 572
49.74541 511
49.76552 510
49.78564 517
49.80575 507
49.82586 600
49.84598 554
49.86609 639
49.8862 657
49.90632 680
49.92643 776
49.94655 798
49.96666 882
49.98677 1078
50.00689 1234
50.027 1369
50.04711 1558
50.06723 1531
50.08734 1571
50.10746 1358
50.12757 1347
50.14768 1161
50.1678 1107
50.18791 1088
50.20802 1037
50.22814 940
50.24825 806
50.26837 688
50.28848 595
50.30859 560
50.32871 503
50.34882 496
50.36893 476
50.38905 506
50.40916 442
50.42927 495
50.44939 461
50.4695 443
50.48962 454
50.50973 434
50.52984 472
50.54996 418
50.57007 459
50.59018 430
50.6103 441
50.63041 400
50.65053 394
50.67064 428
50.69075 429
50.71087 436
50.73098 416
50.75109 435
50.77121 401
50.79132 397
50.81143 386
50.83155 386
50.85166 396
50.87178 436
50.89189 407
50.912 401
50.93212 402
50.95223 413
50.97234 408
50.99246 420
51.01257 426
51.03269 400
51.0528 393
51.07291 418
51.09303 379
51.11314 389
51.13325 413
51.15337 382
51.17348 400
51.1936 412
51.21371 419
51.23382 409
51.25394 365
51.27405 412
51.29416 378
51.31428 367
51.33439 426
51.3545 416
51.37462 416
51.39473 413
51.41485 413
51.43496 383
51.45507 443
51.47519 409
51.4953 380
51.51541 398
51.53553 377
51.55564 410
51.57576 383
51.59587 365
51.61598 367
51.6361 380
51.65621 398
51.67632 414
51.69644 371
51.71655 405
51.73667 410
51.75678 411
51.77689 408
51.79701 402
51.81712 375
51.83723 379
51.85735 386
51.87746 382
51.89757 381
51.91769 360
51.9378 352
51.95792 380
51.97803 374
51.99814 412
52.01826 410
52.03837 389
52.05848 398
52.0786 370
52.09871 399
52.11883 410
52.13894 414
52.15905 385
52.17917 379
52.19928 400
52.21939 389
52.23951 406
52.25962 395
52.27974 408
52.29985 403
52.31996 394
52.34008 414
52.36019 425
52.3803 372
52.40042 386
52.42053 407
52.44064 381
52.46076 387
52.48087 375
52.50099 391
52.5211 407
52.54121 419
52.56133 401
52.58144 452
52.60155 404
52.62167 465
52.64178 432
52.6619 363
52.68201 404
52.70212 427
52.72224 407
52.74235 448
52.76246 421
52.78258 396
52.80269 437
52.8228 425
52.84292 463
52.86303 431
52.88315 467
52.90326 436
52.92337 465
52.94349 432
52.9636 459
52.98371 497
53.00383 477
53.02394 498
53.04406 483
53.06417 479
53.08428 443
53.1044 484
53.12451 465
53.14462 498
53.16474 485
53.18485 454
53.20497 466
53.22508 446
53.24519 432
53.26531 460
53.28542 464
53.30553 430
53.32565 495
53.34576 455
53.36587 478
53.38599 466
53.4061 468
53.42622 476
53.44633 443
53.46644 470
53.48656 455
53.50667 439
53.52678 470
53.5469 473
53.56701 443
53.58713 447
53.60724 446
53.62735 458
53.64747 474
53.66758 483
53.68769 452
53.70781 458
53.72792 501
53.74804 505
53.76815 495
53.78826 540
53.80838 497
53.82849 506
53.8486 507
53.86872 529
53.88883 549
53.90894 539
53.92906 503
53.94917 534
53.96929 547
53.9894 573
54.00951 569
54.02963 589
54.04974 586
54.06985 553
54.08997 586
54.11008 578
54.1302 585
54.15031 587
54.17042 564
54.19054 592
54.21065 572
54.23076 580
54.25088 552
54.27099 549
54.29111 556
54.31122 566
54.33133 549
54.35145 566
54.37156 566
54.39167 559
54.41179 588
54.4319 559
54.45201 527
54.47213 510
54.49224 529
54.51236 521
54.53247 518
54.55258 534
54.5727 497
54.59281 516
54.61292 557
54.63304 561
54.65315 582
54.67327 572
54.69338 610
54.71349 657
54.73361 684
54.75372 680
54.77383 782
54.79395 801
54.81406 790
54.83417 700
54.85429 696
54.8744 724
54.89452 640
54.91463 654
54.93474 655
54.95486 684
54.97497 646
54.99508 593
55.0152 573
55.03531 581
55.05543 543
55.07554 523
55.09565 475
55.11577 548
55.13588 565
55.15599 591
55.17611 571
55.19622 592
55.21634 594
55.23645 605
55.25656 614
55.27668 622
55.29679 575
55.3169 598
55.33702 543
55.35713 537
55.37724 547
55.39736 568
55.41747 535
55.43759 512
55.4577 513
55.47781 527
55.49793 445
55.51804 493
55.53815 474
55.55827 462
55.57838 479
55.5985 461
55.61861 463
55.63872 456
55.65884 434
55.67895 430
55.69906 463
55.71918 460
55.73929 445
55.75941 483
55.77952 464
55.79963 420
55.81975 442
55.83986 433
55.85997 448
55.88009 417
55.9002 427
55.92031 461
55.94043 420
55.96054 435
55.98066 424
56.00077 448
56.02088 443
56.041 462
56.06111 452
56.08122 467
56.10134 417
56.12145 457
56.14157 408
56.16168 436
56.18179 448
56.20191 419
56.22202 434
56.24213 420
56.26225 464
56.28236 452
56.30248 440
56.32259 419
56.3427 455
56.36282 417
56.38293 404
56.40304 415
56.42316 459
56.44327 424
56.46338 419
56.4835 420
56.50361 442
56.52373 410
56.54384 467
56.56395 448
56.58407 420
56.60418 416
56.62429 438
56.64441 429
56.66452 439
56.68464 448
56.70475 426
56.72486 484
56.74498 445
56.76509 437
56.7852 413
56.80532 423
56.82543 397
56.84554 426
56.86566 436
56.88577 414
56.90589 419
56.926 443
56.94611 422
56.96623 434
56.98634 458
57.00645 427
57.02657 422
57.04668 444
57.0668 442
57.08691 420
57.10702 444
57.12714 466
57.14725 400
57.16736 452
57.18748 471
57.20759 426
57.22771 426
57.24782 474
57.26793 431
57.28805 452
57.30816 480
57.32827 447
57.34839 427
57.3685 430
57.38861 497
57.40873 441
57.42884 446
57.44896 432
57.46907 431
57.48918 448
57.5093 477
57.52941 456
57.54952 459
57.56964 453
57.58975 413
57.60987 444
57.62998 449
57.65009 445
57.67021 405
57.69032 398
57.71043 441
57.73055 425
57.75066 415
57.77078 430
57.79089 438
57.811 386
57.83112 435
57.85123 404
57.87134 419
57.89146 440
57.91157 393
57.93168 407
57.9518 427
57.97191 378
57.99203 394
58.01214 401
58.03225 416
58.05237 439
58.07248 384
58.09259 409
58.11271 396
58.13282 403
58.15294 395
58.17305 405
58.19316 393
58.21328 374
58.23339 410
58.2535 391
58.27362 423
58.29373 388
58.31385 399
58.33396 391
58.35407 408
58.37419 384
58.3943 403
58.41441 421
58.43453 393
58.45464 411
58.47475 397
58.49487 393
58.51498 416
58.5351 374
58.55521 428
58.57532 398
58.59544 437
58.61555 391
58.63566 399
58.65578 404
58.67589 389
58.69601 413
58.71612 414
58.73623 396
58.75635 424
58.77646 411
58.79657 401
58.81669 399
58.8368 414
58.85691 399
58.87703 401
58.89714 403
58.91726 420
58.93737 409
58.95748 421
58.9776 416
58.99771 377
59.01782 437
59.03794 391
59.05805 386
59.07817 396
59.09828 405
59.11839 402
59.13851 426
59.15862 396
59.17873 439
59.19885 404
59.21896 413
59.23908 426
59.25919 402
59.2793 413
59.29942 409
59.31953 418
59.33964 400
59.35976 421
59.37987 401
59.39998 401
59.4201 402
59.44021 431
59.46033 416
59.48044 422
59.50055 419
59.52067 415
59.54078 431
59.56089 432
59.58101 430
59.60112 458
59.62124 486
59.64135 499
59.66146 486
59.68158 475
59.70169 587
59.7218 585
59.74192 648
59.76203 666
59.78215 782
59.80226 795
59.82237 938
59.84249 1001
59.8626 1072
59.88271 1079
59.90283 997
59.92294 964
59.94305 908
59.96317 805
59.98328 809
60.0034 783
60.02351 801
60.04362 726
60.06374 715
60.08385 700
60.10396 609
60.12408 572
60.14419 533
60.16431 498
60.18442 453
60.20453 424
60.22465 441
60.24476 438
60.26487 428
60.28499 447
60.3051 396
60.32522 416
60.34533 396
60.36544 396
60.38556 393
60.40567 370
60.42578 404
60.4459 402
60.46601 369
60.48612 415
60.50624 401
60.52635 396
60.54647 384
60.56658 401
60.58669 393
60.60681 390
60.62692 386
60.64703 365
60.66715 370
60.68726 410
60.70738 431
60.72749 396
60.7476 399
60.76772 414
60.78783 383
60.80794 403
60.82806 363
60.84817 401
60.86828 413
60.8884 398
60.90851 394
60.92863 424
60.94874 411
60.96885 402
60.98897 356
61.00908 401
61.02919 384
61.04931 417
61.06942 407
61.08954 437
61.10965 380
61.12976 376
61.14988 398
61.16999 417
61.1901 386
61.21022 336
61.23033 400
61.25045 408
61.27056 375
61.29067 415
61.31079 393
61.3309 399
61.35101 409
61.37113 418
61.39124 387
61.41135 443
61.43147 472
61.45158 416
61.4717 429
61.49181 402
61.51192 416
61.53204 407
61.55215 485
61.57226 446
61.59238 432
61.61249 440
61.63261 422
61.65272 400
61.67283 430
61.69295 433
61.71306 460
61.73317 418
61.75329 409
61.7734 408
61.79352 456
61.81363 429
61.83374 427
61.85386 467
61.87397 457
61.89408 437
61.9142 464
61.93431 444
61.95442 426
61.97454 454
61.99465 519
62.01477 481
62.03488 491
62.05499 495
62.07511 491
62.09522 534
62.11533 520
62.13545 545
62.15556 563
62.17568 550
62.19579 524
62.2159 614
62.23602 607
62.25613 622
62.27624 573
62.29636 551
62.31647 580
62.33659 634
62.3567 573
62.37681 616
62.39693 593
62.41704 551
62.43715 564
62.45727 607
62.47738 526
62.49749 542
62.51761 531
62.53772 528
62.55784 518
62.57795 503
62.59806 530
62.61818 524
62.63829 515
62.6584 503
62.67852 514
62.69863 515
62.71875 488
62.73886 483
62.75897 505
62.77909 438
62.7992 444
62.81931 489
62.83943 469
62.85954 463
62.87965 440
62.89977 423
62.91988 449
62.94 445
62.96011 458
62.98022 439
63.00034 432
63.02045 469
63.04056 466
63.06068 438
63.08079 482
63.10091 463
63.12102 450
63.14113 423
63.16125 486
63.18136 441
63.20147 490
63.22159 450
63.2417 488
63.26182 455
63.28193 449
63.30204 451
63.32216 441
63.34227 437
63.36238 438
63.3825 453
63.40261 472
63.42272 460
63.44284 485
63.46295 460
63.48307 426
63.50318 452
63.52329 424
63.54341 421
63.56352 426
63.58363 400
63.60375 441
63.62386 418
63.64398 460
63.66409 415
63.6842 408
63.70432 434
63.72443 433
63.74454 471
63.76466 466
63.78477 476
63.80489 476
63.825 500
63.84511 520
63.86523 491
63.88534 579
63.90545 584
63.92557 607
63.94568 559
63.96579 605
63.98591 629
64.00602 596
64.02614 580
64.04625 545
64.06636 564
64.08648 554
64.10659 555
64.1267 509
64.14682 564
64.16693 499
64.18705 535
64.20716 501
64.22727 478
64.24739 472
64.2675 456
64.28761 420
64.30773 448
64.32784 434
64.34796 425
64.36807 433
64.38818 426
64.4083 423
64.42841 444
64.44852 407
64.46864 418
64.48875 433
64.50886 397
64.52898 407
64.54909 405
64.56921 388
64.58932 374
64.60943 374
64.62955 406
64.64966 408
64.66977 416
64.68989 415
64.71 375
64.73012 414
64.75023 398
64.77034 375
64.79046 369
64.81057 369
64.83068 383
64.8508 369
64.87091 335
64.89102 375
64.91114 398
64.93125 372
64.95137 374
64.97148 365
64.99159 381
65.01171 355
65.03182 369
65.05193 401
65.07205 388
65.09216 384
65.11228 382
65.13239 370
65.1525 373
65.17262 357
65.19273 369
65.21284 386
65.23296 389
65.25307 358
65.27319 374
65.2933 381
65.31341 328
65.33353 353
65.35364 374
65.37375 362
65.39387 369
65.41398 381
65.43409 379
65.45421 358
65.47432 389
65.49444 394
65.51455 384
65.53466 371
65.55478 335
65.57489 386
65.595 385
65.61512 344
65.63523 392
65.65535 388
65.67546 396
65.69557 419
65.71569 364
65.7358 397
65.75591 359
65.77603 422
65.79614 405
65.81626 404
65.83637 365
65.85648 416
65.8766 350
65.89671 412
65.91682 366
65.93694 385
65.95705 379
65.97716 386
65.99728 369
66.01739 369
66.03751 366
66.05762 365
66.07773 357
66.09785 365
66.11796 385
66.13807 396
66.15819 392
66.1783 364
66.19842 352
66.21853 379
66.23864 369
66.25876 392
66.27887 386
66.29898 356
66.3191 377
66.33921 338
66.35933 386
66.37944 362
66.39955 353
66.41967 350
66.43978 377
66.45989 356
66.48001 359
66.50012 355
66.52023 371
66.54035 378
66.56046 372
66.58058 370
66.60069 337
66.6208 362
66.64092 390
66.66103 353
66.68114 328
66.70126 369
66.72137 373
66.74149 350
66.7616 378
66.78171 393
66.80183 386
66.82194 391
66.84205 368
66.86217 398
66.88228 362
66.90239 370
66.92251 354
66.94262 367
66.96274 384
66.98285 367
67.00296 398
67.02308 401
67.04319 380
67.0633 392
67.08342 370
67.10353 369
67.12365 382
67.14376 399
67.16387 373
67.18399 356
67.2041 405
67.22421 363
67.24433 371
67.26444 406
67.28456 383
67.30467 375
67.32478 399
67.3449 416
67.36501 441
67.38512 391
67.40524 404
67.42535 415
67.44546 457
67.46558 438
67.48569 516
67.50581 520
67.52592 491
67.54603 524
67.56615 567
67.58626 641
67.60637 687
67.62649 749
67.6466 725
67.66672 726
67.68683 750
67.70694 676
67.72706 691
67.74717 689
67.76728 599
67.7874 610
67.80751 593
67.82763 613
67.84774 655
67.86785 608
67.88797 617
67.90808 648
67.92819 673
67.94831 685
67.96842 698
67.98853 719
68.00865 816
68.02876 778
68.04888 825
68.06899 927
68.0891 929
68.10922 848
68.12933 837
68.14944 817
68.16956 856
68.18967 878
68.20979 898
68.2299 843
68.25001 863
68.27013 815
68.29024 774
68.31035 706
68.33047 635
68.35058 581
68.3707 605
68.39081 511
68.41092 536
68.43104 534
68.45115 505
68.47126 481
68.49138 468
68.51149 445
68.5316 426
68.55172 424
68.57183 403
68.59195 400
68.61206 418
68.63217 377
68.65229 383
68.6724 360
68.69251 413
68.71263 375
68.73274 388
68.75286 371
68.77297 380
68.79308 375
68.8132 358
68.83331 367
68.85342 381
68.87354 342
68.89365 333
68.91376 344
68.93388 382
68.95399 357
68.97411 346
68.99422 354
69.01433 357
69.03445 381
69.05456 372
69.07467 343
69.09479 351
69.1149 341
69.13502 401
69.15513 384
69.17524 352
69.19536 366
69.21547 374
69.23558 357
69.2557 353
69.27581 354
69.29593 358
69.31604 376
69.33615 342
69.35627 339
69.37638 355
69.39649 373
69.41661 344
69.43672 356
69.45683 340
69.47695 373
69.49706 385
69.51718 394
69.53729 368
69.5574 349
69.57752 353
69.59763 360
69.61774 380
69.63786 354
69.65797 394
69.67809 358
69.6982 358
69.71831 411
69.73843 359
69.75854 365
69.77865 340
69.79877 375
69.81888 344
69.839 335
69.85911 317
69.87922 377
69.89934 368
69.91945 351
69.93956 347
69.95968 374
69.97979 345
69.9999 372
70.02002 358
70.04013 394
70.06025 398
70.08036 400
70.10047 376
70.12059 367
70.1407 415
70.16081 364
70.18093 343
70.20104 401
70.22116 383
70.24127 379
70.26138 380
70.2815 362
70.30161 343
70.32172 397
70.34184 362
70.36195 364
70.38207 356
70.40218 380
70.42229 336
70.44241 335
70.46252 336
70.48263 368
70.50275 336
70.52286 325
70.54297 338
70.56309 360
70.5832 356
70.60332 326
70.62343 310
70.64354 361
70.66366 328
70.68377 353
70.70388 359
70.724 326
70.74411 364
70.76423 338
70.78434 346
70.80445 368
70.82457 377
70.84468 340
70.86479 339
70.88491 393
70.90502 320
70.92513 361
70.94525 326
70.96536 351
70.98548 369
71.00559 382
71.0257 359
71.04582 362
71.06593 343
71.08604 331
71.10616 372
71.12627 344
71.14639 368
71.1665 356
71.18661 375
71.20673 339
71.22684 379
71.24695 314
71.26707 333
71.28718 343
71.3073 357
71.32741 327
71.34752 388
71.36764 347
71.38775 355
71.40786 344
71.42798 319
71.44809 340
71.4682 352
71.48832 353
71.50843 356
71.52855 399
71.54866 361
71.56877 330
71.58889 387
71.609 365
71.62911 368
71.64923 356
71.66934 360
71.68946 355
71.70957 353
71.72968 353
71.7498 372
71.76991 390
71.79002 361
71.81014 357
71.83025 364
71.85037 347
71.87048 384
71.89059 389
71.91071 408
71.93082 354
71.95093 362
71.97105 344
71.99116 384
72.01127 394
72.03139 341
72.0515 386
72.07162 389
72.09173 406
72.11184 405
72.13196 390
72.15207 384
72.17218 358
72.1923 365
72.21241 361
72.23253 368
72.25264 363
72.27275 400
72.29287 341
72.31298 365
72.33309 351
72.35321 348
72.37332 361
72.39344 382
72.41355 338
72.43366 328
72.45378 335
72.47389 331
72.494 319
72.51412 358
72.53423 362
72.55434 382
72.57446 361
72.59457 368
72.61469 361
72.6348 346
72.65491 372
72.67503 352
72.69514 354
72.71525 343
72.73537 367
72.75548 337
72.7756 346
72.79571 341
72.81582 337
72.83594 377
72.85605 341
72.87616 355
72.89628 358
72.91639 374
72.9365 345
72.95662 336
72.97673 322
72.99685 371
73.01696 363
73.03707 399
73.05719 371
73.0773 368
73.09741 381
73.11753 387
73.13764 371
73.15776 378
73.17787 371
73.19798 420
73.2181 408
73.23821 391
73.25832 407
73.27844 407
73.29855 434
73.31867 429
73.33878 456
73.35889 475
73.37901 515
73.39912 462
73.41923 486
73.43935 467
73.45946 469
73.47957 440
73.49969 427
73.5198 424
73.53992 405
73.56003 429
73.58014 410
73.60026 404
73.62037 391
73.64048 432
73.6606 415
73.68071 381
73.70083 369
73.72094 368
73.74105 360
73.76117 372
73.78128 346
73.80139 349
73.82151 382
73.84162 353
73.86174 364
73.88185 353
73.90196 349
73.92208 342
73.94219 345
73.9623 361
73.98242 346
74.00253 348
74.02264 356
74.04276 377
74.06287 388
74.08299 363
74.1031 385
74.12321 341
74.14333 359
74.16344 338
74.18355 369
74.20367 343
74.22378 324
74.2439 356
74.26401 341
74.28412 351
74.30424 326
74.32435 361
74.34446 341
74.36458 359
74.38469 375
74.40481 347
74.42492 335
74.44503 345
74.46515 346
74.48526 363
74.50537 340
74.52549 358
74.5456 349
74.56571 351
74.58583 342
74.60594 375
74.62606 357
74.64617 352
74.66628 343
74.6864 323
74.70651 307
74.72662 311
74.74674 376
74.76685 373
74.78697 358
74.80708 350
74.82719 358
74.84731 355
74.86742 361
74.88753 327
74.90765 386
74.92776 356
74.94787 380
74.96799 324
74.9881 355
75.00822 350
