3.00117 21632
3.02128 20955
3.0414 20749
3.06151 19909
3.08162 19460
3.10174 19022
3.12185 18443
3.14197 17793
3.16208 17635
3.18219 16530
3.20231 16669
3.22242 15823
3.24253 15545
3.26265 15036
3.28276 14283
3.30288 14235
3.32299 13467
3.3431 13301
3.36322 12864
3.38333 12529
3.40344 12230
3.42356 11310
3.44367 11272
3.46379 11039
3.4839 10441
3.50401 10205
3.52413 9877
3.54424 9615
3.56435 9074
3.58447 8551
3.60458 8608
3.62469 8200
3.64481 7925
3.66492 7807
3.68504 7053
3.70515 6942
3.72526 6673
3.74538 6619
3.76549 6365
3.7856 5962
3.80572 6047
3.82583 5536
3.84595 5412
3.86606 5166
3.88617 5005
3.90629 4831
3.9264 4611
3.94651 4352
3.96663 4169
3.98674 3861
4.00686 3945
4.02697 3658
4.04708 3547
4.0672 3298
4.08731 3275
4.10742 3215
4.12754 3018
4.14765 2738
4.16776 2636
4.18788 2618
4.20799 2504
4.22811 2415
4.24822 2337
4.26833 2239
4.28845 2121
4.30856 2175
4.32867 2045
4.34879 1948
4.3689 1900
4.38902 1866
4.40913 1838
4.42924 1884
4.44936 1676
4.46947 1660
4.48958 1618
4.5097 1606
4.52981 1665
4.54992 1512
4.57004 1434
4.59015 1405
4.61027 1480
4.63038 1406
4.65049 1376
4.67061 1359
4.69072 1363
4.71083 1261
4.73095 1317
4.75106 1258
4.77118 1270
4.79129 1249
4.8114 1112
4.83152 1129
4.85163 1090
4.87174 1147
4.89186 1062
4.91197 1059
4.93209 1100
4.9522 1016
4.97231 976
4.99243 945
5.01254 943
5.03265 882
5.05277 912
5.07288 896
5.09299 891
5.11311 859
5.13322 841
5.15334 811
5.17345 855
5.19356 803
5.21368 755
5.23379 813
5.2539 722
5.27402 714
5.29413 774
5.31425 696
5.33436 734
5.35447 671
5.37459 684
5.3947 699
5.41481 671
5.43493 667
5.45504 650
5.47516 649
5.49527 625
5.51538 581
5.5355 591
5.55561 548
5.57572 589
5.59584 611
5.61595 573
5.63606 616
5.65618 591
5.67629 533
5.69641 569
5.71652 503
5.73663 574
5.75675 525
5.77686 495
5.79697 579
5.81709 510
5.8372 488
5.85732 525
5.87743 510
5.89754 451
5.91766 499
5.93777 517
5.95788 463
5.978 460
5.99811 477
6.01823 540
6.03834 480
6.05845 496
6.07857 452
6.09868 510
6.11879 456
6.13891 439
6.15902 508
6.17913 510
6.19925 446
6.21936 453
6.23948 458
6.25959 470
6.2797 467
6.29982 464
6.31993 419
6.34004 436
6.36016 472
6.38027 422
6.40039 454
6.4205 436
6.44061 424
6.46073 424
6.48084 445
6.50095 406
6.52107 437
6.54118 409
6.56129 433
6.58141 414
6.60152 393
6.62164 369
6.64175 435
6.66186 407
6.68198 417
6.70209 433
6.7222 405
6.74232 406
6.76243 438
6.78255 411
6.80266 436
6.82277 401
6.84289 417
6.863 389
6.88311 418
6.90323 413
6.92334 396
6.94346 417
6.96357 427
6.98368 419
7.0038 407
7.02391 427
7.04402 416
7.06414 406
7.08425 426
7.10436 420
7.12448 407
7.14459 391
7.16471 384
7.18482 425
7.20493 421
7.22505 393
7.24516 412
7.26527 372
7.28539 453
7.3055 403
7.32562 415
7.34573 409
7.36584 436
7.38596 409
7.40607 362
7.42618 412
7.4463 404
7.46641 404
7.48653 381
7.50664 433
7.52675 440
7.54687 398
7.56698 399
7.58709 395
7.60721 376
7.62732 413
7.64743 395
7.66755 405
7.68766 400
7.70778 397
7.72789 350
7.748 370
7.76812 382
7.78823 412
7.80834 414
7.82846 422
7.84857 397
7.86869 376
7.8888 357
7.90891 445
7.92903 407
7.94914 383
7.96925 392
7.98937 375
8.00948 414
8.0296 362
8.04971 421
8.06982 377
8.08994 377
8.11005 411
8.13016 337
8.15028 400
8.17039 394
8.1905 400
8.21062 396
8.23073 363
8.25085 406
8.27096 395
8.29107 392
8.31119 383
8.3313 420
8.35141 385
8.37153 407
8.39164 378
8.41176 401
8.43187 374
8.45198 387
8.4721 382
8.49221 423
8.51232 405
8.53244 348
8.55255 395
8.57266 420
8.59278 412
8.61289 423
8.63301 440
8.65312 422
8.67323 400
8.69335 390
8.71346 351
8.73357 415
8.75369 433
8.7738 437
8.79392 418
8.81403 409
8.83414 428
8.85426 431
8.87437 421
8.89448 420
8.9146 427
8.93471 425
8.95483 349
8.97494 437
8.99505 373
9.01517 366
9.03528 385
9.05539 441
9.07551 384
9.09562 375
9.11573 402
9.13585 395
9.15596 402
9.17608 405
9.19619 445
9.2163 420
9.23642 362
9.25653 377
9.27664 373
9.29676 398
9.31687 372
9.33699 371
9.3571 391
9.37721 392
9.39733 357
9.41744 395
9.43755 423
9.45767 399
9.47778 417
9.4979 417
9.51801 364
9.53812 374
9.55824 377
9.57835 390
9.59846 373
9.61858 362
9.63869 389
9.6588 437
9.67892 397
9.69903 427
9.71915 403
9.73926 403
9.75937 387
9.77949 397
9.7996 397
9.81971 380
9.83983 402
9.85994 408
9.88006 392
9.90017 383
9.92028 377
9.9404 379
9.96051 424
9.98062 382
10.00074 403
10.02085 441
10.04097 389
10.06108 333
10.08119 448
10.10131 408
10.12142 399
10.14153 417
10.16165 373
10.18176 422
10.20187 387
10.22199 393
10.2421 381
10.26222 397
10.28233 412
10.30244 399
10.32256 403
10.34267 398
10.36278 407
10.3829 382
10.40301 417
10.42313 387
10.44324 398
10.46335 430
10.48347 422
10.50358 392
10.52369 381
10.54381 404
10.56392 420
10.58403 425
10.60415 433
10.62426 404
10.64438 396
10.66449 421
10.6846 424
10.70472 410
10.72483 435
10.74494 433
10.76506 430
10.78517 404
10.80529 400
10.8254 428
10.84551 403
10.86563 404
10.88574 447
10.90585 428
10.92597 392
10.94608 423
10.9662 485
10.98631 418
11.00642 458
11.02654 419
11.04665 445
11.06676 455
11.08688 473
11.10699 457
11.1271 446
11.14722 445
11.16733 450
11.18745 458
11.20756 473
11.22767 484
11.24779 477
11.2679 486
11.28801 460
11.30813 478
11.32824 479
11.34836 448
11.36847 518
11.38858 489
11.4087 469
11.42881 514
11.44892 508
11.46904 495
11.48915 526
11.50927 542
11.52938 518
11.54949 489
11.56961 559
11.58972 537
11.60983 570
11.62995 574
11.65006 537
11.67017 627
11.69029 535
11.7104 593
11.73052 511
11.75063 538
11.77074 593
11.79086 632
11.81097 591
11.83108 631
11.8512 614
11.87131 625
11.89143 628
11.91154 610
11.93165 669
11.95177 713
11.97188 741
11.99199 687
12.01211 738
12.03222 745
12.05234 749
12.07245 736
12.09256 689
12.11268 756
12.13279 823
12.1529 784
12.17302 801
12.19313 786
12.21324 753
12.23336 786
12.25347 813
12.27359 725
12.2937 741
12.31381 697
12.33393 740
12.35404 745
12.37415 689
12.39427 673
12.41438 604
12.4345 653
12.45461 624
12.47472 553
12.49484 597
12.51495 576
12.53506 543
12.55518 540
12.57529 532
12.5954 567
12.61552 560
12.63563 534
12.65575 471
12.67586 513
12.69597 513
12.71609 469
12.7362 492
12.75631 460
12.77643 456
12.79654 480
12.81666 462
12.83677 463
12.85688 441
12.877 441
12.89711 428
12.91722 423
12.93734 433
12.95745 430
12.97757 426
12.99768 418
13.01779 409
13.03791 408
13.05802 475
13.07813 448
13.09825 445
13.11836 410
13.13847 464
13.15859 454
13.1787 428
13.19882 408
13.21893 443
13.23904 370
13.25916 391
13.27927 367
13.29938 344
13.3195 394
13.33961 370
13.35973 369
13.37984 390
13.39995 377
13.42007 368
13.44018 364
13.46029 360
13.48041 371
13.50052 368
13.52064 365
13.54075 401
13.56086 436
13.58098 428
13.60109 501
13.6212 460
13.64132 446
13.66143 426
13.68154 420
13.70166 382
13.72177 353
13.74189 385
13.762 375
13.78211 360
13.80223 359
13.82234 388
13.84245 347
13.86257 311
13.88268 352
13.9028 362
13.92291 334
13.94302 351
13.96314 355
13.98325 320
14.00336 364
14.02348 348
14.04359 320
14.06371 335
14.08382 374
14.10393 346
14.12405 358
14.14416 353
14.16427 311
14.18439 332
14.2045 324
14.22461 350
14.24473 334
14.26484 344
14.28496 354
14.30507 318
14.32518 330
14.3453 333
14.36541 282
14.38552 307
14.40564 328
14.42575 318
14.44587 322
14.46598 345
14.48609 368
14.50621 336
14.52632 346
14.54643 327
14.56655 360
14.58666 325
14.60677 307
14.62689 309
14.647 333
14.66712 312
14.68723 343
14.70734 320
14.72746 356
14.74757 334
14.76768 347
14.7878 352
14.80791 359
14.82803 370
14.84814 358
14.86825 386
14.88837 366
14.90848 387
14.92859 339
14.94871 363
14.96882 403
14.98894 320
15.00905 313
15.02916 348
15.04928 340
15.06939 366
15.0895 343
15.10962 352
15.12973 360
15.14984 353
15.16996 311
15.19007 367
15.21019 353
15.2303 328
15.25041 397
15.27053 327
15.29064 346
15.31075 332
15.33087 300
15.35098 333
15.3711 326
15.39121 350
15.41132 304
15.43144 297
15.45155 312
15.47166 335
15.49178 313
15.51189 314
15.53201 318
15.55212 322
15.57223 328
15.59235 314
15.61246 302
15.63257 328
15.65269 333
15.6728 323
15.69291 330
15.71303 309
15.73314 322
15.75326 308
15.77337 308
15.79348 311
15.8136 281
15.83371 297
15.85382 333
15.87394 316
15.89405 299
15.91417 314
15.93428 311
15.95439 292
15.97451 327
15.99462 314
16.01473 326
16.03485 297
16.05496 292
16.07508 298
16.09519 338
16.1153 328
16.13542 321
16.15553 323
16.17564 301
16.19576 299
16.21587 323
16.23598 304
16.2561 349
16.27621 269
16.29633 321
16.31644 304
16.33655 316
16.35667 332
16.37678 327
16.39689 336
16.41701 292
16.43712 301
16.45724 303
16.47735 307
16.49746 317
16.51758 321
16.53769 307
16.5578 289
16.57792 331
16.59803 349
16.61814 301
16.63826 310
16.65837 319
16.67849 314
16.6986 333
16.71871 320
16.73883 325
16.75894 325
16.77905 325
16.79917 337
16.81928 352
16.8394 304
16.85951 301
16.87962 299
16.89974 364
16.91985 347
16.93996 290
16.96008 317
16.98019 326
17.00031 322
17.02042 285
17.04053 315
17.06065 316
17.08076 328
17.10087 313
17.12099 309
17.1411 319
17.16121 288
17.18133 323
17.20144 296
17.22156 329
17.24167 310
17.26178 329
17.2819 316
17.30201 324
17.32212 329
17.34224 321
17.36235 328
17.38247 307
17.40258 332
17.42269 354
17.44281 335
17.46292 337
17.48303 312
17.50315 338
17.52326 331
17.54338 307
17.56349 270
17.5836 339
17.60372 290
17.62383 332
17.64394 340
17.66406 325
17.68417 346
17.70428 340
17.7244 333
17.74451 367
17.76463 333
17.78474 328
17.80485 323
17.82497 354
17.84508 367
17.86519 323
17.88531 346
17.90542 325
17.92554 350
17.94565 355
17.96576 347
17.98588 378
18.00599 366
18.0261 379
18.04622 344
18.06633 354
18.08645 354
18.10656 354
18.12667 395
18.14679 376
18.1669 399
18.18701 431
18.20713 481
18.22724 527
18.24735 587
18.26747 576
18.28758 589
18.3077 564
18.32781 515
18.34792 455
18.36804 415
18.38815 349
18.40826 371
18.42838 330
18.44849 354
18.46861 349
18.48872 347
18.50883 380
18.52895 351
18.54906 326
18.56917 335
18.58929 349
18.6094 324
18.62951 345
18.64963 321
18.66974 359
18.68986 348
18.70997 333
18.73008 328
18.7502 367
18.77031 313
18.79042 352
18.81054 332
18.83065 320
18.85077 303
18.87088 356
18.89099 365
18.91111 330
18.93122 328
18.95133 338
18.97145 307
18.99156 324
19.01168 369
19.03179 327
19.0519 359
19.07202 321
19.09213 372
19.11224 378
19.13236 369
19.15247 385
19.17258 377
19.1927 379
19.21281 406
19.23293 363
19.25304 410
19.27315 417
19.29327 377
19.31338 433
19.33349 397
19.35361 409
19.37372 347
19.39384 359
19.41395 379
19.43406 352
19.45418 374
19.47429 393
19.4944 395
19.51452 430
19.53463 407
19.55475 398
19.57486 412
19.59497 428
19.61509 482
19.6352 481
19.65531 502
19.67543 570
19.69554 567
19.71565 587
19.73577 624
19.75588 726
19.776 737
19.79611 770
19.81622 751
19.83634 874
19.85645 851
19.87656 901
19.89668 878
19.91679 823
19.93691 797
19.95702 874
19.97713 818
19.99725 813
20.01736 827
20.03747 781
20.05759 772
20.0777 766
20.09782 714
20.11793 762
20.13804 775
20.15816 777
20.17827 811
20.19838 793
20.2185 842
20.23861 795
20.25872 866
20.27884 861
20.29895 888
20.31907 830
20.33918 768
20.35929 775
20.37941 811
20.39952 787
20.41963 813
20.43975 817
20.45986 776
20.47998 768
20.50009 751
20.5202 807
20.54032 758
20.56043 819
20.58054 781
20.60066 804
20.62077 809
20.64088 784
20.661 828
20.68111 941
20.70123 995
20.72134 1105
20.74145 1355
20.76157 1761
20.78168 2040
20.80179 2639
20.82191 2899
20.84202 2853
20.86214 2518
20.88225 2201
20.90236 1796
20.92248 1499
20.94259 1460
20.9627 1366
20.98282 1399
21.00293 1415
21.02305 1341
21.04316 1189
21.06327 1080
21.08339 969
21.1035 784
21.12361 829
21.14373 841
21.16384 791
21.18395 753
21.20407 782
21.22418 768
21.2443 735
21.26441 695
21.28452 798
21.30464 716
21.32475 700
21.34486 713
21.36498 789
21.38509 743
21.40521 733
21.42532 705
21.44543 697
21.46555 735
21.48566 713
21.50577 660
21.52589 639
21.546 686
21.56612 656
21.58623 637
21.60634 647
21.62646 632
21.64657 656
21.66668 645
21.6868 608
21.70691 636
21.72702 636
21.74714 599
21.76725 586
21.78737 608
21.80748 603
21.82759 530
21.84771 595
21.86782 593
21.88793 600
21.90805 562
21.92816 535
21.94828 567
21.96839 590
21.9885 583
22.00862 531
22.02873 559
22.04884 509
22.06896 576
22.08907 643
22.10919 574
22.1293 564
22.14941 613
22.16953 555
22.18964 600
22.20975 630
22.22987 651
22.24998 688
22.27009 671
22.29021 701
22.31032 661
22.33044 626
22.35055 653
22.37066 567
22.39078 598
22.41089 523
22.431 575
22.45112 564
22.47123 558
22.49135 559
22.51146 533
22.53157 597
22.55169 616
22.5718 573
22.59191 601
22.61203 589
22.63214 610
22.65225 541
22.67237 524
22.69248 548
22.7126 539
22.73271 506
22.75282 534
22.77294 479
22.79305 524
22.81316 512
22.83328 453
22.85339 562
22.87351 538
22.89362 508
22.91373 558
22.93385 540
22.95396 542
22.97407 543
22.99419 552
23.0143 620
23.03442 593
23.05453 649
23.07464 605
23.09476 657
23.11487 678
23.13498 798
23.1551 791
23.17521 862
23.19532 822
23.21544 732
23.23555 656
23.25567 628
23.27578 627
23.29589 587
23.31601 562
23.33612 520
23.35623 570
23.37635 580
23.39646 527
23.41658 529
23.43669 539
23.4568 545
23.47692 541
23.49703 562
23.51714 531
23.53726 539
23.55737 569
23.57749 536
23.5976 568
23.61771 527
23.63783 528
23.65794 494
23.67805 500
23.69817 569
23.71828 554
23.73839 532
23.75851 552
23.77862 587
23.79874 600
23.81885 584
23.83896 650
23.85908 644
23.87919 695
23.8993 732
23.91942 728
23.93953 760
23.95965 822
23.97976 840
23.99987 750
24.01999 740
24.0401 690
24.06021 631
24.08033 679
24.10044 578
24.12056 593
24.14067 596
24.16078 599
24.1809 603
24.20101 655
24.22112 605
24.24124 644
24.26135 742
24.28146 643
24.30158 701
24.32169 733
24.34181 686
24.36192 647
24.38203 623
24.40215 670
24.42226 590
24.44237 651
24.46249 630
24.4826 648
24.50272 672
24.52283 646
24.54294 672
24.56306 642
24.58317 654
24.60328 742
24.6234 685
24.64351 733
24.66362 700
24.68374 818
24.70385 716
24.72397 729
24.74408 808
24.76419 716
24.78431 773
24.80442 760
24.82453 813
24.84465 816
24.86476 860
24.88488 799
24.90499 839
24.9251 778
24.94522 819
24.96533 769
24.98544 783
25.00556 820
25.02567 749
25.04579 769
25.0659 698
25.08601 708
25.10613 713
25.12624 730
25.14635 745
25.16647 710
25.18658 724
25.20669 765
25.22681 710
25.24692 708
25.26704 683
25.28715 698
25.30726 709
25.32738 678
25.34749 704
25.3676 681
25.38772 712
25.40783 743
25.42795 770
25.44806 856
25.46817 867
25.48829 919
25.5084 964
25.52851 928
25.54863 934
25.56874 911
25.58886 915
25.60897 988
25.62908 890
25.6492 911
25.66931 778
25.68942 732
25.70954 671
25.72965 672
25.74976 622
25.76988 621
25.78999 595
25.81011 578
25.83022 493
25.85033 561
25.87045 545
25.89056 613
25.91067 548
25.93079 573
25.9509 518
25.97102 536
25.99113 557
26.01124 540
26.03136 574
26.05147 589
26.07158 583
26.0917 605
26.11181 611
26.13193 564
26.15204 629
26.17215 616
26.19227 664
26.21238 739
26.23249 758
26.25261 733
26.27272 870
26.29283 894
26.31295 996
26.33306 1050
26.35318 1178
26.37329 1378
26.3934 1411
26.41352 1544
26.43363 1794
26.45374 1970
26.47386 2325
26.49397 2999
26.51409 3997
26.5342 5425
26.55431 7204
26.57443 9331
26.59454 10677
26.61465 10537
26.63477 9257
26.65488 7612
26.67499 5949
26.69511 4411
26.71522 2943
26.73534 1840
26.75545 1340
26.77556 1105
26.79568 995
26.81579 980
26.8359 900
26.85602 888
26.87613 857
26.89625 925
26.91636 880
26.93647 935
26.95659 1049
26.9767 1099
26.99681 1112
27.01693 1195
27.03704 1172
27.05716 1115
27.07727 1065
27.09738 954
27.1175 850
27.13761 837
27.15772 699
27.17784 736
27.19795 738
27.21806 751
27.23818 767
27.25829 848
27.27841 906
27.29852 968
27.31863 1141
27.33875 1261
27.35886 1466
27.37897 1486
27.39909 1785
27.4192 1854
27.43932 1683
27.45943 1624
27.47954 1544
27.49966 1408
27.51977 1117
27.53988 925
27.56 806
27.58011 678
27.60023 594
27.62034 528
27.64045 527
27.66057 485
27.68068 520
27.70079 501
27.72091 509
27.74102 457
27.76113 485
27.78125 526
27.80136 483
27.82148 493
27.84159 478
27.8617 504
27.88182 486
27.90193 491
27.92204 438
27.94216 474
27.96227 455
27.98239 473
28.0025 460
28.02261 428
28.04273 429
28.06284 437
28.08295 419
28.10307 442
28.12318 456
28.1433 391
28.16341 410
28.18352 427
28.20364 439
28.22375 407
28.24386 440
28.26398 425
28.28409 416
28.3042 432
28.32432 368
28.34443 406
28.36455 427
28.38466 408
28.40477 404
28.42489 418
28.445 416
28.46511 433
28.48523 397
28.50534 369
28.52546 377
28.54557 408
28.56568 376
28.5858 405
28.60591 420
28.62602 409
28.64614 431
28.66625 394
28.68636 428
28.70648 417
28.72659 413
28.74671 424
28.76682 386
28.78693 396
28.80705 399
28.82716 418
28.84727 383
28.86739 346
28.8875 375
28.90762 406
28.92773 456
28.94784 390
28.96796 413
28.98807 409
29.00818 388
29.0283 442
29.04841 411
29.06853 437
29.08864 416
29.10875 372
29.12887 416
29.14898 415
29.16909 443
29.18921 407
29.20932 401
29.22943 413
29.24955 439
29.26966 427
29.28978 458
29.30989 485
29.33 507
29.35012 522
29.37023 510
29.39034 576
29.41046 585
29.43057 587
29.45069 625
29.4708 545
29.49091 554
29.51103 513
29.53114 442
29.55125 452
29.57137 436
29.59148 424
29.6116 421
29.63171 411
29.65182 437
29.67194 427
29.69205 431
29.71216 448
29.73228 426
29.75239 471
29.7725 434
29.79262 444
29.81273 432
29.83285 433
29.85296 413
29.87307 448
29.89319 427
29.9133 451
29.93341 457
29.95353 440
29.97364 489
29.99376 467
30.01387 489
30.03398 511
30.0541 547
30.07421 540
30.09432 590
30.11444 570
30.13455 582
30.15467 624
30.17478 630
30.19489 648
30.21501 622
30.23512 550
30.25523 504
30.27535 507
30.29546 473
30.31557 442
30.33569 408
30.3558 414
30.37592 389
30.39603 428
30.41614 433
30.43626 384
30.45637 377
30.47648 401
30.4966 397
30.51671 416
30.53683 444
30.55694 443
30.57705 457
30.59717 468
30.61728 506
30.63739 544
30.65751 569
30.67762 603
30.69773 615
30.71785 646
30.73796 598
30.75808 617
30.77819 588
30.7983 572
30.81842 555
30.83853 545
30.85864 544
30.87876 508
30.89887 473
30.91899 538
30.9391 467
30.95921 418
30.97933 380
30.99944 434
31.01955 393
31.03967 365
31.05978 356
31.0799 341
31.10001 363
31.12012 411
31.14024 362
31.16035 376
31.18046 355
31.20058 371
31.22069 369
31.2408 347
31.26092 347
31.28103 339
31.30115 379
31.32126 358
31.34137 378
31.36149 367
31.3816 343
31.40171 361
31.42183 383
31.44194 337
31.46206 372
31.48217 354
31.50228 369
31.5224 382
31.54251 358
31.56262 371
31.58274 348
31.60285 320
31.62297 364
31.64308 336
31.66319 379
31.68331 346
31.70342 364
31.72353 354
31.74365 359
31.76376 331
31.78387 329
31.80399 348
31.8241 340
31.84422 343
31.86433 361
31.88444 332
31.90456 351
31.92467 411
31.94478 360
31.9649 368
31.98501 391
32.00513 391
32.02524 436
32.04535 388
32.06547 386
32.08558 379
32.10569 418
32.12581 430
32.14592 428
32.16604 476
32.18615 451
32.20626 424
32.22638 374
32.24649 370
32.2666 460
32.28672 391
32.30683 406
32.32694 410
32.34706 445
32.36717 397
32.38729 459
32.4074 487
32.42751 465
32.44763 470
32.46774 451
32.48785 455
32.50797 482
32.52808 412
32.5482 420
32.56831 387
32.58842 379
32.60854 376
32.62865 389
32.64876 360
32.66888 371
32.68899 366
32.7091 377
32.72922 374
32.74933 393
32.76945 373
32.78956 392
32.80967 401
32.82979 376
32.8499 384
32.87001 373
32.89013 434
32.91024 380
32.93036 373
32.95047 413
32.97058 397
32.9907 433
33.01081 427
33.03092 403
33.05104 417
33.07115 423
33.09127 404
33.11138 411
33.13149 414
33.15161 401
33.17172 451
33.19183 378
33.21195 399
33.23206 420
33.25217 388
33.27229 447
33.2924 397
33.31252 400
33.33263 451
33.35274 408
33.37286 391
33.39297 419
33.41308 391
33.4332 415
33.45331 439
33.47343 388
33.49354 400
33.51365 368
33.53377 370
33.55388 377
33.57399 381
33.59411 413
33.61422 384
33.63434 437
33.65445 408
33.67456 397
33.69468 401
33.71479 408
33.7349 389
33.75502 397
33.77513 403
33.79524 383
33.81536 418
33.83547 374
33.85559 364
33.8757 377
33.89581 396
33.91593 392
33.93604 368
33.95615 395
33.97627 422
33.99638 427
34.0165 447
34.03661 451
34.05672 437
34.07684 447
34.09695 482
34.11706 505
34.13718 539
34.15729 521
34.17741 530
34.19752 523
34.21763 501
34.23775 483
34.25786 496
34.27797 486
34.29809 480
34.3182 473
34.33831 480
34.35843 466
34.37854 446
34.39866 465
34.41877 426
34.43888 465
34.459 477
34.47911 454
34.49922 454
34.51934 488
34.53945 526
34.55957 535
34.57968 546
34.59979 514
34.61991 550
34.64002 562
34.66013 570
34.68025 532
34.70036 551
34.72047 601
34.74059 573
34.7607 595
34.78082 639
34.80093 640
34.82104 652
34.84116 685
34.86127 679
34.88138 653
34.9015 734
34.92161 725
34.94173 672
34.96184 707
34.98195 683
35.00207 692
35.02218 723
35.04229 691
35.06241 663
35.08252 643
35.10264 727
35.12275 611
35.14286 614
35.16298 662
35.18309 609
35.2032 611
35.22332 598
35.24343 632
35.26354 595
35.28366 644
35.30377 662
35.32389 635
35.344 612
35.36411 637
35.38423 647
35.40434 710
35.42445 721
35.44457 635
35.46468 706
35.4848 702
35.50491 724
35.52502 745
35.54514 716
35.56525 710
35.58536 694
35.60548 668
35.62559 639
35.64571 598
35.66582 626
35.68593 657
35.70605 633
35.72616 611
35.74627 634
35.76639 611
35.7865 645
35.80661 643
35.82673 643
35.84684 659
35.86696 624
35.88707 639
35.90718 650
35.9273 608
35.94741 581
35.96752 563
35.98764 558
36.00775 601
36.02787 558
36.04798 593
36.06809 531
36.08821 546
36.10832 562
36.12843 541
36.14855 548
36.16866 480
36.18878 531
36.20889 495
36.229 500
36.24912 533
36.26923 550
36.28934 523
36.30946 521
36.32957 534
36.34968 584
36.3698 614
36.38991 652
36.41003 732
36.43014 804
36.45025 916
36.47037 1025
36.49048 1199
36.51059 1097
36.53071 998
36.55082 952
36.57094 842
36.59105 809
36.61116 819
36.63128 719
36.65139 622
36.6715 578
36.69162 538
36.71173 511
36.73184 508
36.75196 498
36.77207 542
36.79219 528
36.8123 571
36.83241 591
36.85253 553
36.87264 599
36.89275 555
36.91287 591
36.93298 617
36.9531 580
36.97321 585
36.99332 577
37.01344 617
37.03355 543
37.05366 548
37.07378 545
37.09389 522
37.11401 528
37.13412 536
37.15423 505
37.17435 495
37.19446 506
37.21457 522
37.23469 499
37.2548 486
37.27491 450
37.29503 514
37.31514 451
37.33526 484
37.35537 471
37.37548 475
37.3956 531
37.41571 488
37.43582 526
37.45594 492
37.47605 471
37.49617 499
37.51628 466
37.53639 519
37.55651 522
37.57662 526
37.59673 607
37.61685 508
37.63696 531
37.65708 555
37.67719 592
37.6973 547
37.71742 543
37.73753 552
37.75764 538
37.77776 537
37.79787 492
37.81798 526
37.8381 524
37.85821 517
37.87833 486
37.89844 536
37.91855 513
37.93867 507
37.95878 545
37.97889 511
37.99901 531
38.01912 558
38.03924 522
38.05935 509
38.07946 548
38.09958 538
38.11969 581
38.1398 568
38.15992 510
38.18003 567
38.20015 571
38.22026 545
38.24037 557
38.26049 587
38.2806 588
38.30071 579
38.32083 633
38.34094 591
38.36105 608
38.38117 606
38.40128 650
38.4214 673
38.44151 653
38.46162 696
38.48174 675
38.50185 665
38.52196 650
38.54208 684
38.56219 603
38.58231 610
38.60242 586
38.62253 609
38.64265 541
38.66276 609
38.68287 537
38.70299 557
38.7231 514
38.74321 565
38.76333 501
38.78344 469
38.80356 499
38.82367 488
38.84378 476
38.8639 507
38.88401 519
38.90412 474
38.92424 513
38.94435 490
38.96447 510
38.98458 504
39.00469 538
39.02481 501
39.04492 482
39.06503 507
39.08515 474
39.10526 531
39.12538 536
39.14549 491
39.1656 509
39.18572 539
39.20583 540
39.22594 525
39.24606 553
39.26617 575
39.28628 585
39.3064 626
39.32651 676
39.34663 771
39.36674 867
39.38685 970
39.40697 969
39.42708 992
39.44719 956
39.46731 829
39.48742 767
39.50754 748
39.52765 672
39.54776 661
39.56788 577
39.58799 504
39.6081 437
39.62822 452
39.64833 456
39.66845 419
39.68856 419
39.70867 439
39.72879 424
39.7489 424
39.76901 426
39.78913 392
39.80924 384
39.82935 431
39.84947 398
39.86958 437
39.8897 405
39.90981 416
39.92992 442
39.95004 449
39.97015 436
39.99026 435
40.01038 405
40.03049 436
40.05061 493
40.07072 470
40.09083 448
40.11095 473
40.13106 510
40.15117 533
40.17129 573
40.1914 608
40.21152 655
40.23163 664
40.25174 722
40.27186 670
40.29197 639
40.31208 592
40.3322 557
40.35231 550
40.37242 508
40.39254 511
40.41265 512
40.43277 486
40.45288 439
40.47299 412
40.49311 444
40.51322 406
40.53333 443
40.55345 479
40.57356 435
40.59368 443
40.61379 458
40.6339 432
40.65402 405
40.67413 405
40.69424 414
40.71436 415
40.73447 395
40.75458 463
40.7747 402
40.79481 406
40.81493 399
40.83504 400
40.85515 408
40.87527 410
40.89538 399
40.91549 431
40.93561 409
40.95572 446
40.97584 387
40.99595 445
41.01606 386
41.03618 382
41.05629 430
41.0764 431
41.09652 379
41.11663 389
41.13675 402
41.15686 421
41.17697 396
41.19709 410
41.2172 394
41.23731 405
41.25743 413
41.27754 388
41.29765 382
41.31777 438
41.33788 407
41.358 405
41.37811 412
41.39822 411
41.41834 449
41.43845 433
41.45856 411
41.47868 409
41.49879 432
41.51891 442
41.53902 456
41.55913 435
41.57925 486
41.59936 463
41.61947 487
41.63959 480
41.6597 519
41.67982 541
41.69993 552
41.72004 575
41.74016 615
41.76027 628
41.78038 603
41.8005 604
41.82061 582
41.84072 534
41.86084 514
41.88095 505
41.90107 468
41.92118 438
41.94129 401
41.96141 420
41.98152 397
42.00163 374
42.02175 374
42.04186 383
42.06198 382
42.08209 393
42.1022 396
42.12232 379
42.14243 396
42.16254 412
42.18266 393
42.20277 370
42.22289 430
42.243 409
42.26311 451
42.28323 432
42.30334 524
42.32345 561
42.34357 609
42.36368 634
42.38379 745
42.40391 776
42.42402 712
42.44414 649
42.46425 612
42.48436 577
42.50448 563
42.52459 556
42.5447 464
42.56482 459
42.58493 400
42.60505 428
42.62516 455
42.64527 402
42.66539 414
42.6855 379
42.70561 390
42.72573 413
42.74584 381
42.76595 401
42.78607 375
42.80618 399
42.8263 380
42.84641 375
42.86652 371
42.88664 415
42.90675 369
42.92686 363
42.94698 339
42.96709 351
42.98721 343
43.00732 353
43.02743 328
43.04755 343
43.06766 346
43.08777 351
43.10789 374
43.128 362
43.14812 366
43.16823 346
43.18834 373
43.20846 340
43.22857 322
43.24868 348
43.2688 357
43.28891 369
43.30902 323
43.32914 368
43.34925 321
43.36937 346
43.38948 317
43.40959 350
43.42971 371
43.44982 347
43.46993 383
43.49005 389
43.51016 329
43.53028 378
43.55039 357
43.5705 352
43.59062 377
43.61073 351
43.63084 325
43.65096 348
43.67107 387
43.69119 370
43.7113 351
43.73141 351
43.75153 318
43.77164 367
43.79175 346
43.81187 338
43.83198 347
43.85209 369
43.87221 345
43.89232 337
43.91244 348
43.93255 346
43.95266 354
43.97278 369
43.99289 366
44.013 363
44.03312 384
44.05323 417
44.07335 367
44.09346 357
44.11357 373
44.13369 411
44.1538 400
44.17391 438
44.19403 346
44.21414 375
44.23426 356
44.25437 348
44.27448 380
44.2946 367
44.31471 331
44.33482 347
44.35494 323
44.37505 329
44.39516 346
44.41528 370
44.43539 346
44.45551 356
44.47562 318
44.49573 347
44.51585 394
44.53596 397
44.55607 385
44.57619 345
44.5963 374
44.61642 379
44.63653 386
44.65664 389
44.67676 369
44.69687 366
44.71698 347
44.7371 353
44.75721 319
44.77732 381
44.79744 342
44.81755 355
44.83767 382
44.85778 361
44.87789 379
44.89801 352
44.91812 343
44.93823 366
44.95835 365
44.97846 395
44.99858 371
45.01869 371
45.0388 365
45.05892 368
45.07903 351
45.09914 402
45.11926 374
45.13937 400
45.15949 359
45.1796 378
45.19971 374
45.21983 421
45.23994 402
45.26005 424
45.28017 415
45.30028 450
45.32039 418
45.34051 442
45.36062 419
45.38074 456
45.40085 456
45.42096 428
45.44108 518
45.46119 479
45.4813 457
45.50142 450
45.52153 476
45.54165 459
45.56176 452
45.58187 480
45.60199 536
45.6221 524
45.64221 508
45.66233 574
45.68244 621
45.70256 657
45.72267 648
45.74278 745
45.7629 663
45.78301 590
45.80312 558
45.82324 568
45.84335 491
45.86346 531
45.88358 500
45.90369 474
45.92381 452
45.94392 437
45.96403 427
45.98415 401
46.00426 405
46.02437 415
46.04449 386
46.0646 418
46.08472 401
46.10483 418
46.12494 370
46.14506 385
46.16517 406
46.18528 393
46.2054 397
46.22551 387
46.24563 406
46.26574 391
46.28585 393
46.30597 393
46.32608 393
46.34619 388
46.36631 380
46.38642 389
46.40653 361
46.42665 367
46.44676 346
46.46688 354
46.48699 364
46.5071 375
46.52722 353
46.54733 360
46.56744 372
46.58756 374
46.60767 322
46.62779 356
46.6479 349
46.66801 370
46.68813 343
46.70824 345
46.72835 361
46.74847 347
46.76858 351
46.78869 370
46.80881 371
46.82892 388
46.84904 375
46.86915 384
46.88926 346
46.90938 361
46.92949 363
46.9496 370
46.96972 413
46.98983 411
47.00995 389
47.03006 406
47.05017 376
47.07029 416
47.0904 405
47.11051 432
47.13063 390
47.15074 403
47.17086 380
47.19097 417
47.21108 386
47.2312 392
47.25131 385
47.27142 402
47.29154 366
47.31165 400
47.33176 407
47.35188 371
47.37199 422
47.39211 456
47.41222 404
47.43233 431
47.45245 385
47.47256 375
47.49267 407
47.51279 406
47.5329 375
47.55302 385
47.57313 423
47.59324 395
47.61336 365
47.63347 344
47.65358 354
47.6737 370
47.69381 381
47.71393 358
47.73404 343
47.75415 362
47.77427 381
47.79438 359
47.81449 372
47.83461 354
47.85472 365
47.87483 349
47.89495 362
47.91506 374
47.93518 343
47.95529 363
47.9754 375
47.99552 357
48.01563 365
48.03574 349
48.05586 361
48.07597 345
48.09609 348
48.1162 338
48.13631 340
48.15643 356
48.17654 340
48.19665 347
48.21677 318
48.23688 334
48.257 337
48.27711 341
48.29722 358
48.31734 353
48.33745 341
48.35756 363
48.37768 342
48.39779 362
48.4179 325
48.43802 347
48.45813 335
48.47825 335
48.49836 327
48.51847 375
48.53859 376
48.5587 373
48.57881 351
48.59893 359
48.61904 358
48.63916 367
48.65927 369
48.67938 363
48.6995 366
48.71961 390
48.73972 363
48.75984 369
48.77995 408
48.80006 382
48.82018 395
48.84029 404
48.86041 390
48.88052 405
48.90063 379
48.92075 372
48.94086 420
48.96097 391
48.98109 376
49.0012 381
49.02132 389
49.04143 410
49.06154 399
49.08166 377
49.10177 376
49.12188 387
49.142 369
49.16211 366
49.18223 357
49.20234 345
49.22245 382
49.24257 382
49.26268 324
49.28279 356
49.30291 359
49.32302 346
49.34313 331
49.36325 388
49.38336 336
49.40348 360
49.42359 376
49.4437 379
49.46382 379
49.48393 353
49.50404 356
49.52416 353
49.54427 370
49.56439 327
49.5845 319
49.60461 409
49.62473 350
49.64484 340
49.66495 342
49.68507 387
49.70518 378
49.7253 376
49.74541 399
49.76552 403
49.78564 395
49.80575 424
49.82586 415
49.84598 419
49.86609 446
49.8862 413
49.90632 504
49.92643 535
49.94655 580
49.96666 702
49.98677 743
50.00689 857
50.027 923
50.04711 1061
50.06723 1214
50.08734 1275
50.10746 1224
50.12757 1065
50.14768 940
50.1678 799
50.18791 786
50.20802 763
50.22814 814
50.24825 734
50.26837 626
50.28848 534
50.30859 444
50.32871 465
50.34882 486
50.36893 424
50.38905 449
50.40916 557
50.42927 555
50.44939 601
50.4695 600
50.48962 588
50.50973 582
50.52984 575
50.54996 611
50.57007 602
50.59018 580
50.6103 505
50.63041 502
50.65053 534
50.67064 466
50.69075 478
50.71087 461
50.73098 442
50.75109 466
50.77121 424
50.79132 432
50.81143 439
50.83155 443
50.85166 446
50.87178 428
50.89189 432
50.912 440
50.93212 404
50.95223 388
50.97234 360
50.99246 367
51.01257 363
51.03269 364
51.0528 366
51.07291 384
51.09303 377
51.11314 374
51.13325 370
51.15337 340
51.17348 317
51.1936 352
51.21371 321
51.23382 348
51.25394 307
51.27405 327
51.29416 343
51.31428 337
51.33439 334
51.3545 336
51.37462 345
51.39473 319
51.41485 300
51.43496 317
51.45507 294
51.47519 319
51.4953 326
51.51541 333
51.53553 347
51.55564 329
51.57576 301
51.59587 343
51.61598 320
51.6361 322
51.65621 355
51.67632 329
51.69644 322
51.71655 331
51.73667 283
51.75678 321
51.77689 309
51.79701 325
51.81712 292
51.83723 295
51.85735 306
51.87746 343
51.89757 306
51.91769 293
51.9378 320
51.95792 313
51.97803 325
51.99814 311
52.01826 338
52.03837 341
52.05848 336
52.0786 356
52.09871 351
52.11883 316
52.13894 348
52.15905 331
52.17917 313
52.19928 298
52.21939 331
52.23951 337
52.25962 329
52.27974 338
52.29985 322
52.31996 320
52.34008 329
52.36019 324
52.3803 347
52.40042 293
52.42053 331
52.44064 326
52.46076 314
52.48087 302
52.50099 311
52.5211 353
52.54121 333
52.56133 335
52.58144 335
52.60155 320
52.62167 323
52.64178 322
52.6619 380
52.68201 363
52.70212 335
52.72224 318
52.74235 326
52.76246 308
52.78258 339
52.80269 299
52.8228 329
52.84292 340
52.86303 357
52.88315 319
52.90326 343
52.92337 311
52.94349 339
52.9636 325
52.98371 350
53.00383 317
53.02394 320
53.04406 294
53.06417 310
53.08428 322
53.1044 335
53.12451 335
53.14462 368
53.16474 344
53.18485 340
53.20497 368
53.22508 375
53.24519 346
53.26531 392
53.28542 369
53.30553 362
53.32565 336
53.34576 335
53.36587 367
53.38599 393
53.4061 350
53.42622 366
53.44633 383
53.46644 356
53.48656 365
53.50667 375
53.52678 389
53.5469 371
53.56701 368
53.58713 383
53.60724 410
53.62735 408
53.64747 375
53.66758 393
53.68769 356
53.70781 378
53.72792 385
53.74804 399
53.76815 401
53.78826 372
53.80838 361
53.82849 415
53.8486 394
53.86872 413
53.88883 411
53.90894 401
53.92906 434
53.94917 394
53.96929 426
53.9894 448
54.00951 471
54.02963 416
54.04974 394
54.06985 427
54.08997 431
54.11008 422
54.1302 444
54.15031 408
54.17042 453
54.19054 457
54.21065 483
54.23076 445
54.25088 435
54.27099 448
54.29111 450
54.31122 457
54.33133 425
54.35145 420
54.37156 446
54.39167 463
54.41179 440
54.4319 424
54.45201 478
54.47213 452
54.49224 465
54.51236 434
54.53247 446
54.55258 458
54.5727 456
54.59281 453
54.61292 483
54.63304 447
54.65315 474
54.67327 475
54.69338 453
54.71349 515
54.73361 572
54.75372 574
54.77383 639
54.79395 681
54.81406 680
54.83417 662
54.85429 633
54.8744 609
54.89452 518
54.91463 510
54.93474 559
54.95486 578
54.97497 561
54.99508 542
55.0152 511
55.03531 501
55.05543 435
55.07554 462
55.09565 461
55.11577 467
55.13588 467
55.15599 478
55.17611 428
55.19622 490
55.21634 487
55.23645 511
55.25656 503
55.27668 571
55.29679 543
55.3169 486
55.33702 486
55.35713 474
55.37724 474
55.39736 495
55.41747 430
55.43759 475
55.4577 488
55.47781 471
55.49793 459
55.51804 414
55.53815 448
55.55827 409
55.57838 413
55.5985 416
55.61861 399
55.63872 392
55.65884 382
55.67895 403
55.69906 397
55.71918 399
55.73929 386
55.75941 418
55.77952 383
55.79963 411
55.81975 373
55.83986 387
55.85997 373
55.88009 365
55.9002 357
55.92031 389
55.94043 368
55.96054 358
55.98066 388
56.00077 386
56.02088 349
56.041 348
56.06111 385
56.08122 358
56.10134 359
56.12145 362
56.14157 367
56.16168 349
56.18179 409
56.20191 374
56.22202 368
56.24213 339
56.26225 360
56.28236 316
56.30248 420
56.32259 365
56.3427 315
56.36282 358
56.38293 364
56.40304 368
56.42316 352
56.44327 365
56.46338 363
56.4835 374
56.50361 359
56.52373 367
56.54384 332
56.56395 360
56.58407 349
56.60418 328
56.62429 366
56.64441 368
56.66452 344
56.68464 342
56.70475 355
56.72486 386
56.74498 397
56.76509 385
56.7852 359
56.80532 370
56.82543 369
56.84554 359
56.86566 342
56.88577 320
56.90589 347
56.926 339
56.94611 341
56.96623 310
56.98634 339
57.00645 360
57.02657 349
57.04668 350
57.0668 339
57.08691 360
57.10702 350
57.12714 362
57.14725 372
57.16736 364
57.18748 357
57.20759 365
57.22771 368
57.24782 371
57.26793 353
57.28805 390
57.30816 359
57.32827 358
57.34839 343
57.3685 355
57.38861 372
57.40873 376
57.42884 347
57.44896 367
57.46907 330
57.48918 335
57.5093 350
57.52941 338
57.54952 335
57.56964 297
57.58975 361
57.60987 313
57.62998 354
57.65009 344
57.67021 329
57.69032 315
57.71043 302
57.73055 364
57.75066 347
57.77078 337
57.79089 308
57.811 355
57.83112 311
57.85123 325
57.87134 315
57.89146 312
57.91157 367
57.93168 354
57.9518 343
57.97191 371
57.99203 365
58.01214 344
58.03225 338
58.05237 343
58.07248 340
58.09259 329
58.11271 334
58.13282 333
58.15294 346
58.17305 336
58.19316 351
58.21328 345
58.23339 314
58.2535 321
58.27362 342
58.29373 336
58.31385 308
58.33396 319
58.35407 365
58.37419 358
58.3943 392
58.41441 349
58.43453 301
58.45464 331
58.47475 311
58.49487 321
58.51498 337
58.5351 319
58.55521 349
58.57532 338
58.59544 384
58.61555 338
58.63566 308
58.65578 351
58.67589 338
58.69601 339
58.71612 363
58.73623 319
58.75635 335
58.77646 338
58.79657 332
58.81669 338
58.8368 301
58.85691 345
58.87703 299
58.89714 318
58.91726 336
58.93737 335
58.95748 316
58.9776 323
58.99771 289
59.01782 333
59.03794 337
59.05805 316
59.07817 325
59.09828 337
59.11839 324
59.13851 337
59.15862 325
59.17873 301
59.19885 325
59.21896 300
59.23908 318
59.25919 318
59.2793 345
59.29942 337
59.31953 350
59.33964 336
59.35976 327
59.37987 349
59.39998 370
59.4201 383
59.44021 353
59.46033 379
59.48044 377
59.50055 384
59.52067 369
59.54078 387
59.56089 414
59.58101 393
59.60112 409
59.62124 399
59.64135 408
59.66146 442
59.68158 409
59.70169 426
59.7218 478
59.74192 490
59.76203 499
59.78215 576
59.80226 601
59.82237 648
59.84249 689
59.8626 849
59.88271 878
59.90283 873
59.92294 848
59.94305 732
59.96317 670
59.98328 603
60.0034 586
60.02351 608
60.04362 615
60.06374 614
60.08385 605
60.10396 514
60.12408 499
60.14419 475
60.16431 405
60.18442 386
60.20453 349
60.22465 379
60.24476 398
60.26487 356
60.28499 381
60.3051 326
60.32522 357
60.34533 365
60.36544 358
60.38556 326
60.40567 330
60.42578 372
60.4459 306
60.46601 357
60.48612 346
60.50624 300
60.52635 316
60.54647 332
60.56658 332
60.58669 345
60.60681 361
60.62692 303
60.64703 299
60.66715 328
60.68726 321
60.70738 331
60.72749 312
60.7476 333
60.76772 329
60.78783 345
60.80794 314
60.82806 362
60.84817 326
60.86828 338
60.8884 352
60.90851 318
60.92863 344
60.94874 337
60.96885 350
60.98897 387
61.00908 392
61.02919 368
61.04931 358
61.06942 385
61.08954 352
61.10965 368
61.12976 382
61.14988 371
61.16999 383
61.1901 390
61.21022 368
61.23033 366
61.25045 375
61.27056 303
61.29067 375
61.31079 411
61.3309 327
61.35101 349
61.37113 338
61.39124 346
61.41135 344
61.43147 366
61.45158 376
61.4717 358
61.49181 333
61.51192 351
61.53204 348
61.55215 368
61.57226 360
61.59238 326
61.61249 346
61.63261 332
61.65272 346
61.67283 364
61.69295 352
61.71306 362
61.73317 373
61.75329 353
61.7734 361
61.79352 395
61.81363 389
61.83374 391
61.85386 376
61.87397 396
61.89408 403
61.9142 395
61.93431 400
61.95442 424
61.97454 446
61.99465 424
62.01477 427
62.03488 444
62.05499 434
62.07511 444
62.09522 440
62.11533 469
62.13545 427
62.15556 455
62.17568 479
62.19579 479
62.2159 463
62.23602 488
62.25613 486
62.27624 536
62.29636 497
62.31647 473
62.33659 462
62.3567 486
62.37681 466
62.39693 496
62.41704 471
62.43715 448
62.45727 451
62.47738 441
62.49749 434
62.51761 436
62.53772 441
62.55784 416
62.57795 404
62.59806 438
62.61818 423
62.63829 446
62.6584 429
62.67852 403
62.69863 382
62.71875 419
62.73886 366
62.75897 390
62.77909 394
62.7992 403
62.81931 364
62.83943 376
62.85954 402
62.87965 374
62.89977 396
62.91988 390
62.94 373
62.96011 361
62.98022 396
63.00034 381
63.02045 400
63.04056 428
63.06068 367
63.08079 381
63.10091 420
63.12102 361
63.14113 343
63.16125 385
63.18136 385
63.20147 382
63.22159 337
63.2417 353
63.26182 371
63.28193 371
63.30204 369
63.32216 335
63.34227 371
63.36238 342
63.3825 319
63.40261 345
63.42272 360
63.44284 343
63.46295 362
63.48307 384
63.50318 374
63.52329 334
63.54341 346
63.56352 347
63.58363 321
63.60375 355
63.62386 373
63.64398 358
63.66409 347
63.6842 375
63.70432 409
63.72443 427
63.74454 409
63.76466 401
63.78477 416
63.80489 424
63.825 437
63.84511 449
63.86523 412
63.88534 439
63.90545 416
63.92557 470
63.94568 473
63.96579 469
63.98591 487
64.00602 444
64.02614 412
64.04625 393
64.06636 426
64.08648 421
64.10659 429
64.1267 421
64.14682 456
64.16693 400
64.18705 404
64.20716 376
64.22727 382
64.24739 354
64.2675 363
64.28761 328
64.30773 346
64.32784 350
64.34796 325
64.36807 319
64.38818 345
64.4083 341
64.42841 332
64.44852 313
64.46864 331
64.48875 358
64.50886 331
64.52898 311
64.54909 352
64.56921 349
64.58932 338
64.60943 295
64.62955 325
64.64966 299
64.66977 320
64.68989 337
64.71 313
64.73012 327
64.75023 319
64.77034 332
64.79046 342
64.81057 344
64.83068 321
64.8508 323
64.87091 306
64.89102 338
64.91114 329
64.93125 328
64.95137 328
64.97148 337
64.99159 342
65.01171 326
65.03182 303
65.05193 338
65.07205 340
65.09216 344
65.11228 320
65.13239 368
65.1525 342
65.17262 351
65.19273 373
65.21284 344
65.23296 353
65.25307 319
65.27319 349
65.2933 298
65.31341 321
65.33353 346
65.35364 347
65.37375 315
65.39387 316
65.41398 322
65.43409 318
65.45421 339
65.47432 310
65.49444 331
65.51455 337
65.53466 293
65.55478 327
65.57489 302
65.595 304
65.61512 298
65.63523 302
65.65535 301
65.67546 305
65.69557 330
65.71569 306
65.7358 341
65.75591 315
65.77603 328
65.79614 281
65.81626 352
65.83637 318
65.85648 333
65.8766 337
65.89671 312
65.91682 293
65.93694 306
65.95705 330
65.97716 307
65.99728 297
66.01739 296
66.03751 289
66.05762 310
66.07773 287
66.09785 343
66.11796 330
66.13807 321
66.15819 330
66.1783 337
66.19842 334
66.21853 380
66.23864 337
66.25876 346
66.27887 329
66.29898 327
66.3191 325
66.33921 341
66.35933 322
66.37944 347
66.39955 332
66.41967 360
66.43978 308
66.45989 335
66.48001 324
66.50012 265
66.52023 292
66.54035 289
66.56046 291
66.58058 285
66.60069 347
66.6208 301
66.64092 328
66.66103 301
66.68114 318
66.70126 312
66.72137 301
66.74149 312
66.7616 332
66.78171 313
66.80183 305
66.82194 303
66.84205 312
66.86217 292
66.88228 289
66.90239 310
66.92251 317
66.94262 320
66.96274 340
66.98285 319
67.00296 295
67.02308 318
67.04319 306
67.0633 301
67.08342 300
67.10353 277
67.12365 316
67.14376 316
67.16387 300
67.18399 326
67.2041 337
67.22421 330
67.24433 307
67.26444 318
67.28456 296
67.30467 330
67.32478 306
67.3449 309
67.36501 324
67.38512 316
67.40524 313
67.42535 293
67.44546 355
67.46558 339
67.48569 358
67.50581 369
67.52592 427
67.54603 420
67.56615 410
67.58626 479
67.60637 497
67.62649 542
67.6466 569
67.66672 569
67.68683 624
67.70694 608
67.72706 544
67.74717 523
67.76728 543
67.7874 475
67.80751 449
67.82763 490
67.84774 518
67.86785 515
67.88797 541
67.90808 485
67.92819 520
67.94831 533
67.96842 525
67.98853 547
68.00865 547
68.02876 600
68.04888 634
68.06899 683
68.0891 745
68.10922 694
68.12933 703
68.14944 625
68.16956 569
68.18967 579
68.20979 656
68.2299 612
68.25001 710
68.27013 708
68.29024 617
68.31035 629
68.33047 519
68.35058 464
68.3707 433
68.39081 425
68.41092 436
68.43104 417
68.45115 419
68.47126 423
68.49138 356
68.51149 387
68.5316 300
68.55172 325
68.57183 359
68.59195 302
68.61206 326
68.63217 351
68.65229 311
68.6724 308
68.69251 295
68.71263 283
68.73274 301
68.75286 297
68.77297 287
68.79308 308
68.8132 319
68.83331 282
68.85342 313
68.87354 323
68.89365 315
68.91376 297
68.93388 324
68.95399 293
68.97411 296
68.99422 285
69.01433 291
69.03445 296
69.05456 301
69.07467 326
69.09479 309
69.1149 300
69.13502 287
69.15513 274
69.17524 297
69.19536 308
69.21547 287
69.23558 273
69.2557 281
69.27581 269
69.29593 297
69.31604 260
69.33615 293
69.35627 269
69.37638 283
69.39649 295
69.41661 286
69.43672 303
69.45683 297
69.47695 297
69.49706 285
69.51718 290
69.53729 296
69.5574 284
69.57752 274
69.59763 295
69.61774 288
69.63786 295
69.65797 293
69.67809 295
69.6982 272
69.71831 288
69.73843 275
69.75854 287
69.77865 269
69.79877 308
69.81888 296
69.839 284
69.85911 273
69.87922 297
69.89934 280
69.91945 320
69.93956 261
69.95968 326
69.97979 289
69.9999 280
70.02002 283
70.04013 266
70.06025 284
70.08036 278
70.10047 301
70.12059 306
70.1407 302
70.16081 329
70.18093 305
70.20104 302
70.22116 287
70.24127 278
70.26138 289
70.2815 299
70.30161 301
70.32172 270
70.34184 284
70.36195 272
70.38207 272
70.40218 279
70.42229 305
70.44241 283
70.46252 308
70.48263 279
70.50275 295
70.52286 275
70.54297 309
70.56309 305
70.5832 293
70.60332 297
70.62343 320
70.64354 304
70.66366 296
70.68377 310
70.70388 279
70.724 320
70.74411 274
70.76423 316
70.78434 279
70.80445 289
70.82457 271
70.84468 298
70.86479 300
70.88491 282
70.90502 255
70.92513 292
70.94525 273
70.96536 258
70.98548 290
71.00559 290
71.0257 273
71.04582 303
71.06593 275
71.08604 286
71.10616 260
71.12627 291
71.14639 269
71.1665 278
71.18661 268
71.20673 292
71.22684 292
71.24695 281
71.26707 305
71.28718 299
71.3073 311
71.32741 290
71.34752 296
71.36764 309
71.38775 292
71.40786 300
71.42798 286
71.44809 302
71.4682 292
71.48832 338
71.50843 287
71.52855 308
71.54866 322
71.56877 318
71.58889 291
71.609 324
71.62911 312
71.64923 312
71.66934 303
71.68946 297
71.70957 312
71.72968 309
71.7498 314
71.76991 339
71.79002 317
71.81014 312
71.83025 320
71.85037 309
71.87048 284
71.89059 267
71.91071 301
71.93082 274
71.95093 303
71.97105 299
71.99116 315
72.01127 369
72.03139 320
72.0515 286
72.07162 304
72.09173 281
72.11184 331
72.13196 311
72.15207 316
72.17218 319
72.1923 321
72.21241 316
72.23253 306
72.25264 330
72.27275 322
72.29287 270
72.31298 320
72.33309 310
72.35321 289
72.37332 293
72.39344 299
72.41355 275
72.43366 306
72.45378 309
72.47389 301
72.494 299
72.51412 308
72.53423 290
72.55434 308
72.57446 303
72.59457 293
72.61469 290
72.6348 292
72.65491 314
72.67503 300
72.69514 292
72.71525 302
72.73537 306
72.75548 307
72.7756 297
72.79571 276
72.81582 304
72.83594 291
72.85605 287
72.87616 299
72.89628 328
72.91639 365
72.9365 328
72.95662 311
72.97673 328
72.99685 330
73.01696 312
73.03707 318
73.05719 311
73.0773 340
73.09741 334
73.11753 335
73.13764 305
73.15776 318
73.17787 349
73.19798 324
73.2181 348
73.23821 315
73.25832 361
73.27844 328
73.29855 373
73.31867 382
73.33878 416
73.35889 386
73.37901 390
73.39912 440
73.41923 419
73.43935 368
73.45946 406
73.47957 360
73.49969 369
73.5198 345
73.53992 326
73.56003 421
73.58014 367
73.60026 377
73.62037 377
73.64048 345
73.6606 363
73.68071 349
73.70083 323
73.72094 326
73.74105 311
73.76117 318
73.78128 322
73.80139 355
73.82151 304
73.84162 296
73.86174 321
73.88185 307
73.90196 294
73.92208 309
73.94219 332
73.9623 295
73.98242 283
74.00253 318
74.02264 284
74.04276 283
74.06287 283
74.08299 282
74.1031 297
74.12321 276
74.14333 286
74.16344 305
74.18355 287
74.20367 287
74.22378 267
74.2439 295
74.26401 300
74.28412 297
74.30424 282
74.32435 285
74.34446 302
74.36458 289
74.38469 288
74.40481 280
74.42492 261
74.44503 296
74.46515 281
74.48526 271
74.50537 276
74.52549 281
74.5456 278
74.56571 246
74.58583 265
74.60594 288
74.62606 284
74.64617 278
74.66628 267
74.6864 287
74.70651 295
74.72662 323
74.74674 318
74.76685 290
74.78697 308
74.80708 304
74.82719 324
74.84731 300
74.86742 316
74.88753 302
74.90765 277
74.92776 298
74.94787 312
74.96799 292
74.9881 280
75.00822 290
