3.00117 19916.1842451543
3.02128 19256.388569837
3.0414 18977
3.06151 18246.60379042
3.08162 17590.4906010578
3.10174 17236.6321920375
3.12185 17094.5880146792
3.14197 16477.7134418934
3.16208 15394.2671742184
3.18219 15693.0653956989
3.20231 14962.7527895511
3.22242 14913.7851402318
3.24253 14190.5747957903
3.26265 13464.2274772811
3.28276 13363.5655555561
3.30288 12737.7284436837
3.32299 12213.1179179173
3.3431 12061
3.36322 11621.8600579226
3.38333 11594.2753303825
3.40344 10706.680576811
3.42356 10547.9993906942
3.44367 10248.0683747594
3.46379 9508.12637900924
3.4839 9576
3.50401 8904.788115224
3.52413 8855.74127813515
3.54424 8345.89044929441
3.56435 8041.09410297972
3.58447 8013.43091311539
3.60458 7539.30980365119
3.62469 7439.093991082
3.64481 7045.79521884014
3.66492 6804.93439344531
3.68504 6696.26006270092
3.70515 6128.81960804572
3.72526 5930.05443159647
3.74538 5791.4267627261
3.76549 5247.15155472383
3.7856 5223
3.80572 5005.81175940471
3.82583 4875.66197815626
3.84595 4521.10967773828
3.86606 4310.07346841649
3.88617 4295.25681992099
3.90629 3994.11011879309
3.9264 3955
3.94651 3863.84160162758
3.96663 3484.74062876374
3.98674 3470.67407939905
4.00686 3132.45081628094
4.02697 3135.8984848731
4.04708 3055.27508723089
4.0672 2737
4.08731 2734.9745109844
4.10742 2540.77567433374
4.12754 2456.23230589259
4.14765 2549.53864406665
4.16776 2134.42923992901
4.18788 2211.93497808695
4.20799 2102.0704839881
4.22811 2085.05995680291
4.24822 2180.89700658465
4.26833 1910.65742769605
4.28845 1834.96175105169
4.30856 1798.09396397636
4.32867 1780.93645166132
4.34879 1809.04503266413
4.3689 1630
4.38902 1617.04721124854
4.40913 1630.9198012779
4.42924 1570.05221771939
4.44936 1613.20866952964
4.46947 1424.06674694733
4.48958 1521.99059666358
4.5097 1382
4.52981 1369.00263388691
4.54992 1331.94732573303
4.57004 1287.92731468806
4.59015 1245.15229388905
4.61027 1192.00882541576
4.63038 1220.98755821489
4.65049 1185.03231671698
4.67061 1134.99474656241
4.69072 1150.0022640245
4.71083 1128.97512646153
4.73095 1125.98126581219
4.75106 1073.23942318229
4.77118 951.035227911334
4.79129 1002.97440171705
4.8114 980
4.83152 901.979420245742
4.85163 937.055959780066
4.87174 919.849537384126
4.89186 856.949676241363
4.91197 926.01033564891
4.93209 837.028267140683
4.9522 855
4.97231 825.969633127163
4.99243 784.015007299939
5.01254 821.012220995685
5.03265 783.092794965519
5.05277 766.032414057968
5.07288 733.025658868893
5.09299 730.990150142762
5.11311 737.980840980477
5.13322 679.981265783428
5.15334 682.898334955657
5.17345 602.979274345976
5.19356 678.856595495204
5.21368 691.016263919525
5.23379 676.007716241687
5.2539 644
5.27402 580.981151393073
5.29413 600.009916530113
5.31425 579.973116285676
5.33436 585.016469194138
5.35447 551.064086607456
5.37459 525.998484227495
5.3947 534
5.41481 504.006132691846
5.43493 548.019519192483
5.45504 511.918267868593
5.47516 502.967606029871
5.49527 520.99528072473
5.51538 509.010738110714
5.5355 502
5.55561 483.000430674024
5.57572 483.959756727162
5.59584 420.949846612084
5.61595 445.932329337165
5.63606 433.094538363527
5.65618 392.995937727798
5.67629 428.990574859888
5.69641 427.011057086523
5.71652 447.949438616032
5.73663 364.992209639569
5.75675 432.060392809129
5.77686 377.11090438331
5.79697 367.989762868241
5.81709 371.993423636155
5.8372 384
5.85732 363.006813443197
5.87743 395.026179532625
5.89754 379.947768803816
5.91766 365.004796820008
5.93777 360.035608452092
5.95788 322.030849860872
5.978 318
5.99811 339.998852276641
6.01823 327.021512616564
6.03834 363.027638003779
6.05845 340.076553978321
6.07857 332.971232518536
6.09868 355.998508057118
6.11879 339.003556163606
6.13891 341.992557120368
6.15902 319.006911010153
6.17913 342.985521064012
6.19925 301.951759492474
6.21936 323.939826773232
6.23948 333.008567489089
6.25959 321.002338102607
6.2797 334
6.29982 347.964239119777
6.31993 286.958472379879
6.34004 299.001135653399
6.36016 278.996693956263
6.38027 308.965923692075
6.40039 307.004409615656
6.4205 302
6.44061 297.006078597991
6.46073 320.020121919346
6.48084 315.981506461787
6.50095 311.008101945029
6.52107 309.993432026604
6.54118 311.014295393691
6.56129 288.006393692483
6.58141 292.004347347628
6.60152 291.989908623649
6.62164 275.967742265653
6.64175 265.992614386783
6.66186 258.051115927086
6.68198 233.990174041204
6.70209 278.975623723448
6.7222 295
6.74232 260.988618852083
6.76243 275.0131259721
6.78255 273.030347598584
6.80266 293.007246234826
6.82277 262.045840739282
6.84289 255.992324385594
6.863 273
6.88311 275.016865901795
6.90323 321.009650178368
6.92334 274.880147444794
6.94346 243.992526151494
6.96357 267.963251486004
6.98368 282.985290224905
7.0038 302
7.02391 306.992161963239
7.04402 285.996781216582
7.06414 298.003524458505
7.08425 271.120591532996
7.10436 241.951505308486
7.12448 287.001536112106
7.14459 243.007445265091
7.16471 274.01108728039
7.18482 271.0096494413
7.20493 295.002995340995
7.22505 264.910517360594
7.24516 249.985927410982
7.26527 265.983703015791
7.28539 266.999842407446
7.3055 276
7.32562 292.003337078932
7.34573 282.9845981485
7.36584 273.96801428152
7.38596 258.00048790689
7.40607 274.969874936108
7.42618 277.02333805813
7.4463 245
7.46641 239.988724694437
7.48653 224.065593177217
7.50664 303.072209042747
7.52675 275.089504139088
7.54687 272.973778442523
7.56698 289.989484581491
7.58709 279.020785798833
7.60721 236.998846410025
7.62732 271.0270475208
7.64743 279.029091767847
7.66755 298.947382556153
7.68766 248.0549700364
7.70778 266.964197927038
7.72789 292.990746615258
7.748 294
7.76812 253.981972144131
7.78823 263.01343857023
7.80834 267.041935633058
7.82846 287.042496073785
7.84857 244.007133368027
7.86869 284.983046184154
7.8888 272
7.90891 234.001601025651
7.92903 271.047409095054
7.94914 279.009018433688
7.96925 287.997487803974
7.98937 272.044112637488
8.00948 240.026556894219
8.0296 239
8.04971 284.004740346009
8.06982 265.002512408529
8.08994 289.996950333517
8.11005 262.993185211913
8.13016 288.981207721979
8.15028 269.0170026977
8.17039 273.993088456903
8.1905 284
8.21062 270.951331816814
8.23073 237.071892997808
8.25085 328.068794880961
8.27096 269.124749663501
8.29107 264.948825299201
8.31119 295.996867241155
8.3313 278
8.35141 276.007648251205
8.37153 289.992381252749
8.39164 272.991858779431
8.41176 279.022834234306
8.43187 265.956746992936
8.45198 317.987824240768
8.4721 269
8.49221 236.008198648431
8.51232 270.005752105442
8.53244 248.998544172199
8.55255 283.903431073919
8.57266 289.069073349338
8.59278 250.0016202482
8.61289 286.98257687937
8.63301 291.993805969499
8.65312 280.996820903445
8.67323 279.983957455768
8.69335 271.040284390613
8.71346 299.988328306843
8.73357 277.032591994359
8.75369 277.99233363566
8.7738 293
8.79392 294.000030229806
8.81403 299.0145750951
8.83414 311.023753019683
8.85426 311.042682191642
8.87437 282.019576088197
8.89448 285.004210195806
8.9146 264
8.93471 255.004904236645
8.95483 286.075429895628
8.97494 321.978010955798
8.99505 273.111777768334
9.01517 268.952110538953
9.03528 297.011577052159
9.05539 260.006134714678
9.07551 289.018344082708
9.09562 291.960901585211
9.11573 253.018271798684
9.13585 297.013966459196
9.15596 258.039144519039
9.17608 267.016706524038
9.19619 237.986605420124
9.2163 305
9.23642 270.980475717747
9.25653 288.007173779069
9.27664 272.006438704382
9.29676 296.981947190893
9.31687 279.027843497007
9.33699 274.001737873486
9.3571 257
9.37721 231.004023369302
9.39733 263.028490316157
9.41744 258.998711162366
9.43755 279.914944324599
9.45767 304.001998613542
9.47778 280.028477258519
9.4979 263
9.51801 258.997165726655
9.53812 255.005937924792
9.55824 263.993714223914
9.57835 253.001355181828
9.59846 263.998059272043
9.61858 255.995498402343
9.63869 273.994593439314
9.6588 265
9.67892 261.0339218248
9.69903 302.998059965729
9.71915 261.934765556948
9.73926 271.973514066755
9.75937 270.004360647612
9.77949 277.991864137761
9.7996 284
9.81971 249.990923179157
9.83983 255.009790150228
9.85994 250.989902631857
9.88006 259.943188227845
9.90017 290.983948301859
9.92028 275.02623453417
9.9404 256
9.96051 263.015612356885
9.98062 296.004709337816
10.00074 275.977224459985
10.02085 277.039273738764
10.04097 252.991354763002
10.06108 289.968785537027
10.08119 295.002591947976
10.10131 289.994772935222
10.12142 275.990270679536
10.14153 270.989023856208
10.16165 258.970551639129
10.18176 256.974709393154
10.20187 280.959707667453
10.22199 291.009293170052
10.2421 263
10.26222 280.01037347532
10.28233 267.96918286795
10.30244 246.946540690764
10.32256 223.013196937781
10.34267 237.960258648878
10.36278 273.947236602189
10.3829 311
10.40301 259.992211373741
10.42313 288.020226208445
10.44324 270.988403309624
10.46335 286.983409155023
10.48347 278.995281471568
10.50358 290.010333619653
10.52369 256.015168738003
10.54381 246.000164930202
10.56392 255.026043547642
10.58403 288.031387546549
10.60415 289.98646825839
10.62426 280.045978146784
10.64438 255.006923608802
10.66449 270.988142963885
10.6846 285
10.70472 283.005744084374
10.72483 292.999018631445
10.74494 276.957679259805
10.76506 264.002265838762
10.78517 267.005962932446
10.80529 249.013830842286
10.8254 242
10.84551 306.018821561118
10.86563 292.942222623997
10.88574 260.964205464417
10.90585 265.926415378069
10.92597 302.961872236678
10.94608 306.011582877894
10.9662 277
10.98631 225.999669168692
11.00642 264.020582605855
11.02654 247.967663010039
11.04665 265.875609564362
11.06676 306.019772707531
11.08688 258.033518033631
11.10699 262.992238238055
11.1271 271
11.14722 285.009350059028
11.16733 281.977753554454
11.18745 260.945656733498
11.20756 256.945741073605
11.22767 289.004723436832
11.24779 254.011579010019
11.2679 262
11.28801 269.003582960211
11.30813 280.014834604248
11.32824 285.001999065664
11.34836 283.0098302517
11.36847 278.998845189826
11.38858 275.022059161192
11.4087 252
11.42881 278.001542613741
11.44892 256.995530685685
11.46904 276.017859410186
11.48915 266.010956462599
11.50927 275.987190556811
11.52938 282.979031340077
11.54949 306.001463830472
11.56961 278.989448208417
11.58972 283.018786837338
11.60983 304.030921933411
11.62995 312.970554359011
11.65006 292.018454335832
11.67017 296.998350903785
11.69029 292.996066355098
11.7104 305
11.73052 282.997168427923
11.75063 291.972005057665
11.77074 265.047243739896
11.79086 318.99109370124
11.81097 277.008985606021
11.83108 320.974883864154
11.8512 301
11.87131 306.010421805993
11.89143 316.980500350369
11.91154 302.038260194183
11.93165 341.972849295024
11.95177 320.013488236874
11.97188 345.963093751553
11.99199 361.008130669603
12.01211 337.000697725971
12.03222 360.007778801908
12.05234 341.964580034064
12.07245 346.053646543817
12.09256 375.933910059061
12.11268 398.995808376704
12.13279 384.012908904023
12.1529 376
12.17302 417.002418536239
12.19313 387.9931968215
12.21324 418.03797280889
12.23336 421.940314372112
12.25347 466.988487738226
12.27359 453.982339196537
12.2937 523
12.31381 481.987917915326
12.33393 506.041896604901
12.35404 510.997672509534
12.37415 521.93935357391
12.39427 539.018638785317
12.41438 484.087693779683
12.4345 404
12.45461 405.005168318827
12.47472 393.968351913006
12.49484 361.975770673678
12.51495 369.978771310041
12.53506 361.04950741591
12.55518 331.025747216242
12.57529 316.003306608606
12.5954 311
12.61552 304.000909389771
12.63563 315.023833479314
12.65575 311.898223654212
12.67586 264.010076062034
12.69597 294.984209834711
12.71609 265.016913014146
12.7362 260
12.75631 289.012022268939
12.77643 294.981830489174
12.79654 277.982996030978
12.81666 278.009105960894
12.83677 264.022488929933
12.85688 258.992216525774
12.877 265
12.89711 239.994209491845
12.91722 251.017829132575
12.93734 253.963971873315
12.95745 234.98367588184
12.97757 255.007580509257
12.99768 237.977200829566
13.01779 296.980500730081
13.03791 282.977794980054
13.05802 246.98945096157
13.07813 255.004717151402
13.09825 243.972307672634
13.11836 242.989243435326
13.13847 252.97531291942
13.15859 270.993838957805
13.1787 260
13.19882 212.993986219774
13.21893 240.014133545959
13.23904 228.025841421289
13.25916 264.97354950761
13.27927 242.036414165132
13.29938 240.987823826281
13.3195 250
13.33961 236.98915900871
13.35973 225.019139701143
13.37984 248.007230810209
13.39995 236.978640401296
13.42007 256.020993298285
13.44018 211.029911739298
13.46029 213.995923201919
13.48041 212.000137168593
13.50052 220.008693663148
13.52064 227.019448136717
13.54075 242.045339838678
13.56086 254.003572177895
13.58098 239.02006125182
13.60109 221.008223053962
13.6212 208
13.64132 223.049246500532
13.66143 277.023620586673
13.68154 256.97786287512
13.70166 259.050123303753
13.72177 211.03873233675
13.74189 228.980733566971
13.762 244
13.78211 196.992787385186
13.80223 230.068906468896
13.82234 251.989417375809
13.84245 230.0614890297
13.86257 219.987505519037
13.88268 232.002878200305
13.9028 214
13.92291 215.005338943735
13.94302 219.98980964464
13.96314 209.024340540367
13.98325 238.95500216566
14.00336 236.007510385658
14.02348 234.017922631393
14.04359 209.002539562019
14.06371 229.011622760612
14.08382 232.98365815098
14.10393 209.978018699536
14.12405 209.00855156487
14.14416 210.992146276312
14.16427 220.975063422564
14.18439 235.997921099326
14.2045 228
14.22461 222.001696713315
14.24473 231.011588558789
14.26484 226.961098888685
14.28496 211.973180364345
14.30507 234.019720161933
14.32518 198.002336790832
14.3453 228
14.36541 200.996931399187
14.38552 224.008351206074
14.40564 202.95712752016
14.42575 200.978031034024
14.44587 204.01593273332
14.46598 193.987117602013
14.48609 217.999617723866
14.50621 202.00402057621
14.52632 230.002979458485
14.54643 203.978767092095
14.56655 214.015109168841
14.58666 214.954748762905
14.60677 246.997259484699
14.62689 221.005866723717
14.647 232
14.66712 212.98656364239
14.68723 216.008647468063
14.70734 215.998611047512
14.72746 217.994096358197
14.74757 215.021138299512
14.76768 205.982352899821
14.7878 245
14.80791 249.991041947604
14.82803 217.937200905185
14.84814 186.994730849502
14.86825 202.980989160445
14.88837 198.98798170087
14.90848 215.003910148233
14.92859 196.999115987002
14.94871 222.008828054032
14.96882 220.999167064372
14.98894 222.977318131856
15.00905 207.010755832839
15.02916 224.005734412939
15.04928 204.998844659387
15.06939 225.997938795235
15.0895 205
15.10962 220.048407119749
15.12973 250.941853253287
15.14984 179.973699275993
15.16996 232.925404934633
15.19007 210.07006821722
15.21019 191.986375070615
15.2303 229
15.25041 191.997807252707
15.27053 228.03053039259
15.29064 206.934814134879
15.31075 199.934036597617
15.33087 237.970606248864
15.35098 219.047848962426
15.3711 185
15.39121 233.017334517929
15.41132 228.978811582175
15.43144 207.950859333091
15.45155 189.991970623591
15.47166 219.904796463602
15.49178 236.056352403046
15.51189 155.007933260185
15.53201 209.019489429232
15.55212 199.994059758257
15.57223 212.995217305536
15.59235 194.001671772069
15.61246 212.998926546131
15.63257 190.022195553518
15.65269 198.991631456601
15.6728 212
15.69291 216.99153545712
15.71303 191.991805189814
15.73314 207.018256825774
15.75326 196.037961696406
15.77337 185.993749080727
15.79348 208.959022452644
15.8136 236
15.83371 194.996473698565
15.85382 229.026359293589
15.87394 221.964115275117
15.89405 212.013032906129
15.91417 206.013192597671
15.93428 198.00138391302
15.95439 195.009266090947
15.97451 174.001971572845
15.99462 203.026729300886
16.01473 210.999250199887
16.03485 206.967893639574
16.05496 196.979828359965
16.07508 218.99163884599
16.09519 211.000836393329
16.1153 221
16.13542 214.996488461576
16.15553 216.996796407079
16.17564 208.988193769226
16.19576 205.019953576913
16.21587 191.011737169274
16.23598 194.988646547551
16.2561 207
16.27621 208.994940956583
16.29633 193.987286916887
16.31644 200.034534921713
16.33655 214.002460421435
16.35667 207.984350323324
16.37678 225.00801675636
16.39689 194.01000566418
16.41701 200.006698640191
16.43712 207.005186833762
16.45724 207.979410953526
16.47735 191.977803089901
16.49746 198.962228610359
16.51758 212.007007382891
16.53769 195.999856376946
16.5578 217
16.57792 214.973441042322
16.59803 180.966968442847
16.61814 185.050562811316
16.63826 210.979557918497
16.65837 207.001173447491
16.67849 214.997602115267
16.6986 208
16.71871 198.003072275646
16.73883 213.008664645978
16.75894 196.935189106428
16.77905 179.936637880856
16.79917 226.96913624667
16.81928 204.035754433124
16.8394 192
16.85951 213.996770208908
16.87962 191.004799852577
16.89974 227.052443129361
16.91985 218.072553991901
16.93996 193.023227595851
16.96008 197.984395503126
16.98019 210.998563815544
17.00031 198.987958221837
17.02042 177.994972589681
17.04053 193.039593707773
17.06065 212.002280472888
17.08076 206.976786657073
17.10087 226.00836460238
17.12099 198.007965526729
17.1411 198
17.16121 175.002219724561
17.18133 205.026216896024
17.20144 187.9283621733
17.22156 169.957236330087
17.24167 205.993672256808
17.26178 179.011108619683
17.2819 201
17.30201 208.999984477054
17.32212 211.004823400221
17.34224 219.021215030697
17.36235 225.013739769284
17.38247 213.009831004731
17.40258 210.01309797649
17.42269 194.997368688389
17.44281 213.00045961604
17.46292 196.996959266761
17.48303 213.017021837002
17.50315 207.975943385662
17.52326 206.981566366675
17.54338 218.99439625098
17.56349 211.009824363597
17.5836 194
17.60372 206.011116401953
17.62383 209.002789661163
17.64394 210.992734614049
17.66406 204.00440253677
17.68417 206.99916693348
17.70428 205.994030942311
17.7244 212
17.74451 196.001198851212
17.76463 210.995485734279
17.78474 193.001042444342
17.80485 220.923756700035
17.82497 234.995997771346
17.84508 224.032096092992
17.86519 193.998290205762
17.88531 224.009146874466
17.90542 214.985978588614
17.92554 213.010006781774
17.94565 222.037389011568
17.96576 229.034090837664
17.98588 207.988597852802
18.00599 231.01136752976
18.0261 172
18.04622 199.038385532967
18.06633 221.030614124421
18.08645 228.923546103877
18.10656 184.016673132701
18.12667 203.019949102607
18.14679 163.000414488411
18.1669 208
18.18701 207.003132290474
18.20713 235.036178487834
18.22724 229.931415801716
18.24735 188.067126386073
18.26747 195.939196196196
18.28758 232.004148416739
18.3077 194
18.32781 187.995749364306
18.34792 174.003945591452
18.36804 203.075259203217
18.38815 224.013533664973
18.40826 207.008514186589
18.42838 215.004591488501
18.44849 199.000601335541
18.46861 214.003178293047
18.48872 203.990632706101
18.50883 204.001957008954
18.52895 194.943042614209
18.54906 178.969537166093
18.56917 212.976450456724
18.58929 206.997126367572
18.6094 227
18.62951 205.989439434959
18.64963 191.965381963792
18.66974 181.077684842431
18.68986 242.961071167528
18.70997 213.032552679002
18.73008 215.016358810917
18.7502 184
18.77031 223.018714856508
18.79042 226.977827111444
18.81054 210.024933563278
18.83065 235.009675724028
18.85077 202.03129471108
18.87088 208.990409139681
18.89099 205.004268258902
18.91111 205.006318403861
18.93122 222.008746140053
18.95133 216.982188825087
18.97145 216.052250998794
18.99156 232.053732185268
19.01168 180.020900727265
19.03179 207.980671937694
19.0519 216
19.07202 184.997935294073
19.09213 210.02523619885
19.11224 209.012558946022
19.13236 228.97088265755
19.15247 227.016410823318
19.17258 226.976745835732
19.1927 252
19.21281 217.990113699754
19.23293 227.018190772186
19.25304 232.025989196397
19.27315 242.048260875132
19.29327 206.019962040442
19.31338 222.984377159842
19.33349 218.006662922329
19.35361 214.005424931763
19.37372 231.008748561326
19.39384 216.925971621812
19.41395 190.042259402275
19.43406 240.918541997224
19.45418 249.0041127784
19.47429 249.998669699562
19.4944 247
19.51452 228.984683147978
19.53463 235.057085624301
19.55475 280.03857732155
19.57486 268.996973944794
19.59497 293.969692303099
19.61509 297.99784081302
19.6352 311
19.65531 316.999627650345
19.67543 318.015908012194
19.69554 340.054158234463
19.71565 351.051096031141
19.73577 338.922632026281
19.75588 416.989295292284
19.776 377
19.79611 468.031826382324
19.81622 470.003322056376
19.83634 503.05530218081
19.85645 505.023849145555
19.87656 503.973338723565
19.89668 519.002123630162
19.91679 505.000883533758
19.93691 511.994118541007
19.95702 487.9980182602
19.97713 509.016304753171
19.99725 484.873251143885
20.01736 439.033216942031
20.03747 448.984721106537
20.05759 447.998614162126
20.0777 463
20.09782 469.980771876327
20.11793 431.945599944735
20.13804 435.120112535615
20.15816 499.008748791299
20.17827 441.037813867123
20.19838 464.996621854588
20.2185 434
20.23861 465.016380947399
20.25872 471.991325306521
20.27884 465.003858249382
20.29895 470.012466725996
20.31907 459.995323714248
20.33918 472.001606282302
20.35929 459.998308124879
20.37941 485.013411358425
20.39952 505.023612645756
20.41963 511.938882187695
20.43975 462.02719528235
20.45986 527.910528543322
20.47998 516.029017145633
20.50009 509.991154455497
20.5202 531
20.54032 521.00333869788
20.56043 546.042898203037
20.58054 563.0151611205
20.60066 570.968967076537
20.62077 600.93461426189
20.64088 660.921351866758
20.661 763
20.68111 894.057832903395
20.70123 1029.30928785974
20.72134 1331.72967861062
20.74145 1779.56891138479
20.76157 2524.64264428923
20.78168 3544.92478574636
20.80179 4721.32547440156
20.82191 6114.59675498318
20.84202 6972.59218095449
20.86214 7190.30049614715
20.88225 6336.27776475177
20.90236 5147.77058512194
20.92248 3611.49778604557
20.94259 2338.50149569646
20.9627 1558
20.98282 1041.59993493653
21.00293 759.752852313403
21.02305 675.918572730343
21.04316 655.035586717444
21.06327 628.058706053839
21.08339 578.02770165599
21.1035 531
21.12361 509.983755630092
21.14373 473.982897858512
21.16384 478.971486652966
21.18395 451.000177405479
21.20407 468.027302526359
21.22418 430.98659259523
21.2443 477
21.26441 415.988692959033
21.28452 450.018934056749
21.30464 422.935126288371
21.32475 417.961625264658
21.34486 426.039667396118
21.36498 389.022275945197
21.38509 393.993333362974
21.40521 404.006849725147
21.42532 420.009492713939
21.44543 406.935762383726
21.46555 371.038846998755
21.48566 422.943512115815
21.50577 406.036552116629
21.52589 393.010163287329
21.546 368
21.56612 363.964711798272
21.58623 321.012758829216
21.60634 368.027173219697
21.62646 331.065434721138
21.64657 339.949217843878
21.66668 363.007295235274
21.6868 341
21.70691 362.005177439332
21.72702 347.98090774785
21.74714 344.024702792042
21.76725 350.060580225026
21.78737 312.01624847547
21.80748 336.971485537432
21.82759 346.999368228338
21.84771 339.987699531099
21.86782 320.016556589615
21.88793 355.004930518796
21.90805 314.887587015938
21.92816 302.956995747804
21.94828 340.963254546895
21.96839 351.012586154041
21.9885 316
22.00862 335.019717921541
22.02873 339.000397488811
22.04884 332.946407374599
22.06896 302.006557278864
22.08907 322.984488765913
22.10919 308.010014140736
22.1293 313
22.14941 355.000220165716
22.16953 314.946229872145
22.18964 315.047623056953
22.20975 323.08838816966
22.22987 276.993598668447
22.24998 319.99104892095
22.27009 286.006495332974
22.29021 320.021467519275
22.31032 324.95751311177
22.33044 274.985252439987
22.35055 303.016978283218
22.37066 277.027500458655
22.39078 294.975628338143
22.41089 300.007553868372
22.431 285
22.45112 305.004926225993
22.47123 279.938386653097
22.49135 265.10030542871
22.51146 315.029978293864
22.53157 254.019995713595
22.55169 305.979537415194
22.5718 301
22.59191 301.993797557264
22.61203 279.995555721518
22.63214 295.007085941104
22.65225 284.990718322247
22.67237 295.027651714709
22.69248 264.989492802112
22.7126 300
22.73271 244.982754619761
22.75282 266.045577610413
22.77294 286.954898085977
22.79305 251.000044864989
22.81316 283.972403072549
22.83328 271.992199635881
22.85339 300.997169187295
22.87351 278.995272012643
22.89362 296.017349224146
22.91373 294.981608129101
22.93385 290.034525247844
22.95396 306.020258669539
22.97407 276.022736974549
22.99419 291.985606459953
23.0143 301
23.03442 262.986413819257
23.05453 285.048343830727
23.07464 299.990089140655
23.09476 289.99496426957
23.11487 305.980742578612
23.13498 306.006053055337
23.1551 294
23.17521 279.011585372899
23.19532 315.997450058037
23.21544 276.961750030739
23.23555 279.077694733955
23.25567 237.958968699555
23.27578 317.962440744275
23.29589 293.006565228878
23.31601 305.989529940808
23.33612 258.99527846427
23.35623 304.051210966575
23.37635 286.878496035884
23.39646 253.9776165208
23.41658 290.983914539167
23.43669 273.00935458461
23.4568 277
23.47692 295.01651101234
23.49703 300.982876469629
23.51714 277.956570164471
23.53726 268.000189342334
23.55737 273.984547904164
23.57749 283.99668885359
23.5976 283
23.61771 264.98816386654
23.63783 257.040600780417
23.65794 304.064090649023
23.67805 296.096810293208
23.69817 257.026075098836
23.71828 273.957633442135
23.73839 309.996989054929
23.75851 294.99817152159
23.77862 318.032592204453
23.79874 327.943364167333
23.81885 287.977184556921
23.83896 312.959966116175
23.85908 308.01131220791
23.87919 312.987371261954
23.8993 338
23.91942 313.978648067239
23.93953 310.003237121767
23.95965 327.129147442317
23.97976 389.941009085316
23.99987 382.009136559643
24.01999 400.986192502867
24.0401 395
24.06021 308.980127396609
24.08033 325.023660266562
24.10044 308.952811883152
24.12056 291.04525565701
24.14067 272.989620260888
24.16078 297.984357882874
24.1809 295
24.20101 301.004151334258
24.22112 300.98841395661
24.24124 290.010413746445
24.26135 301.023027063476
24.28146 279.002358040002
24.30158 300.986350600605
24.32169 290.010267992642
24.34181 283.007403347813
24.36192 303.000127751824
24.38203 284.985813138222
24.40215 292.012453431211
24.42226 298.937841533763
24.44237 336.992729982841
24.46249 307.013132053721
24.4826 296
24.50272 266.995507014686
24.52283 293.047041186838
24.54294 310.014676229383
24.56306 313.996254064871
24.58317 314.999953575143
24.60328 320.981113202158
24.6234 340
24.64351 317.988131355186
24.66362 323.045317603078
24.68374 382.067200737568
24.70385 375.061356143846
24.72397 368.961528694837
24.74408 408.976788838579
24.76419 418.98457215964
24.78431 463.007231057832
24.80442 435.96189131121
24.82453 440.104231371056
24.84465 520.027719711567
24.86476 467.066513973195
24.88488 491.961496261239
24.90499 497.015633671443
24.9251 456
24.94522 440.947197027051
24.96533 383.020980488316
24.98544 447.030552630995
25.00556 390.107445062125
25.02567 390.95086267211
25.04579 397.028286696531
25.0659 329
25.08601 407.025920574082
25.10613 388.944356166177
25.12624 376.008304047506
25.14635 382.993553086755
25.16647 377.017257279861
25.18658 381.959554842598
25.20669 435.987167557373
25.22681 421.988196095584
25.24692 420.021104239452
25.26704 453.063616508788
25.28715 448.844864984544
25.30726 372.04980277262
25.32738 404.969031332978
25.34749 397.012168959998
25.3676 373
25.38772 353.009402763646
25.40783 376.000816446538
25.42795 351.963108793092
25.44806 360.972549551411
25.46817 365.997512812144
25.48829 361.010165074059
25.5084 339
25.52851 358.007465991965
25.54863 357.996758272296
25.56874 358.993447764012
25.58886 349.022956310468
25.60897 355.939586520196
25.62908 398.003559301487
25.6492 366
25.66931 416.02046052956
25.68942 413.975363722276
25.70954 418.12746674624
25.72965 491.002183627883
25.74976 429.055578529539
25.76988 461.975098953913
25.78999 446.010517954782
25.81011 452.014708463751
25.83022 490.034721368226
25.85033 507.998172778156
25.87045 490.932458200588
25.89056 469.013820549885
25.91067 485.940089660764
25.93079 519.001873054708
25.9509 490
25.97102 507.01960316117
25.99113 515.013582599757
26.01124 532.037707287672
26.03136 543.996091146984
26.05147 541.99548254507
26.07158 561.960349896287
26.0917 599
26.11181 596.014075967759
26.13193 666.118618250088
26.15204 726.086936417353
26.17215 762.910080950659
26.19227 795.968429309356
26.21238 809.979768681382
26.23249 847.973401498913
26.25261 896.01181493956
26.27272 909.03433448557
26.29283 985.157381068488
26.31295 1092.230833101
26.33306 1166.86442105869
26.35318 1250.89009847078
26.37329 1412.88663212157
26.3934 1665
26.41352 1883.30125648582
26.43363 2305.73101393032
26.45374 2921.69168231203
26.47386 4004.61028683661
26.49397 5390.38908152117
26.51409 7677.59980364564
26.5342 11010
26.55431 15371.4311349674
26.57443 20742.6343636952
26.59454 26333.6281469439
26.61465 30198.9871873385
26.63477 32131.5307231556
26.65488 29233.6880000153
26.67499 23762.9365267599
26.69511 18059.4237936269
26.71522 13437.6844181194
26.73534 9089.31381094697
26.75545 5158.4665125727
26.77556 3150.65728300356
26.79568 2140.67296465065
26.81579 1703.14746363992
26.8359 1460
26.85602 1336.91276295897
26.87613 1250.85402719651
26.89625 1142.74326866582
26.91636 1052.16907340578
26.93647 975.08894282149
26.95659 921.034732864278
26.9767 822
26.99681 724.981277595674
27.01693 733.00561169294
27.03704 699.895150163141
27.05716 645.112001597724
27.07727 596.04986644469
27.09738 580.005196224493
27.1175 570
27.13761 532.97971807236
27.15772 511.009826671899
27.17784 517.912934362527
27.19795 455.006298799696
27.21806 501.987684525655
27.23818 454.024502174369
27.25829 473.995918447815
27.27841 450.991475451994
27.29852 460.018353640418
27.31863 464.978069557375
27.33875 448.010641220474
27.35886 469.975102320927
27.37897 460.027519085179
27.39909 462.979973693626
27.4192 525
27.43932 537.97555827561
27.45943 508.996847602827
27.47954 519.958549124993
27.49966 459.127112128024
27.51977 425.012021954871
27.53988 427.000091769179
27.56 414
27.58011 403.013108513691
27.60023 430.955383956958
27.62034 358.921926839737
27.64045 379.916072084853
27.66057 381.044192040716
27.68068 341.031913912736
27.70079 337.985659845256
27.72091 364.994351449495
27.74102 326.983575888597
27.76113 348.03966962149
27.78125 358.007737776736
27.80136 351.059445916117
27.82148 314.015380062338
27.84159 329.985784236057
27.8617 347
27.88182 331.977044372665
27.90193 308.967397420992
27.92204 312.100690616952
27.94216 365.025582072836
27.96227 299.057595728574
27.98239 317.987137227345
28.0025 313
28.02261 307.016320397708
28.04273 346.990533807352
28.06284 297.930631140173
28.08295 303.958221723052
28.10307 305.016659265281
28.12318 298.987145598767
28.1433 322
28.16341 308.987845973518
28.18352 291.997383963187
28.20364 290.962101970125
28.22375 272.046550103639
28.24386 313.974078648442
28.26398 286.028906309775
28.28409 281.996425276253
28.3042 287
28.32432 282.982776234329
28.34443 267.008879743256
28.36455 289.028993476004
28.38466 281.021092883578
28.40477 274.021263590674
28.42489 253.008130814987
28.445 261
28.46511 305.004898304294
28.48523 273.938645466188
28.50534 260.039307233044
28.52546 286.998076762595
28.54557 269.990834638862
28.56568 295.001715562496
28.5858 271
28.60591 303.004960012268
28.62602 276.974195404774
28.64614 268.983753832431
28.66625 261.966231420917
28.68636 291.954637234545
28.70648 293.011546829339
28.72659 278.009104340172
28.74671 272.010863117536
28.76682 292.976079054714
28.78693 245.994264408374
28.80705 289.069110093258
28.82716 268.082011226863
28.84727 247.978975738463
28.86739 286.979314448362
28.8875 305
28.90762 279.975287961003
28.92773 275.028173467436
28.94784 295.994855043016
28.96796 270.04638827568
28.98807 264.995473319044
29.00818 267.994894759263
29.0283 271
29.04841 257.993605962006
29.06853 257.022422766771
29.08864 284.06144174162
29.10875 301.016601631185
29.12887 277.037756572221
29.14898 258.021027912575
29.16909 244.99312111331
29.18921 270.000854721391
29.20932 249.994242698931
29.22943 268.02321516814
29.24955 267.993717482654
29.26966 270.992991465373
29.28978 274.990624034872
29.30989 285.998128168381
29.33 276
29.35012 264.016014901103
29.37023 297.030138893261
29.39034 281.914197837208
29.41046 246.994961534554
29.43057 281.950265363962
29.45069 284.01230259491
29.4708 260
29.49091 276.000977291032
29.51103 254.966262077529
29.53114 257.062920265953
29.55125 287.019888744023
29.57137 245.053306782439
29.59148 248.963444662407
29.6116 280
29.63171 244.988507158612
29.65182 253.017815563068
29.67194 253.957029217763
29.69205 233.020834692449
29.71216 258.993907714072
29.73228 239.99973688195
29.75239 263.994631610386
29.7725 258
29.79262 283.003706538924
29.81273 263.988549246017
29.83285 264.932877439142
29.85296 225.0024504416
29.87307 254.001180622242
29.89319 228.991691968014
29.9133 281
29.93341 241.98140193621
29.95353 238.008517559169
29.97364 243.034928116074
29.99376 267.972476306762
30.01387 257.046393314336
30.03398 235.985479312085
30.0541 277
30.07421 278.992230739398
30.09432 269.005961869867
30.11444 280.995389364602
30.13455 261.051105775664
30.15467 252.99905199505
30.17478 251.011987979281
30.19489 246.985278849504
30.21501 289.003755791859
30.23512 249.94929896464
30.25523 232.03790861855
30.27535 276.068593571803
30.29546 276.007783443457
30.31557 278.009079481376
30.33569 259.011276696393
30.3558 242
30.37592 235.99859513232
30.39603 239.011793194508
30.41614 243.987668515084
30.43626 228.031734579805
30.45637 226.971469533345
30.47648 251.988709183868
30.4966 244
30.51671 235.997177260581
30.53683 229.991200519006
30.55694 227.004526022294
30.57705 239.93386184998
30.59717 259.019106374733
30.61728 235.987234153342
30.63739 268.005824182514
30.65751 219.993124047
30.67762 255.028047913955
30.69773 248.981947287342
30.71785 243.968174621076
30.73796 235.951856490709
30.75808 281.970184500197
30.77819 273.016393000287
30.7983 246
30.81842 251.994321056645
30.83853 235.99827052858
30.85864 245.984981698456
30.87876 221.026748132976
30.89887 232.966452371481
30.91899 238.012685953322
30.9391 202
30.95921 223.016950591604
30.97933 240.991107614631
30.99944 229.015238570287
31.01955 251.979639183359
31.03967 235.033505530333
31.05978 228.987447382705
31.0799 240
31.10001 212.99594891482
31.12012 228.009708283119
31.14024 222.998114922699
31.16035 232.977735634655
31.18046 234.00377542053
31.20058 238.983445549499
31.22069 253.003831337588
31.2408 226
31.26092 229.034657373439
31.28103 267.012680184044
31.30115 238.902705281977
31.32126 215.015412105481
31.34137 219.979961353381
31.36149 232.99602629572
31.3816 236
31.40171 232.990771788906
31.42183 213.003843432787
31.44194 229.99883485711
31.46206 211.012171570293
31.48217 225.980387347152
31.50228 227.995424175446
31.5224 236
31.54251 220.990368359102
31.56262 208.9980334482
31.58274 214.012555552744
31.60285 211.042708480866
31.62297 199.969534351492
31.64308 239.977826611469
31.66319 227.014137782143
31.68331 215.008183891924
31.70342 236.992669559893
31.72353 213.01029894026
31.74365 235.942539763242
31.76376 189.967227367227
31.78387 256.969526068768
31.80399 212.015730882479
31.8241 226
31.84422 217.997257934655
31.86433 224.992549486689
31.88444 213.015214859383
31.90456 237.973718266924
31.92467 231.009942647599
31.94478 230.010526602251
31.9649 214
31.98501 225.001694070276
32.00513 221.013922636466
32.02524 233.972851753345
32.04535 206.991692922276
32.06547 238.977165559014
32.08558 225.010333430378
32.10569 233.994429794909
32.12581 232.994821311923
32.14592 220.991485802586
32.16604 222.023263688676
32.18615 232.994615046934
32.20626 223.994152029411
32.22638 230.018466231
32.24649 203.994327554919
32.2666 248
32.28672 237.983302654188
32.30683 239.019978750814
32.32694 245.974600226994
32.34706 220.037984241827
32.36717 225.956238156591
32.38729 248.007136622685
32.4074 218
32.42751 260.016779587559
32.44763 251.944482861185
32.46774 228.037965442267
32.48785 272.941346630368
32.50797 265.003941378971
32.52808 274.009998738247
32.5482 245
32.56831 256.012047172484
32.58842 264.980223563834
32.60854 238.002473356649
32.62865 264.963250445796
32.64876 258.000861682793
32.66888 270.995189362485
32.68899 264.000432237411
32.7091 265
32.72922 232.985487853375
32.74933 246.031175269834
32.76945 249.955085236068
32.78956 228.005122393922
32.80967 238.011110963416
32.82979 210.01067978018
32.8499 214
32.87001 232.001084713168
32.89013 215.964047484805
32.91024 210.056259450448
32.93036 245.004379056248
32.95047 208.038408849412
32.97058 211.994049622507
32.9907 210
33.01081 234.014289080182
33.03092 240.970368860305
33.05104 196.958821153281
33.07115 212.929181171575
33.09127 219.040564650699
33.11138 186.00053200857
33.13149 207.003413240264
33.15161 182.008015042281
33.17172 231.014483999658
33.19183 203.987203601841
33.21195 223.997335092378
33.23206 199.004259972001
33.25217 231.949740283581
33.27229 239.006211902618
33.2924 223
33.31252 225.013057907752
33.33263 230.973343722989
33.35274 206.002391500143
33.37286 229.98027192174
33.39297 216.016399246944
33.41308 224.981135397968
33.4332 240
33.45331 235.992839447332
33.47343 224.003707286234
33.49354 236.009078715912
33.51365 227.028984221047
33.53377 223.990932528444
33.55388 234.988778199776
33.57399 232.013515812807
33.59411 208.008208986649
33.61422 242.994267493752
33.63434 197.952932371016
33.65445 220.079236423395
33.67456 227.033406090421
33.69468 204.012770658877
33.71479 204.000462123565
33.7349 206
33.75502 236.006638145405
33.77513 215.971027695327
33.79524 209.986181764675
33.81536 200.001416993645
33.83547 214.962925379545
33.85559 223.014768952151
33.8757 182
33.89581 215.012754645439
33.91593 210.98411835307
33.93604 202.962085876628
33.95615 179.0222160443
33.97627 188.980702198652
33.99638 196.98886297453
34.0165 211
34.03661 212.000349888931
34.05672 213.997927112869
34.07684 201.95537090883
34.09695 192.928542242056
34.11706 234.987075393525
34.13718 197.04201241587
34.15729 196.975923846341
34.17741 249.002217256811
34.19752 214.987699564549
34.21763 231.991276088105
34.23775 194.939093469272
34.25786 205.948661845936
34.27797 218.014429882206
34.29809 203.99649749632
34.3182 226
34.33831 216.003543531857
34.35843 234.989633089461
34.37854 203.968985089752
34.39866 214.981591639782
34.41877 212.99167254904
34.43888 226.99565993538
34.459 225
34.47911 247.001724094729
34.49922 227.982116215739
34.51934 232.046837346025
34.53945 255.981019241622
34.55957 250.995907799327
34.57968 260.00661290835
34.59979 244.997052378216
34.61991 273.010879359648
34.64002 274.996538209722
34.66013 270.979161808572
34.68025 258.020701481303
34.70036 276.008575839434
34.72047 252.013673991273
34.74059 268.990159847827
34.7607 277
34.78082 288.017096519055
34.80093 305.015318791878
34.82104 318.063203584475
34.84116 349.011019257718
34.86127 317.019231718147
34.88138 342.961345333029
34.9015 359
34.92161 327.991238451294
34.94173 345.067325059757
34.96184 381.998397106306
34.98195 353.044150595503
35.00207 355.013568170053
35.02218 327.023672640828
35.04229 330.983982932047
35.06241 358.995470057458
35.08252 325.98919477744
35.10264 344.015283620225
35.12275 321.919993948708
35.14286 297.039236657218
35.16298 286.993641013379
35.18309 320.967145696888
35.2032 369
35.22332 305.987685037644
35.24343 353.039621084936
35.26354 329.955890511016
35.28366 329.019484844307
35.30377 307.011194012977
35.32389 324.986256093083
35.344 343
35.36411 331.986851406383
35.38423 307.993717229565
35.40434 316.996839604852
35.42445 305.988612117534
35.44457 329.966858073236
35.46468 327.030181500385
35.4848 300
35.50491 334.007076741227
35.52502 319.99377338914
35.54514 329.99775538734
35.56525 311.039994199841
35.58536 309.988991367671
35.60548 305.0239453078
35.62559 283.99362682102
35.64571 324.014776091256
35.66582 322.985339618639
35.68593 315.003349905747
35.70605 315.962098752794
35.72616 294.008337978429
35.74627 304.005698011315
35.76639 288.99771070646
35.7865 318
35.80661 314.982019800627
35.82673 287.036207187388
35.84684 347.070631318033
35.86696 342.002700354798
35.88707 355.009285996351
35.90718 330.00953795695
35.9273 338
35.94741 312.992424179329
35.96752 319.010474985569
35.98764 318.98223680633
36.00775 321.915487322263
36.02787 362.992775441444
36.04798 335.013976902682
36.06809 342.005844426311
36.08821 309.993094570806
36.10832 325.016300833391
36.12843 325.994453280757
36.14855 323.988745548563
36.16866 317.010187729517
36.18878 319.987006366239
36.20889 334.99660003973
36.229 329
36.24912 334.043495842956
36.26923 392.041252810913
36.28934 381.978932746766
36.30946 394.953205077799
36.32957 428.914386958
36.34968 493.95633810745
36.3698 545
36.38991 731.102538776368
36.41003 912.240661724756
36.43014 1088.43774743853
36.45025 1370.17467321644
36.47037 1713.51235584245
36.49048 1996.76165107577
36.51059 2202.9092734009
36.53071 2306.98058948492
36.55082 2114.71069653373
36.57094 1778.23908806107
36.59105 1425.38611202003
36.61116 1288.20015308748
36.63128 1152.16941918349
36.65139 956.106541387224
36.6715 730
36.69162 510.836406963506
36.71173 415.933030360198
36.73184 391.97445549639
36.75196 376.046715408163
36.77207 343.059676165933
36.79219 313.002767213529
36.8123 322
36.83241 303.990999253939
36.85253 305.03324465699
36.87264 324.984153881742
36.89275 299.020630239607
36.91287 311.996692233473
36.93298 298.003467634411
36.9531 302
36.97321 261.984532304565
36.99332 272.052580632418
37.01344 317.975512480044
37.03355 267.045781091068
37.05366 298.942168494481
37.07378 289.031485283658
37.09389 265.002177179937
37.11401 263.98709561926
37.13412 241.035940579365
37.15423 309.024907245828
37.17435 266.936990201424
37.19446 278.016175558222
37.21457 240.034269090993
37.23469 258.978727831801
37.2548 289
37.27491 263.988521587203
37.29503 256.99626802708
37.31514 258.030037483464
37.33526 275.007916687024
37.35537 255.012408730418
37.37548 258.013801049071
37.3956 231
37.41571 256.020027433137
37.43582 276.985081947046
37.45594 242.961393835712
37.47605 248.978500898699
37.49617 248.995651513231
37.51628 254.00528388983
37.53639 247.992350748527
37.55651 271.998863717333
37.57662 242.978765453697
37.59673 250.032515248374
37.61685 274.067809069614
37.63696 290.021796752424
37.65708 262.019484838392
37.67719 265.991427836268
37.6973 276
37.71742 264.006287668593
37.73753 282.000290146363
37.75764 264.991537100035
37.77776 270.037985921503
37.79787 245.964722756668
37.81798 298.988882899159
37.8381 261
37.85821 269.997022058902
37.87833 248.011878680453
37.89844 286.044677483403
37.91855 273.056407651265
37.93867 262.005609775162
37.95878 265.983446946755
37.97889 273.014839288758
37.99901 230.998919243108
38.01912 267.020559394
38.03924 258.000779475294
38.05935 270.974978734155
38.07946 246.986358082468
38.09958 289.960529719067
38.11969 296.0092028695
38.1398 282
38.15992 307.009825538172
38.18003 291.970072736992
38.20015 286.018421674886
38.22026 293.013009234339
38.24037 282.985543805406
38.26049 309.990742121263
38.2806 310
38.30071 306.992466344037
38.32083 289.001040582264
38.34094 308.030907745853
38.36105 311.984914054899
38.38117 325.979052632553
38.40128 335.990248209942
38.4214 345
38.44151 345.00107389878
38.46162 340.975708621607
38.48174 307.969045555536
38.50185 321.926581983071
38.52196 341.007089499169
38.54208 315.035815103347
38.56219 291.001202328581
38.58231 305.007756156555
38.60242 297.961168402335
38.62253 265.0305854398
38.64265 320.058144787884
38.66276 294.053790802756
38.68287 295.980954409112
38.70299 295.010471906991
38.7231 275
38.74321 301.002509267449
38.76333 271.94363419675
38.78344 263.064063293838
38.80356 296.038012478617
38.82367 243.023911364239
38.84378 277.971332795546
38.8639 269
38.88401 258.999392003326
38.90412 252.978114068562
38.92424 243.082145371826
38.94435 306.954092708519
38.96447 268.060281732947
38.98458 268.971103363691
39.00469 290.004920024963
39.02481 270.006789341673
39.04492 308.00935573163
39.06503 296.039708492057
39.08515 349.018391797794
39.10526 302.075737330488
39.12538 315.954208930292
39.14549 358.987659974398
39.1656 365
39.18572 375.015855531134
39.20583 388.005120617639
39.22594 392.042421419079
39.24606 427.938521515419
39.26617 461.90353739222
39.28628 551.918081042245
39.3064 618
39.32651 738.089166543918
39.34663 971.400207308564
39.36674 1228.43427269259
39.38685 1438.35472486303
39.40697 1758.50234614624
39.42708 2038.79411634208
39.44719 2136.01472089228
39.46731 1972.85759439927
39.48742 1647.71192593752
39.50754 1431.64512684842
39.52765 1270.68172385539
39.54776 1164.22286569475
39.56788 1010.20420501989
39.58799 778.111850851343
39.6081 578
39.62822 407.881530205098
39.64833 339.931450577711
39.66845 310.022303902562
39.68856 339.980031854291
39.70867 314.055573455897
39.72879 292.00252052105
39.7489 299
39.76901 301.992674692844
39.78913 277.975280208947
39.80924 272.988213150416
39.82935 264.996722503028
39.84947 273.994522490875
39.86958 271.994983822992
39.8897 279
39.90981 265.004731284707
39.92992 280.97698126272
39.95004 243.033755358775
39.97015 309.895960458543
39.99026 284.122397207251
40.01038 255.957847778681
40.03049 327.988211430688
40.05061 299.997537225838
40.07072 345.04708229543
40.09083 372.047151871862
40.11095 419.120434834989
40.13106 462.906358298059
40.15117 514.924389875901
40.17129 580.948108137273
40.1914 716
40.21152 839.128967006286
40.23163 978.197910112545
40.25174 1090.18476964033
40.27186 1134.0726463987
40.29197 1041.14069328535
40.31208 961.104947385771
40.3322 825
40.35231 722.959310160412
40.37242 656.955085769123
40.39254 615.883327275853
40.41265 529.256555853451
40.43277 418.181448583908
40.45288 319.040382014578
40.47299 320.005182854515
40.49311 279.98274039662
40.51322 276.017222307058
40.53333 285.975309321171
40.55345 260.001885442635
40.57356 280.008772649948
40.59368 246.02498644828
40.61379 243.003077330051
40.6339 232
40.65402 259.022608332646
40.67413 254.955380005395
40.69424 221.971670409542
40.71436 227.988312856141
40.73447 229.977980951398
40.75458 245.013891349065
40.7747 215
40.79481 236.000932522181
40.81493 219.01224200984
40.83504 253.032990316664
40.85515 237.050773170481
40.87527 232.992442739349
40.89538 236.00288781963
40.91549 230.999713816584
40.93561 236.000287610272
40.95572 233.003079692613
40.97584 239.998126104366
40.99595 234.008931103886
41.01606 245.990987200631
41.03618 242.994805027104
41.05629 254.000719744544
41.0764 242
41.09652 244.984086480147
41.11663 217.991457991648
41.13675 235.022551932147
41.15686 234.95970148438
41.17697 265.995833955856
41.19709 234.016978857749
41.2172 226
41.23731 254.019443953516
41.25743 278.983345187958
41.27754 246.968788410439
41.29765 249.03962789938
41.31777 211.042259804956
41.33788 212.97903987975
41.358 231
41.37811 234.0129880693
41.39822 266.999637227551
41.41834 232.944626091878
41.43845 234.960930132462
41.45856 241.021646732895
41.47868 226.996056545497
41.49879 241.002516750847
41.51891 217.994701311066
41.53902 224.999738142468
41.55913 217.012921619034
41.57925 240.026739754106
41.59936 227.042996689087
41.61947 225.949733004159
41.63959 271.989245750272
41.6597 251
41.67982 210.975939059465
41.69993 215.05070463033
41.72004 253.028669361657
41.74016 243.015147566362
41.76027 243.020815203373
41.78038 221.002483783121
41.8005 238
41.82061 229.997150934141
41.84072 239.017068479055
41.86084 252.006163510959
41.88095 248.006349895313
41.90107 244.025180854633
41.92118 218.019764618378
41.94129 223.981960780263
41.96141 257.997363102258
41.98152 225.990890296306
42.00163 242.995630614093
42.02175 211.946919286352
42.04186 224.931923404181
42.06198 258.974705223185
42.08209 261.013842891212
42.1022 236
42.12232 276.004866731768
42.14243 244.985399278269
42.16254 286.128568146533
42.18266 333.964500438817
42.20277 326.024723433509
42.22289 325.987841730841
42.243 370
42.26311 416.021196475925
42.28323 464.090853135928
42.30334 557.272915375055
42.32345 710.677523860028
42.34357 851.660871436075
42.36368 1142.74445166798
42.38379 1312.93593912482
42.40391 1450.07425652061
42.42402 1566.03294909245
42.44414 1474.58717557286
42.46425 1244.58467553993
42.48436 1145.22392572588
42.50448 991.142169578962
42.52459 888.043292827324
42.5447 812
42.56482 745.846007651322
42.58493 529.729419377379
42.60505 422.77971947612
42.62516 321.179198660309
42.64527 269.017918828812
42.66539 276.997134798371
42.6855 273
42.70561 273.990752768291
42.72573 240.966219341484
42.74584 239.008542819101
42.76595 238.008695644184
42.78607 232.016866696124
42.80618 224.990331251074
42.8263 242
42.84641 228.996494552
42.86652 226.980965743391
42.88664 199.993094441681
42.90675 215.999942229528
42.92686 198.005163212596
42.94698 215.989920814561
42.96709 210.999447853304
42.98721 227.009158144897
43.00732 228.979299631789
43.02743 206.002632361316
43.04755 225.004727763266
43.06766 199.060090473192
43.08777 195.952210662974
43.10789 229.004046478603
43.128 191
43.14812 215.023553028275
43.16823 208.960490727602
43.18834 191.020305534376
43.20846 216.981109091587
43.22857 205.009507630814
43.24868 211.999090351334
43.2688 202
43.28891 204.000020302286
43.30902 196.99109418065
43.32914 191.999558488197
43.34925 193.997912809695
43.36937 192.004673679101
43.38948 194.985395910447
43.40959 217.988876522612
43.42971 218.984014800009
43.44982 178.989198048841
43.46993 203.041423532308
43.49005 211.996863755588
43.51016 212.985661621995
43.53028 211.030408953245
43.55039 173.002401501161
43.5705 201
43.59062 198.000736821856
43.61073 207.997521822466
43.63084 194.993628745892
43.65096 202.007028953048
43.67107 189.996530612254
43.69119 205.996969628921
43.7113 203
43.73141 223.999307993728
43.75153 195.958470376258
43.77164 200.081407751401
43.79175 234.054442906759
43.81187 179.024524295813
43.83198 213.972856593458
43.85209 205.007261873403
43.87221 200.996076547245
43.89232 193.010077714309
43.91244 218.036723473159
43.93255 212.939888763083
43.95266 188.023096705296
43.97278 191.992188613284
43.99289 199.991953568582
44.013 217
44.03312 205.992150077281
44.05323 203.985329573244
44.07335 184.960535963774
44.09346 184.967564746701
44.11357 207.970629679404
44.13369 212.006942614611
44.1538 190
44.17391 197.019991235555
44.19403 229.965666326452
44.21414 172.959086598653
44.23426 208.916508745213
44.25437 222.000675575269
44.27448 219.010005939769
44.2946 203
44.31471 199.007563014273
44.33482 208.973590247766
44.35494 171.01375057232
44.37505 209.995472030251
44.39516 173.016387929204
44.41528 205.981407481863
44.43539 190.007681022737
44.45551 194.003513228026
44.47562 203.026050213458
44.49573 230.998881187061
44.51585 203.949241052838
44.53596 209.961418440593
44.55607 220.013572200179
44.57619 203.001919972434
44.5963 206
44.61642 176.995903261929
44.63653 202.033067536456
44.65664 208.016698900617
44.67676 220.99770527898
44.69687 206.028482491875
44.71698 199.987895207404
44.7371 217
44.75721 203.993308199921
44.77732 204.011467475332
44.79744 212.98874411443
44.81755 194.04657257783
44.83767 186.995978074755
44.85778 191.001119537628
44.87789 187.997596216478
44.89801 202.007349019241
44.91812 205.990090947326
44.93823 195.006025867922
44.95835 209.007208427191
44.97846 200.995392753581
44.99858 213.997195864491
45.01869 207.996290828935
45.0388 227
45.05892 211.979360189866
45.07903 197.98461513257
45.09914 189.992038354891
45.11926 192.977581914473
45.13937 208.976289556681
45.15949 219.996913519295
45.1796 225
45.19971 227.994290730381
45.21983 210.994905567664
45.23994 224.026426940949
45.26005 228.989538613996
45.28017 233.004805306326
45.30028 225.003256924153
45.32039 235.987427909446
45.34051 250.990110168745
45.36062 210.97928069517
45.38074 231.086337324567
45.40085 253.940816720226
45.42096 207.039843966655
45.44108 231.962004191859
45.46119 253.995917615628
45.4813 252
45.50142 241.999687902266
45.52153 259.049727580214
45.54165 296.072399879798
45.56176 306.017755016186
45.58187 293.003874338936
45.60199 321.966581583626
45.6221 412
45.64221 485.029183978138
45.66233 541.091902033168
45.68244 621.205323223769
45.70256 752.681966103416
45.72267 907.825830456204
45.74278 997.891818871142
45.7629 1109
45.78301 1072.95578273973
45.80312 942.807078237725
45.82324 743.755984084138
45.84335 712.019098941926
45.86346 673.116727347129
45.88358 616.045323955584
45.90369 579.020498593617
45.92381 518.959880924599
45.94392 423.899228933071
45.96403 325.860812497612
45.98415 252.904120984846
46.00426 243.002290078325
46.02437 241.984456462109
46.04449 256.00079709351
46.0646 242
46.08472 243.981545883127
46.10483 216.000099308948
46.12494 236.995003121603
46.14506 202.063052910546
46.16517 203.954503881828
46.18528 231.00338825343
46.2054 205
46.22551 203.988610505742
46.24563 171.004851392111
46.26574 211.062182863514
46.28585 212.013271527262
46.30597 222.961397609701
46.32608 234.032012317993
46.34619 178.015893085281
46.36631 194.019841201229
46.38642 216.989388752897
46.40653 195.008470612516
46.42665 228.052695680005
46.44676 222.018933049744
46.46688 218.013135732333
46.48699 198.004795560684
46.5071 202
46.52722 204.012678023806
46.54733 227.030412852148
46.56744 224.937533733963
46.58756 189.016980862359
46.60767 204.99123193815
46.62779 193.001409798134
46.6479 205
46.66801 198.999505660292
46.68813 203.993320994415
46.70824 194.007604733174
46.72835 206.011999858804
46.74847 186.012668891637
46.76858 199.979441425001
46.78869 210.001080201538
46.80881 198.992567292327
46.82892 191.004933037222
46.84904 202.008249900894
46.86915 195.9834431378
46.88926 190.026661789643
46.90938 181.981735089298
46.92949 213.994108523374
46.9496 193
46.96972 172.995878360196
46.98983 182.024343726962
47.00995 205.086993089357
47.03006 227.042367010414
47.05017 178.046230891298
47.07029 186.987583431813
47.0904 200
47.11051 194.003879148349
47.13063 211.007098899234
47.15074 199.98215320204
47.17086 203.979966486073
47.19097 204.028767842222
47.21108 180.004815726126
47.2312 195
47.25131 194.000390738566
47.27142 195.988415154995
47.29154 179.00151551071
47.31165 201.934363755544
47.33176 204.062497907873
47.35188 166.00841136445
47.37199 188.990019525663
47.39211 194.006086516932
47.41222 208.991075133867
47.43233 183.990352877364
47.45245 203.042329915426
47.47256 203.00932333463
47.49267 200.010980575316
47.51279 190.002411291853
47.5329 191
47.55302 189.002903042149
47.57313 197.009896250597
47.59324 191.959178057864
47.61336 172.992937824712
47.63347 194.976895622404
47.65358 188.020261130126
47.6737 182
47.69381 221.005570878477
47.71393 197.964313630325
47.73404 201.049021960935
47.75415 217.043831977235
47.77427 185.998779316041
47.79438 219.97702593897
47.81449 208.013468787114
47.83461 195.005105076077
47.85472 220.021959255459
47.87483 225.991621231618
47.89495 216.978440636243
47.91506 205.044767716198
47.93518 184.997165877002
47.95529 209.987076605353
47.9754 224
47.99552 225.981116057561
48.01563 195.972516119997
48.03574 198.017495899186
48.05586 203.985714598757
48.07597 207.015804897088
48.09609 183.013779657654
48.1162 178
48.13631 217.99753523191
48.15643 179.987109308039
48.17654 216.067468528718
48.19665 222.002754237279
48.21677 219.030863750371
48.23688 189.01497643574
48.257 195
48.27711 198.003436569641
48.29722 208.002588402643
48.31734 200.983356157131
48.33745 198.002227915881
48.35756 202.978671188172
48.37768 211.004809938609
48.39779 189.016568323214
48.4179 172
48.43802 209.008880920818
48.45813 188.991075141383
48.47825 210.045224279951
48.49836 211.995781447879
48.51847 218.004159703692
48.53859 206.0044199649
48.5587 197
48.57881 174.005776391409
48.59893 222.079595262889
48.61904 234.916051126203
48.63916 181.01441403804
48.65927 220.955805728448
48.67938 212.017930609278
48.6995 210
48.71961 222.004991847753
48.73972 223.992388848452
48.75984 212.987144115776
48.77995 205.057944097475
48.80006 194.909001622579
48.82018 262.986262609275
48.84029 210.027690223907
48.86041 207.020322672688
48.88052 241.98827375817
48.90063 197.968771183922
48.92075 209.999291755667
48.94086 194.974174589431
48.96097 230.983053460855
48.98109 202.018464855584
49.0012 188
49.02132 211.031294436338
49.04143 234.005965974699
49.06154 228.006853313547
49.08166 232.047122578324
49.10177 188.042745457512
49.12188 193.976077832476
49.142 219
49.16211 227.988244881081
49.18223 196.000197068279
49.20234 229.0525694059
49.22245 227.031872280997
49.24257 215.0257372688
49.26268 199.002176279159
49.28279 211.991588034087
49.30291 217.995788231913
49.32302 211.013893088127
49.34313 231.992057169712
49.36325 199.935586091572
49.38336 201.962265557689
49.40348 219.989938633783
49.42359 217.007142461842
49.4437 205
49.46382 217.004922437279
49.48393 219.029592968763
49.50404 244.999669458156
49.52416 221.025896690567
49.54427 233.971129302315
49.56439 234.012614987426
49.5845 206
49.60461 228.007312917623
49.62473 231.026905094684
49.64484 258.006592974859
49.66495 243.980909978296
49.68507 275.970360241112
49.70518 274.994033795677
49.7253 295
49.74541 291.996322673832
49.76552 299.028375690936
49.78564 340.074426712018
49.80575 361.019233680474
49.82586 360.01669520037
49.84598 366.956442440298
49.86609 455.939771792428
49.8862 555
49.90632 551.020341710593
49.92643 638.196594965293
49.94655 776.318010073258
49.96666 916.618803744331
49.98677 1162.60514438844
50.00689 1428.85764179076
50.027 1775
50.04711 2271.26492652443
50.06723 2753.56257590943
50.08734 3048.57709255094
50.10746 3274.94748802083
50.12757 3056.5577210073
50.14768 2649.40663828577
50.1678 2256
50.18791 1880.83648360682
50.20802 1690.00870239118
50.22814 1800.1021450416
50.24825 1718.32169882334
50.26837 1545.44496916343
50.28848 1138.41503057118
50.30859 784.157461076099
50.32871 523.920922009211
50.34882 445.938825516758
50.36893 364.892246848919
50.38905 327.991320871221
50.40916 336.995461720307
50.42927 320.044182471741
50.44939 294.006365975588
50.4695 295
50.48962 300.007758740013
50.50973 312.021024996202
50.52984 327.033566372984
50.54996 331.048793684857
50.57007 289.048907428188
50.59018 283.985619168068
50.6103 303
50.63041 300.984617777339
50.65053 256.953424494262
50.67064 256.041748382306
50.69075 274.997039453477
50.71087 267.984913143845
50.73098 288.999742335492
50.75109 264.01144942351
50.77121 249.98744915815
50.79132 219.991933625798
50.81143 237.028058450388
50.83155 230.914805324067
50.85166 196.009145857176
50.87178 218.983153502016
50.89189 219.995575343398
50.912 238
50.93212 219.973343167972
50.95223 197.974202086383
50.97234 193.029882539112
50.99246 221.942474519616
51.01257 236.002912760541
51.03269 223.008941090015
51.0528 211
51.07291 211.9947828736
51.09303 198.006109809119
51.11314 210.982550916245
51.13325 182.041783118321
51.15337 188.984942273054
51.17348 191.993609071235
51.1936 197
51.21371 181.003893979224
51.23382 199.989587378369
51.25394 168.995889768935
51.27405 201.938986372529
51.29416 194.042060469457
51.31428 182.996939600085
51.33439 186.007578786791
51.3545 164
51.37462 181.999551296599
51.39473 172.037007463269
51.41485 212.98611354642
51.43496 172.00497850037
51.45507 212.976515352162
51.47519 183.013494587566
51.4953 184
51.51541 178.995970940019
51.53553 173.994930048233
51.55564 169.989422481329
51.57576 168.980829641165
51.59587 186.973497900262
51.61598 191.014543513997
51.6361 173
51.65621 192.011130109959
51.67632 200.995680227467
51.69644 191.989968910158
51.71655 187.043124876761
51.73667 162.023033226932
51.75678 161.996045421238
51.77689 166.992778335173
51.79701 187.006430485353
51.81712 182.981814780545
51.83723 167.000251012195
51.85735 182.036648503765
51.87746 192.962849546798
51.89757 208.017298246689
51.91769 175.012969426473
51.9378 176
51.95792 194.003534782014
51.97803 180.971374953261
51.99814 171.008356338766
52.01826 184.971629886617
52.03837 184.033320589912
52.05848 165.981932672991
52.0786 202
52.09871 170.99151661253
52.11883 175.980267281932
52.13894 149.007497722715
52.15905 185.930685599557
52.17917 187.002096923119
52.19928 191.007185217113
52.21939 169.011760254911
52.23951 166.013332247704
52.25962 192.988499310072
52.27974 158.996656444345
52.29985 187.001699865509
52.31996 157.013938016825
52.34008 178.996609448725
52.36019 159.998779716475
52.3803 188
52.40042 170.975782659422
52.42053 170.044413272713
52.44064 207.026758031962
52.46076 191.040692679043
52.48087 182.009812622409
52.50099 174.002119327136
52.5211 174
52.54121 175.004397418069
52.56133 186.001543804118
52.58144 172.961996389665
52.60155 169.932188832016
52.62167 203.000012646039
52.64178 179.996997480462
52.6619 210
52.68201 181.984046933821
52.70212 168.996589725241
52.72224 168.007569553268
52.74235 181.932869760277
52.76246 206.989943476375
52.78258 193.013886883923
52.80269 191.997128757522
52.8228 194
52.84292 190.012790549381
52.86303 207.995201703527
52.88315 184.962290934325
52.90326 184.015867636588
52.92337 168.005684954298
52.94349 186.984044811577
52.9636 212
52.98371 199.98857256755
53.00383 192.036525198266
53.02394 228.018405163941
53.04406 203.05625526486
53.06417 196.983630067216
53.08428 206.006665240876
53.1044 197
53.12451 218.991035181833
53.14462 175.993110804585
53.16474 217.079517655596
53.18485 223.029958454597
53.20497 213.00593685841
53.22508 209.014010709677
53.24519 195.995351091114
53.26531 223.009263527888
53.28542 219.988149913699
53.30553 223.043389680052
53.32565 248.95682381595
53.34576 198.068409669814
53.36587 209.942978360731
53.38599 239.996314683144
53.4061 237
53.42622 256.990672879021
53.44633 223.977752307746
53.46644 228.970488593583
53.48656 190.054483398935
53.50667 199.94382715265
53.52678 237.979434272643
53.5469 232
53.56701 214.002077189068
53.58713 226.988803857463
53.60724 201.979394736833
53.62735 216.953224356948
53.64747 224.993893027672
53.66758 226.008088813737
53.68769 210.008219889221
53.70781 213.017532862678
53.72792 252.001557879629
53.74804 227.000715523737
53.76815 255.015808315661
53.78826 225.062879465297
53.80838 219.984884345433
53.82849 229.008589776374
53.8486 207
53.86872 252.026294276603
53.88883 240.971811158154
53.90894 232.984401765467
53.92906 228.971672312858
53.94917 241.037390496016
53.96929 202.995878458588
53.9894 251
54.00951 228.991264516995
54.02963 240.02312978351
54.04974 244.000973227427
54.06985 242.028354901309
54.08997 226.013138738018
54.11008 228.992497123093
54.1302 229
54.15031 218.004470868201
54.17042 235.997470091879
54.19054 227.056047820123
54.21065 271.013170198965
54.23076 232.978456086177
54.25088 291.975768475324
54.27099 251.026889792183
54.29111 235.010396955371
54.31122 269.02435485626
54.33133 267.970249654054
54.35145 251.003064310146
54.37156 263.993985640899
54.39167 255.997585219106
54.41179 273.989853702278
54.4319 274
54.45201 235.991294346818
54.47213 254.058685499213
54.49224 290.044259188219
54.51236 289.046337243195
54.53247 265.0061678248
54.55258 283.975495959796
54.5727 308
54.59281 335.996468823344
54.61292 315.014662924273
54.63304 358.028438568411
54.65315 347.933238578172
54.67327 420.900094346683
54.69338 469.928899542157
54.71349 554.975562958873
54.73361 585.038424811763
54.75372 704.088669998849
54.77383 768.171873891381
54.79395 941.402296001081
54.81406 1054.80692555951
54.83417 1121.01724706494
54.85429 1046.0383660162
54.8744 983
54.89452 853.877400043894
54.91463 749.832683606553
54.93474 657.967595525139
54.95486 702.928239116228
54.97497 697.016683112599
54.99508 696.012287245301
55.0152 663
55.03531 600.946627990523
55.05543 463.811031544436
55.07554 385.93844632289
55.09565 374.04775295736
55.11577 347.013303705136
55.13588 371.951584099316
55.15599 422.979018851086
55.17611 434.985897932138
55.19622 413.041032150896
55.21634 497.098759776187
55.23645 504.08140271485
55.25656 579.865252713378
55.27668 620.953556554148
55.29679 664.999704216733
55.3169 611
55.33702 542.949419775858
55.35713 494.901929284299
55.37724 430.955462642776
55.39736 447.97164390927
55.41747 432.047122718956
55.43759 411.997951938041
55.4577 428
55.47781 401.976976235959
55.49793 344.900060014913
55.51804 279.896725722056
55.53815 251.017465077818
55.55827 253.000930193639
55.57838 240.023327163591
55.5985 219
55.61861 229.010268305274
55.63872 248.011924590816
55.65884 245.96486012315
55.67895 229.988251974437
55.69906 247.990343031488
55.71918 233.014862021837
55.73929 228.002538698945
55.75941 213.989226176683
55.77952 194.992773414201
55.79963 201.017586875244
55.81975 215.050162409532
55.83986 224.046616085959
55.85997 192.988869398422
55.88009 232.989934359991
55.9002 214
55.92031 208.003123990527
55.94043 219.022786971082
55.96054 226.979340236117
55.98066 208.013147446178
56.00077 220.971724650507
56.02088 229.006143455265
56.041 212
56.06111 197.998939046865
56.08122 203.002704789273
56.10134 208.042350238196
56.12145 232.002463975004
56.14157 210.01704217384
56.16168 213.01036487846
56.18179 189.004892783245
56.20191 202.008310784292
56.22202 202.985022945878
56.24213 193.024629401499
56.26225 221.007867412834
56.28236 197.03404573782
56.30248 198.003601509851
56.32259 192.990254388208
56.3427 227
56.36282 214.99767565803
56.38293 223.982457679159
56.40304 193.97249442474
56.42316 207.962311005178
56.44327 214.002960372712
56.46338 203.025801374771
56.4835 183
56.50361 221.014307795404
56.52373 221.98371893886
56.54384 217.005763186426
56.56395 216.046139732127
56.58407 194.991934953136
56.60418 218.994292406686
56.62429 204.000614571094
56.64441 223.00554527836
56.66452 215.992609977654
56.68464 206.941362845217
56.70475 179.03531935604
56.72486 216.000703178216
56.74498 176.021806892062
56.76509 193.989092261686
56.7852 196
56.80532 198.013215685326
56.82543 210.996537797843
56.84554 192.961905640819
56.86566 189.968386300337
56.88577 211.981129985953
56.90589 206.009128884043
56.926 198
56.94611 226.001548592696
56.96623 204.984622804256
56.98634 211.992562780881
57.00645 190.048572625912
57.02657 186.98959274854
57.04668 196.987507646157
57.0668 209
57.08691 215.003118122732
57.10702 223.008100630134
57.12714 226.994318347114
57.14725 219.021495900788
57.16736 214.002995054124
57.18748 215.994406460798
57.20759 227.989556436096
57.22771 243.997197197929
57.24782 217.9716182585
57.26793 203.999685864737
57.28805 210.013532693722
57.30816 210.007091985891
57.32827 209.986894570535
57.34839 220.000809491972
57.3685 217
57.38861 235.987349867331
57.40873 176.944611439527
57.42884 190.072192963404
57.44896 209.02405390388
57.46907 181.022608093284
57.48918 189.984549290932
57.5093 194
57.52941 180.994735514994
57.54952 182.014272287782
57.56964 194.990455755626
57.58975 180.995372133434
57.60987 199.981585693983
57.62998 191.021022364759
57.65009 180.992432830355
57.67021 200.995114498479
57.69032 172.999995512256
57.71043 196.996996001969
57.73055 174.027104585432
57.75066 217.95769994841
57.77078 199.02105110798
57.79089 193.00577344367
57.811 175
57.83112 181.996237273856
57.85123 166.993211130049
57.87134 181.038045173984
57.89146 193.982265963094
57.91157 199.001425703332
57.93168 196.996071406449
57.9518 203
57.97191 186.988829913339
57.99203 170.995094699063
58.01214 182.041236191155
58.03225 189.063511467831
58.05237 160.972502241476
58.07248 207.99154180676
58.09259 177.002086527244
58.11271 207.002563871282
58.13282 185.007415833443
58.15294 221.014257126652
58.17305 187.931389754942
58.19316 188.985551897726
58.21328 196.97446194512
58.23339 220.008452919776
58.2535 179
58.27362 206.021212406529
58.29373 195.96585216852
58.31385 181.995572190836
58.33396 189.976181412783
58.35407 197.997250853132
58.37419 196.000639654706
58.3943 197
58.41441 189.991076697906
58.43453 170.99022403249
58.45464 180.02840339161
58.47475 190.976817977471
58.49487 197.001056750968
58.51498 194.994470829739
58.5351 201
58.55521 185.001356474737
58.57532 200.998709545261
58.59544 179.974855863594
58.61555 192.931107928688
58.63566 213.992494451205
58.65578 198.027428287441
58.67589 178.000724111076
58.69601 192.007624648553
58.71612 194.99114606201
58.73623 188.012325367613
58.75635 201.992354112575
58.77646 181.033547699129
58.79657 180.988592881048
58.81669 194.985953702825
58.8368 218
58.85691 183.988679759938
58.87703 183.998040184728
58.89714 182.043730550553
58.91726 210.017388299191
58.93737 175.01227957165
58.95748 198.991651008691
58.9776 181
58.99771 195.004211882499
59.01782 187.994321045423
59.03794 193.016739238719
59.05805 194.024655035927
59.07817 185.984729707837
59.09828 206.992186012145
59.11839 193.010224770114
59.13851 183.001184424471
59.15862 194.013980524668
59.17873 208.024510305868
59.19885 219.995600419578
59.21896 210.006663235175
59.23908 218.987865392091
59.25919 220.007682121971
59.2793 204
59.29942 225.011885906186
59.31953 225.015690580904
59.33964 227.910428971685
59.35976 173.966535031605
59.37987 247.943107542294
59.39998 226.01282997854
59.4201 247
59.44021 236.00073674778
59.46033 258.02504906324
59.48044 245.922740787447
59.50055 219.938914324539
59.52067 275.954298449228
59.54078 265.011745733293
59.56089 269.002200133086
59.58101 263.011715859425
59.60112 310.033147333437
59.62124 314.998128855339
59.64135 334.105958832956
59.66146 384.920344521942
59.68158 405.987370462812
59.70169 428.97948313423
59.7218 481
59.74192 536.090171283571
59.76203 660.190189437291
59.78215 768.237716151513
59.80226 897.597796046542
59.82237 1130.72697400041
59.84249 1307.85242710639
59.8626 1687
59.88271 1862.08564067266
59.90283 2061.20172895506
59.92294 2095.97687816554
59.94305 2047.32302070502
59.96317 1778.62888482881
59.98328 1344.2912679511
60.0034 1208
60.02351 1079.98768514949
60.04362 1169.10052594963
60.06374 1197.94888626213
60.08385 1150.1363104232
60.10396 1070.27531604219
60.12408 879.203117980124
60.14419 699.078632332019
60.16431 550.926501137923
60.18442 411.888555271243
60.20453 338.940232145189
60.22465 311.931216445494
60.24476 284.027904732654
60.26487 291.964146761433
60.28499 302.014004677937
60.3051 255
60.32522 265.006369945782
60.34533 247.963528105855
60.36544 228.96687205017
60.38556 221.973974924668
60.40567 240.00385483693
60.42578 221.005546965218
60.4459 226
60.46601 197.001221822886
60.48612 224.001464372469
60.50624 200.001078541388
60.52635 228.972054619713
60.54647 211.018664431337
60.56658 206.030086633398
60.58669 162.006673079863
60.60681 188.014816624252
60.62692 194.99321583884
60.64703 192.014160244157
60.66715 202.982329122491
60.68726 180.033713492276
60.70738 180.991009524475
60.72749 188.99614371325
60.7476 200
60.76772 209.987430393744
60.78783 184.982799299554
60.80794 193.015695898139
60.82806 191.998079847178
60.84817 197.995213945243
60.86828 197.99578629552
60.8884 202
60.90851 185.996254436339
60.92863 184.981037929932
60.94874 167.002523514044
60.96885 190.936790483524
60.98897 197.019482471165
61.00908 185.988139136648
61.02919 210.996392845383
61.04931 195.994600257953
61.06942 192.982299715956
61.08954 178.055801281196
61.10965 231.049815045096
61.12976 200.083630374196
61.14988 184.989852567111
61.16999 203.993486860939
61.1901 200
61.21022 183.997142289293
61.23033 200.043497371057
61.25045 217.970765861047
61.27056 192.012105737526
61.29067 205.004079462859
61.31079 180.009356334362
61.3309 186
61.35101 199.99746990841
61.37113 189.012509876636
61.39124 214.027326590155
61.41135 204.045341556358
61.43147 193.0056683562
61.45158 192.002623259884
61.4717 190
61.49181 184.98019216057
61.51192 144.015815627891
61.53204 204.066605812369
61.55215 194.99248317195
61.57226 228.94201875895
61.59238 234.00240304734
61.61249 229.009660755682
61.63261 202.99360544795
61.65272 206.001881345011
61.67283 204.012344670533
61.69295 221.025117388549
61.71306 220.995549853958
61.73317 229.988250381224
61.75329 231.001840385684
61.7734 231
61.79352 242.999903036062
61.81363 229.981138689231
61.83374 227.005381946505
61.85386 233.972691377859
61.87397 251.97420041722
61.89408 254.022702079338
61.9142 220
61.93431 215.998185505459
61.95442 210.00642725335
61.97454 240.099386271721
61.99465 273.043366658413
62.01477 228.024444762626
62.03488 255.968474214479
62.05499 263.002654349225
62.07511 254.993378306087
62.09522 240.992608570143
62.11533 250.04195003191
62.13545 276.000055124537
62.15556 259.996563744547
62.17568 278.000908959467
62.19579 267.987064584166
62.2159 307
62.23602 245.972985467037
62.25613 279.061454642028
62.27624 289.988647373964
62.29636 284.006671352669
62.31647 283.002706707753
62.33659 272.012622453557
62.3567 236
62.37681 219.008474010148
62.39693 254.035163400718
62.41704 252.981144141008
62.43715 248.009001274312
62.45727 241.017825086857
62.47738 224.020462443938
62.49749 212.994923616874
62.51761 235.006304567385
62.53772 223.972159910112
62.55784 200.99454624591
62.57795 209.992847708976
62.59806 197.989595569933
62.61818 221.982135270299
62.63829 215.012936139515
62.6584 195
62.67852 216.008488266177
62.69863 202.977061003775
62.71875 200.012473665437
62.73886 205.991494558302
62.75897 209.988342275429
62.77909 215.004250319409
62.7992 197
62.81931 188.990521533134
62.83943 173.025147082404
62.85954 212.041594301518
62.87965 199.055665624397
62.89977 184.02294889336
62.91988 171.997148841797
62.94 197
62.96011 226.995418402803
62.98022 191.97904256676
63.00034 196.001144719145
63.02045 187.983222967936
63.04056 209.97139302778
63.06068 202.02198034343
63.08079 178.010911906002
63.10091 173.011360720835
63.12102 203.005583261207
63.14113 186.994905912172
63.16125 196.975453946414
63.18136 175.980382338837
63.20147 215.958981087454
63.22159 205.016219558612
63.2417 189
63.26182 229.0163993582
63.28193 203.935536798555
63.30204 180.018587828299
63.32216 215.917466657119
63.34227 226.056018800385
63.36238 176.010966684778
63.3825 202
63.40261 183.998778691884
63.42272 198.99155987001
63.44284 173.006583544163
63.46295 206.952597318181
63.48307 201.989044741616
63.50318 219.012426593639
63.52329 188.998122785509
63.54341 224.006097957474
63.56352 195.968195682771
63.58363 197.051848044391
63.60375 239.05505310951
63.62386 228.060240105912
63.64398 204.00598492045
63.66409 210.998391642621
63.6842 207
63.70432 224.027267237736
63.72443 243.998900780812
63.74454 235.016778164243
63.76466 252.017995643455
63.78477 225.999032640339
63.80489 255.990956634613
63.825 249
63.84511 266.014565267617
63.86523 300.060103824952
63.88534 336.039079034188
63.90545 349.923376027277
63.92557 402.913865485576
63.94568 446.970796164668
63.96579 477.975147462599
63.98591 539.023263428998
64.00602 545.967036474344
64.02614 486.859860013166
64.04625 432.9400528263
64.06636 415.096642909167
64.08648 352.024044935518
64.10659 363.005457360398
64.1267 322
64.14682 338.023436700263
64.16693 344.99489498763
64.18705 352.080045356774
64.20716 373.081969865519
64.22727 282.115538454542
64.24739 256.998708062874
64.2675 258
64.28761 241.986459679577
64.30773 213.973088176189
64.32784 210.006883578595
64.34796 208.02727633792
64.36807 186.030694455226
64.38818 175.003054336504
64.4083 178
64.42841 186.00042238647
64.44852 184.005764764556
64.46864 200.035882416832
64.48875 202.059349539659
64.50886 174.001152768616
64.52898 192.004122860638
64.54909 168.000371792931
64.56921 188.99901968551
64.58932 162.993556428707
64.60943 192.055315909164
64.62955 206.975392392249
64.64966 183.0484138711
64.66977 173.98742714698
64.68989 186.000246868305
64.71 175
64.73012 180.99913739978
64.75023 173.001229938303
64.77034 179.989321240206
64.79046 162.024268638304
64.81057 170.959316876378
64.83068 194.997945371132
64.8508 179
64.87091 185.006710653709
64.89102 191.996423375666
64.91114 182.989763319071
64.93125 183.006912426249
64.95137 177.002506587969
64.97148 179.999540314953
64.99159 179.995600222227
65.01171 187.994088581305
65.03182 171.011601864916
65.05193 198.997550013715
65.07205 167.964361313135
65.09216 181.984043678823
65.11228 180.978837736139
65.13239 210.004568051107
65.1525 173
65.17262 199.009815782445
65.19273 178.98024964869
65.21284 191.038282568784
65.23296 199.007517171745
65.25307 191.006341692045
65.27319 193.997150143133
65.2933 199
65.31341 204.001483757779
65.33353 201.987656503214
65.35364 192.994183062516
65.37375 195.995113357617
65.39387 189.025220870467
65.41398 169.01522405241
65.43409 168.991017519361
65.45421 193.007470264949
65.47432 185.972943481978
65.49444 176.085258663645
65.51455 236.015411755218
65.53466 189.056808443721
65.55478 206.978953102266
65.57489 200.011481959756
65.595 185
65.61512 206.020119757773
65.63523 219.02366888107
65.65535 232.99335574963
65.67546 229.945050563985
65.69557 268.004262989655
65.71569 236.997417544618
65.7358 283
65.75591 264.98539635484
65.77603 255.009622164421
65.79614 255.953375920091
65.81626 215.064279703231
65.83637 209.977563899879
65.85648 234.968136885101
65.8766 243
65.89671 184.997344589897
65.91682 234.038476941866
65.93694 230.977054949904
65.95705 223.063027571936
65.97716 188.031560640145
65.99728 196.98954328588
66.01739 191.008548606073
66.03751 174.996150641887
66.05762 177.006132886414
66.07773 183.010579827724
66.09785 191.018632376323
66.11796 192.019979043951
66.13807 179.004983478632
66.15819 186.995871479563
66.1783 192
66.19842 198.9911870483
66.21853 175.967465117859
66.23864 171.024187880977
66.25876 185.993856761881
66.27887 183.978609148726
66.29898 206.000532255901
66.3191 179
66.33921 173.004849280777
66.35933 189.026967162244
66.37944 195.973961891728
66.39955 177.004076957813
66.41967 190.992962677534
66.43978 180.008098267184
66.45989 185.993628822636
66.48001 195.000939807026
66.50012 191.997635348359
66.52023 189.988984344154
66.54035 175.95981106361
66.56046 171.964187549725
66.58058 197.989867669886
66.60069 189.003802981467
66.6208 188
66.64092 172.998118306787
66.66103 183.003373502805
66.68114 177.009507739304
66.70126 190.000888985393
66.72137 178.995638948177
66.74149 192.002675344883
66.7616 174
66.78171 190.993965350508
66.80183 164.022237717232
66.82194 216.05555188498
66.84205 204.016449358203
66.86217 210.029270011851
66.88228 173.007725236354
66.90239 195.995776419537
66.92251 180.998942353731
66.94262 199.009058651672
66.96274 189.985325902956
66.98285 193.006205391488
67.00296 194.9755029383
67.02308 210.000816299142
67.04319 193.007434682408
67.0633 199
67.08342 225.000525774515
67.10353 197.95093273932
67.12365 187.042541980567
67.14376 210.993236167539
67.16387 195.010272836635
67.18399 204.997007376323
67.2041 213
67.22421 255.999845602559
67.24433 219.978146573806
67.26444 239.016295184218
67.28456 221.02976218743
67.30467 231.954215159174
67.32478 259.990902856921
67.3449 258
67.36501 272.993218652092
67.38512 244.001595030047
67.40524 284.080432994362
67.42535 299.988931799455
67.44546 310.955358780061
67.46558 331.00126629972
67.48569 326.984701713576
67.50581 395.03490260518
67.52592 440.027385520502
67.54603 476.093683362107
67.56615 567.255353847577
67.58626 673.763115992911
67.60637 783.89455195171
67.62649 844.94443578437
67.6466 1026
67.66672 1199.11561793802
67.68683 1276.11412797101
67.70694 1348.04957741221
67.72706 1300.2060424734
67.74717 1153.29110111306
67.76728 932.21885382687
67.7874 777
67.80751 803.022741541374
67.82763 811.963038351308
67.84774 798.076278674945
67.86785 887.755164338017
67.88797 951.956651712884
67.90808 979.938675479328
67.92819 1012.04759919326
67.94831 834.943557851137
67.96842 863.102491614801
67.98853 963.127658076486
68.00865 1034.16852341559
68.02876 1127.72742717334
68.04888 1298.82304023724
68.06899 1464.91909919534
68.0891 1629
68.10922 1712.93460158719
68.12933 1580.93531476872
68.14944 1621.93403023446
68.16956 1449.43366381857
68.18967 1298.09757578545
68.20979 1319.95439144939
68.2299 1439
68.25001 1542.04408166136
68.27013 1599.00601405009
68.29024 1576.99993942223
68.31035 1552.35798465964
68.33047 1278.4773400394
68.35058 1014.18965749195
68.3707 878
68.39081 757.947883317011
68.41092 685.961487103104
68.43104 674.015426875834
68.45115 684.004442304694
68.47126 673.035417268944
68.49138 638.06808720546
68.51149 538.056365615073
68.5316 431
68.55172 357.970911122495
68.57183 349.960367823362
68.59195 298.896190106548
68.61206 280.031995612912
68.63217 261.011277505982
68.65229 257.011342274774
68.6724 224
68.69251 240.010270884639
68.71263 245.993409182271
68.73274 238.988023429063
68.75286 230.038483390786
68.77297 206.02308486971
68.79308 211.973044456303
68.8132 236
68.83331 206.985044417299
68.85342 190.988352739198
68.87354 188.039694425398
68.89365 214.990657762043
68.91376 200.992315600663
68.93388 223.99248265815
68.95399 208.006469302648
68.97411 210.0012150545
68.99422 205.997214252007
69.01433 202.981727422672
69.03445 190.009340671505
69.05456 201.017325600055
69.07467 183.980556348328
69.09479 214.002326281505
69.1149 184
69.13502 229.02652805847
69.15513 208.943771632204
69.17524 189.008127651824
69.19536 204.98157975673
69.21547 197.02568559617
69.23558 182.009323762474
69.2557 177
69.27581 170.998875052645
69.29593 170.994611949388
69.31604 164.997357320449
69.33615 175.940929948701
69.35627 188.036970969732
69.37638 152.99345314692
69.39649 197.985965901824
69.41661 181.983901585211
69.43672 166.00528094396
69.45683 179.003275682317
69.47695 167.979631946172
69.49706 165.022498349711
69.51718 154.985553887187
69.53729 185.991985854364
69.5574 178
69.57752 171.981608135601
69.59763 155.02212049048
69.61774 192.038663387384
69.63786 177.05256124444
69.65797 165.987671241975
69.67809 188.985467238626
69.6982 198
69.71831 156.9957031517
69.73843 185.03696789982
69.75854 186.998764099226
69.77865 187.04033395553
69.79877 160.022945908096
69.81888 169.973551715451
69.839 185
69.85911 153.994806570716
69.87922 174.024752750395
69.89934 179.977806660121
69.91945 165.989165227551
69.93956 180.937504904486
69.95968 202.013343237518
69.97979 168.008251670334
69.9999 186
70.02002 203.997737626651
70.04013 180.943692373685
70.06025 153.000535787167
70.08036 182.915133955949
70.10047 207.013497006941
70.12059 175.015021985057
70.1407 169
70.16081 189.004385990269
70.18093 182.98635613512
70.20104 173.965680442901
70.22116 161.969814431338
70.24127 195.966217484712
70.26138 191.018462714027
70.2815 179
70.30161 183.997491671298
70.32172 169.99253148916
70.34184 175.01617466173
70.36195 177.009992986024
70.38207 175.983735913974
70.40218 190.997662643008
70.42229 179.005579604783
70.44241 180.004731841018
70.46252 182.985217594134
70.48263 167.016242436258
70.50275 193.00364531542
70.52286 167.033203191757
70.54297 174.982998969697
70.56309 174.003911469954
70.5832 170
70.60332 173.987545868831
70.62343 160.022298889273
70.64354 187.989890159846
70.66366 151.042470644998
70.68377 161.981052086158
70.70388 163.990464720135
70.724 180
70.74411 164.990917372028
70.76423 159.010678525508
70.78434 171.015323690456
70.80445 168.027156601867
70.82457 164.973193466516
70.84468 185.010003251574
70.86479 154.005264367425
70.88491 173.008109642962
70.90502 174.005277013997
70.92513 186.002272350524
70.94525 176.993841311154
70.96536 182.007103220672
70.98548 165.019102972701
71.00559 158.994345450365
71.0257 179
71.04582 174.973993052568
71.06593 148.998268642042
71.08604 167.013861980722
71.10616 160.981588895362
71.12627 178.016415757475
71.14639 144.007956270151
71.1665 163
71.18661 180.002078130252
71.20673 173.97957317469
71.22684 162.999136865793
71.24695 173.961912448614
71.26707 177.028175566277
71.28718 154.996675989607
71.3073 177
71.32741 162.999620387299
71.34752 182.012699736213
71.36764 172.959408563647
71.38775 159.992727697014
71.40786 172.982466328124
71.42798 169.01102315346
71.44809 164.994262340023
71.4682 186
71.48832 182.978938988957
71.50843 158.981692716132
71.52855 158.995846918861
71.54866 158.962518274635
71.56877 180.015994816562
71.58889 154.993876703681
71.609 194
71.62911 159.994559140169
71.64923 185.020024167665
71.66934 169.974180213856
71.68946 175.977279233075
71.70957 175.026363621477
71.72968 155.003638010693
71.7498 170
71.76991 170.991487713349
71.79002 160.021170852868
71.81014 196.014091812521
71.83025 168.063288096616
71.85037 165.992873012357
71.87048 171.981813276317
71.89059 181.01638154668
71.91071 136.002791789836
71.93082 188.031499152543
71.95093 167.945522565099
71.97105 153.023471522714
71.99116 171.97872660522
72.01127 171.993078047472
72.03139 177.007108899372
72.0515 152
72.07162 166.010964025013
72.09173 169.02133707991
72.11184 185.983776550915
72.13196 166.975446242469
72.15207 199.99867896452
72.17218 164.024454408997
72.1923 175
72.21241 189.005111581206
72.23253 190.976946489182
72.25264 163.953010284915
72.27275 160.950516403104
72.29287 187.976056390348
72.31298 188.999963626903
72.33309 188.008051046874
72.35321 159.988930750386
72.37332 157.012190497986
72.39344 173.024432635497
72.41355 176.996405229235
72.43366 173.01287121532
72.45378 167.999634564774
72.47389 174.994544278117
72.494 181
72.51412 170.998036246299
72.53423 182.024203284389
72.55434 189.98820949812
72.57446 178.008841482018
72.59457 178.018185166745
72.61469 164.992894593769
72.6348 195
72.65491 174.995899249682
72.67503 180.977605006368
72.69514 157.028099529341
72.71525 197.9768460689
72.73537 169.023050143287
72.75548 182.992694385586
72.7756 170
72.79571 165.992585064834
72.81582 148.004437074988
72.83594 175.048134397312
72.85605 181.005817470688
72.87616 174.035724595942
72.89628 156.997769848217
72.91639 174.994086933101
72.9365 179
72.95662 199.998144095777
72.97673 179.991184053934
72.99685 199.056403077005
73.01696 208.995920628847
73.03707 208.006047739518
73.05719 200.006375490269
73.0773 185
73.09741 189.017179992678
73.11753 223.988813669495
73.13764 182.954426057193
73.15776 201.934479744155
73.17787 220.992353576272
73.19798 222.990372349588
73.2181 246
73.23821 272.006373892927
73.25832 270.992628580671
73.27844 274.045518640205
73.29855 304.956146965615
73.31867 329.88918858578
73.33878 425.952184608208
73.35889 417.00256791196
73.37901 461.038601464532
73.39912 528.027603982676
73.41923 537.05865728231
73.43935 593.025355824682
73.45946 535.170454159367
73.47957 470.053848750627
73.49969 443.023012692429
73.5198 371
73.53992 322.989818682951
73.56003 338.026790567256
73.58014 345.008710277643
73.60026 357.951622519795
73.62037 380.990733351153
73.64048 372.006963803909
73.6606 368
73.68071 345.998990481617
73.70083 342.925836125179
73.72094 254.855518381609
73.74105 230.988799467653
73.76117 226.04759474405
73.78128 190.996798866574
73.80139 224.992137944066
73.82151 199.980414092675
73.84162 179.003737513567
73.86174 196.024732466521
73.88185 193.978576868338
73.90196 185.021646391939
73.92208 179.989806972993
73.94219 192.004561114852
73.9623 167
73.98242 182.029082853486
74.00253 202.00082975751
74.02264 188.978923318333
74.04276 186.012157593662
74.06287 171.028136800768
74.08299 163.992278625623
74.1031 184
74.12321 164.000834303191
74.14333 188.014372592098
74.16344 176.997231907473
74.18355 191.980522960236
74.20367 180.031228471137
74.22378 167.996115087601
74.2439 183
74.26401 182.992148085149
74.28412 159.979996213286
74.30424 157.036400153442
74.32435 180.975732379893
74.34446 172.024825232185
74.36458 166.004837775255
74.38469 158.005016755993
74.40481 151.000103747077
74.42492 160.015200314017
74.44503 168.989055944804
74.46515 153.98998481334
74.48526 171.9357937228
74.50537 191.021139102051
74.52549 163.999671945866
74.5456 184
74.56571 146.993266623386
74.58583 172.041441253677
74.60594 176.984690231357
74.62606 170.999962190706
74.64617 181.966190773073
74.66628 197.012611444913
74.6864 165
74.70651 164.002411618523
74.72662 159.98842464315
74.74674 158.047239731713
74.76685 187.998720168882
74.78697 167.99393912388
74.80708 200.978065239693
74.82719 192.010021411171
74.84731 185.005259638471
74.86742 195.989903011199
74.88753 168.973001408502
74.90765 174.041463448887
74.92776 188.977598537962
74.94787 188.02964590806
74.96799 166.000330526897
74.9881 183
75.00822 165.970910864423
