3.00117 20580
3.02128 20271
3.0414 19949
3.06151 19282
3.08162 18672
3.10174 18384
3.12185 17606
3.14197 17084
3.16208 16638
3.18219 16242
3.20231 15488
3.22242 15399
3.24253 15283
3.26265 14275
3.28276 14027
3.30288 13381
3.32299 13099
3.3431 12600
3.36322 12226
3.38333 12068
3.40344 11387
3.42356 11066
3.44367 10917
3.46379 10248
3.4839 10094
3.50401 9714
3.52413 9373
3.54424 9050
3.56435 8657
3.58447 8324
3.60458 7859
3.62469 7814
3.64481 7707
3.66492 7110
3.68504 7085
3.70515 6612
3.72526 6468
3.74538 6210
3.76549 5673
3.7856 5744
3.80572 5304
3.82583 5377
3.84595 5089
3.86606 4772
3.88617 4685
3.90629 4323
3.9264 4289
3.94651 4141
3.96663 3764
3.98674 3779
4.00686 3550
4.02697 3439
4.04708 3306
4.0672 3003
4.08731 2979
4.10742 2822
4.12754 2623
4.14765 2748
4.16776 2335
4.18788 2366
4.20799 2321
4.22811 2182
4.24822 2313
4.26833 2080
4.28845 1970
4.30856 1846
4.32867 1832
4.34879 2005
4.3689 1608
4.38902 1799
4.40913 1658
4.42924 1594
4.44936 1688
4.46947 1447
4.48958 1549
4.5097 1449
4.52981 1451
4.54992 1528
4.57004 1221
4.59015 1267
4.61027 1269
4.63038 1246
4.65049 1369
4.67061 1158
4.69072 1115
4.71083 1105
4.73095 1174
4.75106 1121
4.77118 987
4.79129 1051
4.8114 1016
4.83152 1032
4.85163 1064
4.87174 926
4.89186 971
4.91197 945
4.93209 871
4.9522 856
4.97231 865
4.99243 816
5.01254 819
5.03265 812
5.05277 817
5.07288 696
5.09299 720
5.11311 689
5.13322 688
5.15334 731
5.17345 714
5.19356 669
5.21368 702
5.23379 640
5.2539 654
5.27402 645
5.29413 604
5.31425 604
5.33436 562
5.35447 513
5.37459 523
5.3947 515
5.41481 532
5.43493 508
5.45504 479
5.47516 524
5.49527 468
5.51538 494
5.5355 464
5.55561 489
5.57572 445
5.59584 432
5.61595 448
5.63606 444
5.65618 481
5.67629 419
5.69641 440
5.71652 460
5.73663 379
5.75675 397
5.77686 421
5.79697 393
5.81709 424
5.8372 381
5.85732 370
5.87743 339
5.89754 396
5.91766 397
5.93777 324
5.95788 373
5.978 360
5.99811 317
6.01823 353
6.03834 361
6.05845 317
6.07857 299
6.09868 346
6.11879 368
6.13891 373
6.15902 324
6.17913 343
6.19925 308
6.21936 302
6.23948 327
6.25959 328
6.2797 307
6.29982 320
6.31993 286
6.34004 285
6.36016 276
6.38027 270
6.40039 276
6.4205 314
6.44061 324
6.46073 293
6.48084 300
6.50095 303
6.52107 300
6.54118 258
6.56129 296
6.58141 304
6.60152 268
6.62164 292
6.64175 297
6.66186 312
6.68198 260
6.70209 293
6.7222 331
6.74232 291
6.76243 308
6.78255 307
6.80266 297
6.82277 256
6.84289 271
6.863 318
6.88311 283
6.90323 262
6.92334 273
6.94346 266
6.96357 268
6.98368 319
7.0038 272
7.02391 262
7.04402 295
7.06414 308
7.08425 262
7.10436 266
7.12448 267
7.14459 308
7.16471 271
7.18482 284
7.20493 236
7.22505 268
7.24516 248
7.26527 285
7.28539 276
7.3055 267
7.32562 261
7.34573 250
7.36584 257
7.38596 279
7.40607 298
7.42618 297
7.4463 284
7.46641 344
7.48653 258
7.50664 292
7.52675 298
7.54687 293
7.56698 289
7.58709 319
7.60721 279
7.62732 290
7.64743 266
7.66755 228
7.68766 256
7.70778 293
7.72789 290
7.748 279
7.76812 294
7.78823 268
7.80834 284
7.82846 268
7.84857 330
7.86869 286
7.8888 307
7.90891 294
7.92903 315
7.94914 295
7.96925 345
7.98937 295
8.00948 288
8.0296 310
8.04971 285
8.06982 288
8.08994 333
8.11005 324
8.13016 331
8.15028 303
8.17039 336
8.1905 316
8.21062 326
8.23073 353
8.25085 328
8.27096 336
8.29107 328
8.31119 399
8.3313 319
8.35141 339
8.37153 411
8.39164 389
8.41176 381
8.43187 385
8.45198 363
8.4721 358
8.49221 358
8.51232 406
8.53244 415
8.55255 412
8.57266 384
8.59278 449
8.61289 402
8.63301 432
8.65312 465
8.67323 456
8.69335 492
8.71346 463
8.73357 548
8.75369 529
8.7738 531
8.79392 536
8.81403 524
8.83414 542
8.85426 537
8.87437 513
8.89448 510
8.9146 478
8.93471 439
8.95483 395
8.97494 421
8.99505 350
9.01517 357
9.03528 380
9.05539 383
9.07551 351
9.09562 307
9.11573 366
9.13585 303
9.15596 285
9.17608 344
9.19619 277
9.2163 325
9.23642 301
9.25653 299
9.27664 324
9.29676 279
9.31687 315
9.33699 315
9.3571 314
9.37721 286
9.39733 290
9.41744 298
9.43755 286
9.45767 281
9.47778 267
9.4979 300
9.51801 277
9.53812 277
9.55824 239
9.57835 269
9.59846 304
9.61858 264
9.63869 299
9.6588 301
9.67892 269
9.69903 277
9.71915 309
9.73926 274
9.75937 269
9.77949 278
9.7996 272
9.81971 276
9.83983 280
9.85994 262
9.88006 279
9.90017 267
9.92028 255
9.9404 239
9.96051 255
9.98062 260
10.00074 290
10.02085 216
10.04097 271
10.06108 261
10.08119 271
10.10131 285
10.12142 264
10.14153 304
10.16165 286
10.18176 279
10.20187 286
10.22199 259
10.2421 286
10.26222 240
10.28233 274
10.30244 290
10.32256 275
10.34267 282
10.36278 264
10.3829 280
10.40301 291
10.42313 272
10.44324 264
10.46335 271
10.48347 262
10.50358 264
10.52369 271
10.54381 246
10.56392 278
10.58403 243
10.60415 292
10.62426 279
10.64438 268
10.66449 262
10.6846 269
10.70472 262
10.72483 279
10.74494 295
10.76506 288
10.78517 286
10.80529 269
10.8254 287
10.84551 270
10.86563 297
10.88574 273
10.90585 261
10.92597 275
10.94608 258
10.9662 275
10.98631 281
11.00642 269
11.02654 275
11.04665 272
11.06676 274
11.08688 266
11.10699 247
11.1271 256
11.14722 260
11.16733 248
11.18745 301
11.20756 281
11.22767 234
11.24779 280
11.2679 277
11.28801 267
11.30813 283
11.32824 300
11.34836 300
11.36847 274
11.38858 263
11.4087 302
11.42881 297
11.44892 271
11.46904 302
11.48915 286
11.50927 306
11.52938 307
11.54949 293
11.56961 295
11.58972 307
11.60983 298
11.62995 312
11.65006 274
11.67017 301
11.69029 295
11.7104 316
11.73052 313
11.75063 304
11.77074 322
11.79086 298
11.81097 269
11.83108 304
11.8512 321
11.87131 344
11.89143 310
11.91154 348
11.93165 303
11.95177 324
11.97188 341
11.99199 327
12.01211 337
12.03222 312
12.05234 345
12.07245 358
12.09256 332
12.11268 359
12.13279 353
12.1529 412
12.17302 367
12.19313 393
12.21324 381
12.23336 380
12.25347 377
12.27359 399
12.2937 434
12.31381 406
12.33393 396
12.35404 385
12.37415 395
12.39427 397
12.41438 356
12.4345 329
12.45461 351
12.47472 352
12.49484 345
12.51495 321
12.53506 333
12.55518 308
12.57529 289
12.5954 285
12.61552 268
12.63563 292
12.65575 293
12.67586 259
12.69597 295
12.71609 265
12.7362 268
12.75631 253
12.77643 281
12.79654 273
12.81666 250
12.83677 252
12.85688 285
12.877 272
12.89711 251
12.91722 252
12.93734 254
12.95745 245
12.97757 263
12.99768 272
13.01779 206
13.03791 260
13.05802 240
13.07813 227
13.09825 283
13.11836 264
13.13847 278
13.15859 241
13.1787 251
13.19882 239
13.21893 260
13.23904 251
13.25916 247
13.27927 266
13.29938 289
13.3195 250
13.33961 238
13.35973 233
13.37984 221
13.39995 210
13.42007 239
13.44018 247
13.46029 230
13.48041 267
13.50052 251
13.52064 254
13.54075 263
13.56086 276
13.58098 270
13.60109 253
13.6212 227
13.64132 246
13.66143 210
13.68154 257
13.70166 223
13.72177 270
13.74189 222
13.762 241
13.78211 248
13.80223 214
13.82234 239
13.84245 239
13.86257 264
13.88268 236
13.9028 243
13.92291 206
13.94302 230
13.96314 221
13.98325 219
14.00336 237
14.02348 230
14.04359 225
14.06371 234
14.08382 233
14.10393 234
14.12405 207
14.14416 246
14.16427 275
14.18439 230
14.2045 261
14.22461 230
14.24473 250
14.26484 234
14.28496 221
14.30507 217
14.32518 225
14.3453 211
14.36541 257
14.38552 240
14.40564 218
14.42575 243
14.44587 199
14.46598 238
14.48609 216
14.50621 275
14.52632 230
14.54643 232
14.56655 220
14.58666 234
14.60677 208
14.62689 233
14.647 269
14.66712 211
14.68723 248
14.70734 236
14.72746 222
14.74757 255
14.76768 207
14.7878 241
14.80791 223
14.82803 224
14.84814 226
14.86825 210
14.88837 230
14.90848 221
14.92859 214
14.94871 239
14.96882 241
14.98894 221
15.00905 232
15.02916 212
15.04928 227
15.06939 235
15.0895 209
15.10962 216
15.12973 219
15.14984 237
15.16996 208
15.19007 225
15.21019 235
15.2303 249
15.25041 224
15.27053 242
15.29064 214
15.31075 265
15.33087 209
15.35098 233
15.3711 229
15.39121 240
15.41132 247
15.43144 234
15.45155 232
15.47166 212
15.49178 241
15.51189 245
15.53201 233
15.55212 207
15.57223 236
15.59235 215
15.61246 231
15.63257 201
15.65269 228
15.6728 236
15.69291 260
15.71303 234
15.73314 210
15.75326 221
15.77337 216
15.79348 199
15.8136 230
15.83371 224
15.85382 225
15.87394 223
15.89405 224
15.91417 230
15.93428 245
15.95439 216
15.97451 221
15.99462 219
16.01473 239
16.03485 229
16.05496 210
16.07508 245
16.09519 230
16.1153 231
16.13542 225
16.15553 223
16.17564 220
16.19576 240
16.21587 217
16.23598 239
16.2561 208
16.27621 243
16.29633 237
16.31644 224
16.33655 243
16.35667 224
16.37678 213
16.39689 201
16.41701 189
16.43712 238
16.45724 228
16.47735 223
16.49746 176
16.51758 218
16.53769 221
16.5578 218
16.57792 225
16.59803 219
16.61814 218
16.63826 217
16.65837 205
16.67849 219
16.6986 230
16.71871 214
16.73883 221
16.75894 229
16.77905 223
16.79917 245
16.81928 207
16.8394 233
16.85951 231
16.87962 248
16.89974 221
16.91985 248
16.93996 210
16.96008 241
16.98019 258
17.00031 218
17.02042 245
17.04053 233
17.06065 216
17.08076 199
17.10087 240
17.12099 216
17.1411 245
17.16121 248
17.18133 232
17.20144 263
17.22156 243
17.24167 209
17.26178 246
17.2819 220
17.30201 238
17.32212 228
17.34224 233
17.36235 228
17.38247 237
17.40258 223
17.42269 233
17.44281 231
17.46292 260
17.48303 253
17.50315 250
17.52326 235
17.54338 246
17.56349 225
17.5836 258
17.60372 255
17.62383 260
17.64394 264
17.66406 290
17.68417 267
17.70428 291
17.7244 288
17.74451 324
17.76463 334
17.78474 311
17.80485 264
17.82497 290
17.84508 261
17.86519 297
17.88531 279
17.90542 248
17.92554 257
17.94565 236
17.96576 220
17.98588 221
18.00599 227
18.0261 233
18.04622 242
18.06633 234
18.08645 226
18.10656 245
18.12667 241
18.14679 221
18.1669 231
18.18701 226
18.20713 222
18.22724 218
18.24735 236
18.26747 250
18.28758 192
18.3077 226
18.32781 223
18.34792 239
18.36804 207
18.38815 233
18.40826 202
18.42838 222
18.44849 202
18.46861 232
18.48872 222
18.50883 238
18.52895 235
18.54906 226
18.56917 211
18.58929 191
18.6094 235
18.62951 217
18.64963 237
18.66974 252
18.68986 233
18.70997 245
18.73008 232
18.7502 225
18.77031 232
18.79042 234
18.81054 227
18.83065 220
18.85077 231
18.87088 236
18.89099 239
18.91111 214
18.93122 217
18.95133 206
18.97145 206
18.99156 197
19.01168 224
19.03179 233
19.0519 208
19.07202 237
19.09213 232
19.11224 225
19.13236 221
19.15247 221
19.17258 246
19.1927 233
19.21281 250
19.23293 225
19.25304 247
19.27315 245
19.29327 242
19.31338 247
19.33349 255
19.35361 276
19.37372 281
19.39384 293
19.41395 312
19.43406 292
19.45418 326
19.47429 334
19.4944 367
19.51452 445
19.53463 499
19.55475 534
19.57486 590
19.59497 734
19.61509 690
19.6352 762
19.65531 763
19.67543 771
19.69554 819
19.71565 799
19.73577 836
19.75588 799
19.776 807
19.79611 773
19.81622 725
19.83634 740
19.85645 715
19.87656 667
19.89668 622
19.91679 565
19.93691 577
19.95702 549
19.97713 517
19.99725 497
20.01736 540
20.03747 521
20.05759 530
20.0777 510
20.09782 460
20.11793 516
20.13804 526
20.15816 488
20.17827 481
20.19838 517
20.2185 500
20.23861 470
20.25872 541
20.27884 488
20.29895 485
20.31907 498
20.33918 500
20.35929 497
20.37941 534
20.39952 508
20.41963 516
20.43975 515
20.45986 523
20.47998 528
20.50009 562
20.5202 571
20.54032 623
20.56043 636
20.58054 665
20.60066 732
20.62077 869
20.64088 956
20.661 1203
20.68111 1562
20.70123 1968
20.72134 2487
20.74145 3171
20.76157 3691
20.78168 4130
20.80179 4497
20.82191 4513
20.84202 4015
20.86214 3509
20.88225 2580
20.90236 1946
20.92248 1424
20.94259 1094
20.9627 879
20.98282 774
21.00293 614
21.02305 581
21.04316 551
21.06327 542
21.08339 478
21.1035 501
21.12361 414
21.14373 462
21.16384 416
21.18395 457
21.20407 434
21.22418 417
21.2443 415
21.26441 421
21.28452 418
21.30464 413
21.32475 404
21.34486 411
21.36498 408
21.38509 394
21.40521 422
21.42532 410
21.44543 415
21.46555 439
21.48566 419
21.50577 424
21.52589 382
21.546 384
21.56612 420
21.58623 421
21.60634 420
21.62646 361
21.64657 392
21.66668 357
21.6868 376
21.70691 339
21.72702 350
21.74714 346
21.76725 348
21.78737 336
21.80748 355
21.82759 339
21.84771 339
21.86782 338
21.88793 323
21.90805 309
21.92816 356
21.94828 344
21.96839 309
21.9885 306
22.00862 309
22.02873 295
22.04884 309
22.06896 346
22.08907 349
22.10919 361
22.1293 310
22.14941 316
22.16953 318
22.18964 329
22.20975 330
22.22987 297
22.24998 325
22.27009 343
22.29021 380
22.31032 334
22.33044 328
22.35055 329
22.37066 336
22.39078 296
22.41089 328
22.431 322
22.45112 349
22.47123 319
22.49135 332
22.51146 339
22.53157 318
22.55169 327
22.5718 324
22.59191 339
22.61203 319
22.63214 330
22.65225 320
22.67237 336
22.69248 339
22.7126 346
22.73271 383
22.75282 389
22.77294 388
22.79305 384
22.81316 405
22.83328 382
22.85339 380
22.87351 375
22.89362 388
22.91373 355
22.93385 349
22.95396 333
22.97407 372
22.99419 329
23.0143 339
23.03442 326
23.05453 326
23.07464 323
23.09476 342
23.11487 297
23.13498 357
23.1551 356
23.17521 318
23.19532 317
23.21544 305
23.23555 377
23.25567 323
23.27578 316
23.29589 364
23.31601 303
23.33612 315
23.35623 354
23.37635 295
23.39646 301
23.41658 330
23.43669 342
23.4568 311
23.47692 386
23.49703 354
23.51714 322
23.53726 313
23.55737 358
23.57749 319
23.5976 371
23.61771 391
23.63783 397
23.65794 364
23.67805 421
23.69817 403
23.71828 400
23.73839 355
23.75851 430
23.77862 399
23.79874 394
23.81885 396
23.83896 359
23.85908 399
23.87919 420
23.8993 382
23.91942 390
23.93953 424
23.95965 414
23.97976 432
23.99987 388
24.01999 390
24.0401 373
24.06021 376
24.08033 399
24.10044 367
24.12056 403
24.14067 425
24.16078 426
24.1809 449
24.20101 413
24.22112 381
24.24124 407
24.26135 415
24.28146 439
24.30158 446
24.32169 397
24.34181 468
24.36192 436
24.38203 425
24.40215 414
24.42226 409
24.44237 396
24.46249 389
24.4826 369
24.50272 434
24.52283 371
24.54294 382
24.56306 397
24.58317 432
24.60328 372
24.6234 357
24.64351 409
24.66362 395
24.68374 408
24.70385 406
24.72397 442
24.74408 450
24.76419 415
24.78431 446
24.80442 422
24.82453 470
24.84465 429
24.86476 427
24.88488 375
24.90499 406
24.9251 413
24.94522 408
24.96533 419
24.98544 425
25.00556 391
25.02567 384
25.04579 428
25.0659 399
25.08601 399
25.10613 423
25.12624 464
25.14635 432
25.16647 421
25.18658 412
25.20669 422
25.22681 433
25.24692 466
25.26704 479
25.28715 461
25.30726 484
25.32738 460
25.34749 471
25.3676 469
25.38772 452
25.40783 434
25.42795 454
25.44806 450
25.46817 443
25.48829 475
25.5084 435
25.52851 427
25.54863 396
25.56874 404
25.58886 431
25.60897 423
25.62908 413
25.6492 392
25.66931 450
25.68942 463
25.70954 485
25.72965 507
25.74976 497
25.76988 533
25.78999 498
25.81011 502
25.83022 540
25.85033 538
25.87045 494
25.89056 519
25.91067 502
25.93079 500
25.9509 583
25.97102 549
25.99113 530
26.01124 571
26.03136 658
26.05147 671
26.07158 628
26.0917 627
26.11181 731
26.13193 781
26.15204 792
26.17215 851
26.19227 904
26.21238 943
26.23249 990
26.25261 1101
26.27272 1199
26.29283 1370
26.31295 1517
26.33306 1750
26.35318 2062
26.37329 2573
26.3934 3085
26.41352 4081
26.43363 5269
26.45374 6796
26.47386 8857
26.49397 11366
26.51409 14263
26.5342 17182
26.55431 19206
26.57443 20469
26.59454 20158
26.61465 18278
26.63477 16093
26.65488 12793
26.67499 9947
26.69511 7283
26.71522 5076
26.73534 3537
26.75545 2579
26.77556 2006
26.79568 1556
26.81579 1432
26.8359 1257
26.85602 1142
26.87613 1089
26.89625 954
26.91636 876
26.93647 855
26.95659 779
26.9767 728
26.99681 643
27.01693 619
27.03704 590
27.05716 571
27.07727 523
27.09738 542
27.1175 516
27.13761 511
27.15772 504
27.17784 522
27.19795 498
27.21806 501
27.23818 475
27.25829 463
27.27841 433
27.29852 445
27.31863 463
27.33875 425
27.35886 419
27.37897 429
27.39909 435
27.4192 449
27.43932 415
27.45943 413
27.47954 419
27.49966 420
27.51977 434
27.53988 416
27.56 403
27.58011 431
27.60023 423
27.62034 395
27.64045 416
27.66057 406
27.68068 438
27.70079 432
27.72091 424
27.74102 453
27.76113 426
27.78125 430
27.80136 447
27.82148 439
27.84159 405
27.8617 399
27.88182 447
27.90193 400
27.92204 372
27.94216 432
27.96227 366
27.98239 371
28.0025 378
28.02261 325
28.04273 330
28.06284 352
28.08295 341
28.10307 328
28.12318 367
28.1433 351
28.16341 384
28.18352 350
28.20364 359
28.22375 331
28.24386 352
28.26398 317
28.28409 366
28.3042 345
28.32432 317
28.34443 370
28.36455 335
28.38466 369
28.40477 348
28.42489 341
28.445 342
28.46511 313
28.48523 343
28.50534 328
28.52546 351
28.54557 335
28.56568 376
28.5858 364
28.60591 327
28.62602 337
28.64614 344
28.66625 330
28.68636 357
28.70648 342
28.72659 348
28.74671 349
28.76682 365
28.78693 404
28.80705 355
28.82716 330
28.84727 340
28.86739 379
28.8875 381
28.90762 369
28.92773 365
28.94784 417
28.96796 372
28.98807 367
29.00818 412
29.0283 425
29.04841 325
29.06853 349
29.08864 359
29.10875 349
29.12887 384
29.14898 348
29.16909 330
29.18921 345
29.20932 307
29.22943 344
29.24955 352
29.26966 288
29.28978 311
29.30989 321
29.33 373
29.35012 353
29.37023 313
29.39034 334
29.41046 328
29.43057 298
29.45069 297
29.4708 343
29.49091 319
29.51103 338
29.53114 328
29.55125 294
29.57137 309
29.59148 313
29.6116 342
29.63171 351
29.65182 343
29.67194 358
29.69205 362
29.71216 336
29.73228 351
29.75239 347
29.7725 403
29.79262 376
29.81273 435
29.83285 408
29.85296 355
29.87307 356
29.89319 379
29.9133 327
29.93341 366
29.95353 314
29.97364 302
29.99376 296
30.01387 302
30.03398 331
30.0541 317
30.07421 277
30.09432 296
30.11444 313
30.13455 280
30.15467 286
30.17478 322
30.19489 313
30.21501 270
30.23512 315
30.25523 315
30.27535 281
30.29546 289
30.31557 301
30.33569 310
30.3558 316
30.37592 282
30.39603 336
30.41614 321
30.43626 321
30.45637 329
30.47648 296
30.4966 302
30.51671 320
30.53683 280
30.55694 300
30.57705 310
30.59717 311
30.61728 306
30.63739 279
30.65751 282
30.67762 286
30.69773 290
30.71785 277
30.73796 290
30.75808 301
30.77819 299
30.7983 256
30.81842 273
30.83853 264
30.85864 319
30.87876 270
30.89887 322
30.91899 300
30.9391 306
30.95921 286
30.97933 294
30.99944 302
31.01955 294
31.03967 317
31.05978 308
31.0799 328
31.10001 340
31.12012 323
31.14024 350
31.16035 311
31.18046 301
31.20058 338
31.22069 322
31.2408 298
31.26092 295
31.28103 243
31.30115 312
31.32126 287
31.34137 305
31.36149 263
31.3816 291
31.40171 250
31.42183 284
31.44194 300
31.46206 276
31.48217 278
31.50228 244
31.5224 287
31.54251 250
31.56262 271
31.58274 262
31.60285 247
31.62297 254
31.64308 269
31.66319 294
31.68331 270
31.70342 282
31.72353 270
31.74365 283
31.76376 296
31.78387 264
31.80399 269
31.8241 269
31.84422 270
31.86433 277
31.88444 274
31.90456 273
31.92467 279
31.94478 271
31.9649 268
31.98501 296
32.00513 301
32.02524 317
32.04535 285
32.06547 276
32.08558 273
32.10569 274
32.12581 249
32.14592 275
32.16604 252
32.18615 293
32.20626 276
32.22638 233
32.24649 234
32.2666 210
32.28672 234
32.30683 257
32.32694 249
32.34706 249
32.36717 258
32.38729 247
32.4074 241
32.42751 238
32.44763 271
32.46774 226
32.48785 274
32.50797 254
32.52808 229
32.5482 268
32.56831 251
32.58842 250
32.60854 242
32.62865 264
32.64876 221
32.66888 252
32.68899 245
32.7091 244
32.72922 225
32.74933 216
32.76945 272
32.78956 252
32.80967 237
32.82979 219
32.8499 241
32.87001 248
32.89013 242
32.91024 268
32.93036 251
32.95047 266
32.97058 252
32.9907 227
33.01081 265
33.03092 253
33.05104 261
33.07115 258
33.09127 262
33.11138 260
33.13149 237
33.15161 261
33.17172 271
33.19183 235
33.21195 280
33.23206 251
33.25217 265
33.27229 249
33.2924 246
33.31252 230
33.33263 288
33.35274 265
33.37286 264
33.39297 267
33.41308 246
33.4332 263
33.45331 245
33.47343 256
33.49354 226
33.51365 245
33.53377 246
33.55388 257
33.57399 276
33.59411 234
33.61422 240
33.63434 261
33.65445 241
33.67456 235
33.69468 220
33.71479 213
33.7349 218
33.75502 228
33.77513 253
33.79524 232
33.81536 235
33.83547 221
33.85559 228
33.8757 236
33.89581 220
33.91593 239
33.93604 223
33.95615 221
33.97627 224
33.99638 232
34.0165 259
34.03661 256
34.05672 223
34.07684 274
34.09695 248
34.11706 243
34.13718 254
34.15729 252
34.17741 282
34.19752 285
34.21763 264
34.23775 326
34.25786 316
34.27797 346
34.29809 356
34.3182 384
34.33831 379
34.35843 440
34.37854 445
34.39866 503
34.41877 491
34.43888 504
34.459 531
34.47911 526
34.49922 537
34.51934 567
34.53945 544
34.55957 519
34.57968 534
34.59979 585
34.61991 569
34.64002 563
34.66013 610
34.68025 659
34.70036 649
34.72047 671
34.74059 725
34.7607 708
34.78082 729
34.80093 768
34.82104 788
34.84116 766
34.86127 759
34.88138 733
34.9015 727
34.92161 664
34.94173 629
34.96184 572
34.98195 533
35.00207 498
35.02218 464
35.04229 458
35.06241 444
35.08252 429
35.10264 371
35.12275 366
35.14286 339
35.16298 334
35.18309 334
35.2032 350
35.22332 296
35.24343 358
35.26354 304
35.28366 379
35.30377 307
35.32389 347
35.344 298
35.36411 329
35.38423 311
35.40434 306
35.42445 321
35.44457 323
35.46468 284
35.4848 331
35.50491 309
35.52502 360
35.54514 332
35.56525 337
35.58536 305
35.60548 341
35.62559 310
35.64571 296
35.66582 309
35.68593 335
35.70605 300
35.72616 327
35.74627 349
35.76639 326
35.7865 355
35.80661 330
35.82673 329
35.84684 329
35.86696 340
35.88707 347
35.90718 360
35.9273 341
35.94741 353
35.96752 312
35.98764 337
36.00775 348
36.02787 344
36.04798 354
36.06809 326
36.08821 355
36.10832 327
36.12843 376
36.14855 365
36.16866 376
36.18878 348
36.20889 382
36.229 449
36.24912 445
36.26923 445
36.28934 576
36.30946 644
36.32957 723
36.34968 900
36.3698 897
36.38991 1069
36.41003 1281
36.43014 1383
36.45025 1482
36.47037 1557
36.49048 1534
36.51059 1444
36.53071 1374
36.55082 1139
36.57094 958
36.59105 856
36.61116 741
36.63128 635
36.65139 551
36.6715 467
36.69162 415
36.71173 421
36.73184 368
36.75196 351
36.77207 335
36.79219 347
36.8123 323
36.83241 316
36.85253 340
36.87264 348
36.89275 290
36.91287 325
36.93298 281
36.9531 324
36.97321 312
36.99332 310
37.01344 289
37.03355 284
37.05366 302
37.07378 323
37.09389 288
37.11401 298
37.13412 312
37.15423 346
37.17435 309
37.19446 327
37.21457 336
37.23469 352
37.2548 366
37.27491 333
37.29503 336
37.31514 362
37.33526 376
37.35537 368
37.37548 378
37.3956 351
37.41571 397
37.43582 394
37.45594 407
37.47605 364
37.49617 378
37.51628 403
37.53639 420
37.55651 384
37.57662 395
37.59673 390
37.61685 366
37.63696 400
37.65708 400
37.67719 379
37.6973 374
37.71742 321
37.73753 387
37.75764 353
37.77776 353
37.79787 329
37.81798 327
37.8381 338
37.85821 338
37.87833 294
37.89844 324
37.91855 304
37.93867 329
37.95878 302
37.97889 289
37.99901 317
38.01912 321
38.03924 276
38.05935 299
38.07946 315
38.09958 320
38.11969 297
38.1398 280
38.15992 324
38.18003 302
38.20015 303
38.22026 298
38.24037 290
38.26049 275
38.2806 276
38.30071 329
38.32083 296
38.34094 303
38.36105 333
38.38117 327
38.40128 282
38.4214 331
38.44151 299
38.46162 283
38.48174 301
38.50185 281
38.52196 298
38.54208 288
38.56219 328
38.58231 280
38.60242 268
38.62253 250
38.64265 279
38.66276 286
38.68287 249
38.70299 251
38.7231 268
38.74321 269
38.76333 272
38.78344 270
38.80356 261
38.82367 280
38.84378 300
38.8639 277
38.88401 288
38.90412 269
38.92424 264
38.94435 258
38.96447 275
38.98458 282
39.00469 295
39.02481 314
39.04492 326
39.06503 367
39.08515 349
39.10526 355
39.12538 377
39.14549 382
39.1656 424
39.18572 432
39.20583 500
39.22594 544
39.24606 649
39.26617 695
39.28628 795
39.3064 903
39.32651 1100
39.34663 1302
39.36674 1282
39.38685 1374
39.40697 1382
39.42708 1330
39.44719 1182
39.46731 1150
39.48742 994
39.50754 913
39.52765 755
39.54776 612
39.56788 485
39.58799 453
39.6081 377
39.62822 375
39.64833 350
39.66845 332
39.68856 309
39.70867 293
39.72879 345
39.7489 301
39.76901 340
39.78913 346
39.80924 369
39.82935 346
39.84947 364
39.86958 373
39.8897 404
39.90981 366
39.92992 424
39.95004 352
39.97015 391
39.99026 382
40.01038 418
40.03049 407
40.05061 436
40.07072 455
40.09083 528
40.11095 589
40.13106 617
40.15117 708
40.17129 745
40.1914 813
40.21152 796
40.23163 820
40.25174 779
40.27186 758
40.29197 699
40.31208 614
40.3322 584
40.35231 517
40.37242 504
40.39254 427
40.41265 420
40.43277 304
40.45288 329
40.47299 307
40.49311 301
40.51322 317
40.53333 300
40.55345 318
40.57356 287
40.59368 302
40.61379 286
40.6339 321
40.65402 291
40.67413 298
40.69424 289
40.71436 305
40.73447 318
40.75458 290
40.7747 305
40.79481 261
40.81493 268
40.83504 276
40.85515 322
40.87527 314
40.89538 284
40.91549 274
40.93561 309
40.95572 265
40.97584 250
40.99595 298
41.01606 308
41.03618 263
41.05629 295
41.0764 296
41.09652 298
41.11663 295
41.13675 282
41.15686 290
41.17697 271
41.19709 259
41.2172 257
41.23731 283
41.25743 265
41.27754 277
41.29765 263
41.31777 285
41.33788 253
41.358 247
41.37811 243
41.39822 261
41.41834 257
41.43845 264
41.45856 239
41.47868 263
41.49879 277
41.51891 247
41.53902 294
41.55913 268
41.57925 251
41.59936 272
41.61947 269
41.63959 261
41.6597 282
41.67982 288
41.69993 288
41.72004 314
41.74016 282
41.76027 341
41.78038 300
41.8005 330
41.82061 306
41.84072 303
41.86084 308
41.88095 338
41.90107 340
41.92118 337
41.94129 338
41.96141 340
41.98152 339
42.00163 333
42.02175 347
42.04186 311
42.06198 356
42.08209 351
42.1022 359
42.12232 351
42.14243 379
42.16254 414
42.18266 505
42.20277 523
42.22289 562
42.243 657
42.26311 722
42.28323 773
42.30334 894
42.32345 945
42.34357 1061
42.36368 1133
42.38379 1000
42.40391 1063
42.42402 961
42.44414 915
42.46425 782
42.48436 724
42.50448 630
42.52459 591
42.5447 513
42.56482 412
42.58493 345
42.60505 354
42.62516 323
42.64527 292
42.66539 295
42.6855 307
42.70561 246
42.72573 256
42.74584 287
42.76595 248
42.78607 246
42.80618 246
42.8263 230
42.84641 235
42.86652 238
42.88664 234
42.90675 226
42.92686 246
42.94698 234
42.96709 210
42.98721 255
43.00732 257
43.02743 230
43.04755 216
43.06766 236
43.08777 240
43.10789 229
43.128 222
43.14812 251
43.16823 226
43.18834 215
43.20846 228
43.22857 244
43.24868 218
43.2688 243
43.28891 230
43.30902 228
43.32914 207
43.34925 247
43.36937 237
43.38948 236
43.40959 260
43.42971 227
43.44982 233
43.46993 248
43.49005 235
43.51016 227
43.53028 244
43.55039 202
43.5705 266
43.59062 243
43.61073 237
43.63084 242
43.65096 226
43.67107 239
43.69119 231
43.7113 203
43.73141 241
43.75153 226
43.77164 238
43.79175 249
43.81187 208
43.83198 231
43.85209 237
43.87221 242
43.89232 241
43.91244 226
43.93255 240
43.95266 229
43.97278 218
43.99289 218
44.013 228
44.03312 235
44.05323 209
44.07335 233
44.09346 225
44.11357 225
44.13369 248
44.1538 235
44.17391 223
44.19403 217
44.21414 215
44.23426 225
44.25437 239
44.27448 247
44.2946 215
44.31471 213
44.33482 245
44.35494 254
44.37505 217
44.39516 220
44.41528 238
44.43539 222
44.45551 220
44.47562 245
44.49573 219
44.51585 199
44.53596 206
44.55607 217
44.57619 224
44.5963 239
44.61642 226
44.63653 203
44.65664 220
44.67676 241
44.69687 249
44.71698 234
44.7371 199
44.75721 227
44.77732 199
44.79744 207
44.81755 241
44.83767 235
44.85778 215
44.87789 229
44.89801 250
44.91812 227
44.93823 244
44.95835 238
44.97846 231
44.99858 228
45.01869 243
45.0388 255
45.05892 279
45.07903 261
45.09914 220
45.11926 299
45.13937 236
45.15949 267
45.1796 291
45.19971 301
45.21983 272
45.23994 321
45.26005 313
45.28017 329
45.30028 279
45.32039 312
45.34051 326
45.36062 339
45.38074 327
45.40085 349
45.42096 332
45.44108 374
45.46119 418
45.4813 387
45.50142 373
45.52153 385
45.54165 408
45.56176 446
45.58187 468
45.60199 531
45.6221 603
45.64221 648
45.66233 729
45.68244 777
45.70256 819
45.72267 777
45.74278 727
45.7629 716
45.78301 636
45.80312 644
45.82324 607
45.84335 559
45.86346 456
45.88358 474
45.90369 380
45.92381 375
45.94392 372
45.96403 290
45.98415 276
46.00426 274
46.02437 288
46.04449 264
46.0646 246
46.08472 275
46.10483 269
46.12494 239
46.14506 263
46.16517 259
46.18528 260
46.2054 275
46.22551 242
46.24563 244
46.26574 252
46.28585 241
46.30597 239
46.32608 226
46.34619 238
46.36631 227
46.38642 239
46.40653 237
46.42665 241
46.44676 225
46.46688 246
46.48699 262
46.5071 234
46.52722 255
46.54733 221
46.56744 250
46.58756 243
46.60767 219
46.62779 210
46.6479 217
46.66801 231
46.68813 220
46.70824 215
46.72835 195
46.74847 209
46.76858 224
46.78869 203
46.80881 223
46.82892 224
46.84904 230
46.86915 221
46.88926 175
46.90938 208
46.92949 192
46.9496 196
46.96972 221
46.98983 210
47.00995 197
47.03006 198
47.05017 212
47.07029 208
47.0904 216
47.11051 216
47.13063 195
47.15074 200
47.17086 203
47.19097 207
47.21108 194
47.2312 205
47.25131 194
47.27142 187
47.29154 209
47.31165 196
47.33176 218
47.35188 211
47.37199 184
47.39211 220
47.41222 185
47.43233 233
47.45245 193
47.47256 195
47.49267 184
47.51279 199
47.5329 230
47.55302 208
47.57313 209
47.59324 171
47.61336 200
47.63347 215
47.65358 210
47.6737 202
47.69381 207
47.71393 235
47.73404 205
47.75415 218
47.77427 224
47.79438 195
47.81449 205
47.83461 223
47.85472 221
47.87483 223
47.89495 241
47.91506 202
47.93518 220
47.95529 222
47.9754 209
47.99552 246
48.01563 230
48.03574 210
48.05586 218
48.07597 180
48.09609 219
48.1162 203
48.13631 188
48.15643 223
48.17654 198
48.19665 200
48.21677 207
48.23688 205
48.257 206
48.27711 193
48.29722 190
48.31734 201
48.33745 193
48.35756 221
48.37768 200
48.39779 208
48.4179 216
48.43802 232
48.45813 213
48.47825 210
48.49836 210
48.51847 224
48.53859 217
48.5587 186
48.57881 189
48.59893 194
48.61904 175
48.63916 218
48.65927 207
48.67938 202
48.6995 236
48.71961 189
48.73972 222
48.75984 218
48.77995 234
48.80006 201
48.82018 205
48.84029 244
48.86041 179
48.88052 184
48.90063 201
48.92075 219
48.94086 189
48.96097 222
48.98109 207
49.0012 211
49.02132 241
49.04143 214
49.06154 199
49.08166 218
49.10177 184
49.12188 221
49.142 205
49.16211 190
49.18223 205
49.20234 223
49.22245 236
49.24257 202
49.26268 202
49.28279 212
49.30291 230
49.32302 217
49.34313 213
49.36325 215
49.38336 233
49.40348 243
49.42359 240
49.4437 236
49.46382 240
49.48393 266
49.50404 255
49.52416 243
49.54427 243
49.56439 272
49.5845 262
49.60461 279
49.62473 286
49.64484 277
49.66495 286
49.68507 316
49.70518 323
49.7253 389
49.74541 339
49.76552 358
49.78564 458
49.80575 485
49.82586 532
49.84598 566
49.86609 707
49.8862 764
49.90632 900
49.92643 1076
49.94655 1156
49.96666 1410
49.98677 1613
50.00689 1822
50.027 2002
50.04711 2099
50.06723 2064
50.08734 2085
50.10746 1878
50.12757 1683
50.14768 1504
50.1678 1332
50.18791 1226
50.20802 1082
50.22814 968
50.24825 820
50.26837 688
50.28848 526
50.30859 442
50.32871 398
50.34882 327
50.36893 342
50.38905 269
50.40916 269
50.42927 283
50.44939 280
50.4695 248
50.48962 287
50.50973 313
50.52984 292
50.54996 269
50.57007 265
50.59018 250
50.6103 273
50.63041 245
50.65053 254
50.67064 236
50.69075 241
50.71087 220
50.73098 225
50.75109 217
50.77121 241
50.79132 217
50.81143 233
50.83155 189
50.85166 194
50.87178 218
50.89189 226
50.912 214
50.93212 203
50.95223 213
50.97234 226
50.99246 234
51.01257 210
51.03269 217
51.0528 193
51.07291 207
51.09303 176
51.11314 169
51.13325 189
51.15337 201
51.17348 183
51.1936 194
51.21371 186
51.23382 211
51.25394 199
51.27405 179
51.29416 190
51.31428 204
51.33439 183
51.3545 199
51.37462 211
51.39473 186
51.41485 185
51.43496 181
51.45507 159
51.47519 188
51.4953 182
51.51541 196
51.53553 217
51.55564 187
51.57576 156
51.59587 170
51.61598 204
51.6361 172
51.65621 197
51.67632 199
51.69644 191
51.71655 171
51.73667 197
51.75678 233
51.77689 196
51.79701 183
51.81712 193
51.83723 211
51.85735 199
51.87746 185
51.89757 175
51.91769 173
51.9378 174
51.95792 213
51.97803 192
51.99814 181
52.01826 199
52.03837 179
52.05848 197
52.0786 191
52.09871 180
52.11883 193
52.13894 188
52.15905 209
52.17917 176
52.19928 198
52.21939 200
52.23951 194
52.25962 197
52.27974 199
52.29985 199
52.31996 192
52.34008 159
52.36019 209
52.3803 180
52.40042 182
52.42053 188
52.44064 178
52.46076 175
52.48087 200
52.50099 184
52.5211 196
52.54121 203
52.56133 241
52.58144 198
52.60155 214
52.62167 188
52.64178 191
52.6619 199
52.68201 223
52.70212 195
52.72224 178
52.74235 194
52.76246 217
52.78258 186
52.80269 222
52.8228 212
52.84292 191
52.86303 232
52.88315 216
52.90326 194
52.92337 221
52.94349 195
52.9636 197
52.98371 196
53.00383 225
53.02394 234
53.04406 210
53.06417 184
53.08428 204
53.1044 202
53.12451 217
53.14462 208
53.16474 228
53.18485 230
53.20497 226
53.22508 210
53.24519 222
53.26531 211
53.28542 228
53.30553 234
53.32565 213
53.34576 229
53.36587 206
53.38599 242
53.4061 217
53.42622 269
53.44633 245
53.46644 258
53.48656 232
53.50667 238
53.52678 242
53.5469 277
53.56701 259
53.58713 257
53.60724 257
53.62735 221
53.64747 241
53.66758 237
53.68769 263
53.70781 249
53.72792 224
53.74804 281
53.76815 242
53.78826 262
53.80838 249
53.82849 277
53.8486 238
53.86872 252
53.88883 226
53.90894 238
53.92906 250
53.94917 274
53.96929 249
53.9894 256
54.00951 259
54.02963 231
54.04974 261
54.06985 257
54.08997 258
54.11008 260
54.1302 244
54.15031 247
54.17042 257
54.19054 272
54.21065 261
54.23076 266
54.25088 250
54.27099 245
54.29111 264
54.31122 245
54.33133 254
54.35145 255
54.37156 283
54.39167 309
54.41179 287
54.4319 275
54.45201 300
54.47213 257
54.49224 297
54.51236 291
54.53247 322
54.55258 347
54.5727 407
54.59281 411
54.61292 427
54.63304 437
54.65315 472
54.67327 511
54.69338 609
54.71349 655
54.73361 763
54.75372 798
54.77383 864
54.79395 774
54.81406 754
54.83417 772
54.85429 665
54.8744 665
54.89452 575
54.91463 584
54.93474 618
54.95486 573
54.97497 514
54.99508 505
55.0152 443
55.03531 473
55.05543 449
55.07554 408
55.09565 451
55.11577 443
55.13588 430
55.15599 500
55.17611 526
55.19622 525
55.21634 559
55.23645 527
55.25656 539
55.27668 524
55.29679 477
55.3169 472
55.33702 456
55.35713 434
55.37724 418
55.39736 444
55.41747 423
55.43759 391
55.4577 356
55.47781 351
55.49793 339
55.51804 350
55.53815 303
55.55827 289
55.57838 288
55.5985 296
55.61861 311
55.63872 305
55.65884 307
55.67895 304
55.69906 291
55.71918 308
55.73929 328
55.75941 327
55.77952 286
55.79963 291
55.81975 300
55.83986 287
55.85997 291
55.88009 274
55.9002 305
55.92031 310
55.94043 251
55.96054 316
55.98066 275
56.00077 269
56.02088 270
56.041 287
56.06111 294
56.08122 274
56.10134 236
56.12145 265
56.14157 266
56.16168 307
56.18179 245
56.20191 255
56.22202 258
56.24213 249
56.26225 256
56.28236 258
56.30248 267
56.32259 257
56.3427 256
56.36282 268
56.38293 240
56.40304 247
56.42316 251
56.44327 240
56.46338 247
56.4835 245
56.50361 248
56.52373 245
56.54384 243
56.56395 273
56.58407 243
56.60418 241
56.62429 242
56.64441 242
56.66452 217
56.68464 225
56.70475 211
56.72486 251
56.74498 242
56.76509 229
56.7852 239
56.80532 232
56.82543 211
56.84554 232
56.86566 216
56.88577 224
56.90589 231
56.926 214
56.94611 239
56.96623 230
56.98634 231
57.00645 219
57.02657 226
57.04668 217
57.0668 236
57.08691 244
57.10702 232
57.12714 272
57.14725 232
57.16736 255
57.18748 223
57.20759 240
57.22771 228
57.24782 243
57.26793 245
57.28805 243
57.30816 253
57.32827 243
57.34839 236
57.3685 228
57.38861 207
57.40873 220
57.42884 208
57.44896 223
57.46907 221
57.48918 208
57.5093 225
57.52941 224
57.54952 210
57.56964 214
57.58975 199
57.60987 188
57.62998 209
57.65009 215
57.67021 199
57.69032 229
57.71043 197
57.73055 221
57.75066 224
57.77078 229
57.79089 242
57.811 196
57.83112 208
57.85123 232
57.87134 206
57.89146 214
57.91157 215
57.93168 200
57.9518 221
57.97191 224
57.99203 212
58.01214 223
58.03225 224
58.05237 216
58.07248 217
58.09259 205
58.11271 217
58.13282 211
58.15294 214
58.17305 198
58.19316 188
58.21328 217
58.23339 213
58.2535 211
58.27362 207
58.29373 198
58.31385 194
58.33396 208
58.35407 187
58.37419 210
58.3943 215
58.41441 200
58.43453 221
58.45464 205
58.47475 216
58.49487 200
58.51498 204
58.5351 202
58.55521 199
58.57532 220
58.59544 185
58.61555 210
58.63566 216
58.65578 217
58.67589 195
58.69601 230
58.71612 217
58.73623 206
58.75635 189
58.77646 211
58.79657 202
58.81669 212
58.8368 199
58.85691 222
58.87703 202
58.89714 206
58.91726 217
58.93737 227
58.95748 230
58.9776 208
58.99771 204
59.01782 252
59.03794 238
59.05805 217
59.07817 230
59.09828 227
59.11839 203
59.13851 232
59.15862 218
59.17873 222
59.19885 229
59.21896 239
59.23908 236
59.25919 235
59.2793 246
59.29942 222
59.31953 237
59.33964 244
59.35976 249
59.37987 272
59.39998 285
59.4201 269
59.44021 286
59.46033 279
59.48044 284
59.50055 287
59.52067 340
59.54078 338
59.56089 326
59.58101 383
59.60112 403
59.62124 394
59.64135 449
59.66146 522
59.68158 569
59.70169 644
59.7218 744
59.74192 803
59.76203 839
59.78215 1063
59.80226 1084
59.82237 1259
59.84249 1388
59.8626 1355
59.88271 1279
59.90283 1260
59.92294 1197
59.94305 1043
59.96317 1012
59.98328 967
60.0034 905
60.02351 856
60.04362 801
60.06374 720
60.08385 601
60.10396 572
60.12408 457
60.14419 409
60.16431 397
60.18442 324
60.20453 297
60.22465 291
60.24476 270
60.26487 248
60.28499 237
60.3051 240
60.32522 262
60.34533 243
60.36544 242
60.38556 263
60.40567 219
60.42578 236
60.4459 239
60.46601 241
60.48612 225
60.50624 209
60.52635 220
60.54647 212
60.56658 243
60.58669 215
60.60681 226
60.62692 225
60.64703 219
60.66715 243
60.68726 227
60.70738 232
60.72749 221
60.7476 185
60.76772 230
60.78783 233
60.80794 213
60.82806 248
60.84817 237
60.86828 242
60.8884 227
60.90851 217
60.92863 253
60.94874 251
60.96885 257
60.98897 254
61.00908 237
61.02919 216
61.04931 244
61.06942 214
61.08954 215
61.10965 236
61.12976 272
61.14988 243
61.16999 252
61.1901 264
61.21022 247
61.23033 268
61.25045 293
61.27056 279
61.29067 308
61.31079 333
61.3309 332
61.35101 356
61.37113 363
61.39124 363
61.41135 393
61.43147 363
61.45158 385
61.4717 399
61.49181 424
61.51192 421
61.53204 386
61.55215 375
61.57226 379
61.59238 342
61.61249 341
61.63261 330
61.65272 316
61.67283 312
61.69295 306
61.71306 312
61.73317 285
61.75329 306
61.7734 305
61.79352 283
61.81363 283
61.83374 265
61.85386 277
61.87397 258
61.89408 263
61.9142 258
61.93431 237
61.95442 263
61.97454 253
61.99465 257
62.01477 282
62.03488 272
62.05499 248
62.07511 264
62.09522 231
62.11533 273
62.13545 248
62.15556 284
62.17568 279
62.19579 296
62.2159 279
62.23602 292
62.25613 286
62.27624 245
62.29636 247
62.31647 274
62.33659 295
62.3567 256
62.37681 257
62.39693 244
62.41704 237
62.43715 245
62.45727 246
62.47738 279
62.49749 253
62.51761 213
62.53772 229
62.55784 244
62.57795 242
62.59806 233
62.61818 224
62.63829 218
62.6584 213
62.67852 209
62.69863 194
62.71875 196
62.73886 228
62.75897 175
62.77909 208
62.7992 196
62.81931 216
62.83943 189
62.85954 197
62.87965 212
62.89977 199
62.91988 212
62.94 206
62.96011 192
62.98022 189
63.00034 196
63.02045 186
63.04056 195
63.06068 184
63.08079 195
63.10091 201
63.12102 202
63.14113 212
63.16125 180
63.18136 208
63.20147 188
63.22159 183
63.2417 188
63.26182 211
63.28193 213
63.30204 179
63.32216 218
63.34227 181
63.36238 209
63.3825 207
63.40261 201
63.42272 204
63.44284 228
63.46295 203
63.48307 196
63.50318 199
63.52329 180
63.54341 208
63.56352 206
63.58363 214
63.60375 202
63.62386 208
63.64398 193
63.66409 244
63.6842 238
63.70432 242
63.72443 270
63.74454 242
63.76466 273
63.78477 287
63.80489 284
63.825 301
63.84511 303
63.86523 337
63.88534 357
63.90545 382
63.92557 364
63.94568 399
63.96579 410
63.98591 348
64.00602 294
64.02614 377
64.04625 323
64.06636 339
64.08648 341
64.10659 329
64.1267 285
64.14682 262
64.16693 264
64.18705 266
64.20716 237
64.22727 236
64.24739 224
64.2675 216
64.28761 208
64.30773 203
64.32784 181
64.34796 182
64.36807 188
64.38818 222
64.4083 189
64.42841 177
64.44852 222
64.46864 201
64.48875 181
64.50886 176
64.52898 167
64.54909 191
64.56921 164
64.58932 203
64.60943 183
64.62955 202
64.64966 174
64.66977 182
64.68989 179
64.71 189
64.73012 198
64.75023 184
64.77034 179
64.79046 180
64.81057 172
64.83068 182
64.8508 161
64.87091 195
64.89102 182
64.91114 199
64.93125 184
64.95137 175
64.97148 163
64.99159 183
65.01171 167
65.03182 173
65.05193 204
65.07205 163
65.09216 188
65.11228 192
65.13239 190
65.1525 166
65.17262 177
65.19273 185
65.21284 198
65.23296 163
65.25307 184
65.27319 196
65.2933 199
65.31341 213
65.33353 195
65.35364 198
65.37375 200
65.39387 203
65.41398 184
65.43409 216
65.45421 186
65.47432 197
65.49444 224
65.51455 225
65.53466 232
65.55478 219
65.57489 194
65.595 214
65.61512 222
65.63523 249
65.65535 234
65.67546 223
65.69557 229
65.71569 232
65.7358 247
65.75591 226
65.77603 211
65.79614 216
65.81626 194
65.83637 205
65.85648 199
65.8766 186
65.89671 184
65.91682 184
65.93694 206
65.95705 214
65.97716 186
65.99728 208
66.01739 205
66.03751 185
66.05762 193
66.07773 178
66.09785 203
66.11796 185
66.13807 178
66.15819 179
66.1783 182
66.19842 173
66.21853 182
66.23864 182
66.25876 173
66.27887 166
66.29898 178
66.3191 210
66.33921 189
66.35933 198
66.37944 168
66.39955 183
66.41967 179
66.43978 194
66.45989 208
66.48001 209
66.50012 169
66.52023 189
66.54035 165
66.56046 182
66.58058 181
66.60069 171
66.6208 173
66.64092 187
66.66103 189
66.68114 190
66.70126 182
66.72137 169
66.74149 177
66.7616 161
66.78171 170
66.80183 216
66.82194 196
66.84205 206
66.86217 201
66.88228 156
66.90239 196
66.92251 209
66.94262 195
66.96274 193
66.98285 202
67.00296 177
67.02308 233
67.04319 205
67.0633 185
67.08342 195
67.10353 220
67.12365 201
67.14376 208
67.16387 211
67.18399 190
67.2041 234
67.22421 241
67.24433 241
67.26444 218
67.28456 276
67.30467 279
67.32478 262
67.3449 283
67.36501 299
67.38512 310
67.40524 340
67.42535 357
67.44546 390
67.46558 436
67.48569 447
67.50581 509
67.52592 566
67.54603 636
67.56615 684
67.58626 776
67.60637 749
67.62649 820
67.6466 803
67.66672 868
67.68683 859
67.70694 786
67.72706 718
67.74717 700
67.76728 731
67.7874 676
67.80751 712
67.82763 729
67.84774 765
67.86785 787
67.88797 798
67.90808 809
67.92819 876
67.94831 885
67.96842 998
67.98853 1022
68.00865 1079
68.02876 1112
68.04888 1149
68.06899 1237
68.0891 1204
68.10922 1118
68.12933 1190
68.14944 1043
68.16956 1069
68.18967 1020
68.20979 1049
68.2299 1085
68.25001 987
68.27013 925
68.29024 842
68.31035 726
68.33047 669
68.35058 622
68.3707 576
68.39081 507
68.41092 499
68.43104 485
68.45115 464
68.47126 428
68.49138 358
68.51149 283
68.5316 296
68.55172 275
68.57183 225
68.59195 263
68.61206 227
68.63217 234
68.65229 231
68.6724 192
68.69251 222
68.71263 188
68.73274 225
68.75286 222
68.77297 227
68.79308 207
68.8132 242
68.83331 193
68.85342 206
68.87354 210
68.89365 227
68.91376 212
68.93388 208
68.95399 208
68.97411 196
68.99422 198
69.01433 186
69.03445 175
69.05456 203
69.07467 209
69.09479 235
69.1149 211
69.13502 195
69.15513 173
69.17524 201
69.19536 195
69.21547 190
69.23558 215
69.2557 234
69.27581 201
69.29593 201
69.31604 228
69.33615 190
69.35627 198
69.37638 195
69.39649 208
69.41661 197
69.43672 221
69.45683 201
69.47695 204
69.49706 214
69.51718 206
69.53729 217
69.5574 198
69.57752 204
69.59763 188
69.61774 169
69.63786 203
69.65797 208
69.67809 216
69.6982 206
69.71831 189
69.73843 190
69.75854 203
69.77865 202
69.79877 200
69.81888 201
69.839 200
69.85911 206
69.87922 200
69.89934 198
69.91945 200
69.93956 210
69.95968 193
69.97979 222
69.9999 184
70.02002 177
70.04013 185
70.06025 219
70.08036 200
70.10047 233
70.12059 200
70.1407 213
70.16081 206
70.18093 196
70.20104 215
70.22116 209
70.24127 200
70.26138 197
70.2815 187
70.30161 188
70.32172 181
70.34184 181
70.36195 195
70.38207 190
70.40218 181
70.42229 184
70.44241 205
70.46252 206
70.48263 202
70.50275 179
70.52286 199
70.54297 174
70.56309 178
70.5832 162
70.60332 171
70.62343 195
70.64354 197
70.66366 193
70.68377 181
70.70388 184
70.724 177
70.74411 190
70.76423 160
70.78434 185
70.80445 150
70.82457 181
70.84468 182
70.86479 194
70.88491 175
70.90502 172
70.92513 189
70.94525 161
70.96536 163
70.98548 189
71.00559 173
71.0257 169
71.04582 178
71.06593 185
71.08604 165
71.10616 160
71.12627 163
71.14639 191
71.1665 177
71.18661 176
71.20673 184
71.22684 191
71.24695 171
71.26707 166
71.28718 190
71.3073 179
71.32741 164
71.34752 164
71.36764 177
71.38775 182
71.40786 161
71.42798 163
71.44809 155
71.4682 167
71.48832 162
71.50843 184
71.52855 190
71.54866 178
71.56877 179
71.58889 176
71.609 187
71.62911 183
71.64923 169
71.66934 172
71.68946 183
71.70957 170
71.72968 183
71.7498 170
71.76991 186
71.79002 174
71.81014 169
71.83025 163
71.85037 158
71.87048 177
71.89059 196
71.91071 155
71.93082 184
71.95093 179
71.97105 180
71.99116 180
72.01127 198
72.03139 211
72.0515 188
72.07162 194
72.09173 208
72.11184 184
72.13196 185
72.15207 171
72.17218 204
72.1923 225
72.21241 213
72.23253 203
72.25264 201
72.27275 230
72.29287 232
72.31298 223
72.33309 225
72.35321 208
72.37332 241
72.39344 247
72.41355 216
72.43366 233
72.45378 253
72.47389 219
72.494 234
72.51412 204
72.53423 231
72.55434 198
72.57446 235
72.59457 245
72.61469 266
72.6348 238
72.65491 210
72.67503 228
72.69514 240
72.71525 228
72.73537 239
72.75548 212
72.7756 237
72.79571 223
72.81582 219
72.83594 218
72.85605 212
72.87616 231
72.89628 213
72.91639 259
72.9365 239
72.95662 255
72.97673 229
72.99685 256
73.01696 232
73.03707 223
73.05719 251
73.0773 241
73.09741 226
73.11753 252
73.13764 233
73.15776 288
73.17787 267
73.19798 277
73.2181 266
73.23821 303
73.25832 341
73.27844 362
73.29855 382
73.31867 413
73.33878 416
73.35889 375
73.37901 407
73.39912 411
73.41923 403
73.43935 340
73.45946 330
73.47957 308
73.49969 329
73.5198 325
73.53992 306
73.56003 326
73.58014 289
73.60026 287
73.62037 286
73.64048 259
73.6606 247
73.68071 233
73.70083 245
73.72094 209
73.74105 208
73.76117 213
73.78128 198
73.80139 211
73.82151 206
73.84162 207
73.86174 217
73.88185 221
73.90196 171
73.92208 189
73.94219 182
73.9623 167
73.98242 200
74.00253 194
74.02264 203
74.04276 189
74.06287 191
74.08299 192
74.1031 174
74.12321 197
74.14333 219
74.16344 176
74.18355 190
74.20367 171
74.22378 189
74.2439 162
74.26401 182
74.28412 188
74.30424 176
74.32435 183
74.34446 190
74.36458 186
74.38469 174
74.40481 162
74.42492 173
74.44503 220
74.46515 187
74.48526 195
74.50537 175
74.52549 183
74.5456 192
74.56571 175
74.58583 161
74.60594 210
74.62606 176
74.64617 169
74.66628 192
74.6864 189
74.70651 180
74.72662 165
74.74674 182
74.76685 186
74.78697 196
74.80708 171
74.82719 176
74.84731 183
74.86742 183
74.88753 193
74.90765 158
74.92776 187
74.94787 223
74.96799 203
74.9881 196
75.00822 180
