3.00117 20518
3.02128 19838
3.0414 19288
3.06151 18985
3.08162 18264
3.10174 17586
3.12185 17328
3.14197 16779
3.16208 16409
3.18219 15574
3.20231 15562
3.22242 14979
3.24253 14382
3.26265 14255
3.28276 13415
3.30288 13387
3.32299 12766
3.3431 12230
3.36322 11980
3.38333 11568
3.40344 11501
3.42356 10818
3.44367 10234
3.46379 10271
3.4839 9670
3.50401 9516
3.52413 9257
3.54424 8472
3.56435 8452
3.58447 8199
3.60458 7815
3.62469 7513
3.64481 7203
3.66492 6977
3.68504 6543
3.70515 6455
3.72526 6184
3.74538 5866
3.76549 5806
3.7856 5321
3.80572 5251
3.82583 5193
3.84595 4697
3.86606 4570
3.88617 4455
3.90629 4303
3.9264 4043
3.94651 3802
3.96663 3615
3.98674 3389
4.00686 3373
4.02697 3383
4.04708 3025
4.0672 2932
4.08731 2577
4.10742 2649
4.12754 2615
4.14765 2304
4.16776 2274
4.18788 2184
4.20799 2099
4.22811 2157
4.24822 1832
4.26833 1922
4.28845 1833
4.30856 1777
4.32867 1835
4.34879 1497
4.3689 1603
4.38902 1522
4.40913 1479
4.42924 1572
4.44936 1344
4.46947 1300
4.48958 1337
4.5097 1349
4.52981 1369
4.54992 1224
4.57004 1190
4.59015 1103
4.61027 1155
4.63038 1126
4.65049 1022
4.67061 1070
4.69072 977
4.71083 1026
4.73095 1009
4.75106 865
4.77118 931
4.79129 891
4.8114 862
4.83152 897
4.85163 825
4.87174 781
4.89186 786
4.91197 775
4.93209 757
4.9522 700
4.97231 668
4.99243 707
5.01254 702
5.03265 733
5.05277 615
5.07288 590
5.09299 671
5.11311 609
5.13322 592
5.15334 552
5.17345 537
5.19356 591
5.21368 544
5.23379 555
5.2539 480
5.27402 478
5.29413 498
5.31425 486
5.33436 445
5.35447 425
5.37459 451
5.3947 433
5.41481 419
5.43493 407
5.45504 441
5.47516 411
5.49527 406
5.51538 402
5.5355 337
5.55561 340
5.57572 328
5.59584 366
5.61595 362
5.63606 322
5.65618 340
5.67629 326
5.69641 350
5.71652 310
5.73663 311
5.75675 287
5.77686 293
5.79697 281
5.81709 262
5.8372 277
5.85732 280
5.87743 286
5.89754 283
5.91766 277
5.93777 236
5.95788 247
5.978 250
5.99811 257
6.01823 226
6.03834 278
6.05845 235
6.07857 237
6.09868 264
6.11879 276
6.13891 222
6.15902 212
6.17913 225
6.19925 251
6.21936 259
6.23948 224
6.25959 220
6.2797 240
6.29982 229
6.31993 213
6.34004 230
6.36016 222
6.38027 219
6.40039 237
6.4205 250
6.44061 226
6.46073 204
6.48084 209
6.50095 228
6.52107 239
6.54118 236
6.56129 194
6.58141 245
6.60152 215
6.62164 216
6.64175 202
6.66186 226
6.68198 219
6.70209 233
6.7222 205
6.74232 233
6.76243 195
6.78255 257
6.80266 219
6.82277 192
6.84289 191
6.863 201
6.88311 224
6.90323 230
6.92334 231
6.94346 212
6.96357 213
6.98368 203
7.0038 199
7.02391 211
7.04402 238
7.06414 222
7.08425 214
7.10436 203
7.12448 245
7.14459 220
7.16471 208
7.18482 225
7.20493 205
7.22505 226
7.24516 251
7.26527 205
7.28539 217
7.3055 226
7.32562 216
7.34573 231
7.36584 201
7.38596 236
7.40607 210
7.42618 191
7.4463 200
7.46641 219
7.48653 240
7.50664 224
7.52675 237
7.54687 245
7.56698 229
7.58709 228
7.60721 235
7.62732 206
7.64743 207
7.66755 228
7.68766 227
7.70778 240
7.72789 200
7.748 213
7.76812 236
7.78823 238
7.80834 256
7.82846 253
7.84857 231
7.86869 244
7.8888 248
7.90891 207
7.92903 212
7.94914 239
7.96925 228
7.98937 249
8.00948 215
8.0296 271
8.04971 239
8.06982 241
8.08994 233
8.11005 210
8.13016 253
8.15028 257
8.17039 240
8.1905 247
8.21062 258
8.23073 218
8.25085 244
8.27096 238
8.29107 249
8.31119 241
8.3313 223
8.35141 231
8.37153 229
8.39164 260
8.41176 227
8.43187 229
8.45198 246
8.4721 236
8.49221 248
8.51232 245
8.53244 292
8.55255 254
8.57266 256
8.59278 255
8.61289 244
8.63301 228
8.65312 215
8.67323 213
8.69335 222
8.71346 256
8.73357 221
8.75369 227
8.7738 227
8.79392 246
8.81403 237
8.83414 255
8.85426 231
8.87437 249
8.89448 226
8.9146 247
8.93471 240
8.95483 239
8.97494 251
8.99505 270
9.01517 234
9.03528 239
9.05539 232
9.07551 213
9.09562 239
9.11573 266
9.13585 222
9.15596 258
9.17608 255
9.19619 239
9.2163 229
9.23642 221
9.25653 235
9.27664 261
9.29676 256
9.31687 248
9.33699 242
9.3571 238
9.37721 260
9.39733 263
9.41744 259
9.43755 229
9.45767 247
9.47778 231
9.4979 284
9.51801 247
9.53812 258
9.55824 239
9.57835 265
9.59846 242
9.61858 240
9.63869 257
9.6588 233
9.67892 257
9.69903 247
9.71915 268
9.73926 255
9.75937 243
9.77949 275
9.7996 279
9.81971 266
9.83983 254
9.85994 260
9.88006 224
9.90017 230
9.92028 247
9.9404 248
9.96051 226
9.98062 242
10.00074 279
10.02085 229
10.04097 249
10.06108 263
10.08119 223
10.10131 212
10.12142 240
10.14153 232
10.16165 249
10.18176 249
10.20187 274
10.22199 262
10.2421 246
10.26222 252
10.28233 268
10.30244 256
10.32256 251
10.34267 259
10.36278 224
10.3829 227
10.40301 225
10.42313 217
10.44324 268
10.46335 240
10.48347 252
10.50358 233
10.52369 226
10.54381 247
10.56392 258
10.58403 230
10.60415 210
10.62426 220
10.64438 240
10.66449 250
10.6846 228
10.70472 227
10.72483 262
10.74494 204
10.76506 220
10.78517 278
10.80529 251
10.8254 237
10.84551 255
10.86563 249
10.88574 245
10.90585 239
10.92597 252
10.94608 235
10.9662 269
10.98631 212
11.00642 219
11.02654 224
11.04665 238
11.06676 273
11.08688 276
11.10699 287
11.1271 274
11.14722 255
11.16733 243
11.18745 270
11.20756 242
11.22767 234
11.24779 250
11.2679 240
11.28801 237
11.30813 237
11.32824 246
11.34836 254
11.36847 300
11.38858 236
11.4087 261
11.42881 261
11.44892 251
11.46904 264
11.48915 251
11.50927 245
11.52938 236
11.54949 232
11.56961 250
11.58972 267
11.60983 242
11.62995 277
11.65006 229
11.67017 270
11.69029 281
11.7104 251
11.73052 242
11.75063 276
11.77074 277
11.79086 259
11.81097 256
11.83108 261
11.8512 270
11.87131 255
11.89143 259
11.91154 279
11.93165 260
11.95177 287
11.97188 253
11.99199 283
12.01211 264
12.03222 266
12.05234 273
12.07245 294
12.09256 269
12.11268 263
12.13279 267
12.1529 283
12.17302 235
12.19313 288
12.21324 297
12.23336 297
12.25347 314
12.27359 323
12.2937 313
12.31381 290
12.33393 311
12.35404 313
12.37415 314
12.39427 339
12.41438 297
12.4345 295
12.45461 284
12.47472 276
12.49484 269
12.51495 266
12.53506 248
12.55518 214
12.57529 263
12.5954 241
12.61552 240
12.63563 240
12.65575 216
12.67586 259
12.69597 244
12.71609 234
12.7362 260
12.75631 217
12.77643 212
12.79654 263
12.81666 229
12.83677 249
12.85688 261
12.877 244
12.89711 217
12.91722 205
12.93734 235
12.95745 238
12.97757 249
12.99768 252
13.01779 223
13.03791 234
13.05802 218
13.07813 259
13.09825 227
13.11836 239
13.13847 219
13.15859 207
13.1787 244
13.19882 212
13.21893 231
13.23904 192
13.25916 229
13.27927 237
13.29938 234
13.3195 215
13.33961 237
13.35973 222
13.37984 216
13.39995 199
13.42007 227
13.44018 238
13.46029 238
13.48041 230
13.50052 240
13.52064 238
13.54075 222
13.56086 237
13.58098 228
13.60109 239
13.6212 242
13.64132 198
13.66143 196
13.68154 229
13.70166 241
13.72177 213
13.74189 227
13.762 232
13.78211 231
13.80223 245
13.82234 189
13.84245 224
13.86257 212
13.88268 196
13.9028 224
13.92291 205
13.94302 201
13.96314 241
13.98325 194
14.00336 201
14.02348 219
14.04359 226
14.06371 223
14.08382 198
14.10393 183
14.12405 210
14.14416 219
14.16427 211
14.18439 183
14.2045 176
14.22461 205
14.24473 205
14.26484 213
14.28496 200
14.30507 246
14.32518 206
14.3453 172
14.36541 200
14.38552 228
14.40564 223
14.42575 196
14.44587 203
14.46598 222
14.48609 209
14.50621 208
14.52632 203
14.54643 200
14.56655 250
14.58666 220
14.60677 188
14.62689 209
14.647 200
14.66712 192
14.68723 221
14.70734 193
14.72746 192
14.74757 214
14.76768 200
14.7878 200
14.80791 224
14.82803 198
14.84814 192
14.86825 212
14.88837 201
14.90848 213
14.92859 197
14.94871 189
14.96882 211
14.98894 208
15.00905 194
15.02916 208
15.04928 217
15.06939 216
15.0895 198
15.10962 209
15.12973 184
15.14984 177
15.16996 220
15.19007 193
15.21019 195
15.2303 203
15.25041 221
15.27053 182
15.29064 185
15.31075 232
15.33087 213
15.35098 189
15.3711 192
15.39121 187
15.41132 210
15.43144 194
15.45155 211
15.47166 170
15.49178 199
15.51189 202
15.53201 207
15.55212 170
15.57223 195
15.59235 203
15.61246 205
15.63257 211
15.65269 187
15.6728 231
15.69291 211
15.71303 230
15.73314 191
15.75326 229
15.77337 215
15.79348 216
15.8136 190
15.83371 170
15.85382 188
15.87394 163
15.89405 190
15.91417 181
15.93428 180
15.95439 187
15.97451 201
15.99462 171
16.01473 219
16.03485 212
16.05496 198
16.07508 186
16.09519 164
16.1153 167
16.13542 209
16.15553 208
16.17564 195
16.19576 220
16.21587 184
16.23598 195
16.2561 190
16.27621 203
16.29633 181
16.31644 189
16.33655 195
16.35667 220
16.37678 230
16.39689 181
16.41701 206
16.43712 180
16.45724 175
16.47735 204
16.49746 191
16.51758 213
16.53769 180
16.5578 168
16.57792 228
16.59803 165
16.61814 189
16.63826 204
16.65837 187
16.67849 197
16.6986 173
16.71871 195
16.73883 182
16.75894 190
16.77905 182
16.79917 203
16.81928 194
16.8394 216
16.85951 192
16.87962 180
16.89974 204
16.91985 188
16.93996 197
16.96008 175
16.98019 178
17.00031 236
17.02042 211
17.04053 190
17.06065 160
17.08076 188
17.10087 192
17.12099 205
17.1411 208
17.16121 172
17.18133 174
17.20144 223
17.22156 213
17.24167 194
17.26178 161
17.2819 188
17.30201 195
17.32212 203
17.34224 180
17.36235 211
17.38247 173
17.40258 199
17.42269 194
17.44281 186
17.46292 190
17.48303 189
17.50315 182
17.52326 224
17.54338 185
17.56349 214
17.5836 211
17.60372 182
17.62383 185
17.64394 197
17.66406 185
17.68417 199
17.70428 198
17.7244 216
17.74451 177
17.76463 197
17.78474 178
17.80485 216
17.82497 176
17.84508 217
17.86519 173
17.88531 183
17.90542 200
17.92554 161
17.94565 199
17.96576 183
17.98588 213
18.00599 175
18.0261 194
18.04622 186
18.06633 204
18.08645 206
18.10656 191
18.12667 208
18.14679 184
18.1669 209
18.18701 170
18.20713 192
18.22724 174
18.24735 215
18.26747 181
18.28758 212
18.3077 178
18.32781 183
18.34792 186
18.36804 196
18.38815 187
18.40826 237
18.42838 198
18.44849 195
18.46861 189
18.48872 185
18.50883 192
18.52895 191
18.54906 194
18.56917 195
18.58929 206
18.6094 198
18.62951 200
18.64963 190
18.66974 194
18.68986 223
18.70997 191
18.73008 195
18.7502 213
18.77031 203
18.79042 194
18.81054 226
18.83065 232
18.85077 227
18.87088 183
18.89099 176
18.91111 211
18.93122 211
18.95133 192
18.97145 184
18.99156 214
19.01168 191
19.03179 196
19.0519 189
19.07202 188
19.09213 203
19.11224 225
19.13236 204
19.15247 210
19.17258 229
19.1927 220
19.21281 211
19.23293 202
19.25304 196
19.27315 191
19.29327 206
19.31338 219
19.33349 173
19.35361 206
19.37372 222
19.39384 168
19.41395 203
19.43406 191
19.45418 197
19.47429 216
19.4944 216
19.51452 215
19.53463 189
19.55475 211
19.57486 201
19.59497 214
19.61509 217
19.6352 236
19.65531 236
19.67543 255
19.69554 245
19.71565 259
19.73577 272
19.75588 299
19.776 284
19.79611 297
19.81622 305
19.83634 347
19.85645 360
19.87656 358
19.89668 354
19.91679 337
19.93691 364
19.95702 349
19.97713 362
19.99725 339
20.01736 319
20.03747 311
20.05759 359
20.0777 356
20.09782 303
20.11793 317
20.13804 311
20.15816 344
20.17827 336
20.19838 328
20.2185 311
20.23861 325
20.25872 342
20.27884 315
20.29895 356
20.31907 311
20.33918 374
20.35929 365
20.37941 381
20.39952 374
20.41963 406
20.43975 367
20.45986 394
20.47998 379
20.50009 405
20.5202 429
20.54032 400
20.56043 444
20.58054 467
20.60066 507
20.62077 539
20.64088 595
20.661 643
20.68111 773
20.70123 956
20.72134 1238
20.74145 1797
20.76157 2545
20.78168 3572
20.80179 5053
20.82191 6541
20.84202 7829
20.86214 8128
20.88225 7648
20.90236 6027
20.92248 4295
20.94259 2832
20.9627 1726
20.98282 1115
21.00293 791
21.02305 647
21.04316 584
21.06327 565
21.08339 562
21.1035 477
21.12361 479
21.14373 455
21.16384 430
21.18395 354
21.20407 365
21.22418 343
21.2443 341
21.26441 359
21.28452 324
21.30464 343
21.32475 363
21.34486 320
21.36498 330
21.38509 320
21.40521 319
21.42532 317
21.44543 306
21.46555 315
21.48566 285
21.50577 297
21.52589 314
21.546 299
21.56612 305
21.58623 286
21.60634 279
21.62646 289
21.64657 305
21.66668 259
21.6868 270
21.70691 263
21.72702 262
21.74714 297
21.76725 281
21.78737 257
21.80748 300
21.82759 281
21.84771 281
21.86782 246
21.88793 257
21.90805 237
21.92816 261
21.94828 222
21.96839 258
21.9885 256
22.00862 273
22.02873 274
22.04884 261
22.06896 277
22.08907 291
22.10919 228
22.1293 258
22.14941 272
22.16953 262
22.18964 271
22.20975 247
22.22987 265
22.24998 283
22.27009 248
22.29021 242
22.31032 245
22.33044 240
22.35055 275
22.37066 266
22.39078 266
22.41089 262
22.431 277
22.45112 253
22.47123 258
22.49135 243
22.51146 285
22.53157 259
22.55169 244
22.5718 252
22.59191 273
22.61203 265
22.63214 236
22.65225 274
22.67237 245
22.69248 228
22.7126 280
22.73271 219
22.75282 237
22.77294 211
22.79305 249
22.81316 227
22.83328 242
22.85339 267
22.87351 238
22.89362 237
22.91373 244
22.93385 234
22.95396 219
22.97407 239
22.99419 237
23.0143 258
23.03442 257
23.05453 232
23.07464 259
23.09476 235
23.11487 262
23.13498 252
23.1551 243
23.17521 257
23.19532 254
23.21544 252
23.23555 279
23.25567 262
23.27578 244
23.29589 241
23.31601 268
23.33612 214
23.35623 251
23.37635 224
23.39646 238
23.41658 239
23.43669 246
23.4568 244
23.47692 256
23.49703 238
23.51714 278
23.53726 216
23.55737 229
23.57749 234
23.5976 245
23.61771 248
23.63783 247
23.65794 235
23.67805 246
23.69817 224
23.71828 233
23.73839 248
23.75851 252
23.77862 243
23.79874 230
23.81885 252
23.83896 284
23.85908 276
23.87919 289
23.8993 266
23.91942 274
23.93953 321
23.95965 293
23.97976 329
23.99987 343
24.01999 361
24.0401 341
24.06021 312
24.08033 295
24.10044 281
24.12056 293
24.14067 273
24.16078 282
24.1809 249
24.20101 267
24.22112 279
24.24124 261
24.26135 265
24.28146 263
24.30158 259
24.32169 277
24.34181 252
24.36192 276
24.38203 257
24.40215 243
24.42226 266
24.44237 276
24.46249 253
24.4826 265
24.50272 280
24.52283 250
24.54294 255
24.56306 251
24.58317 207
24.60328 245
24.6234 233
24.64351 266
24.66362 281
24.68374 272
24.70385 269
24.72397 263
24.74408 253
24.76419 285
24.78431 293
24.80442 272
24.82453 326
24.84465 307
24.86476 301
24.88488 328
24.90499 308
24.9251 310
24.94522 287
24.96533 293
24.98544 277
25.00556 272
25.02567 279
25.04579 266
25.0659 255
25.08601 265
25.10613 288
25.12624 267
25.14635 269
25.16647 288
25.18658 299
25.20669 281
25.22681 335
25.24692 311
25.26704 316
25.28715 354
25.30726 355
25.32738 372
25.34749 336
25.3676 332
25.38772 308
25.40783 318
25.42795 292
25.44806 283
25.46817 297
25.48829 291
25.5084 277
25.52851 346
25.54863 310
25.56874 295
25.58886 318
25.60897 319
25.62908 339
25.6492 362
25.66931 359
25.68942 369
25.70954 375
25.72965 406
25.74976 443
25.76988 472
25.78999 458
25.81011 451
25.83022 446
25.85033 450
25.87045 508
25.89056 462
25.91067 478
25.93079 497
25.9509 470
25.97102 478
25.99113 507
26.01124 514
26.03136 497
26.05147 568
26.07158 527
26.0917 588
26.11181 613
26.13193 649
26.15204 666
26.17215 705
26.19227 737
26.21238 778
26.23249 869
26.25261 898
26.27272 996
26.29283 1038
26.31295 1070
26.33306 1156
26.35318 1318
26.37329 1486
26.3934 1730
26.41352 2008
26.43363 2574
26.45374 3194
26.47386 4261
26.49397 5909
26.51409 8231
26.5342 11802
26.55431 16833
26.57443 23197
26.59454 30074
26.61465 35763
26.63477 37664
26.65488 35241
26.67499 28528
26.69511 22100
26.71522 16413
26.73534 11095
26.75545 6501
26.77556 3583
26.79568 2253
26.81579 1896
26.8359 1660
26.85602 1479
26.87613 1335
26.89625 1262
26.91636 1105
26.93647 1091
26.95659 1012
26.9767 893
26.99681 818
27.01693 774
27.03704 673
27.05716 616
27.07727 642
27.09738 569
27.1175 548
27.13761 503
27.15772 492
27.17784 518
27.19795 446
27.21806 468
27.23818 468
27.25829 463
27.27841 393
27.29852 457
27.31863 440
27.33875 443
27.35886 462
27.37897 487
27.39909 457
27.4192 496
27.43932 537
27.45943 499
27.47954 499
27.49966 451
27.51977 422
27.53988 403
27.56 383
27.58011 408
27.60023 368
27.62034 336
27.64045 379
27.66057 325
27.68068 396
27.70079 380
27.72091 353
27.74102 346
27.76113 344
27.78125 313
27.80136 347
27.82148 318
27.84159 294
27.8617 305
27.88182 329
27.90193 315
27.92204 328
27.94216 309
27.96227 343
27.98239 310
28.0025 296
28.02261 362
28.04273 312
28.06284 307
28.08295 321
28.10307 307
28.12318 289
28.1433 309
28.16341 302
28.18352 303
28.20364 289
28.22375 290
28.24386 300
28.26398 279
28.28409 256
28.3042 285
28.32432 298
28.34443 305
28.36455 277
28.38466 271
28.40477 263
28.42489 262
28.445 294
28.46511 283
28.48523 246
28.50534 297
28.52546 289
28.54557 294
28.56568 248
28.5858 258
28.60591 264
28.62602 243
28.64614 248
28.66625 288
28.68636 284
28.70648 244
28.72659 264
28.74671 276
28.76682 255
28.78693 252
28.80705 240
28.82716 262
28.84727 262
28.86739 232
28.8875 269
28.90762 214
28.92773 239
28.94784 259
28.96796 264
28.98807 269
29.00818 243
29.0283 258
29.04841 279
29.06853 238
29.08864 258
29.10875 276
29.12887 242
29.14898 264
29.16909 266
29.18921 242
29.20932 258
29.22943 244
29.24955 230
29.26966 247
29.28978 243
29.30989 215
29.33 254
29.35012 261
29.37023 258
29.39034 254
29.41046 278
29.43057 254
29.45069 256
29.4708 254
29.49091 277
29.51103 237
29.53114 266
29.55125 270
29.57137 252
29.59148 250
29.6116 258
29.63171 269
29.65182 240
29.67194 243
29.69205 209
29.71216 255
29.73228 265
29.75239 236
29.7725 239
29.79262 231
29.81273 240
29.83285 269
29.85296 216
29.87307 225
29.89319 218
29.9133 209
29.93341 211
29.95353 262
29.97364 239
29.99376 231
30.01387 236
30.03398 205
30.0541 236
30.07421 215
30.09432 241
30.11444 243
30.13455 224
30.15467 253
30.17478 259
30.19489 241
30.21501 260
30.23512 223
30.25523 236
30.27535 237
30.29546 221
30.31557 257
30.33569 234
30.3558 212
30.37592 225
30.39603 218
30.41614 242
30.43626 223
30.45637 237
30.47648 246
30.4966 275
30.51671 246
30.53683 254
30.55694 244
30.57705 217
30.59717 230
30.61728 232
30.63739 220
30.65751 238
30.67762 222
30.69773 242
30.71785 243
30.73796 257
30.75808 226
30.77819 239
30.7983 232
30.81842 221
30.83853 235
30.85864 224
30.87876 225
30.89887 204
30.91899 264
30.9391 220
30.95921 199
30.97933 179
30.99944 227
31.01955 250
31.03967 213
31.05978 219
31.0799 211
31.10001 203
31.12012 190
31.14024 236
31.16035 208
31.18046 226
31.20058 208
31.22069 207
31.2408 202
31.26092 214
31.28103 194
31.30115 219
31.32126 206
31.34137 199
31.36149 213
31.3816 191
31.40171 193
31.42183 187
31.44194 193
31.46206 212
31.48217 195
31.50228 224
31.5224 213
31.54251 200
31.56262 187
31.58274 216
31.60285 227
31.62297 194
31.64308 222
31.66319 207
31.68331 194
31.70342 215
31.72353 187
31.74365 218
31.76376 185
31.78387 169
31.80399 204
31.8241 213
31.84422 237
31.86433 193
31.88444 202
31.90456 220
31.92467 189
31.94478 195
31.9649 181
31.98501 192
32.00513 208
32.02524 207
32.04535 212
32.06547 206
32.08558 220
32.10569 205
32.12581 214
32.14592 202
32.16604 204
32.18615 177
32.20626 196
32.22638 196
32.24649 214
32.2666 222
32.28672 179
32.30683 195
32.32694 195
32.34706 191
32.36717 205
32.38729 178
32.4074 211
32.42751 211
32.44763 187
32.46774 187
32.48785 228
32.50797 205
32.52808 207
32.5482 210
32.56831 214
32.58842 196
32.60854 170
32.62865 193
32.64876 187
32.66888 205
32.68899 189
32.7091 181
32.72922 207
32.74933 219
32.76945 192
32.78956 200
32.80967 211
32.82979 201
32.8499 212
32.87001 185
32.89013 215
32.91024 215
32.93036 224
32.95047 227
32.97058 193
32.9907 207
33.01081 208
33.03092 233
33.05104 189
33.07115 194
33.09127 234
33.11138 242
33.13149 228
33.15161 221
33.17172 236
33.19183 216
33.21195 213
33.23206 221
33.25217 202
33.27229 225
33.2924 197
33.31252 196
33.33263 225
33.35274 224
33.37286 239
33.39297 207
33.41308 224
33.4332 212
33.45331 225
33.47343 190
33.49354 179
33.51365 191
33.53377 209
33.55388 202
33.57399 195
33.59411 197
33.61422 183
33.63434 198
33.65445 220
33.67456 212
33.69468 194
33.71479 174
33.7349 207
33.75502 180
33.77513 165
33.79524 172
33.81536 209
33.83547 211
33.85559 183
33.8757 188
33.89581 179
33.91593 205
33.93604 179
33.95615 186
33.97627 193
33.99638 189
34.0165 186
34.03661 196
34.05672 166
34.07684 175
34.09695 191
34.11706 177
34.13718 192
34.15729 193
34.17741 212
34.19752 183
34.21763 191
34.23775 181
34.25786 194
34.27797 198
34.29809 182
34.3182 194
34.33831 191
34.35843 204
34.37854 214
34.39866 191
34.41877 207
34.43888 194
34.459 219
34.47911 187
34.49922 184
34.51934 213
34.53945 193
34.55957 202
34.57968 214
34.59979 219
34.61991 216
34.64002 245
34.66013 218
34.68025 207
34.70036 204
34.72047 221
34.74059 221
34.7607 235
34.78082 212
34.80093 238
34.82104 232
34.84116 211
34.86127 244
34.88138 262
34.9015 272
34.92161 268
34.94173 228
34.96184 258
34.98195 229
35.00207 250
35.02218 257
35.04229 265
35.06241 235
35.08252 219
35.10264 239
35.12275 245
35.14286 241
35.16298 248
35.18309 230
35.2032 212
35.22332 234
35.24343 253
35.26354 256
35.28366 219
35.30377 246
35.32389 224
35.344 276
35.36411 259
35.38423 268
35.40434 254
35.42445 300
35.44457 258
35.46468 256
35.4848 303
35.50491 296
35.52502 274
35.54514 295
35.56525 277
35.58536 297
35.60548 318
35.62559 292
35.64571 290
35.66582 292
35.68593 281
35.70605 268
35.72616 290
35.74627 273
35.76639 297
35.7865 276
35.80661 274
35.82673 255
35.84684 255
35.86696 292
35.88707 268
35.90718 253
35.9273 260
35.94741 261
35.96752 265
35.98764 225
36.00775 271
36.02787 266
36.04798 289
36.06809 278
36.08821 248
36.10832 281
36.12843 272
36.14855 240
36.16866 276
36.18878 272
36.20889 310
36.229 281
36.24912 343
36.26923 284
36.28934 351
36.30946 371
36.32957 429
36.34968 505
36.3698 591
36.38991 683
36.41003 900
36.43014 1118
36.45025 1467
36.47037 1792
36.49048 2151
36.51059 2481
36.53071 2506
36.55082 2335
36.57094 1936
36.59105 1642
36.61116 1423
36.63128 1264
36.65139 1055
36.6715 766
36.69162 489
36.71173 399
36.73184 350
36.75196 322
36.77207 294
36.79219 285
36.8123 280
36.83241 257
36.85253 283
36.87264 297
36.89275 277
36.91287 263
36.93298 233
36.9531 257
36.97321 258
36.99332 255
37.01344 252
37.03355 260
37.05366 262
37.07378 218
37.09389 235
37.11401 229
37.13412 238
37.15423 221
37.17435 215
37.19446 222
37.21457 215
37.23469 227
37.2548 208
37.27491 207
37.29503 184
37.31514 193
37.33526 207
37.35537 221
37.37548 208
37.3956 196
37.41571 218
37.43582 195
37.45594 205
37.47605 237
37.49617 222
37.51628 205
37.53639 234
37.55651 225
37.57662 224
37.59673 207
37.61685 209
37.63696 203
37.65708 222
37.67719 207
37.6973 221
37.71742 231
37.73753 208
37.75764 217
37.77776 229
37.79787 208
37.81798 245
37.8381 230
37.85821 222
37.87833 198
37.89844 209
37.91855 199
37.93867 212
37.95878 200
37.97889 202
37.99901 198
38.01912 197
38.03924 225
38.05935 223
38.07946 216
38.09958 223
38.11969 236
38.1398 201
38.15992 208
38.18003 215
38.20015 236
38.22026 198
38.24037 224
38.26049 198
38.2806 214
38.30071 187
38.32083 224
38.34094 234
38.36105 230
38.38117 222
38.40128 237
38.4214 258
38.44151 228
38.46162 231
38.48174 240
38.50185 250
38.52196 233
38.54208 229
38.56219 259
38.58231 242
38.60242 250
38.62253 215
38.64265 223
38.66276 231
38.68287 229
38.70299 199
38.7231 232
38.74321 224
38.76333 213
38.78344 201
38.80356 229
38.82367 222
38.84378 234
38.8639 225
38.88401 211
38.90412 214
38.92424 227
38.94435 241
38.96447 244
38.98458 218
39.00469 229
39.02481 258
39.04492 219
39.06503 244
39.08515 247
39.10526 272
39.12538 271
39.14549 257
39.1656 269
39.18572 284
39.20583 330
39.22594 352
39.24606 402
39.26617 448
39.28628 547
39.3064 634
39.32651 763
39.34663 949
39.36674 1182
39.38685 1597
39.40697 1880
39.42708 2192
39.44719 2280
39.46731 2256
39.48742 1860
39.50754 1491
39.52765 1321
39.54776 1205
39.56788 1154
39.58799 899
39.6081 588
39.62822 466
39.64833 351
39.66845 315
39.68856 285
39.70867 305
39.72879 262
39.7489 256
39.76901 230
39.78913 239
39.80924 253
39.82935 224
39.84947 244
39.86958 246
39.8897 219
39.90981 233
39.92992 230
39.95004 236
39.97015 246
39.99026 258
40.01038 232
40.03049 275
40.05061 258
40.07072 304
40.09083 361
40.11095 358
40.13106 442
40.15117 495
40.17129 616
40.1914 706
40.21152 935
40.23163 1055
40.25174 1141
40.27186 1215
40.29197 1099
40.31208 979
40.3322 798
40.35231 766
40.37242 662
40.39254 662
40.41265 531
40.43277 434
40.45288 325
40.47299 250
40.49311 233
40.51322 260
40.53333 221
40.55345 228
40.57356 211
40.59368 222
40.61379 216
40.6339 211
40.65402 216
40.67413 222
40.69424 215
40.71436 220
40.73447 194
40.75458 200
40.7747 222
40.79481 196
40.81493 214
40.83504 195
40.85515 200
40.87527 221
40.89538 216
40.91549 217
40.93561 193
40.95572 196
40.97584 230
40.99595 224
41.01606 232
41.03618 183
41.05629 189
41.0764 206
41.09652 209
41.11663 199
41.13675 190
41.15686 209
41.17697 210
41.19709 225
41.2172 229
41.23731 204
41.25743 194
41.27754 216
41.29765 209
41.31777 212
41.33788 212
41.358 195
41.37811 210
41.39822 246
41.41834 189
41.43845 187
41.45856 180
41.47868 212
41.49879 177
41.51891 232
41.53902 197
41.55913 206
41.57925 223
41.59936 204
41.61947 214
41.63959 208
41.6597 206
41.67982 184
41.69993 238
41.72004 228
41.74016 214
41.76027 187
41.78038 206
41.8005 223
41.82061 212
41.84072 205
41.86084 224
41.88095 209
41.90107 210
41.92118 193
41.94129 211
41.96141 239
41.98152 213
42.00163 215
42.02175 215
42.04186 198
42.06198 178
42.08209 219
42.1022 235
42.12232 229
42.14243 269
42.16254 256
42.18266 301
42.20277 343
42.22289 326
42.243 363
42.26311 436
42.28323 514
42.30334 598
42.32345 771
42.34357 910
42.36368 1162
42.38379 1375
42.40391 1513
42.42402 1614
42.44414 1575
42.46425 1464
42.48436 1203
42.50448 984
42.52459 942
42.5447 890
42.56482 740
42.58493 612
42.60505 436
42.62516 330
42.64527 254
42.66539 255
42.6855 262
42.70561 225
42.72573 207
42.74584 219
42.76595 201
42.78607 220
42.80618 221
42.8263 217
42.84641 189
42.86652 200
42.88664 171
42.90675 213
42.92686 206
42.94698 208
42.96709 199
42.98721 182
43.00732 168
43.02743 197
43.04755 196
43.06766 191
43.08777 175
43.10789 181
43.128 183
43.14812 188
43.16823 205
43.18834 206
43.20846 182
43.22857 173
43.24868 206
43.2688 181
43.28891 172
43.30902 174
43.32914 186
43.34925 185
43.36937 199
43.38948 171
43.40959 180
43.42971 191
43.44982 194
43.46993 175
43.49005 185
43.51016 194
43.53028 169
43.55039 175
43.5705 186
43.59062 194
43.61073 177
43.63084 150
43.65096 195
43.67107 183
43.69119 173
43.7113 170
43.73141 194
43.75153 166
43.77164 163
43.79175 156
43.81187 180
43.83198 158
43.85209 190
43.87221 168
43.89232 203
43.91244 195
43.93255 192
43.95266 202
43.97278 182
43.99289 165
44.013 188
44.03312 176
44.05323 175
44.07335 195
44.09346 178
44.11357 196
44.13369 185
44.1538 181
44.17391 163
44.19403 166
44.21414 170
44.23426 175
44.25437 183
44.27448 168
44.2946 192
44.31471 181
44.33482 162
44.35494 184
44.37505 190
44.39516 175
44.41528 172
44.43539 195
44.45551 181
44.47562 185
44.49573 187
44.51585 177
44.53596 170
44.55607 190
44.57619 185
44.5963 199
44.61642 179
44.63653 192
44.65664 170
44.67676 147
44.69687 193
44.71698 190
44.7371 193
44.75721 178
44.77732 168
44.79744 162
44.81755 163
44.83767 210
44.85778 169
44.87789 174
44.89801 180
44.91812 185
44.93823 197
44.95835 179
44.97846 174
44.99858 182
45.01869 176
45.0388 170
45.05892 177
45.07903 175
45.09914 190
45.11926 173
45.13937 176
45.15949 175
45.1796 186
45.19971 190
45.21983 188
45.23994 176
45.26005 170
45.28017 206
45.30028 175
45.32039 192
45.34051 175
45.36062 179
45.38074 182
45.40085 193
45.42096 197
45.44108 206
45.46119 236
45.4813 215
45.50142 230
45.52153 232
45.54165 253
45.56176 273
45.58187 311
45.60199 333
45.6221 404
45.64221 471
45.66233 562
45.68244 675
45.70256 792
45.72267 951
45.74278 1055
45.7629 1061
45.78301 1097
45.80312 998
45.82324 844
45.84335 676
45.86346 652
45.88358 674
45.90369 624
45.92381 470
45.94392 367
45.96403 284
45.98415 249
46.00426 230
46.02437 217
46.04449 213
46.0646 192
46.08472 206
46.10483 213
46.12494 207
46.14506 199
46.16517 195
46.18528 160
46.2054 182
46.22551 168
46.24563 154
46.26574 190
46.28585 185
46.30597 182
46.32608 149
46.34619 183
46.36631 156
46.38642 191
46.40653 181
46.42665 177
46.44676 156
46.46688 164
46.48699 185
46.5071 178
46.52722 186
46.54733 186
46.56744 164
46.58756 177
46.60767 152
46.62779 155
46.6479 157
46.66801 166
46.68813 176
46.70824 166
46.72835 162
46.74847 180
46.76858 167
46.78869 158
46.80881 173
46.82892 161
46.84904 138
46.86915 166
46.88926 152
46.90938 158
46.92949 168
46.9496 162
46.96972 171
46.98983 167
47.00995 162
47.03006 171
47.05017 161
47.07029 168
47.0904 160
47.11051 177
47.13063 168
47.15074 187
47.17086 190
47.19097 195
47.21108 164
47.2312 187
47.25131 162
47.27142 157
47.29154 164
47.31165 134
47.33176 164
47.35188 176
47.37199 175
47.39211 164
47.41222 163
47.43233 155
47.45245 178
47.47256 183
47.49267 185
47.51279 168
47.5329 167
47.55302 169
47.57313 181
47.59324 153
47.61336 164
47.63347 168
47.65358 176
47.6737 186
47.69381 163
47.71393 175
47.73404 161
47.75415 174
47.77427 154
47.79438 156
47.81449 177
47.83461 169
47.85472 142
47.87483 163
47.89495 172
47.91506 176
47.93518 166
47.95529 189
47.9754 173
47.99552 191
48.01563 183
48.03574 164
48.05586 159
48.07597 165
48.09609 170
48.1162 167
48.13631 172
48.15643 159
48.17654 173
48.19665 155
48.21677 153
48.23688 178
48.257 154
48.27711 189
48.29722 168
48.31734 173
48.33745 140
48.35756 170
48.37768 188
48.39779 178
48.4179 179
48.43802 176
48.45813 156
48.47825 157
48.49836 165
48.51847 161
48.53859 162
48.5587 159
48.57881 197
48.59893 153
48.61904 166
48.63916 178
48.65927 200
48.67938 185
48.6995 179
48.71961 163
48.73972 153
48.75984 152
48.77995 178
48.80006 167
48.82018 171
48.84029 178
48.86041 184
48.88052 187
48.90063 172
48.92075 186
48.94086 187
48.96097 194
48.98109 192
49.0012 165
49.02132 156
49.04143 176
49.06154 192
49.08166 178
49.10177 158
49.12188 176
49.142 172
49.16211 170
49.18223 179
49.20234 202
49.22245 155
49.24257 192
49.26268 184
49.28279 163
49.30291 158
49.32302 180
49.34313 173
49.36325 193
49.38336 195
49.40348 199
49.42359 189
49.4437 225
49.46382 192
49.48393 206
49.50404 221
49.52416 205
49.54427 212
49.56439 203
49.5845 202
49.60461 229
49.62473 217
49.64484 223
49.66495 277
49.68507 254
49.70518 246
49.7253 257
49.74541 274
49.76552 298
49.78564 332
49.80575 351
49.82586 398
49.84598 448
49.86609 448
49.8862 528
49.90632 596
49.92643 708
49.94655 844
49.96666 1037
49.98677 1287
50.00689 1557
50.027 2011
50.04711 2466
50.06723 3037
50.08734 3394
50.10746 3578
50.12757 3369
50.14768 3023
50.1678 2466
50.18791 2120
50.20802 2014
50.22814 1967
50.24825 1872
50.26837 1538
50.28848 1334
50.30859 902
50.32871 609
50.34882 455
50.36893 407
50.38905 357
50.40916 349
50.42927 281
50.44939 311
50.4695 289
50.48962 291
50.50973 299
50.52984 296
50.54996 268
50.57007 302
50.59018 285
50.6103 274
50.63041 242
50.65053 269
50.67064 250
50.69075 224
50.71087 257
50.73098 248
50.75109 198
50.77121 219
50.79132 208
50.81143 222
50.83155 201
50.85166 186
50.87178 172
50.89189 159
50.912 200
50.93212 191
50.95223 190
50.97234 182
50.99246 170
51.01257 180
51.03269 165
51.0528 170
51.07291 178
51.09303 170
51.11314 153
51.13325 163
51.15337 183
51.17348 174
51.1936 152
51.21371 174
51.23382 205
51.25394 164
51.27405 174
51.29416 153
51.31428 157
51.33439 161
51.3545 186
51.37462 184
51.39473 156
51.41485 162
51.43496 130
51.45507 152
51.47519 163
51.4953 162
51.51541 160
51.53553 151
51.55564 158
51.57576 160
51.59587 145
51.61598 157
51.6361 152
51.65621 186
51.67632 170
51.69644 171
51.71655 166
51.73667 162
51.75678 159
51.77689 164
51.79701 154
51.81712 176
51.83723 162
51.85735 151
51.87746 159
51.89757 154
51.91769 154
51.9378 138
51.95792 171
51.97803 144
51.99814 165
52.01826 137
52.03837 174
52.05848 153
52.0786 173
52.09871 173
52.11883 138
52.13894 156
52.15905 158
52.17917 165
52.19928 160
52.21939 155
52.23951 172
52.25962 158
52.27974 152
52.29985 169
52.31996 166
52.34008 173
52.36019 154
52.3803 167
52.40042 176
52.42053 147
52.44064 174
52.46076 158
52.48087 141
52.50099 173
52.5211 159
52.54121 148
52.56133 158
52.58144 138
52.60155 155
52.62167 163
52.64178 145
52.6619 163
52.68201 162
52.70212 151
52.72224 164
52.74235 138
52.76246 169
52.78258 161
52.80269 149
52.8228 171
52.84292 163
52.86303 154
52.88315 162
52.90326 147
52.92337 161
52.94349 163
52.9636 174
52.98371 186
53.00383 171
53.02394 162
53.04406 171
53.06417 178
53.08428 150
53.1044 177
53.12451 147
53.14462 156
53.16474 182
53.18485 150
53.20497 171
53.22508 178
53.24519 177
53.26531 184
53.28542 185
53.30553 221
53.32565 192
53.34576 199
53.36587 188
53.38599 201
53.4061 189
53.42622 188
53.44633 210
53.46644 195
53.48656 194
53.50667 172
53.52678 197
53.5469 180
53.56701 194
53.58713 165
53.60724 195
53.62735 197
53.64747 217
53.66758 207
53.68769 166
53.70781 197
53.72792 192
53.74804 220
53.76815 177
53.78826 179
53.80838 209
53.82849 190
53.8486 208
53.86872 172
53.88883 190
53.90894 197
53.92906 197
53.94917 196
53.96929 183
53.9894 188
54.00951 185
54.02963 211
54.04974 222
54.06985 203
54.08997 169
54.11008 194
54.1302 195
54.15031 211
54.17042 177
54.19054 232
54.21065 210
54.23076 201
54.25088 225
54.27099 207
54.29111 223
54.31122 215
54.33133 192
54.35145 221
54.37156 204
54.39167 198
54.41179 206
54.4319 224
54.45201 220
54.47213 235
54.49224 230
54.51236 224
54.53247 243
54.55258 245
54.5727 258
54.59281 250
54.61292 292
54.63304 262
54.65315 341
54.67327 359
54.69338 451
54.71349 513
54.73361 555
54.75372 660
54.77383 826
54.79395 909
54.81406 1044
54.83417 1101
54.85429 1066
54.8744 974
54.89452 881
54.91463 744
54.93474 692
54.95486 673
54.97497 651
54.99508 659
55.0152 596
55.03531 512
55.05543 434
55.07554 341
55.09565 321
55.11577 317
55.13588 299
55.15599 299
55.17611 361
55.19622 391
55.21634 452
55.23645 464
55.25656 516
55.27668 560
55.29679 572
55.3169 595
55.33702 496
55.35713 439
55.37724 400
55.39736 414
55.41747 383
55.43759 376
55.4577 395
55.47781 353
55.49793 275
55.51804 250
55.53815 228
55.55827 212
55.57838 209
55.5985 180
55.61861 205
55.63872 175
55.65884 201
55.67895 196
55.69906 185
55.71918 156
55.73929 180
55.75941 199
55.77952 216
55.79963 190
55.81975 179
55.83986 193
55.85997 178
55.88009 185
55.9002 182
55.92031 157
55.94043 169
55.96054 150
55.98066 184
56.00077 172
56.02088 169
56.041 160
56.06111 144
56.08122 177
56.10134 166
56.12145 156
56.14157 170
56.16168 153
56.18179 143
56.20191 153
56.22202 148
56.24213 164
56.26225 154
56.28236 160
56.30248 189
56.32259 170
56.3427 174
56.36282 154
56.38293 146
56.40304 164
56.42316 184
56.44327 144
56.46338 168
56.4835 155
56.50361 170
56.52373 145
56.54384 159
56.56395 167
56.58407 173
56.60418 158
56.62429 155
56.64441 176
56.66452 175
56.68464 149
56.70475 175
56.72486 159
56.74498 157
56.76509 156
56.7852 150
56.80532 137
56.82543 163
56.84554 181
56.86566 145
56.88577 161
56.90589 161
56.926 145
56.94611 159
56.96623 155
56.98634 164
57.00645 171
57.02657 193
57.04668 188
57.0668 196
57.08691 215
57.10702 193
57.12714 204
57.14725 194
57.16736 208
57.18748 214
57.20759 221
57.22771 219
57.24782 195
57.26793 164
57.28805 172
57.30816 179
57.32827 187
57.34839 165
57.3685 173
57.38861 179
57.40873 179
57.42884 169
57.44896 175
57.46907 152
57.48918 170
57.5093 157
57.52941 162
57.54952 172
57.56964 170
57.58975 180
57.60987 198
57.62998 162
57.65009 163
57.67021 166
57.69032 173
57.71043 161
57.73055 172
57.75066 175
57.77078 153
57.79089 182
57.811 168
57.83112 161
57.85123 159
57.87134 151
57.89146 150
57.91157 139
57.93168 160
57.9518 163
57.97191 154
57.99203 163
58.01214 156
58.03225 132
58.05237 161
58.07248 182
58.09259 151
58.11271 168
58.13282 148
58.15294 140
58.17305 146
58.19316 159
58.21328 162
58.23339 173
58.2535 146
58.27362 173
58.29373 148
58.31385 157
58.33396 142
58.35407 136
58.37419 146
58.3943 150
58.41441 150
58.43453 160
58.45464 152
58.47475 149
58.49487 181
58.51498 130
58.5351 167
58.55521 142
58.57532 172
58.59544 154
58.61555 137
58.63566 159
58.65578 140
58.67589 161
58.69601 157
58.71612 193
58.73623 159
58.75635 154
58.77646 176
58.79657 142
58.81669 160
58.8368 154
58.85691 178
58.87703 173
58.89714 161
58.91726 170
58.93737 169
58.95748 188
58.9776 151
58.99771 151
59.01782 183
59.03794 160
59.05805 165
59.07817 151
59.09828 161
59.11839 165
59.13851 184
59.15862 163
59.17873 172
59.19885 164
59.21896 166
59.23908 175
59.25919 169
59.2793 175
59.29942 176
59.31953 162
59.33964 217
59.35976 198
59.37987 175
59.39998 184
59.4201 187
59.44021 217
59.46033 214
59.48044 235
59.50055 232
59.52067 222
59.54078 252
59.56089 233
59.58101 280
59.60112 280
59.62124 309
59.64135 364
59.66146 364
59.68158 402
59.70169 447
59.7218 507
59.74192 584
59.76203 674
59.78215 874
59.80226 983
59.82237 1254
59.84249 1416
59.8626 1668
59.88271 1961
59.90283 2129
59.92294 2219
59.94305 2047
59.96317 1726
59.98328 1467
60.0034 1274
60.02351 1164
60.04362 1151
60.06374 1113
60.08385 1208
60.10396 1017
60.12408 901
60.14419 700
60.16431 552
60.18442 407
60.20453 297
60.22465 275
60.24476 232
60.26487 254
60.28499 224
60.3051 225
60.32522 229
60.34533 199
60.36544 235
60.38556 194
60.40567 179
60.42578 180
60.4459 178
60.46601 196
60.48612 195
60.50624 181
60.52635 185
60.54647 168
60.56658 187
60.58669 177
60.60681 158
60.62692 163
60.64703 169
60.66715 154
60.68726 169
60.70738 161
60.72749 170
60.7476 209
60.76772 154
60.78783 190
60.80794 154
60.82806 177
60.84817 160
60.86828 167
60.8884 147
60.90851 146
60.92863 156
60.94874 163
60.96885 177
60.98897 168
61.00908 163
61.02919 156
61.04931 156
61.06942 154
61.08954 150
61.10965 152
61.12976 175
61.14988 172
61.16999 164
61.1901 150
61.21022 153
61.23033 151
61.25045 165
61.27056 164
61.29067 142
61.31079 161
61.3309 172
61.35101 165
61.37113 137
61.39124 175
61.41135 151
61.43147 155
61.45158 160
61.4717 163
61.49181 173
61.51192 154
61.53204 170
61.55215 164
61.57226 155
61.59238 148
61.61249 166
61.63261 189
61.65272 163
61.67283 164
61.69295 159
61.71306 165
61.73317 161
61.75329 177
61.7734 168
61.79352 171
61.81363 174
61.83374 174
61.85386 179
61.87397 162
61.89408 187
61.9142 159
61.93431 162
61.95442 183
61.97454 191
61.99465 216
62.01477 171
62.03488 193
62.05499 192
62.07511 185
62.09522 181
62.11533 201
62.13545 180
62.15556 177
62.17568 191
62.19579 203
62.2159 209
62.23602 195
62.25613 225
62.27624 194
62.29636 190
62.31647 163
62.33659 184
62.3567 182
62.37681 172
62.39693 190
62.41704 168
62.43715 185
62.45727 179
62.47738 173
62.49749 169
62.51761 150
62.53772 183
62.55784 188
62.57795 173
62.59806 174
62.61818 163
62.63829 159
62.6584 169
62.67852 186
62.69863 196
62.71875 160
62.73886 154
62.75897 175
62.77909 174
62.7992 169
62.81931 178
62.83943 162
62.85954 163
62.87965 147
62.89977 172
62.91988 174
62.94 175
62.96011 153
62.98022 174
63.00034 180
63.02045 161
63.04056 157
63.06068 169
63.08079 146
63.10091 156
63.12102 152
63.14113 149
63.16125 171
63.18136 166
63.20147 154
63.22159 138
63.2417 138
63.26182 157
63.28193 154
63.30204 149
63.32216 172
63.34227 166
63.36238 146
63.3825 147
63.40261 159
63.42272 158
63.44284 139
63.46295 170
63.48307 171
63.50318 175
63.52329 171
63.54341 191
63.56352 171
63.58363 183
63.60375 170
63.62386 185
63.64398 185
63.66409 174
63.6842 172
63.70432 183
63.72443 195
63.74454 205
63.76466 197
63.78477 242
63.80489 218
63.825 225
63.84511 255
63.86523 285
63.88534 310
63.90545 353
63.92557 385
63.94568 441
63.96579 497
63.98591 504
64.00602 517
64.02614 462
64.04625 428
64.06636 394
64.08648 366
64.10659 287
64.1267 312
64.14682 340
64.16693 307
64.18705 305
64.20716 317
64.22727 275
64.24739 227
64.2675 217
64.28761 188
64.30773 181
64.32784 186
64.34796 159
64.36807 166
64.38818 180
64.4083 172
64.42841 146
64.44852 138
64.46864 168
64.48875 145
64.50886 159
64.52898 142
64.54909 151
64.56921 130
64.58932 167
64.60943 158
64.62955 167
64.64966 138
64.66977 151
64.68989 153
64.71 154
64.73012 140
64.75023 155
64.77034 153
64.79046 153
64.81057 136
64.83068 133
64.8508 154
64.87091 137
64.89102 143
64.91114 149
64.93125 167
64.95137 139
64.97148 158
64.99159 139
65.01171 133
65.03182 135
65.05193 147
65.07205 140
65.09216 157
65.11228 153
65.13239 127
65.1525 161
65.17262 154
65.19273 142
65.21284 147
65.23296 168
65.25307 144
65.27319 140
65.2933 145
65.31341 129
65.33353 154
65.35364 149
65.37375 140
65.39387 153
65.41398 148
65.43409 167
65.45421 145
65.47432 139
65.49444 158
65.51455 150
65.53466 171
65.55478 162
65.57489 151
65.595 183
65.61512 196
65.63523 192
65.65535 197
65.67546 210
65.69557 237
65.71569 209
65.7358 227
65.75591 217
65.77603 214
65.79614 196
65.81626 197
65.83637 218
65.85648 198
65.8766 184
65.89671 171
65.91682 174
65.93694 185
65.95705 188
65.97716 188
65.99728 142
66.01739 176
66.03751 162
66.05762 142
66.07773 166
66.09785 146
66.11796 140
66.13807 167
66.15819 144
66.1783 149
66.19842 146
66.21853 150
66.23864 159
66.25876 156
66.27887 157
66.29898 128
66.3191 148
66.33921 170
66.35933 146
66.37944 140
66.39955 164
66.41967 163
66.43978 148
66.45989 155
66.48001 167
66.50012 163
66.52023 133
66.54035 154
66.56046 156
66.58058 181
66.60069 142
66.6208 151
66.64092 175
66.66103 150
66.68114 145
66.70126 141
66.72137 176
66.74149 139
66.7616 173
66.78171 168
66.80183 161
66.82194 153
66.84205 169
66.86217 130
66.88228 163
66.90239 144
66.92251 144
66.94262 175
66.96274 171
66.98285 160
67.00296 159
67.02308 172
67.04319 177
67.0633 161
67.08342 164
67.10353 180
67.12365 166
67.14376 181
67.16387 168
67.18399 180
67.2041 197
67.22421 200
67.24433 170
67.26444 197
67.28456 188
67.30467 205
67.32478 208
67.3449 226
67.36501 237
67.38512 241
67.40524 268
67.42535 294
67.44546 315
67.46558 334
67.48569 363
67.50581 428
67.52592 478
67.54603 533
67.56615 608
67.58626 691
67.60637 865
67.62649 898
67.6466 1032
67.66672 1134
67.68683 1269
67.70694 1328
67.72706 1230
67.74717 1125
67.76728 972
67.7874 821
67.80751 776
67.82763 761
67.84774 925
67.86785 927
67.88797 891
67.90808 988
67.92819 989
67.94831 969
67.96842 922
67.98853 998
68.00865 1092
68.02876 1209
68.04888 1412
68.06899 1572
68.0891 1637
68.10922 1760
68.12933 1686
68.14944 1635
68.16956 1378
68.18967 1319
68.20979 1286
68.2299 1394
68.25001 1503
68.27013 1552
68.29024 1560
68.31035 1448
68.33047 1191
68.35058 980
68.3707 848
68.39081 674
68.41092 688
68.43104 612
68.45115 628
68.47126 586
68.49138 573
68.51149 501
68.5316 381
68.55172 329
68.57183 282
68.59195 248
68.61206 218
68.63217 216
68.65229 222
68.6724 208
68.69251 189
68.71263 220
68.73274 185
68.75286 175
68.77297 182
68.79308 187
68.8132 200
68.83331 167
68.85342 194
68.87354 170
68.89365 176
68.91376 165
68.93388 153
68.95399 165
68.97411 202
68.99422 162
69.01433 163
69.03445 165
69.05456 181
69.07467 158
69.09479 150
69.1149 165
69.13502 187
69.15513 149
69.17524 160
69.19536 136
69.21547 165
69.23558 145
69.2557 153
69.27581 153
69.29593 140
69.31604 144
69.33615 169
69.35627 166
69.37638 168
69.39649 140
69.41661 146
69.43672 156
69.45683 162
69.47695 171
69.49706 134
69.51718 172
69.53729 134
69.5574 150
69.57752 131
69.59763 153
69.61774 162
69.63786 167
69.65797 149
69.67809 146
69.6982 152
69.71831 151
69.73843 136
69.75854 139
69.77865 161
69.79877 137
69.81888 146
69.839 159
69.85911 128
69.87922 151
69.89934 156
69.91945 137
69.93956 139
69.95968 141
69.97979 129
69.9999 140
70.02002 145
70.04013 146
70.06025 148
70.08036 134
70.10047 150
70.12059 148
70.1407 164
70.16081 158
70.18093 149
70.20104 163
70.22116 134
70.24127 121
70.26138 135
70.2815 157
70.30161 127
70.32172 165
70.34184 153
70.36195 128
70.38207 144
70.40218 150
70.42229 134
70.44241 146
70.46252 144
70.48263 126
70.50275 148
70.52286 168
70.54297 155
70.56309 138
70.5832 117
70.60332 137
70.62343 129
70.64354 128
70.66366 136
70.68377 132
70.70388 158
70.724 150
70.74411 133
70.76423 137
70.78434 119
70.80445 140
70.82457 117
70.84468 157
70.86479 132
70.88491 140
70.90502 139
70.92513 154
70.94525 122
70.96536 130
70.98548 132
71.00559 112
71.0257 151
71.04582 127
71.06593 146
71.08604 129
71.10616 127
71.12627 160
71.14639 139
71.1665 141
71.18661 150
71.20673 144
71.22684 140
71.24695 142
71.26707 149
71.28718 129
71.3073 131
71.32741 145
71.34752 123
71.36764 145
71.38775 158
71.40786 136
71.42798 132
71.44809 141
71.4682 151
71.48832 158
71.50843 149
71.52855 132
71.54866 136
71.56877 139
71.58889 157
71.609 129
71.62911 142
71.64923 146
71.66934 130
71.68946 139
71.70957 140
71.72968 119
71.7498 125
71.76991 151
71.79002 129
71.81014 139
71.83025 144
71.85037 136
71.87048 138
71.89059 147
71.91071 134
71.93082 142
71.95093 129
71.97105 149
71.99116 171
72.01127 150
72.03139 155
72.0515 131
72.07162 140
72.09173 138
72.11184 141
72.13196 154
72.15207 135
72.17218 140
72.1923 145
72.21241 139
72.23253 150
72.25264 140
72.27275 155
72.29287 154
72.31298 135
72.33309 133
72.35321 144
72.37332 136
72.39344 166
72.41355 121
72.43366 139
72.45378 110
72.47389 147
72.494 147
72.51412 130
72.53423 147
72.55434 142
72.57446 133
72.59457 129
72.61469 135
72.6348 147
72.65491 133
72.67503 133
72.69514 151
72.71525 135
72.73537 148
72.75548 147
72.7756 140
72.79571 142
72.81582 154
72.83594 126
72.85605 134
72.87616 158
72.89628 153
72.91639 145
72.9365 144
72.95662 145
72.97673 144
72.99685 160
73.01696 160
73.03707 161
73.05719 143
73.0773 163
73.09741 157
73.11753 183
73.13764 169
73.15776 202
73.17787 208
73.19798 200
73.2181 206
73.23821 240
73.25832 241
73.27844 286
73.29855 296
73.31867 357
73.33878 368
73.35889 431
73.37901 433
73.39912 468
73.41923 524
73.43935 479
73.45946 461
73.47957 421
73.49969 381
73.5198 301
73.53992 331
73.56003 303
73.58014 336
73.60026 345
73.62037 329
73.64048 316
73.6606 280
73.68071 299
73.70083 233
73.72094 202
73.74105 183
73.76117 165
73.78128 152
73.80139 160
73.82151 157
73.84162 152
73.86174 142
73.88185 141
73.90196 133
73.92208 136
73.94219 137
73.9623 140
73.98242 130
74.00253 138
74.02264 125
74.04276 139
74.06287 137
74.08299 145
74.1031 126
74.12321 128
74.14333 121
74.16344 114
74.18355 115
74.20367 147
74.22378 155
74.2439 139
74.26401 146
74.28412 136
74.30424 152
74.32435 131
74.34446 131
74.36458 135
74.38469 110
74.40481 142
74.42492 115
74.44503 148
74.46515 136
74.48526 142
74.50537 129
74.52549 118
74.5456 125
74.56571 134
74.58583 124
74.60594 140
74.62606 121
74.64617 136
74.66628 122
74.6864 139
74.70651 154
74.72662 143
74.74674 132
74.76685 135
74.78697 125
74.80708 138
74.82719 145
74.84731 134
74.86742 121
74.88753 161
74.90765 138
74.92776 138
74.94787 142
74.96799 141
74.9881 148
75.00822 153
