3.00117 20740.7783511066
3.02128 20246.4369070302
3.0414 19942
3.06151 19699.6350498463
3.08162 18677.2614963288
3.10174 18417.7189860678
3.12185 17941.2424464495
3.14197 17079.3917605537
3.16208 17174.3462672248
3.18219 16347.2680725012
3.20231 16183.7671393179
3.22242 15302.2808626894
3.24253 15045.9213499291
3.26265 14770.3570441885
3.28276 14040.6311169483
3.30288 14000.3772926776
3.32299 13189.3569277324
3.3431 12830
3.36322 12447.5419805017
3.38333 12124.9824164172
3.40344 12062.7185457208
3.42356 11034.349091361
3.44367 10910.1429259637
3.46379 10545.2001502006
3.4839 10263
3.50401 9946.77652033063
3.52413 9463.45594454497
3.54424 9260.70283296714
3.56435 9081.4584855761
3.58447 8877.39225888249
3.60458 8511.4714281678
3.62469 7989.25148780441
3.64481 7607.89393175375
3.66492 7460.77555897462
3.68504 7206.82563895746
3.70515 7198.48128966641
3.72526 6758.83769113669
3.74538 6547.05895187916
3.76549 6454.12678365468
3.7856 6101
3.80572 5897.62417409826
3.82583 5397.49223633682
3.84595 5307.92641463889
3.86606 5165.47398650812
3.88617 4962.08068876044
3.90629 4908.15807360096
3.9264 4438
3.94651 4420.92150028199
3.96663 4046.55827784597
3.98674 4007.20221888942
4.00686 4003.47976672837
4.02697 3634.38149860448
4.04708 3601.94113980657
4.0672 3568
4.08731 3373.98735607056
4.10742 3403.79025311653
4.12754 2977.36215760576
4.14765 2922.87178534763
4.16776 2922.10274342312
4.18788 2896.92306598795
4.20799 2926.12239207118
4.22811 2529.90388608898
4.24822 2597.03262783477
4.26833 2448.7286030869
4.28845 2397.23708460963
4.30856 2466.29380037601
4.32867 2175.25485344207
4.34879 2200.98296166532
4.3689 2131
4.38902 2099.05348514158
4.40913 2115.75877824807
4.42924 1872.82826365256
4.44936 1990.73909808202
4.46947 1979.17977436212
4.48958 1885.96392280285
4.5097 1952
4.52981 1706.92648862264
4.54992 1745.07659446219
4.57004 1734.84774927028
4.59015 1660.06299296593
4.61027 1662.06043468894
4.63038 1554.129656337
4.65049 1450.03693020719
4.67061 1418.0095345708
4.69072 1465.04242619459
4.71083 1442.82833775222
4.73095 1317.94075655977
4.75106 1387.90967293573
4.77118 1348.06752424661
4.79129 1298.021777749
4.8114 1247
4.83152 1200.99312821816
4.85163 1230.05509359257
4.87174 1225.86872566389
4.89186 1146.04852851468
4.91197 1181.95184592874
4.93209 1144.05496145378
4.9522 1040
4.97231 1075.98552815138
4.99243 994.996156684144
5.01254 1075.07404247518
5.03265 1021.168642216
5.05277 984.05794380123
5.07288 955.972108361053
5.09299 1008.99929871016
5.11311 952.978868969347
5.13322 943.97377878768
5.15334 891.929892779826
5.17345 890.01399185829
5.19356 872.093346623473
5.21368 827.00671368603
5.23379 856.985728078204
5.2539 855
5.27402 825.974452389056
5.29413 813.001141450659
5.31425 815.981739649375
5.33436 793.061990037568
5.35447 762.044440411789
5.37459 754.981986703243
5.3947 794
5.41481 749.01122867998
5.43493 801.929672019859
5.45504 672.874709434683
5.47516 719.895038649437
5.49527 711.050766283383
5.51538 680.036367406886
5.5355 651
5.55561 672.005744277682
5.57572 662.989557439165
5.59584 655.965043586181
5.61595 638.978040351593
5.63606 650.070854150347
5.65618 591.009848599856
5.67629 632.988086787842
5.69641 609.985665260773
5.71652 605.007383693724
5.73663 603.97180776251
5.75675 569.907949102909
5.77686 552.971978622997
5.79697 579.983732389993
5.81709 556.024121735588
5.8372 525
5.85732 574.029734527808
5.87743 559.950846152068
5.89754 545.029651088229
5.91766 565.023271825584
5.93777 527.0331653903
5.95788 540.971766205577
5.978 564
5.99811 561.978082273735
6.01823 494.924647383572
6.03834 496.096293353641
6.05845 545.976098890487
6.07857 524.004738985798
6.09868 539.017944185191
6.11879 499.998263618905
6.13891 539.001937271712
6.15902 497.974872991849
6.17913 509.010899416772
6.19925 490.93752653767
6.21936 495.892664043849
6.23948 544.031568719627
6.25959 465.009769133572
6.2797 521
6.29982 507.984308135632
6.31993 519.024114247826
6.34004 526.01015887416
6.36016 535.971622696181
6.38027 535.05255632441
6.40039 479.021950308493
6.4205 468
6.44061 498.029044656084
6.46073 538.95325658742
6.48084 454.875310580619
6.50095 462.866002255249
6.52107 505.999604522728
6.54118 474.021478644522
6.56129 474.004974992111
6.58141 458.006789716077
6.60152 496.021396883663
6.62164 484.96253783165
6.64175 463.894956312452
6.66186 430.948566139595
6.68198 488.986035770038
6.70209 465.988449266435
6.7222 520
6.74232 435.943285627667
6.76243 445.026046113906
6.78255 452.08753752752
6.80266 505.951448164515
6.82277 490.028711078874
6.84289 492.993283215729
6.863 495
6.88311 467.995412776059
6.90323 486.044440811453
6.92334 486.894449946597
6.94346 426.988542056598
6.96357 489.941061935904
6.98368 477.013347758694
7.0038 483
7.02391 461.997964107542
7.04402 467.978387063492
7.06414 435.019765542331
7.08425 474.000245259345
7.10436 431.042915679546
7.12448 467.932399287613
7.14459 507.011108287033
7.16471 435.962973048085
7.18482 416.046998501948
7.20493 490.071209672793
7.22505 483.914238305814
7.24516 459.005247730507
7.26527 463.026330595788
7.28539 429.008255477095
7.3055 444
7.32562 450.9746966853
7.34573 420.003972167154
7.36584 458.071832716793
7.38596 462.041944301957
7.40607 442.995424455764
7.42618 478.940711924424
7.4463 514
7.46641 457.995799252383
7.48653 499.025966301843
7.50664 459.889324676058
7.52675 430.996684778273
7.54687 443.996057098946
7.56698 450.952107025827
7.58709 498.016594099118
7.60721 429.00976612927
7.62732 521.024010141286
7.64743 451.928851707395
7.66755 462.982374612265
7.68766 432.962287564651
7.70778 503.946049093129
7.72789 482.044131306772
7.748 408
7.76812 486.049188330433
7.78823 472.976219857697
7.80834 483.01083122218
7.82846 472.017385064512
7.84857 466.031965251922
7.86869 437.005204063655
7.8888 444
7.90891 431.001783446848
7.92903 462.063465758396
7.94914 482.964599673262
7.96925 443.069799200581
7.98937 446.966752434304
8.00948 478.953437765888
8.0296 503
8.04971 433.992249112069
8.06982 487.055785271484
8.08994 481.870695597398
8.11005 418.999042465924
8.13016 471.927578784085
8.15028 461.019341684132
8.17039 446.0181912169
8.1905 427
8.21062 526.021251731882
8.23073 458.919734951086
8.25085 469.057597719635
8.27096 484.922780481378
8.29107 519.042796715653
8.31119 449.015697079425
8.3313 469
8.35141 443.998624678242
8.37153 479.054223219373
8.39164 487.978606849097
8.41176 462.087541535157
8.43187 424.007397527406
8.45198 459.942790642919
8.4721 485
8.49221 431.011980399663
8.51232 502.999944818621
8.53244 430.951829249059
8.55255 489.856911477421
8.57266 497.0160020799
8.59278 495.010232390212
8.61289 477.00536621287
8.63301 491.020607596591
8.65312 512.953265776264
8.67323 433.962990664316
8.69335 469.036373592059
8.71346 442.019364692844
8.73357 466.972688374888
8.75369 464.997187072533
8.7738 480
8.79392 467.007996081918
8.81403 484.97741356415
8.83414 447.990579139325
8.85426 474.992109794534
8.87437 459.963091872676
8.89448 509.001182538423
8.9146 449
8.93471 459.030763422267
8.95483 516.009291309364
8.97494 468.886119553406
8.99505 456.886484075702
9.01517 519.958628154558
9.03528 487.065823645258
9.05539 437.00596205569
9.07551 462.019387903024
9.09562 474.970146934418
9.11573 426.964022080902
9.13585 442.068958347331
9.15596 459.976145756692
9.17608 469.992001668069
9.19619 474.999565032975
9.2163 467
9.23642 451.009220412245
9.25653 471.99784396119
9.27664 448.980728164804
9.29676 460.985823279898
9.31687 456.992305362215
9.33699 469.001910321291
9.3571 454
9.37721 471.002434782025
9.39733 451.959881731849
9.41744 439.01333792577
9.43755 460.933223077422
9.45767 467.045152539816
9.47778 424.016495831365
9.4979 444
9.51801 452.997005297692
9.53812 448.008655490358
9.55824 453.948661880141
9.57835 411.965707925378
9.59846 439.922782937195
9.61858 466.976718777704
9.63869 477.010619977396
9.6588 447
9.67892 470.994993855067
9.69903 435.977358531477
9.71915 450.007259826288
9.73926 443.945701191671
9.75937 496.957031225099
9.77949 481.01550050367
9.7996 456
9.81971 438.005226150762
9.83983 459.9956249387
9.85994 434.984060749662
9.88006 446.013950140978
9.90017 424.99095718187
9.92028 465.957702258795
9.9404 476
9.96051 446.99643246519
9.98062 457.997818738486
10.00074 442.001753882698
10.02085 452.047804112103
10.04097 413.016186987908
10.06108 432.994655118915
10.08119 430.978390308024
10.10131 498.007804988252
10.12142 451.956795253793
10.14153 440.9808122653
10.16165 423.019491789626
10.18176 457.935752992921
10.20187 466.012303583797
10.22199 452.008555566359
10.2421 440
10.26222 448.008969909831
10.28233 448.987842300865
10.30244 441.005057561098
10.32256 448.009991542108
10.34267 443.960486470417
10.36278 474.02295332801
10.3829 413
10.40301 449.027653471452
10.42313 465.945330483449
10.44324 416.989469928678
10.46335 458.909184180706
10.48347 455.040107223952
10.50358 435.997889450968
10.52369 460.98196084594
10.54381 480.993923662991
10.56392 459.006533250757
10.58403 486.001617898483
10.60415 444.867607923293
10.62426 440.847521267107
10.64438 526.010241108654
10.66449 430.033806962285
10.6846 459
10.70472 513.995745465121
10.72483 460.913099342651
10.74494 438.018635541387
10.76506 453.006426331614
10.78517 448.945685270861
10.80529 489.017244958536
10.8254 413
10.84551 483.019356103479
10.86563 457.977293008881
10.88574 481.032387800987
10.90585 470.034341758926
10.92597 457.049310917776
10.94608 433.962151479756
10.9662 506
10.98631 466.975555086295
11.00642 457.022041787489
11.02654 489.05295150485
11.04665 490.073501998102
11.06676 450.050498758747
11.08688 457.965371168503
11.10699 486.002966125909
11.1271 464
11.14722 495.004305733196
11.16733 462.958663121525
11.18745 460.004000932925
11.20756 470.910502058867
11.22767 517.015977235462
11.24779 465.009770694439
11.2679 491
11.28801 461.982943125741
11.30813 452.013425674664
11.32824 464.008683461763
11.34836 465.969294791894
11.36847 475.049429254127
11.38858 428.993700405091
11.4087 475
11.42881 437.995440639477
11.44892 470.014267438647
11.46904 444.945519960619
11.48915 449.912811170044
11.50927 487.975965929693
11.52938 483.99729778735
11.54949 497.998513775565
11.56961 487.998697382155
11.58972 489.98359813987
11.60983 455.958877139245
11.62995 457.069391322793
11.65006 485.988450910175
11.67017 474.996123813735
11.69029 488.00514041921
11.7104 473
11.73052 530.005088999418
11.75063 472.919935584406
11.77074 461.005407037848
11.79086 471.921232937723
11.81097 524.954158104723
11.83108 519.021088598443
11.8512 504
11.87131 506.00880721353
11.89143 534.041928147921
11.91154 554.027605565863
11.93165 563.984443626
11.95177 558.040270860988
11.97188 522.024053503917
11.99199 527.98329425913
12.01211 589.045170771142
12.03222 652.978264761438
12.05234 560.825231751987
12.07245 545.123768499592
12.09256 615.893916146559
12.11268 643.966926152165
12.13279 686.986703721165
12.1529 688
12.17302 702.050464756902
12.19313 769.072161775596
12.21324 799.092983095799
12.23336 852.967779819723
12.25347 855.912131513066
12.27359 949.980691103993
12.2937 934
12.31381 993.005096625668
12.33393 939.935653640653
12.35404 919.887441857903
12.37415 843.052216302458
12.39427 859.062607556253
12.41438 759.062454306792
12.4345 748
12.45461 670.980016051779
12.47472 671.973213584927
12.49484 612.947685349861
12.51495 623.036492731
12.53506 576.051166510641
12.55518 602.943160488224
12.57529 642.002452096362
12.5954 586
12.61552 536.040015070045
12.63563 592.92333416328
12.65575 463.872082517974
12.67586 515.947472084693
12.69597 480.009071782952
12.71609 520.993758215373
12.7362 481
12.75631 472.00240268534
12.77643 484.045970622588
12.79654 511.984101324687
12.81666 470.080503340862
12.83677 465.952052020879
12.85688 502.989331277501
12.877 483
12.89711 462.982423688177
12.91722 422.985211900683
12.93734 432.003785321094
12.95745 409.085740243101
12.97757 408.899885106627
12.99768 493.979398305559
13.01779 437.032582947166
13.03791 405.988695795248
13.05802 404.057123547715
13.07813 477.009318588668
13.09825 428.980498204876
13.11836 482.914581338013
13.13847 474.043417775328
13.15859 456.003717157726
13.1787 454
13.19882 454.005693519041
13.21893 460.998790168591
13.23904 453.994945354277
13.25916 450.043546779453
13.27927 427.981853186961
13.29938 460.994047222375
13.3195 432
13.33961 444.019239686881
13.35973 466.961370632032
13.37984 418.979240278726
13.39995 450.951574738052
13.42007 439.011113231145
13.44018 443.013643420382
13.46029 412.009254907801
13.48041 420.009493447519
13.50052 429.996245777305
13.52064 415.96805341025
13.54075 412.035013872592
13.56086 429.996643510209
13.58098 421.991010364924
13.60109 441.002436898361
13.6212 424
13.64132 469.022224640061
13.66143 450.962348425718
13.68154 445.013261096262
13.70166 443.050282245799
13.72177 407.029115184054
13.74189 412.993474965932
13.762 421
13.78211 426.996451214066
13.80223 416.006768691794
13.82234 432.008197716604
13.84245 414.066687720026
13.86257 404.966829779515
13.88268 434.002285118447
13.9028 398
13.92291 396.011785637712
13.94302 424.016999827114
13.96314 432.031695213924
13.98325 446.036851429492
14.00336 402.092736633318
14.02348 395.949164823705
14.04359 456.996537135474
14.06371 408.980231918612
14.08382 419.037992292937
14.10393 450.014947369479
14.12405 447.01401310475
14.14416 446.0881124528
14.16427 396.967787316377
14.18439 462.995864218984
14.2045 396
14.22461 404.022740746965
14.24473 442.019186103197
14.26484 430.967462736341
14.28496 427.97902768698
14.30507 434.02494509436
14.32518 403.018415361859
14.3453 406
14.36541 397.988492192051
14.38552 387.028767277837
14.40564 434.031018658981
14.42575 417.995919557827
14.44587 437.019820496037
14.46598 393.023154172491
14.48609 423.966574348751
14.50621 461.980775147148
14.52632 395.000286937284
14.54643 466.074486229925
14.56655 454.949459457431
14.58666 456.99122378956
14.60677 437.076326640029
14.62689 389.001808696534
14.647 435
14.66712 446.93952943085
14.68723 368.978134041918
14.70734 417.059576167632
14.72746 399.029884139389
14.74757 411.977496745627
14.76768 421.976407057469
14.7878 445
14.80791 410.993705554424
14.82803 426.006986131096
14.84814 398.915773898344
14.86825 369.015164656838
14.88837 396.909053078514
14.90848 446.006786181208
14.92859 403.007636772309
14.94871 420.996565082586
14.96882 399.030722344324
14.98894 468.048929959532
15.00905 426.885638108007
15.02916 421.957447767307
15.04928 433.021218602009
15.06939 390.015876795346
15.0895 390
15.10962 407.003086548238
15.12973 404.014326872067
15.14984 421.001162015038
15.16996 424.898996600687
15.19007 480.039936623064
15.21019 395.016408569155
15.2303 433
15.25041 408.000749381513
15.27053 443.009581639998
15.29064 407.945143741636
15.31075 408.002617578992
15.33087 397.001509132124
15.35098 411.983080615249
15.3711 416
15.39121 408.005489110878
15.41132 440.037743268915
15.43144 463.004313762521
15.45155 444.085533363858
15.47166 410.046553767531
15.49178 401.998197411167
15.51189 419.977080406098
15.53201 462.998401310756
15.55212 424.981752451336
15.57223 428.962235871609
15.59235 378.953619154426
15.61246 406.932642137361
15.63257 409.040002958738
15.65269 379.005192463829
15.6728 396
15.69291 423.012138839649
15.71303 439.002783542044
15.73314 434.002107688193
15.75326 425.09513770785
15.77337 368.011374398443
15.79348 403.985209018321
15.8136 391
15.83371 437.007367849374
15.85382 417.001310429602
15.87394 438.972142074245
15.89405 387.086880553757
15.91417 404.922516597358
15.93428 444.001919390029
15.95439 419.000985159197
15.97451 434.991412386384
15.99462 383.966059102599
16.01473 392.037190104013
16.03485 400.963634787418
16.05496 390.939524900547
16.07508 444.975134376037
16.09519 427.011040854754
16.1153 434
16.13542 457.99199421278
16.15553 420.943590409716
16.17564 396.952843057662
16.19576 386.93911159133
16.21587 437.963667730678
16.23598 415.043449150185
16.2561 401
16.27621 465.017901546302
16.29633 447.936574277666
16.31644 421.004090180771
16.33655 434.019055466207
16.35667 402.04225577925
16.37678 398.984244712745
16.39689 412.002539795138
16.41701 396.999332558659
16.43712 409.001520101281
16.45724 392.966456634542
16.47735 394.052340648605
16.49746 417.984981490816
16.51758 404.021323969003
16.53769 397.990943565487
16.5578 418
16.57792 393.00465288654
16.59803 423.008863898793
16.61814 396.966778153455
16.63826 413.933082234007
16.65837 438.987947044216
16.67849 431.007352169367
16.6986 423
16.71871 418.983321260376
16.73883 374.98064616708
16.75894 409.111027742569
16.77905 442.023478768936
16.79917 406.040737709833
16.81928 410.974629074592
16.8394 433
16.85951 430.003331943201
16.87962 427.95222156746
16.89974 369.004617388112
16.91985 432.867402779544
16.93996 428.077204286338
16.96008 404.981998885596
16.98019 435.006351425014
17.00031 385.988131881052
17.02042 397.997354910286
17.04053 387.055863870386
17.06065 450.022822615078
17.08076 412.992701423513
17.10087 457.004183923348
17.12099 402.012419598155
17.1411 439
17.16121 441.975295365358
17.18133 377.95072635999
17.20144 401.117743961795
17.22156 458.922943912758
17.24167 452.092051211197
17.26178 396.977827605252
17.2819 468
17.30201 421.986283904857
17.32212 435.994382232778
17.34224 394.938293527323
17.36235 408.879372388916
17.38247 449.001596646318
17.40258 411.037681415499
17.42269 398.000243133423
17.44281 416.027270988128
17.46292 477.018157606916
17.48303 445.943145181643
17.50315 433.005606629479
17.52326 432.025450397972
17.54338 416.002030760767
17.56349 432.98812357483
17.5836 444
17.60372 426.996048277226
17.62383 439.015607398855
17.64394 447.044028485131
17.66406 472.00031424654
17.68417 444.04579006206
17.70428 438.976303846926
17.7244 472
17.74451 459.981146263177
17.76463 428.000553647776
17.78474 457.055104540373
17.80485 464.008063140305
17.82497 450.053496815415
17.84508 421.979383274731
17.86519 463.004121857189
17.88531 424.009273480688
17.90542 480.987960204395
17.92554 405.951156794772
17.94565 449.03754363154
17.96576 414.023450060033
17.98588 438.997957900909
18.00599 410.004141315237
18.0261 450
18.04622 488.988541930762
18.06633 445.954720714197
18.08645 440.972722806595
18.10656 414.04289116436
18.12667 419.948712629219
18.14679 443.014467161235
18.1669 392
18.18701 443.018262202886
18.20713 441.002962627941
18.22724 460.01294955909
18.24735 447.024724186909
18.26747 451.986205604789
18.28758 454.006016108413
18.3077 444
18.32781 443.004533109014
18.34792 451.996583196898
18.36804 445.021111580065
18.38815 458.052062132102
18.40826 413.045367577645
18.42838 426.981319495692
18.44849 438.987235651475
18.46861 460.990308712155
18.48872 418.992216229543
18.50883 441.990984230859
18.52895 400.944590223553
18.54906 415.965755694737
18.56917 399.078279741701
18.58929 357.990640163068
18.6094 421
18.62951 411.985573542251
18.64963 399.010469184233
18.66974 409.990084371172
18.68986 405.932822475657
18.70997 458.974837382303
18.73008 426.040624696808
18.7502 411
18.77031 414.998992003637
18.79042 410.00262894286
18.81054 418.000961316896
18.83065 411.003876070603
18.85077 412.018259967007
18.87088 393.003397927747
18.89099 413.984185293255
18.91111 431.996624231534
18.93122 407.977416506427
18.95133 406.029351570896
18.97145 416.927890490132
18.99156 371.016975426748
19.01168 411.951862547594
19.03179 430.003987761851
19.0519 424
19.07202 448.985969068258
19.09213 397.93790291496
19.11224 409.121121262169
19.13236 463.014329548698
19.15247 409.048600243593
19.17258 433.950100099139
19.1927 457
19.21281 414.994756889891
19.23293 437.009494171464
19.25304 414.969827036732
19.27315 428.925122366749
19.29327 450.000494979893
19.31338 441.989677220306
19.33349 459.007093614811
19.35361 421.993426164798
19.37372 447.031104820403
19.39384 451.956318633025
19.41395 425.983584894954
19.43406 435.99915448488
19.45418 433.971244717447
19.47429 487.980188731389
19.4944 490
19.51452 467.980865981606
19.53463 450.970261749349
19.55475 428.955005096661
19.57486 428.947770416217
19.59497 481.89251986312
19.61509 533.999695125138
19.6352 496
19.65531 506.022239877956
19.67543 560.067942134153
19.69554 592.061877320323
19.71565 617.99051858355
19.73577 608.993385616514
19.75588 652.91713140736
19.776 717
19.79611 669.009888506036
19.81622 754.045243149894
19.83634 731.973985274676
19.85645 768.872057996117
19.87656 794.013654220024
19.89668 790.957934413295
19.91679 842.009173952694
19.93691 759.969523529527
19.95702 768.04154302206
19.97713 771.895725592745
19.99725 684.971305449438
20.01736 732.00738234607
20.03747 660.072545834448
20.05759 677.982199771296
20.0777 689
20.09782 686.018655275759
20.11793 724.056341685351
20.13804 727.912544230445
20.15816 676.011149968106
20.17827 708.985319277607
20.19838 679.024362373387
20.2185 683
20.23861 679.993696399188
20.25872 674.013607620284
20.27884 699.029914885701
20.29895 694.03432018755
20.31907 689.980420103124
20.33918 713.978918692267
20.35929 717.008370963189
20.37941 699.000594369132
20.39952 723.029975842411
20.41963 741.006354107179
20.43975 735.979478499183
20.45986 732.990534163529
20.47998 730.028569303992
20.50009 685.016802757151
20.5202 689
20.54032 746.053373584264
20.56043 770.985842315041
20.58054 753.010245477223
20.60066 783.945077163845
20.62077 788.016104564243
20.64088 790.963573480693
20.661 847
20.68111 885.040187029284
20.70123 1028.2670677336
20.72134 1239.52883085617
20.74145 1610.74522473095
20.76157 2174.22594416795
20.78168 2676.38672114622
20.80179 3384.67892918853
20.82191 3815.10762553234
20.84202 3832.8336855137
20.86214 3485.93946853413
20.88225 2827.22171499455
20.90236 2166.12306732955
20.92248 1666.50468137754
20.94259 1180.18005132394
20.9627 969
20.98282 864.963287911281
21.00293 877.012621033455
21.02305 851.910115814912
21.04316 845.914417893879
21.06327 897.001200740762
21.08339 845.021039692563
21.1035 822
21.12361 774.024570976912
21.14373 870.002211824916
21.16384 778.917924047601
21.18395 827.907302983838
21.20407 807.035339771946
21.22418 828.939918358108
21.2443 884
21.26441 860.991953053686
21.28452 890.069538162016
21.30464 953.025103815234
21.32475 905.1862925071
21.34486 854.019258507268
21.36498 872.982938884548
21.38509 861.018848653174
21.40521 821.990793504996
21.42532 829.015913891829
21.44543 820.927518242242
21.46555 766.98047851438
21.48566 797.978016334815
21.50577 761.081111280633
21.52589 719.015222217437
21.546 709
21.56612 737.001760864984
21.58623 707.953781168769
21.60634 681.914668037798
21.62646 640.002241915518
21.64657 667.991338138345
21.66668 640.021745012868
21.6868 636
21.70691 615.002330749883
21.72702 648.031649130926
21.74714 648.940160035164
21.76725 604.107038276447
21.78737 588.966220528948
21.80748 638.943099592408
21.82759 667.008637074355
21.84771 610.964376274936
21.86782 570.012833088339
21.88793 608.016727823225
21.90805 583.960216955718
21.92816 588.014081267083
21.94828 566.009503076575
21.96839 581.986465089711
21.9885 589
22.00862 547.992126116788
22.02873 587.083944926415
22.04884 609.937898161709
22.06896 564.994442581165
22.08907 599.018780025044
22.10919 534.022378850673
22.1293 552
22.14941 589.001924228883
22.16953 560.94019005305
22.18964 533.983066177701
22.20975 543.942724873732
22.22987 569.963759570038
22.24998 584.997129190983
22.27009 577.00733891766
22.29021 556.986136660554
22.31032 539.012182291002
22.33044 565.00590987202
22.35055 540.954100600589
22.37066 541.996165604852
22.39078 540.989204076664
22.41089 558.997204696017
22.431 548
22.45112 538.983609751897
22.47123 516.97781052376
22.49135 520.047450270784
22.51146 538.991160968164
22.53157 534.98813594877
22.55169 548.004650976128
22.5718 522
22.59191 529.996700223083
22.61203 488.905861477102
22.63214 460.097680763958
22.65225 545.907620937062
22.67237 512.062812944811
22.69248 520.944115081696
22.7126 563
22.73271 503.004569546322
22.75282 579.041082232264
22.77294 535.849243133059
22.79305 505.893399836137
22.81316 567.004736511444
22.83328 502.044306670993
22.85339 524.97294905087
22.87351 558.998964798511
22.89362 539.998907807511
22.91373 550.97395875659
22.93385 511.966941679449
22.95396 524.020251894921
22.97407 499.973046596443
22.99419 551.989282719969
23.0143 522
23.03442 501.981316795025
23.05453 480.98546908578
23.07464 500.103332630045
23.09476 547.000671500898
23.11487 510.031398207565
23.13498 525.978827133082
23.1551 522
23.17521 489.991575063613
23.19532 494.011815300538
23.21544 507.040716768068
23.23555 522.024361005324
23.25567 503.985611768994
23.27578 529.007916890506
23.29589 496.999318715715
23.31601 534.008627858107
23.33612 511.974228809322
23.35623 501.985557699747
23.37635 501.078821038802
23.39646 536.030101439065
23.41658 490.004346813158
23.43669 518.010738087298
23.4568 455
23.47692 496.012072734614
23.49703 471.01990734877
23.51714 531.079419581004
23.53726 516.075334137717
23.55737 490.017147456549
23.57749 496.986726744888
23.5976 522
23.61771 497.986817026514
23.63783 501.0632821811
23.65794 544.996057612862
23.67805 512.996130056031
23.69817 554.96167645442
23.71828 539.025959100847
23.73839 534.990701019551
23.75851 554.999619940236
23.77862 545.014254200941
23.79874 569.977124071077
23.81885 526.943353141343
23.83896 545.939246605692
23.85908 554.018269608557
23.87919 527.00693761937
23.8993 541
23.91942 578.02637109773
23.93953 583.98175101901
23.95965 573.018345311257
23.97976 599.939297736161
23.99987 613.014360398013
24.01999 583.021305354992
24.0401 562
24.06021 618.017869595117
24.08033 611.967522022069
24.10044 594.964454517025
24.12056 578.017066332526
24.14067 584.966664075156
24.16078 608.987921415494
24.1809 605
24.20101 601.00355426712
24.22112 611.000243542909
24.24124 598.971763890884
24.26135 588.030623802114
24.28146 575.01667542651
24.30158 576.987310475307
24.32169 591.995865151439
24.34181 584.98906245985
24.36192 574.025539591606
24.38203 606.978213433342
24.40215 566.021101420367
24.42226 613.002582747263
24.44237 546.094608240946
24.46249 536.986730127398
24.4826 584
24.50272 628.967133416287
24.52283 552.952606252983
24.54294 594.110672149171
24.56306 610.039415112156
24.58317 587.99209400887
24.60328 618.974747920978
24.6234 629
24.64351 637.983389670385
24.66362 591.003238469449
24.68374 665.202492241026
24.70385 722.044241333945
24.72397 679.979366874269
24.74408 751.948226008947
24.76419 761.987961852431
24.78431 814.018462356709
24.80442 842.066968799725
24.82453 903.945837572847
24.84465 796.85626770715
24.86476 827.921106439814
24.88488 811.058307189665
24.90499 771.986595399854
24.9251 837
24.94522 786.903951657458
24.96533 716.99640287678
24.98544 743.955316071185
25.00556 666.119434804288
25.02567 651.023549322327
25.04579 631.989460633069
25.0659 678
25.08601 644.985085285694
25.10613 638.986606860111
25.12624 633.05941421527
25.14635 672.028846525279
25.16647 618.04254852259
25.18658 637.976732535509
25.20669 643.993540696596
25.22681 665.002807587307
25.24692 656.000382534202
25.26704 669.009701775917
25.28715 640.837852358088
25.30726 573.062769962722
25.32738 587.967118139231
25.34749 609.994897815997
25.3676 609
25.38772 585.962053528883
25.40783 568.060670835395
25.42795 619.944533106061
25.44806 544.046348165733
25.46817 598.921129927969
25.48829 596.015872253629
25.5084 565
25.52851 543.992197949935
25.54863 538.013239044941
25.56874 557.038416080045
25.58886 563.022154789514
25.60897 540.038549399717
25.62908 538.957822885835
25.6492 599
25.66931 594.996759533708
25.68942 595.984135286757
25.70954 572.00250159052
25.72965 600.936063989624
25.74976 608.986552138506
25.76988 612.019629045299
25.78999 588.993905261455
25.81011 611.985354602341
25.83022 558.012326728914
25.85033 629.046635194576
25.87045 591.910790795853
25.89056 589.01497594828
25.91067 580.950471044367
25.93079 634.99381695148
25.9509 593
25.97102 589.036731321108
25.99113 622.983849302973
26.01124 577.946330350143
26.03136 600.895687206202
26.05147 643.977403000154
26.07158 641.989810602079
26.0917 670
26.11181 678.005233072412
26.13193 696.021102464339
26.15204 711.063504769427
26.17215 750.943278634641
26.19227 734.081174991819
26.21238 705.940385684954
26.23249 818.965539997032
26.25261 822.005572616833
26.27272 879.06580921872
26.29283 927.058475087432
26.31295 947.960164515966
26.33306 924.962657068924
26.35318 996.912526574494
26.37329 1070.96641952769
26.3934 1181
26.41352 1423.21085496118
26.43363 1628.44642235583
26.45374 2050.94267505489
26.47386 2611.50268635561
26.49397 3659.99555015142
26.51409 5341.97357126079
26.5342 7744
26.55431 10514.4177652045
26.57443 13313.954694007
26.59454 15382.2861450754
26.61465 15565.2156800943
26.63477 14505.7267103941
26.65488 12001.8775399271
26.67499 9198.25462174767
26.69511 6898.84632661977
26.71522 4566.92343590332
26.73534 2895.33935108877
26.75545 1848.21208066467
26.77556 1407.50217349131
26.79568 1217.16286572155
26.81579 1074.04583857911
26.8359 1025
26.85602 957.920209816426
26.87613 895.966812516185
26.89625 882.861340133027
26.91636 799.089824431179
26.93647 814.950701845405
26.95659 812.023882243563
26.9767 735
26.99681 670.974382828273
27.01693 631.966983157262
27.03704 631.040095619666
27.05716 639.074308253143
27.07727 582.026535151785
27.09738 608.982003798649
27.1175 598
27.13761 607.000903678685
27.15772 593.987217853485
27.17784 577.925441509014
27.19795 540.990163455422
27.21806 579.944613975048
27.23818 564.045779948702
27.25829 543.97595623996
27.27841 602.984775440967
27.29852 526.019784688929
27.31863 627.035186808405
27.33875 557.953052168493
27.35886 623.914828201245
27.37897 600.039594913775
27.39909 597.008838862747
27.4192 572
27.43932 602.981343247592
27.45943 553.006174803768
27.47954 603.005248084803
27.49966 545.076083248944
27.51977 547.025828870569
27.53988 506.009314047052
27.56 536
27.58011 522.987164938464
27.60023 516.032462544104
27.62034 541.991851964602
27.64045 506.08719975359
27.66057 505.945527910476
27.68068 537.018058697441
27.70079 500.989379849686
27.72091 562.003740704687
27.74102 508.972469102072
27.76113 536.037967421509
27.78125 529.971974566614
27.80136 531.984838418777
27.82148 533.01011411437
27.84159 519.002936924599
27.8617 524
27.88182 525.999880889172
27.90193 521.981654609461
27.92204 500.948674017308
27.94216 501.890033072084
27.96227 559.031739512434
27.98239 472.029588482129
28.0025 487
28.02261 494.977992575429
28.04273 443.00271685481
28.06284 510.164254676822
28.08295 532.161564002326
28.10307 441.044474765294
28.12318 477.978475232166
28.1433 460
28.16341 500.021248226937
28.18352 511.984714325047
28.20364 489.977478132135
28.22375 496.031890577466
28.24386 498.031653874552
28.26398 479.000199908396
28.28409 492.000687483062
28.3042 471
28.32432 478.032182020084
28.34443 510.008777376511
28.36455 493.979959500935
28.38466 502.989316508892
28.40477 498.002107064935
28.42489 502.999885597699
28.445 496
28.46511 497.001884355836
28.48523 496.990054129153
28.50534 490.003673465796
28.52546 494.019266758706
28.54557 478.99420907536
28.56568 499.988061708448
28.5858 490
28.60591 482.004594343734
28.62602 475.94011200878
28.64614 414.054756998172
28.66625 508.879217986415
28.68636 475.077888584859
28.70648 474.994177863962
28.72659 464.008608292375
28.74671 454.000191494263
28.76682 467.024675251641
28.78693 499.052940903869
28.80705 510.913321648392
28.82716 453.067100851481
28.84727 461.965350287899
28.86739 471.002583361396
28.8875 464
28.90762 473.999756948201
28.92773 458.973552181622
28.94784 466.094057419961
28.96796 513.019166551458
28.98807 462.031557047968
29.00818 479.008047888936
29.0283 438
29.04841 463.016605805213
29.06853 473.989133160651
29.08864 467.015334750437
29.10875 474.05828738407
29.12887 439.992328712418
29.14898 476.988484163985
29.16909 452.007594450159
29.18921 464.005194890442
29.20932 469.024332097792
29.22943 491.963829651564
29.24955 440.970731212462
29.26966 480.923989051817
29.28978 486.006166027257
29.30989 481.00663309652
29.33 470
29.35012 493.003067711724
29.37023 470.968585897272
29.39034 468.012372964183
29.41046 477.966070076137
29.43057 491.008277802591
29.45069 462.021237056571
29.4708 448
29.49091 509.998616563373
29.51103 447.945748174782
29.53114 464.021167251766
29.55125 454.963316889941
29.57137 487.001229295308
29.59148 457.005176311085
29.6116 486
29.63171 475.994211709255
29.65182 481.013079442806
29.67194 494.026003452311
29.69205 504.008870098484
29.71216 501.012602894432
29.73228 494.008170637198
29.75239 485.004385276974
29.7725 483
29.79262 487.976007195557
29.81273 450.984883992941
29.83285 478.086853433803
29.85296 500.959987344121
29.87307 524.96231678262
29.89319 530.016951846191
29.9133 478
29.93341 479.000217040862
29.95353 471.010576731212
29.97364 491.014638947959
29.99376 459.143303803728
30.01387 413.925428638038
30.03398 503.993559991273
30.0541 428
30.07421 478.024265975544
30.09432 477.988086253043
30.11444 477.998303825747
30.13455 472.998995148889
30.15467 468.045852918963
30.17478 431.003336437109
30.19489 469.975164204979
30.21501 493.996329582469
30.23512 466.970688329393
30.25523 455.012365651615
30.27535 473.035891847935
30.29546 480.976507676993
30.31557 493.998229469416
30.33569 475.01712657657
30.3558 449
30.37592 473.02201436768
30.39603 467.950425245305
30.41614 438.01128533768
30.43626 473.943789689531
30.45637 480.985013580391
30.47648 488.026287012323
30.4966 447
30.51671 485.020934760236
30.53683 491.959278965538
30.55694 454.954051905404
30.57705 462.919062269392
30.59717 484.02998138685
30.61728 446.999900469772
30.63739 476.002249738503
30.65751 435.992602312263
30.67762 458.010106733999
30.69773 434.956826982753
30.71785 437.106314333849
30.73796 494.925368419693
30.75808 492.028168330234
30.77819 468.002552855302
30.7983 466
30.81842 428.002081357031
30.83853 473.062889338252
30.85864 471.922584363687
30.87876 432.018365445877
30.89887 456.953442979968
30.91899 469.002254133534
30.9391 460
30.95921 464.002773440874
30.97933 458.968162499012
30.99944 436.997412052659
31.01955 453.971529845225
31.03967 448.017183974679
31.05978 450.974515294547
31.0799 485
31.10001 480.992351579718
31.12012 476.014518854077
31.14024 483.932276696568
31.16035 433.017834524619
31.18046 471.946394872243
31.20058 461.016222370406
31.22069 467.986914866405
31.2408 493
31.26092 478.978638529782
31.28103 469.010282284733
31.30115 478.984983543193
31.32126 461.013302079109
31.34137 470.986746243148
31.36149 457.020286597765
31.3816 418
31.40171 454.025139946165
31.42183 470.942422052716
31.44194 420.003071119229
31.46206 460.995502626787
31.48217 425.989245185754
31.50228 479.974601698402
31.5224 454
31.54251 460.007400240539
31.56262 455.971663228937
31.58274 438.065860619109
31.60285 489.01267487337
31.62297 434.037032099524
31.64308 466.962136639279
31.66319 471.008144720476
31.68331 455.997263887365
31.70342 459.002386059854
31.72353 461.016275979599
31.74365 469.967604031509
31.76376 446.007439685439
31.78387 470.953579984009
31.80399 474.018231470394
31.8241 441
31.84422 510.041939987566
31.86433 485.911048064377
31.88444 441.984534232471
31.90456 465.939252633649
31.92467 482.987335013555
31.94478 491.986486022744
31.9649 499
31.98501 467.986958268103
32.00513 466.03101381389
32.02524 490.018251359476
32.04535 485.993869989665
32.06547 492.019553990588
32.08558 468.003906318958
32.10569 478.006619990973
32.12581 453.006101023308
32.14592 497.02127254704
32.16604 471.918381997306
32.18615 458.064282158667
32.20626 488.028510341446
32.22638 444.010618812907
32.24649 469.000070978874
32.2666 447
32.28672 509.038633818945
32.30683 490.934376372409
32.32694 458.974205666088
32.34706 462.976433014796
32.36717 479.957371530762
32.38729 505.000083803163
32.4074 479
32.42751 472.012186791671
32.44763 498.989271188263
32.46774 467.98406772962
32.48785 493.940245012306
32.50797 508.948079936172
32.52808 544.013201498895
32.5482 487
32.56831 484.011433836789
32.58842 488.961613856964
32.60854 444.022478190951
32.62865 512.838759652992
32.64876 518.097391242939
32.66888 471.991661787555
32.68899 532.970088835308
32.7091 543
32.72922 500.98748451851
32.74933 526.052848002706
32.76945 539.969734740901
32.78956 519.015278016512
32.80967 540.931375011402
32.82979 575.004169876415
32.8499 543
32.87001 571.010814154947
32.89013 560.960140551908
32.91024 564.127836101869
32.93036 650.922449197049
32.95047 641.980612577636
32.97058 674.022005705574
32.9907 607
33.01081 637.013850508725
33.03092 630.989749250027
33.05104 641.050663083785
33.07115 655.0486186711
33.09127 618.024296975334
33.11138 641.954781926579
33.13149 681.986858494546
33.15161 672.971098259146
33.17172 601.966097307965
33.19183 635.120502782205
33.21195 704.042665885574
33.23206 679.034821216177
33.25217 678.037447540202
33.27229 625.021837186057
33.2924 621
33.31252 647.994173445113
33.33263 617.976994201604
33.35274 631.033282513888
33.37286 628.042564520167
33.39297 606.009200430804
33.41308 611.005056771188
33.4332 589
33.45331 583.009379619375
33.47343 610.017946835202
33.49354 589.90805578169
33.51365 559.943057492207
33.53377 608.982460889272
33.55388 575.024458661741
33.57399 576.006222817638
33.59411 549.999843303105
33.61422 573.004839343038
33.63434 547.94968046814
33.65445 537.978659433967
33.67456 516.071733542041
33.69468 499.961180018454
33.71479 567.982235086447
33.7349 542
33.75502 506.001376690614
33.77513 523.994540867962
33.79524 490.936332364778
33.81536 483.976689931058
33.83547 496.995074272886
33.85559 499.988475253826
33.8757 526
33.89581 478.975058404281
33.91593 468.053258571661
33.93604 516.037008399916
33.95615 488.123859891555
33.97627 462.967568638922
33.99638 507.977586251507
34.0165 482
34.03661 451.012557433005
34.05672 502.013710267086
34.07684 466.935117865688
34.09695 467.963445899607
34.11706 477.986170228247
34.13718 478.012385819742
34.15729 464.998060274603
34.17741 491.017811261363
34.19752 508.984903863278
34.21763 465.924942813199
34.23775 443.046003955562
34.25786 481.951983620039
34.27797 478.015407636933
34.29809 476.000410864698
34.3182 492
34.33831 545.99418057965
34.35843 481.941891474464
34.37854 494.02362468471
34.39866 479.034574386658
34.41877 473.007919639498
34.43888 466.000398775353
34.459 481
34.47911 513.008911539409
34.49922 514.99944167888
34.51934 514.980738638577
34.53945 510.932469916533
34.55957 548.000067357041
34.57968 518.005655705416
34.59979 533.011123791904
34.61991 479.990686666056
34.64002 519.055181975706
34.66013 546.996701247906
34.68025 536.010596029146
34.70036 569.892951196548
34.72047 623.934084032225
34.74059 643.005637169545
34.7607 606
34.78082 576.021282945455
34.80093 631.06330326277
34.82104 658.109110675609
34.84116 716.014328717308
34.86127 662.021702251521
34.88138 706.962240022629
34.9015 697
34.92161 680.00484655914
34.94173 707.034660381272
34.96184 713.998490353733
34.98195 720.946219631474
35.00207 743.993838004697
35.02218 717.049690509689
35.04229 676.004121035251
35.06241 691.002464093927
35.08252 663.952585497885
35.10264 622.96352547321
35.12275 618.965618022171
35.14286 593.032145814839
35.16298 602.969524664697
35.18309 631.994757803539
35.2032 627
35.22332 627.980415237342
35.24343 604.015504977257
35.26354 650.088447081187
35.28366 661.034410766973
35.30377 635.030567802065
35.32389 631.993962970562
35.344 649
35.36411 633.96929167548
35.38423 577.025510873355
35.40434 655.113376307529
35.42445 658.005533469431
35.44457 674.982827172004
35.46468 656.049449176558
35.4848 617
35.50491 695.056187482768
35.52502 759.963842130356
35.54514 675.950517549688
35.56525 735.842193107777
35.58536 741.067717194287
35.60548 717.981142958067
35.62559 763.986565057686
35.64571 770.014488515942
35.66582 816.012528274175
35.68593 787.961615915673
35.70605 783.986076099139
35.72616 757.088598090507
35.74627 729.967253276243
35.76639 777.990374220675
35.7865 752
35.80661 744.005892901113
35.82673 748.965465924263
35.84684 703.921363104954
35.86696 702.914152220372
35.88707 752.979088339464
35.90718 717.056534917589
35.9273 677
35.94741 675.996227854111
35.96752 660.996976466732
35.98764 667.991608739845
36.00775 648.047032747952
36.02787 637.019391311269
36.04798 638.95638379094
36.06809 686.007729930623
36.08821 609.96593964737
36.10832 600.031463462369
36.12843 618.953707289293
36.14855 574.03551313465
36.16866 635.950733548254
36.18878 591.06225637516
36.20889 571.983289507513
36.229 626
36.24912 615.966311898416
36.26923 592.000608019982
36.28934 606.004738561162
36.30946 598.978048589547
36.32957 648.87708385357
36.34968 726.956841902705
36.3698 744
36.38991 817.054339848641
36.41003 956.253495184733
36.43014 1113.19783275622
36.45025 1194.63266714897
36.47037 1399.74784273671
36.49048 1490.93539874895
36.51059 1527.02362316442
36.53071 1405.93546428942
36.55082 1301.89203506521
36.57094 1186.81437730845
36.59105 1097.67600208083
36.61116 950.189271157412
36.63128 901.07820011309
36.65139 786.040995054561
36.6715 751
36.69162 677.926371050704
36.71173 641.012073333912
36.73184 667.017675781917
36.75196 640.092112366193
36.77207 608.000749835699
36.79219 629.991032003643
36.8123 631
36.83241 647.021621000194
36.85253 677.954758519489
36.87264 630.052700827861
36.89275 709.950361973262
36.91287 644.096169964969
36.93298 650.939657664127
36.9531 704
36.97321 663.986082772561
36.99332 662.987456264329
37.01344 633.976783929174
37.03355 648.957202381766
37.05366 653.000346438078
37.07378 641.040245486991
37.09389 602.993988864931
37.11401 641.997467864747
37.13412 581.94533662789
37.15423 570.013487010458
37.17435 586.076883256846
37.19446 614.001713679487
37.21457 582.059228982829
37.23469 570.984784959764
37.2548 613
37.27491 568.961439869857
37.29503 528.067129661619
37.31514 605.012045041633
37.33526 534.100855669882
37.35537 547.961059996365
37.37548 556.984776400242
37.3956 580
37.41571 563.98560023101
37.43582 535.975247310505
37.45594 526.028930321478
37.47605 541.045333339928
37.49617 493.060495403066
37.51628 496.952032534654
37.53639 552.986321852021
37.55651 550.000459989315
37.57662 568.013822744732
37.59673 555.942367043711
37.61685 526.036259105432
37.63696 560.015194721198
37.65708 515.017043610749
37.67719 553.971147903755
37.6973 583
37.71742 560.003657589262
37.73753 579.981094710565
37.75764 535.949662948934
37.77776 547.964578232747
37.79787 542.041551306343
37.81798 522.981430774394
37.8381 564
37.85821 557.003718859171
37.87833 574.976324001839
37.89844 525.925672622561
37.91855 517.021108619377
37.93867 495.031862347615
37.95878 504.942494620945
37.97889 563.003004113565
37.99901 489.960984741019
38.01912 463.019839138589
38.03924 497.039361974471
38.05935 502.04415194671
38.07946 537.936604025165
38.09958 550.998535458307
38.11969 548.003817270642
38.1398 546
38.15992 561.992731667951
38.18003 547.026720998224
38.20015 584.004628301529
38.22026 555.996891609372
38.24037 594.962805611786
38.26049 594.992067741471
38.2806 642
38.30071 659.984994990373
38.32083 611.967660548676
38.34094 614.964351542236
38.36105 588.939439948807
38.38117 649.962075317822
38.40128 627.011621928338
38.4214 642
38.44151 608.984512556318
38.46162 609.028281574479
38.48174 637.00289021691
38.50185 615.040107359904
38.52196 616.993789344166
38.54208 607.020212561089
38.56219 581.014827778771
38.58231 573.018693919412
38.60242 618.993563121206
38.62253 559.923862377668
38.64265 557.0617715409
38.66276 567.054145155026
38.68287 531.986710800694
38.70299 568.002888180163
38.7231 523
38.74321 551.002606587194
38.76333 515.956050330281
38.78344 517.02146694215
38.80356 530.93816516507
38.82367 551.049633946227
38.84378 487.029495665734
38.8639 512
38.88401 530.010078571246
38.90412 556.0163296271
38.92424 564.031954428188
38.94435 591.932770898804
38.96447 588.078154313068
38.98458 519.036047069207
39.00469 522.998972275657
39.02481 524.021399259998
39.04492 589.023852614062
39.06503 555.935497776361
39.08515 551.087344597301
39.10526 593.967146334105
39.12538 579.01744299124
39.14549 587.982281851252
39.1656 625
39.18572 606.969543902925
39.20583 596.03362714144
39.22594 616.941450258287
39.24606 582.88841792624
39.26617 705.892309276723
39.28628 694.011070849742
39.3064 742
39.32651 836.057714561715
39.34663 982.262412937885
39.36674 1138.17250302476
39.38685 1200.66965135298
39.40697 1397.76069414225
39.42708 1435.07127791294
39.44719 1307.07274977226
39.46731 1166.92665992885
39.48742 1052.97410051549
39.50754 1066.90399765954
39.52765 950.781438873914
39.54776 893.240502586117
39.56788 730.08983110948
39.58799 701.046948291793
39.6081 545
39.62822 560.019512143757
39.64833 528.940749501575
39.66845 505.943401802684
39.68856 494.942872245786
39.70867 535.007463663087
39.72879 483.022021897073
39.7489 481
39.76901 496.001436698731
39.78913 497.024441033232
39.80924 514.977463500353
39.82935 484.024626249418
39.84947 496.008887065753
39.86958 476.987231041228
39.8897 519
39.90981 502.985812062018
39.92992 502.03955145368
39.95004 543.985157898031
39.97015 495.076190027812
39.99026 507.95589316145
40.01038 511.009962586588
40.03049 512.983612586052
40.05061 568.024451949596
40.07072 583.983426695997
40.09083 567.021531242955
40.11095 608.077567562098
40.13106 624.931620524442
40.15117 696.853969285376
40.17129 782.97605661341
40.1914 804
40.21152 873.098392436512
40.23163 956.0442568068
40.25174 934.936409050358
40.27186 912.066630846032
40.29197 850.132226391481
40.31208 764.055721566559
40.3322 759
40.35231 775.967298052064
40.37242 668.953631385811
40.39254 676.911220935788
40.41265 560.250711562015
40.43277 540.939391319969
40.45288 591.966252134229
40.47299 583.024942145889
40.49311 518.974009770265
40.51322 498.004187144043
40.53333 517.044047612231
40.55345 535.979331340291
40.57356 519.974877748762
40.59368 548.006137004718
40.61379 504.017798866464
40.6339 499
40.65402 499.011731942433
40.67413 517.006933124857
40.69424 514.028941456408
40.71436 547.940677008346
40.73447 550.038923329003
40.75458 525.991376906269
40.7747 555
40.79481 534.996756140861
40.81493 556.034248883158
40.83504 553.943410089575
40.85515 521.034660885485
40.87527 523.012758835673
40.89538 509.984892836326
40.91549 551.98276055417
40.93561 557.995140652122
40.95572 551.001439558574
40.97584 553.984056155171
40.99595 545.031185740275
41.01606 567.006313331138
41.03618 522.068538729312
41.05629 477.994130590104
41.0764 517
41.09652 497.019069114708
41.11663 551.02847439913
41.13675 519.933208229234
41.15686 526.967397626337
41.17697 526.030690145165
41.19709 510.991046194235
41.2172 543
41.23731 515.99953604684
41.25743 539.992951982
41.27754 513.021021548051
41.29765 558.952307962237
41.31777 521.094496037613
41.33788 476.014708854435
41.358 488
41.37811 507.007303475004
41.39822 512.99302446866
41.41834 500.990705604618
41.43845 499.04019899658
41.45856 485.95146201797
41.47868 527.994830518877
41.49879 495.008947948458
41.51891 503.997350063514
41.53902 479.994229971953
41.55913 490.984514022638
41.57925 468.027865954476
41.59936 514.925791822643
41.61947 511.047275149307
41.63959 479.009160359497
41.6597 490
41.67982 506.93342947281
41.69993 416.004587322695
41.72004 508.116261414772
41.74016 491.023531860244
41.76027 510.007933808958
41.78038 472.023551912562
41.8005 474
41.82061 451.998088520295
41.84072 477.032423402284
41.86084 490.980923285167
41.88095 472.022709575967
41.90107 471.020544119658
41.92118 450.998738282642
41.94129 480.980818778418
41.96141 483.971864642414
41.98152 416.995650224969
42.00163 484.11112147986
42.02175 506.940945754444
42.04186 474.018715345548
42.06198 484.007332055961
42.08209 460.001515319807
42.1022 478
42.12232 456.988159276077
42.14243 482.087039044186
42.16254 526.977423435513
42.18266 489.977869557696
42.20277 537.999922111971
42.22289 494.9979333641
42.243 560
42.26311 567.007352219919
42.28323 609.05775469832
42.30334 664.241787357367
42.32345 818.742192793134
42.34357 853.95157035141
42.36368 933.889044923064
42.38379 1060.92917982344
42.40391 1155.99251952787
42.42402 1050.88807771007
42.44414 975.850948666345
42.46425 889.823272331448
42.48436 846.059981918583
42.50448 798.083167742609
42.52459 718.009637159621
42.5447 736
42.56482 642.895337727284
42.58493 559.877611710611
42.60505 491.951028824204
42.62516 506.995977377179
42.64527 488.000484480316
42.66539 496.016868284793
42.6855 431
42.70561 448.014811299982
42.72573 453.97730620654
42.74584 444.037869698967
42.76595 474.002610031373
42.78607 442.031181954554
42.80618 447.99352605344
42.8263 446
42.84641 461.002459969196
42.86652 442.964440935731
42.88664 420.029979551092
42.90675 443.060779922933
42.92686 392.002564437038
42.94698 439.980155226994
42.96709 427.985261956812
42.98721 488.002670823699
43.00732 428.951894035921
43.02743 434.039212721378
43.04755 445.985632251091
43.06766 436.988500473444
43.08777 452.994481067876
43.10789 452.986296259834
43.128 471
43.14812 366.954575874085
43.16823 401.049347066045
43.18834 410.084088374081
43.20846 463.032685464985
43.22857 407.974617770452
43.24868 484.986277778328
43.2688 425
43.28891 469.010517745354
43.30902 428.948213856634
43.32914 410.020263121974
43.34925 437.905458111285
43.36937 449.067844370509
43.38948 397.975950693462
43.40959 475.985392857145
43.42971 441.995318553452
43.44982 466.981548769552
43.46993 411.990082409863
43.49005 463.083496205654
43.51016 444.062982482641
43.53028 433.994038447771
43.55039 446.99174737785
43.5705 461
43.59062 459.987872779933
43.61073 434.943335214831
43.63084 417.069910431618
43.65096 482.918684436696
43.67107 469.064387291756
43.69119 433.009022990498
43.7113 426
43.73141 418.013245004841
43.75153 470.058100903727
43.77164 466.929046775695
43.79175 439.965761972579
43.81187 473.00190269075
43.83198 423.059055055029
43.85209 397.993200661341
43.87221 424.00375310834
43.89232 420.021992409701
43.91244 452.982264256212
43.93255 412.980336478709
43.95266 456.896057596388
43.97278 466.042063640979
43.99289 417.999940146734
44.013 456
44.03312 418.956485519862
44.05323 420.082857489041
44.07335 481.019438289204
44.09346 439.059207027111
44.11357 438.026251112775
44.13369 413.987425352011
44.1538 480
44.17391 464.979198089129
44.19403 442.01635257426
44.21414 477.068119269622
44.23426 472.114773628226
44.25437 406.02458952647
44.27448 437.978971909488
44.2946 425
44.31471 433.003822775333
44.33482 429.995196234501
44.35494 435.03517663089
44.37505 442.074060793759
44.39516 402.989141479749
44.41528 444.983673799823
44.43539 421.008438573627
44.45551 438.015131173462
44.47562 444.967373081322
44.49573 401.989016970282
44.51585 435.080974050023
44.53596 442.006061683677
44.55607 441.999383902665
44.57619 437.006764812687
44.5963 428
44.61642 454.01647580196
44.63653 462.035362823076
44.65664 489.993516439807
44.67676 449.097975025724
44.69687 424.991713556632
44.71698 448.97334002878
44.7371 462
44.75721 445.985628209617
44.77732 433.030170448973
44.79744 473.983404075544
44.81755 414.133048572583
44.83767 418.914076387243
44.85778 474.994159917984
44.87789 435.016294985737
44.89801 453.029421072504
44.91812 504.003137576659
44.93823 465.950738454885
44.95835 459.992620642468
44.97846 441.059427889834
44.99858 423.985458401672
45.01869 450.999379042403
45.0388 433
45.05892 466.01377086825
45.07903 453.999987567181
45.09914 478.044522945735
45.11926 479.028827226385
45.13937 461.02310942158
45.15949 459.990361294111
45.1796 478
45.19971 446.993008838192
45.21983 472.073742285696
45.23994 506.992801966551
45.26005 481.019576857156
45.28017 502.965507484387
45.30028 495.042301233279
45.32039 458.99249461053
45.34051 510.013420454514
45.36062 492.978940042284
45.38074 500.055348217778
45.40085 522.999887591738
45.42096 503.036929458203
45.44108 500.991644926792
45.46119 511.994075616349
45.4813 520
45.50142 513.990266899852
45.52153 510.012214872567
45.54165 524.017680042872
45.56176 530.947986133761
45.58187 564.983346724077
45.60199 552.003752132723
45.6221 574
45.64221 638.040524263929
45.66233 699.004562634591
45.68244 700.183332669973
45.70256 864.751842305478
45.72267 901.980025731986
45.74278 933.971288484441
45.7629 914
45.78301 776.935948254579
45.80312 701.972040359704
45.82324 698.008589175535
45.84335 708.921384999417
45.86346 715.158782534982
45.88358 591.065205843327
45.90369 607.989749614952
45.92381 571.963233133356
45.94392 491.927384613458
45.96403 448.995462705488
45.98415 470.048228198152
46.00426 470.023014004466
46.02437 458.013724120773
46.04449 454.998351650373
46.0646 463
46.08472 474.009949520029
46.10483 484.018030258257
46.12494 489.9794021051
46.14506 473.00709428112
46.16517 476.025700182029
46.18528 439.029232637603
46.2054 429
46.22551 433.018263864134
46.24563 473.991728265704
46.26574 428.946379964714
46.28585 442.949600704492
46.30597 447.995570652895
46.32608 459.981225901977
46.34619 473.001722152423
46.36631 456.993052511883
46.38642 446.981437469266
46.40653 417.957502344339
46.42665 404.009073305634
46.44676 434.871713747951
46.46688 488.009867595624
46.48699 433.01515760977
46.5071 462
46.52722 491.992563272082
46.54733 463.973196921695
46.56744 462.98495018874
46.58756 447.999349595134
46.60767 457.017343101767
46.62779 436.993364076629
46.6479 477
46.66801 458.989985696671
46.68813 466.043899200006
46.70824 486.9730939307
46.72835 452.042552625017
46.74847 470.949147223447
46.76858 491.002244258742
46.78869 469.015383236397
46.80881 440.988042697968
46.82892 436.027973013104
46.84904 465.973326945117
46.86915 431.02517662262
46.88926 471.023945543463
46.90938 418.001049376522
46.92949 474.986070697472
46.9496 454
46.96972 478.995397238331
46.98983 431.932950573963
47.00995 437.145897333709
47.03006 486.05526654474
47.05017 417.011893647896
47.07029 470.993021686968
47.0904 422
47.11051 441.014140239898
47.13063 459.045369109546
47.15074 488.988139416809
47.17086 448.077978731736
47.19097 449.931371807974
47.21108 488.024853815617
47.2312 419
47.25131 446.026748412658
47.27142 467.970663332519
47.29154 419.972243013743
47.31165 446.94481280332
47.33176 444.00561944378
47.35188 463.960184192664
47.37199 488.01259410696
47.39211 433.985785339543
47.41222 451.028634097753
47.43233 456.973698436375
47.45245 434.98415908402
47.47256 455.920594573644
47.49267 491.973795639109
47.51279 474.027827253914
47.5329 427
47.55302 465.986672431971
47.57313 425.053757156239
47.59324 518.05153300835
47.61336 456.091962797371
47.63347 470.972805898543
47.65358 455.029438613064
47.6737 445
47.69381 464.98548416001
47.71393 416.011249078192
47.73404 470.028902256149
47.75415 428.073093094799
47.77427 447.94476893291
47.79438 468.995751110026
47.81449 462.005966986519
47.83461 449.993392078742
47.85472 442.005110905617
47.87483 456.016112546227
47.89495 457.99905923376
47.91506 459.000581788345
47.93518 468.965655792696
47.95529 497.011875385853
47.9754 450
47.99552 497.007291649802
48.01563 442.918170345138
48.03574 434.046261973183
48.05586 462.957029540618
48.07597 464.029730388797
48.09609 437.009830058974
48.1162 430
48.13631 433.009947010012
48.15643 457.00608104155
48.17654 446.005066559169
48.19665 472.916843439507
48.21677 476.06928501105
48.23688 413.027258585881
48.257 446
48.27711 492.000626506373
48.29722 455.959301693636
48.31734 444.036787833233
48.33745 470.022729087443
48.35756 455.043725529971
48.37768 441.008121015113
48.39779 434.004186206526
48.4179 424
48.43802 430.032998338046
48.45813 469.017296833176
48.47825 459.018154520598
48.49836 484.985807931953
48.51847 462.040205014287
48.53859 448.005174151623
48.5587 434
48.57881 439.022571950757
48.59893 495.025363570032
48.61904 462.916849880425
48.63916 448.975615056347
48.65927 465.996993136385
48.67938 447.026029499914
48.6995 441
48.71961 467.989307237607
48.73972 420.998252864378
48.75984 475.099107305448
48.77995 467.147500926198
48.80006 409.021078576134
48.82018 442.971061710779
48.84029 436.012293816439
48.86041 429.013849729516
48.88052 465.000380991048
48.90063 436.991716556288
48.92075 471.099766879658
48.94086 472.09909084179
48.96097 406.05364868892
48.98109 429.966553960165
49.0012 484
49.02132 444.974468109928
49.04143 461.049282926157
49.06154 483.015057194217
49.08166 474.048134649124
49.10177 453.001091970488
49.12188 471.979169940522
49.142 461
49.16211 407.010022415212
49.18223 483.066456565672
49.20234 474.004510302878
49.22245 496.036414742733
49.24257 447.036643356554
49.26268 472.956624856268
49.28279 505.986507434356
49.30291 525.001957383316
49.32302 514.984180649288
49.34313 501.986065107018
49.36325 490.953328853047
49.38336 479.96341424402
49.40348 527.94406443004
49.42359 558.004611065678
49.4437 525
49.46382 518.00138323776
49.48393 512.979748624073
49.50404 503.015680131899
49.52416 524.964481335241
49.54427 535.970902287865
49.56439 544.019346969913
49.5845 485
49.60461 507.999081773119
49.62473 485.036110607055
49.64484 544.026791001571
49.66495 506.037121983447
49.68507 528.99823312999
49.70518 501.004619780812
49.7253 526
49.74541 519.012824990012
49.76552 558.987783433961
49.78564 512.004307402217
49.80575 558.003049816725
49.82586 511.019917151903
49.84598 557.961307575154
49.86609 558.002239334718
49.8862 572
49.90632 594.027831176295
49.92643 647.1374776231
49.94655 742.11859628505
49.96666 788.717994285583
49.98677 1019.67439266048
50.00689 1202.88661281913
50.027 1453
50.04711 1589.12618467602
50.06723 1909.27518414082
50.08734 1908.93479752453
50.10746 1903.14142083321
50.12757 1719.37634572123
50.14768 1466.22977107293
50.1678 1286
50.18791 1214.98564202678
50.20802 1205.99881569129
50.22814 1178.85170610759
50.24825 1082.17832364616
50.26837 1007.22919492306
50.28848 792.18254170073
50.30859 678.04968500498
50.32871 582.978073602645
50.34882 582.99135044303
50.36893 526.866594682936
50.38905 462.008260021275
50.40916 520.884850252712
50.42927 518.100147832564
50.44939 451.998018898183
50.4695 497
50.48962 430.981207577744
50.50973 482.064194779765
50.52984 483.005113505889
50.54996 502.981101490084
50.57007 497.993580220726
50.59018 509.00873343983
50.6103 487
50.63041 498.993544051365
50.65053 465.986474121968
50.67064 485.014918830413
50.69075 475.977541990888
50.71087 499.998129888709
50.73098 481.995893219581
50.75109 505.999945815774
50.77121 479.994794453761
50.79132 480.966976776991
50.81143 440.034522880042
50.83155 506.039910405874
50.85166 465.024730085941
50.87178 502.975465494819
50.89189 493.999576202736
50.912 509
50.93212 470.970688912798
50.95223 461.98068809987
50.97234 447.018287440451
50.99246 476.958368555585
51.01257 475.013600579925
51.03269 473.996740561155
51.0528 479
51.07291 471.002458011531
51.09303 492.036419789656
51.11314 499.968860206974
51.13325 469.075857896509
51.15337 460.968814066295
51.17348 486.999282735293
51.1936 470
51.21371 480.983942583066
51.23382 421.981722316742
51.25394 452.037799449145
51.27405 435.046115794109
51.29416 441.950071525379
51.31428 458.012871917609
51.33439 421.018001880625
51.3545 409
51.37462 434.032334283396
51.39473 463.031839132439
51.41485 461.915416445926
51.43496 420.027973780184
51.45507 430.008001299929
51.47519 409.997179814312
51.4953 444
51.51541 437.989926049398
51.53553 421.985633434314
51.55564 428.057437350892
51.57576 456.007985958276
51.59587 420.055260553751
51.61598 403.006907879968
51.6361 405
51.65621 443.023854054864
51.67632 466.97452023386
51.69644 416.952908997227
51.71655 426.00642033037
51.73667 412.966921843724
51.75678 463.972474614877
51.77689 452.00778636429
51.79701 448.994993478741
51.81712 422.968994376862
51.83723 394.959271955248
51.85735 383.050820241947
51.87746 427.912052451745
51.89757 442.030769413195
51.91769 409.009187727149
51.9378 425
51.95792 455.985597190723
51.97803 406.940605440773
51.99814 408.059548981994
52.01826 434.99221074785
52.03837 423.001308301898
52.05848 443.973671229708
52.0786 436
52.09871 372.010720896109
52.11883 460.077481307036
52.13894 436.930670517303
52.15905 436.954274711657
52.17917 451.990410715673
52.19928 444.022873221643
52.21939 423.000701637172
52.23951 443.012718972629
52.25962 457.00109125153
52.27974 449.982078730471
52.29985 452.049764273075
52.31996 470.021971406289
52.34008 433.03275226576
52.36019 423.997672420145
52.3803 431
52.40042 432.989707041183
52.42053 421.004761715765
52.44064 434.001367175507
52.46076 427.970149940251
52.48087 454.001064522995
52.50099 428.005912982531
52.5211 431
52.54121 399.003945253713
52.56133 450.068864473694
52.58144 462.998518397663
52.60155 456.062299819491
52.62167 415.063927863917
52.64178 401.965862683334
52.6619 449
52.68201 422.99969007679
52.70212 461.03112849689
52.72224 456.954860308207
52.74235 441.00107844716
52.76246 444.028644038127
52.78258 417.013717712349
52.80269 426.990814365115
52.8228 445
52.84292 456.97596627863
52.86303 410.956043396181
52.88315 429.14504136571
52.90326 480.988326105021
52.92337 445.051157635321
52.94349 442.991476251358
52.9636 458
52.98371 462.010557832432
53.00383 493.023072927351
53.02394 469.881890271918
53.04406 418.00522977573
53.06417 458.944219874899
53.08428 456.032557832407
53.1044 429
53.12451 462.017950368993
53.14462 471.981034007041
53.16474 442.966352397294
53.18485 457.889373608654
53.20497 497.994281058287
53.22508 477.999527344746
53.24519 501.996944604048
53.26531 494.011468091488
53.28542 537.006710763575
53.30553 502.965276360445
53.32565 510.013710011616
53.34576 501.009481845689
53.36587 513.961911499462
53.38599 524.014115156795
53.4061 482
53.42622 511.020934786855
53.44633 518.047237472755
53.46644 559.99900410174
53.48656 521.040609534694
53.50667 542.953242601906
53.52678 548.023761791026
53.5469 525
53.56701 561.010677622045
53.58713 562.022028070184
53.60724 576.935467785351
53.62735 526.974771034095
53.64747 595.927044807732
53.66758 576.058113723574
53.68769 533.002046700243
53.70781 553.002844522224
53.72792 554.043978784845
53.74804 621.042981590831
53.76815 582.889838417261
53.78826 572.976754257455
53.80838 581.008130862938
53.82849 565.001450353949
53.8486 574
53.86872 558.989799375808
53.88883 564.018365275773
53.90894 574.012021329977
53.92906 576.99509219441
53.94917 579.001431250396
53.96929 575.002289928061
53.9894 583
54.00951 611.995057936313
54.02963 574.976587106827
54.04974 589.007877714771
54.06985 570.037278690943
54.08997 566.019314210808
54.11008 567.939560466148
54.1302 651
54.15031 595.962558878385
54.17042 564.015470364516
54.19054 594.01427225469
54.21065 578.005596320739
54.23076 598.966650669257
54.25088 600.995696572996
54.27099 603.010969687203
54.29111 561.983562443683
54.31122 558.01922042462
54.33133 586.041562771424
54.35145 594.950654447166
54.37156 564.02852047792
54.39167 573.978478506302
54.41179 565.020060739269
54.4319 524
54.45201 553.008175467301
54.47213 561.072116268903
54.49224 610.929262827214
54.51236 510.116046415041
54.53247 539.9155763142
54.55258 566.997027322213
54.5727 558
54.59281 551.003280160857
54.61292 573.032897112863
54.63304 598.004223470848
54.65315 592.954514582665
54.67327 626.98274500183
54.69338 616.992394789428
54.71349 662.967298580544
54.73361 719.0175934344
54.75372 749.050549556728
54.77383 828.132216945846
54.79395 906.163718542155
54.81406 965.87827931107
54.83417 995.066051402767
54.85429 896.046524027876
54.8744 834
54.89452 788.028076403554
54.91463 841.964223081644
54.93474 761.978304187132
54.95486 829.937956359038
54.97497 785.067301955123
54.99508 760.060564464142
55.0152 665
55.03531 637.989894505666
55.05543 609.981239423102
55.07554 605.94965773462
55.09565 573.985238015166
55.11577 623.917052764809
55.13588 645.015128159063
55.15599 609.019684715249
55.17611 581.992280959151
55.19622 588.038492355692
55.21634 652.141159100123
55.23645 698.018429082294
55.25656 685.003460799973
55.27668 700.991525504997
55.29679 688.011584068285
55.3169 657
55.33702 616.999757448577
55.35713 638.991786306782
55.37724 605.978129574941
55.39736 630.949733663089
55.41747 630.027101738838
55.43759 591.036061953801
55.4577 526
55.47781 559.997337403282
55.49793 515.992760166221
55.51804 545.96644285272
55.53815 481.080154869276
55.55827 502.974630692472
55.57838 488.014624904856
55.5985 493
55.61861 505.009268174654
55.63872 519.994738597583
55.65884 494.945095420447
55.67895 484.973278261618
55.69906 500.994539766231
55.71918 494.991602457156
55.73929 521.986854977519
55.75941 515.974550988397
55.77952 454.977282479044
55.79963 489.092221603796
55.81975 521.94165843411
55.83986 467.06710745219
55.85997 484.928778993667
55.88009 515.006621726946
55.9002 468
55.92031 461.0163086809
55.94043 500.015252562142
55.96054 475.942352162304
55.98066 469.968797296517
56.00077 482.023276702049
56.02088 449.016001044068
56.041 459
56.06111 460.002919941727
56.08122 469.998749617999
56.10134 468.046094559116
56.12145 504.966833887733
56.14157 478.069615084602
56.16168 447.99767819486
56.18179 464.002416302324
56.20191 445.004074631722
56.22202 468.987235399975
56.24213 424.974520914404
56.26225 457.113121275788
56.28236 469.065430224352
56.30248 429.995144111246
56.32259 489.962135825594
56.3427 531
56.36282 484.934656062112
56.38293 436.980773491511
56.40304 454.048718340577
56.42316 460.031934363474
56.44327 447.967806095538
56.46338 485.992519589118
56.4835 452
56.50361 457.031494832144
56.52373 517.976309199091
56.54384 445.933504869525
56.56395 480.904647766281
56.58407 486.99537768203
56.60418 490.023553708237
56.62429 451.008093838461
56.64441 467.009783893771
56.66452 467.98857723616
56.68464 450.95663412167
56.70475 458.171248112486
56.72486 528.045345978194
56.74498 432.055821590504
56.76509 459.97861841447
56.7852 468
56.80532 451.964603454171
56.82543 423.022603744864
56.84554 475.088253524911
56.86566 490.977796876668
56.88577 500.021353258696
56.90589 467.012795399455
56.926 461
56.94611 454.994513478539
56.96623 449.011874508665
56.98634 470.048409193853
57.00645 467.1269361296
57.02657 412.986614288495
57.04668 473.964520013094
57.0668 451
57.08691 447.016414359946
57.10702 490.02232880551
57.12714 478.946399390568
57.14725 468.9445731984
57.16736 503.974452593536
57.18748 484.028170651513
57.20759 467.005245212022
57.22771 464.005210641684
57.24782 468.97475842235
57.26793 427.974451298008
57.28805 452.107347448326
57.30816 478.011367982891
57.32827 461.986047664515
57.34839 482.009904481533
57.3685 446
57.38861 504.999693566519
57.40873 442.956672428597
57.42884 475.054276990008
57.44896 463.039712428504
57.46907 454.015615416167
57.48918 440.007140113601
57.5093 441
57.52941 440.003331096742
57.54952 455.015049687305
57.56964 461.997541100348
57.58975 453.039964030749
57.60987 440.99610513135
57.62998 460.970655360215
57.65009 481.99880838501
57.67021 461.982079013401
57.69032 435.000727162241
57.71043 462.049637390715
57.73055 474.965478069383
57.75066 454.003402679542
57.77078 470.991198027734
57.79089 459.009268136526
57.811 449
57.83112 456.010813151474
57.85123 466.011698598217
57.87134 467.987540800954
57.89146 465.965909555274
57.91157 480.039161164701
57.93168 432.013804190247
57.9518 465
57.97191 475.999916767086
57.99203 474.991304762652
58.01214 452.909170239943
58.03225 414.978503866089
58.05237 460.947396821718
58.07248 460.014415741426
58.09259 461.987192590519
58.11271 491.002198664833
58.13282 460.953693163511
58.15294 448.105289845558
58.17305 511.970852677245
58.19316 427.13650674334
58.21328 416.001312064347
58.23339 405.994633470371
58.2535 439
58.27362 434.967885283719
58.29373 413.035839158278
58.31385 468.088343522371
58.33396 457.067921336267
58.35407 441.965802113574
58.37419 475.001899491058
58.3943 438
58.41441 442.993066850717
58.43453 411.995950612713
58.45464 433.996121669678
58.47475 419.914575219839
58.49487 472.032302992128
58.51498 394.025089069855
58.5351 444
58.55521 437.000832022088
58.57532 459.000266943255
58.59544 422.910584644357
58.61555 403.963610733892
58.63566 430.978861470766
58.65578 427.984984117127
58.67589 460.990582760399
58.69601 448.986187162505
58.71612 429.999179722171
58.73623 445.028596052811
58.75635 463.057706638023
58.77646 478.025938538889
58.79657 445.037562897637
58.81669 437.004679225451
58.8368 424
58.85691 438.006621298697
58.87703 446.019375800017
58.89714 454.971667499135
58.91726 428.019559434335
58.93737 437.995850121307
58.95748 434.98033099005
58.9776 470
58.99771 453.990649733768
59.01782 444.986277110064
59.03794 441.06971225616
59.05805 486.008833060101
59.07817 443.022349029624
59.09828 472.975922896279
59.11839 470.000372839837
59.13851 477.996902926486
59.15862 460.998608869734
59.17873 480.026764389322
59.19885 480.974035468568
59.21896 466.0358564325
59.23908 459.980414779374
59.25919 484.003400697512
59.2793 455
59.29942 481.026701055423
59.31953 498.043038274597
59.33964 524.979795500949
59.35976 480.083188623361
59.37987 477.945209930837
59.39998 516.994301596357
59.4201 497
59.44021 510.992986269398
59.46033 475.993683493806
59.48044 501.002643506673
59.50055 470.046929041582
59.52067 478.987750831641
59.54078 489.95422260988
59.56089 543.998706903999
59.58101 496.982481164515
59.60112 516.054198351981
59.62124 568.060412128588
59.64135 555.859903092603
59.66146 509.958111638343
59.68158 582.946849250605
59.70169 586.003290047722
59.7218 602
59.74192 636.036161063102
59.76203 679.082983601603
59.78215 755.244859537833
59.80226 852.857788759589
59.82237 929.792087705365
59.84249 1123.90857652496
59.8626 1250
59.88271 1336.05462587513
59.90283 1437.05387518036
59.92294 1392.83307640351
59.94305 1303.2521821312
59.96317 1164.29264262848
59.98328 972.106470467457
60.0034 944
60.02351 886.99888571577
60.04362 939.030433291063
60.06374 938.065220414986
60.08385 979.103632019662
60.10396 857.216712575892
60.12408 788.095592663735
60.14419 660.048608537003
60.16431 613.982476480401
60.18442 557.932820099224
60.20453 504.967661586251
60.22465 493.906239965834
60.24476 448.990754172051
60.26487 493.970987513014
60.28499 475.002038891298
60.3051 494
60.32522 453.9534993861
60.34533 455.109275100543
60.36544 523.928490259485
60.38556 421.061360408036
60.40567 477.967162864181
60.42578 434.017675328671
60.4459 465
60.46601 437.995228323564
60.48612 462.019548748521
60.50624 456.975907203271
60.52635 454.980658009676
60.54647 460.014852272597
60.56658 438.018757025776
60.58669 437.99039203557
60.60681 458.00075941292
60.62692 442.989575203902
60.64703 450.024576547127
60.66715 454.951624628835
60.68726 426.020939680879
60.70738 441.977363681455
60.72749 452.00124869697
60.7476 446
60.76772 446.990232249201
60.78783 431.996854589189
60.80794 446.030608921526
60.82806 452.993068731887
60.84817 454.008107637848
60.86828 441.017605440853
60.8884 437
60.90851 478.013810408972
60.92863 472.957657828051
60.94874 450.00338593051
60.96885 475.924563681918
60.98897 479.053954789684
61.00908 431.020348044597
61.02919 449.984693267367
61.04931 466.001165335251
61.06942 451.965993316398
61.08954 424.016706496078
61.10965 463.084576799746
61.12976 469.018999420828
61.14988 455.019885120512
61.16999 435.006212077487
61.1901 430
61.21022 423.99986319535
61.23033 427.999513276982
61.25045 438.108254951178
61.27056 477.053363441744
61.29067 426.954619668656
61.31079 508.999773707146
61.3309 424
61.35101 462.011385999742
61.37113 432.964783149164
61.39124 446.047331864792
61.41135 445.087983709749
61.43147 412.972014745819
61.45158 467.971164676559
61.4717 454
61.49181 472.014407203729
61.51192 493.012543074506
61.53204 494.979206493751
61.55215 478.038885510178
61.57226 470.003688418454
61.59238 480.968202219179
61.61249 507.007493036019
61.63261 460.984298310884
61.65272 475.045250291479
61.67283 514.012943589452
61.69295 489.911825628741
61.71306 471.985507106658
61.73317 498.949971254022
61.75329 518.001676822351
61.7734 497
61.79352 483.002264680574
61.81363 511.088058417567
61.83374 559.985592591435
61.85386 513.04728848904
61.87397 521.021426835133
61.89408 498.960852891279
61.9142 578
61.93431 542.991172597865
61.95442 548.956680272394
61.97454 476.987594008505
61.99465 542.875369316364
62.01477 535.030406919699
62.03488 535.989601780564
62.05499 542.000230754804
62.07511 554.022612634035
62.09522 603.001664822904
62.11533 568.988993275164
62.13545 606.092406719252
62.15556 607.054281196516
62.17568 587.982259748625
62.19579 621.999611210546
62.2159 593
62.23602 622.022522020742
62.25613 624.012204788713
62.27624 632.955582069124
62.29636 601.969703136602
62.31647 645.003529462571
62.33659 589.022037754394
62.3567 581
62.37681 558.000496540279
62.39693 585.030588066581
62.41704 590.025641378244
62.43715 599.074498994402
62.45727 550.019300357422
62.47738 572.996629293294
62.49749 537.01963794142
62.51761 527.008220648041
62.53772 531.958535138762
62.55784 481.024120860756
62.57795 543.066877263881
62.59806 512.053047998874
62.61818 523.977388491471
62.63829 529.006614941217
62.6584 508
62.67852 498.993278375586
62.69863 492.999262918335
62.71875 497.006891656091
62.73886 496.003178828288
62.75897 501.97226464482
62.77909 506.021295697788
62.7992 454
62.81931 514.015784613393
62.83943 485.940545417174
62.85954 470.997567683158
62.87965 465.044968770981
62.89977 448.988573900532
62.91988 475.979834692043
62.94 475
62.96011 462.991736874349
62.98022 454.014045131216
63.00034 481.028299881609
63.02045 480.97551791554
63.04056 490.053118190457
63.06068 432.049396785481
63.08079 434.970056691379
63.10091 499.004812411494
63.12102 456.967101499603
63.14113 456.995135162745
63.16125 448.047480792271
63.18136 488.954898077622
63.20147 474.047806497726
63.22159 461.987798009169
63.2417 490
63.26182 438.979381133376
63.28193 462.025912009552
63.30204 445.944401446167
63.32216 441.931753773833
63.34227 478.01964966675
63.36238 426.029077674865
63.3825 444
63.40261 451.997836566098
63.42272 454.019444403385
63.44284 474.990424789291
63.46295 438.119153294422
63.48307 416.966097338907
63.50318 465.959506394925
63.52329 479.99821990869
63.54341 489.006977799191
63.56352 498.997319015985
63.58363 481.963685322066
63.60375 469.025076235744
63.62386 482.031628446603
63.64398 455.985596935869
63.66409 503.988163374775
63.6842 483
63.70432 477.009486803334
63.72443 489.012614557754
63.74454 506.086963438199
63.76466 550.001207122057
63.78477 510.044272414974
63.80489 508.00343595358
63.825 504
63.84511 557.999887442599
63.86523 510.973948048822
63.88534 553.110547305168
63.90545 601.832143720868
63.92557 663.990026268504
63.94568 628.015693487453
63.96579 674.95561142162
63.98591 746.006324822428
64.00602 698.93207780874
64.02614 653.969003598652
64.04625 637.869862378528
64.06636 583.969996491852
64.08648 644.986708304302
64.10659 592.022022817354
64.1267 602
64.14682 614.974579981071
64.16693 570.961748652415
64.18705 582.072970926085
64.20716 605.974032309185
64.22727 591.081732249621
64.24739 514.034668725417
64.2675 482
64.28761 506.009775582423
64.30773 508.993813120633
64.32784 504.987909379919
64.34796 493.038539046321
64.36807 477.000457372484
64.38818 489.988598826276
64.4083 484
64.42841 462.001290266849
64.44852 478.99917647779
64.46864 457.977352431456
64.48875 458.040978304762
64.50886 434.983216755497
64.52898 465.993664113704
64.54909 457.982490806215
64.56921 509.992365269285
64.58932 434.957175493268
64.60943 463.069949721788
64.62955 485.013624649384
64.64966 485.999770990543
64.66977 476.049144815761
64.68989 436.009066531447
64.71 451
64.73012 465.985130342472
64.75023 423.922143764177
64.77034 411.117019334436
64.79046 494.941707597452
64.81057 439.13825553008
64.83068 389.973809513963
64.8508 462
64.87091 458.978585277554
64.89102 421.996309581268
64.91114 441.007969055319
64.93125 421.037789073135
64.95137 430.960037791873
64.97148 452.996029835705
64.99159 441.006283684975
65.01171 443.008228783251
65.03182 455.99149546153
65.05193 436.999357212891
65.07205 444.943634761999
65.09216 409.979881888236
65.11228 450.002607600688
65.13239 408.0027003406
65.1525 444
65.17262 399.956750723306
65.19273 397.040107958724
65.21284 431.05792615449
65.23296 444.999025606618
65.25307 435.028747793147
65.27319 411.012624414142
65.2933 414
65.31341 470.987171368243
65.33353 381.924258401219
65.35364 410.092416778061
65.37375 429.978197906515
65.39387 432.023664969966
65.41398 411.999229217943
65.43409 426.002664599019
65.45421 407.00285469525
65.47432 436.012437263826
65.49444 420.972400343113
65.51455 426.032710684103
65.53466 432.011424603117
65.55478 429.978385135171
65.57489 462.994162166153
65.595 430
65.61512 392.049571103129
65.63523 487.06069630481
65.65535 461.992573970924
65.67546 503.955956453422
65.69557 484.029413961689
65.71569 477.012122294652
65.7358 449
65.75591 494.013208650305
65.77603 482.97537626689
65.79614 475.971178517986
65.81626 457.006750743398
65.83637 465.007111876195
65.85648 441.025287811784
65.8766 434
65.89671 454.005342163791
65.91682 444.976694666272
65.93694 434.045793512911
65.95705 470.977226238255
65.97716 445.053321450789
65.99728 435.010006498782
66.01739 427.992040154873
66.03751 454.001474033874
66.05762 427.972180689715
66.07773 424.02832119206
66.09785 441.98531632568
66.11796 405.103511472078
66.13807 388.917561831147
66.15819 475.978357741885
66.1783 454
66.19842 442.994216021199
66.21853 431.987128448087
66.23864 431.008679165088
66.25876 434.005614898145
66.27887 428.003133891832
66.29898 441.965025896552
66.3191 466
66.33921 419.998680101898
66.35933 460.025840169526
66.37944 435.962255083389
66.39955 446.951629126079
66.41967 447.038451659946
66.43978 424.98233393283
66.45989 457.007688734708
66.48001 409.99963504577
66.50012 446.988612654416
66.52023 387.970485410639
66.54035 429.092013374903
66.56046 422.052225030887
66.58058 411.983221188201
66.60069 440.992213377054
66.6208 437
66.64092 437.993090655527
66.66103 427.003228986996
66.68114 435.984816620678
66.70126 412.03268497506
66.72137 414.984302892378
66.74149 413.011276572193
66.7616 394
66.78171 442.020306505767
66.80183 444.95880716138
66.82194 426.042911678715
66.84205 460.034107157056
66.86217 410.021949652371
66.88228 444.972905198024
66.90239 433.012498190252
66.92251 422.002140540333
66.94262 437.01983774385
66.96274 447.987869864232
66.98285 421.898557404392
67.00296 401.937804059323
67.02308 448.006054298052
67.04319 396.01226551966
67.0633 430
67.08342 450.98715967495
67.10353 426.987929603722
67.12365 449.098215388052
67.14376 458.112815453843
67.16387 392.971357493738
67.18399 476.982014016683
67.2041 438
67.22421 452.001924081252
67.24433 427.974941488459
67.26444 441.060736539777
67.28456 459.024647023793
67.30467 439.976429404363
67.32478 472.011980361548
67.3449 422
67.36501 455.023109407154
67.38512 466.970574524567
67.40524 434.017524545842
67.42535 475.947464446469
67.44546 463.012853817435
67.46558 486.96265666556
67.48569 496.022240073772
67.50581 462.033102033831
67.52592 587.051518669456
67.54603 551.993823446671
67.56615 634.264589158966
67.58626 696.974350334119
67.60637 697.950592172155
67.62649 781.94559479711
67.6466 896
67.66672 1002.05682005676
67.68683 1011.99392077256
67.70694 1003.93059237374
67.72706 928.213659012827
67.74717 823.115893602609
67.76728 771.05301626608
67.7874 721
67.80751 746.019438568036
67.82763 765.990794872102
67.84774 757.036834134213
67.86785 793.960563906167
67.88797 777.03297262666
67.90808 788.942814028996
67.92819 833.019890309177
67.94831 735.972022812507
67.96842 767.066918957933
67.98853 818.049554045709
68.00865 834.001939046193
68.02876 874.733951479303
68.04888 1063.84725048448
68.06899 1148.96296194301
68.0891 1208
68.10922 1135.96390505112
68.12933 1143.95924093625
68.14944 1041.72728014154
68.16956 937.088151175103
68.18967 958.900747911453
68.20979 1018.98804909056
68.2299 1034
68.25001 1139.04274826002
68.27013 1166.988974399
68.29024 1150.95921884888
68.31035 1092.33459052038
68.33047 903.274840222284
68.35058 761.121414146272
68.3707 673
68.39081 706.014145014515
68.41092 701.991081294586
68.43104 701.990936307427
68.45115 678.895552342752
68.47126 631.079513225323
68.49138 606.016508830431
68.51149 582.020256882224
68.5316 536
68.55172 520.979777938131
68.57183 490.965248820265
68.59195 486.021367836866
68.61206 482.075282508682
68.63217 429.041975561543
68.65229 445.97908295979
68.6724 484
68.69251 475.974404490748
68.71263 424.001485615752
68.73274 473.077487086137
68.75286 473.019556253191
68.77297 466.031009701541
68.79308 436.017867739988
68.8132 434
68.83331 429.005407938275
68.85342 446.999028748721
68.87354 436.027842513605
68.89365 468.973103975398
68.91376 451.02463282557
68.93388 455.003413944848
68.95399 441.001924720937
68.97411 457.01237533793
68.99422 462.970447090039
69.01433 430.019194148918
69.03445 462.9464024722
69.05456 401.026911590332
69.07467 442.976129218393
69.09479 416.002549144598
69.1149 448
69.13502 438.996179590304
69.15513 447.993976920331
69.17524 434.009717185757
69.19536 452.007101300622
69.21547 430.999559574551
69.23558 449.006758231558
69.2557 420
69.27581 435.995830310871
69.29593 415.036547159228
69.31604 471.031430491747
69.33615 434.075754628346
69.35627 444.95815933012
69.37638 455.018666609481
69.39649 427.003408399718
69.41661 441.002029890911
69.43672 422.978546245816
69.45683 425.051140561393
69.47695 454.951563391064
69.49706 410.002665641572
69.51718 451.984055464461
69.53729 432.996838079988
69.5574 474
69.57752 453.958896969763
69.59763 439.053545846893
69.61774 489.006053485282
69.63786 433.130345063937
69.65797 415.939771361077
69.67809 467.995691784092
69.6982 430
69.71831 432.007444911927
69.73843 437.995532144863
69.75854 444.065752860445
69.77865 474.052858571666
69.79877 416.047822295494
69.81888 432.973969493276
69.839 437
69.85911 432.004641867887
69.87922 439.981380665833
69.89934 414.022861007546
69.91945 452.022769643584
69.93956 434.970706215887
69.95968 480.981264587101
69.97979 446.028297876903
69.9999 410
70.02002 432.031704328863
70.04013 454.013054938497
70.06025 446.94529690331
70.08036 429.985497562277
70.10047 446.014895874488
70.12059 421.995586990541
70.1407 457
70.16081 436.001692608749
70.18093 449.937210163062
70.20104 376.975092814244
70.22116 436.895160691254
70.24127 435.03665403675
70.26138 421.999352067455
70.2815 439
70.30161 459.988950159425
70.32172 411.974016868014
70.34184 425.043501753362
70.36195 425.055382912149
70.38207 410.962445705344
70.40218 457.979770546338
70.42229 432.021539854934
70.44241 412.007425151134
70.46252 430.980699847589
70.48263 395.017209319575
70.50275 443.023829355317
70.52286 404.04541842066
70.54297 426.949542055494
70.56309 439.003687761269
70.5832 424
70.60332 426.020689056262
70.62343 437.958060292546
70.64354 397.008774382271
70.66366 443.944029553723
70.68377 436.000361203451
70.70388 453.000253754496
70.724 439
70.74411 468.001844694598
70.76423 433.939816998466
70.78434 413.991481578504
70.80445 411.028347322237
70.82457 397.001527122022
70.84468 417.963826800827
70.86479 437.012157194427
70.88491 394.996299784803
70.90502 434.045133333358
70.92513 436.928091384104
70.94525 380.970657071884
70.96536 407.983089232487
70.98548 389.995228586906
71.00559 417.998894580547
71.0257 394
71.04582 432.045985469277
71.06593 447.968038556223
71.08604 415.982619564849
71.10616 425.024996825512
71.12627 395.005919637598
71.14639 426.983011473086
71.1665 430
71.18661 398.996290504911
71.20673 416.023203517833
71.22684 416.998317137858
71.24695 418.015291095011
71.26707 415.966487109509
71.28718 445.999828977729
71.3073 425
71.32741 458.009765758395
71.34752 445.980427128916
71.36764 422.908470496984
71.38775 380.977818208471
71.40786 429.937252022147
71.42798 418.023587488283
71.44809 405.005788822572
71.4682 404
71.48832 444.015527683957
71.50843 433.998746565242
71.52855 438.932292288467
71.54866 397.00225809824
71.56877 435.965628121963
71.58889 422.007840483768
71.609 416
71.62911 403.019200647896
71.64923 469.036723592076
71.66934 441.959219608902
71.68946 449.999283598532
71.70957 433.011733624603
71.72968 443.987089373804
71.7498 453
71.76991 472.003561684734
71.79002 464.991397930913
71.81014 465.012855105562
71.83025 467.027725970156
71.85037 441.050430063147
71.87048 418.000673057488
71.89059 438.984894785125
71.91071 461.004076111833
71.93082 450.972948971229
71.95093 429.006790620542
71.97105 462.105053460222
71.99116 475.070673555836
72.01127 421.034796636343
72.03139 444.980878167567
72.0515 455
72.07162 428.024586638217
72.09173 471.971430139426
72.11184 406.97690589563
72.13196 462.924040212164
72.15207 442.054239724051
72.17218 432.982883018769
72.1923 460
72.21241 459.989158943399
72.23253 436.995209990158
72.25264 455.039451679498
72.27275 451.084406239346
72.29287 417.992548741472
72.31298 442.013237592384
72.33309 411.984868215614
72.35321 482.005664589308
72.37332 426.968930374164
72.39344 453.053290308278
72.41355 448.974697933562
72.43366 445.019932060959
72.45378 428.012558341318
72.47389 420.007222420216
72.494 416
72.51412 470.025487417118
72.53423 447.938123521969
72.55434 418.974588037006
72.57446 423.959189872003
72.59457 443.991479349456
72.61469 433.008061752259
72.6348 418
72.65491 399.996349532539
72.67503 417.06761374271
72.69514 459.00634272129
72.71525 433.024845353439
72.73537 449.985429044163
72.75548 435.022861057943
72.7756 428
72.79571 437.983713359525
72.81582 388.997741371251
72.83594 439.089729282279
72.85605 434.107022291945
72.87616 406.938539123919
72.89628 457.012042035543
72.91639 401.000090056548
72.9365 469
72.95662 447.946736697212
72.97673 416.009791063688
72.99685 452.098431090869
73.01696 455.095087176233
73.03707 399.011205964505
73.05719 440.982415541209
73.0773 441
73.09741 438.995168981135
73.11753 426.002613761277
73.13764 431.963752277388
73.15776 401.00731044717
73.17787 428.963994263699
73.19798 444.960969586878
73.2181 490
73.23821 446.979842515508
73.25832 452.046155957891
73.27844 507.069743236157
73.29855 521.942763013518
73.31867 549.002225682554
73.33878 529.992875600978
73.35889 579.967328390572
73.37901 620.000043077771
73.39912 604.005911752047
73.41923 637.040749484373
73.43935 634.944408941956
73.45946 602.084611815641
73.47957 559.052415651619
73.49969 535.008999250084
73.5198 532
73.53992 553.969354070211
73.56003 485.938033749414
73.58014 497.052261770724
73.60026 528.870757497273
73.62037 593.99336922757
73.64048 535.063844521556
73.6606 503
73.68071 494.012143330217
73.70083 521.970368189912
73.72094 466.947512594294
73.74105 486.949512293774
73.76117 473.054746639939
73.78128 433.035230995789
73.80139 408.008322003499
73.82151 415.024040113116
73.84162 456.970570049131
73.86174 381.941781358923
73.88185 419.082994514804
73.90196 413.022411374736
73.92208 421.97960082284
73.94219 419.026255568713
73.9623 367
73.98242 444.024564990494
74.00253 394.938837762951
74.02264 413.092742650233
74.04276 442.009232070087
74.06287 420.011050946224
74.08299 428.003930814918
74.1031 411
74.12321 445.005353866823
74.14333 422.971408669244
74.16344 419.982094540035
74.18355 400.033934040816
74.20367 407.958713924983
74.22378 425.021992490603
74.2439 390
74.26401 431.006050387493
74.28412 414.016195977372
74.30424 446.941862349664
74.32435 378.017719434064
74.34446 439.926602846404
74.36458 414.031752064457
74.38469 408.002583017113
74.40481 399.003828065752
74.42492 415.998461813125
74.44503 402.011053074682
74.46515 427.012597558481
74.48526 405.037023769408
74.50537 403.999313514494
74.52549 391.012541940829
74.5456 392
74.56571 475.009680830561
74.58583 425.939676190524
74.60594 421.967213795562
74.62606 393.979098104494
74.64617 430.997553444325
74.66628 394.016650134044
74.6864 415
74.70651 416.007053505195
74.72662 431.977284363402
74.74674 386.980154497123
74.76685 424.896890243935
74.78697 433.026836510428
74.80708 404.0321593481
74.82719 387.993904683589
74.84731 410.000598968517
74.86742 385.976952638773
74.88753 381.006759871099
74.90765 396.087442295376
74.92776 436.955249260419
74.94787 429.039552574937
74.96799 408.0016803299
74.9881 418
75.00822 411.987581711752
