3.00117 19570
3.02128 19353
3.0414 18577
3.06151 18170
3.08162 17707
3.10174 17303
3.12185 17025
3.14197 16070
3.16208 16075
3.18219 15342
3.20231 14584
3.22242 14600
3.24253 14059
3.26265 13852
3.28276 13051
3.30288 12812
3.32299 12547
3.3431 11967
3.36322 11677
3.38333 11398
3.40344 11222
3.42356 10528
3.44367 10261
3.46379 9977
3.4839 9464
3.50401 9303
3.52413 8979
3.54424 8602
3.56435 8304
3.58447 7767
3.60458 7503
3.62469 7446
3.64481 7188
3.66492 6902
3.68504 6549
3.70515 6335
3.72526 6176
3.74538 5779
3.76549 5775
3.7856 5318
3.80572 5133
3.82583 4952
3.84595 4762
3.86606 4611
3.88617 4384
3.90629 4082
3.9264 3958
3.94651 3698
3.96663 3795
3.98674 3455
4.00686 3381
4.02697 3246
4.04708 2874
4.0672 2969
4.08731 2688
4.10742 2642
4.12754 2544
4.14765 2381
4.16776 2270
4.18788 2184
4.20799 2161
4.22811 2081
4.24822 1888
4.26833 1813
4.28845 1713
4.30856 1771
4.32867 1769
4.34879 1561
4.3689 1508
4.38902 1462
4.40913 1496
4.42924 1437
4.44936 1242
4.46947 1395
4.48958 1330
4.5097 1284
4.52981 1290
4.54992 1203
4.57004 1230
4.59015 1136
4.61027 1168
4.63038 1187
4.65049 997
4.67061 999
4.69072 1049
4.71083 939
4.73095 1003
4.75106 922
4.77118 869
4.79129 835
4.8114 841
4.83152 874
4.85163 764
4.87174 760
4.89186 774
4.91197 793
4.93209 753
4.9522 733
4.97231 712
4.99243 687
5.01254 640
5.03265 685
5.05277 610
5.07288 577
5.09299 602
5.11311 616
5.13322 548
5.15334 578
5.17345 573
5.19356 542
5.21368 502
5.23379 532
5.2539 509
5.27402 479
5.29413 466
5.31425 486
5.33436 430
5.35447 446
5.37459 436
5.3947 409
5.41481 444
5.43493 394
5.45504 398
5.47516 382
5.49527 345
5.51538 393
5.5355 348
5.55561 283
5.57572 321
5.59584 328
5.61595 370
5.63606 329
5.65618 318
5.67629 316
5.69641 272
5.71652 332
5.73663 294
5.75675 277
5.77686 262
5.79697 256
5.81709 252
5.8372 246
5.85732 252
5.87743 266
5.89754 266
5.91766 249
5.93777 269
5.95788 252
5.978 246
5.99811 219
6.01823 231
6.03834 238
6.05845 249
6.07857 210
6.09868 236
6.11879 225
6.13891 214
6.15902 208
6.17913 228
6.19925 209
6.21936 240
6.23948 208
6.25959 224
6.2797 203
6.29982 223
6.31993 185
6.34004 201
6.36016 211
6.38027 200
6.40039 207
6.4205 216
6.44061 204
6.46073 188
6.48084 174
6.50095 204
6.52107 180
6.54118 163
6.56129 177
6.58141 175
6.60152 173
6.62164 173
6.64175 186
6.66186 171
6.68198 168
6.70209 220
6.7222 184
6.74232 173
6.76243 182
6.78255 192
6.80266 202
6.82277 170
6.84289 184
6.863 198
6.88311 194
6.90323 143
6.92334 161
6.94346 192
6.96357 160
6.98368 187
7.0038 205
7.02391 189
7.04402 199
7.06414 181
7.08425 161
7.10436 169
7.12448 168
7.14459 191
7.16471 167
7.18482 194
7.20493 182
7.22505 197
7.24516 198
7.26527 194
7.28539 185
7.3055 188
7.32562 204
7.34573 180
7.36584 208
7.38596 197
7.40607 189
7.42618 212
7.4463 168
7.46641 169
7.48653 194
7.50664 181
7.52675 180
7.54687 192
7.56698 193
7.58709 217
7.60721 212
7.62732 210
7.64743 170
7.66755 205
7.68766 187
7.70778 170
7.72789 185
7.748 204
7.76812 192
7.78823 194
7.80834 180
7.82846 193
7.84857 204
7.86869 190
7.8888 178
7.90891 176
7.92903 188
7.94914 226
7.96925 191
7.98937 243
8.00948 183
8.0296 228
8.04971 213
8.06982 217
8.08994 214
8.11005 180
8.13016 199
8.15028 215
8.17039 211
8.1905 225
8.21062 175
8.23073 214
8.25085 208
8.27096 195
8.29107 235
8.31119 215
8.3313 229
8.35141 220
8.37153 227
8.39164 205
8.41176 233
8.43187 201
8.45198 214
8.4721 215
8.49221 206
8.51232 235
8.53244 211
8.55255 247
8.57266 226
8.59278 246
8.61289 251
8.63301 230
8.65312 222
8.67323 230
8.69335 250
8.71346 231
8.73357 225
8.75369 246
8.7738 280
8.79392 234
8.81403 261
8.83414 236
8.85426 290
8.87437 287
8.89448 249
8.9146 253
8.93471 240
8.95483 254
8.97494 236
8.99505 226
9.01517 217
9.03528 217
9.05539 218
9.07551 221
9.09562 219
9.11573 237
9.13585 225
9.15596 213
9.17608 239
9.19619 213
9.2163 244
9.23642 228
9.25653 224
9.27664 224
9.29676 217
9.31687 230
9.33699 237
9.3571 235
9.37721 212
9.39733 251
9.41744 223
9.43755 220
9.45767 249
9.47778 242
9.4979 214
9.51801 233
9.53812 264
9.55824 225
9.57835 236
9.59846 220
9.61858 229
9.63869 226
9.6588 228
9.67892 205
9.69903 212
9.71915 233
9.73926 222
9.75937 194
9.77949 236
9.7996 237
9.81971 237
9.83983 235
9.85994 167
9.88006 220
9.90017 228
9.92028 225
9.9404 227
9.96051 196
9.98062 219
10.00074 216
10.02085 229
10.04097 227
10.06108 219
10.08119 207
10.10131 212
10.12142 205
10.14153 233
10.16165 224
10.18176 228
10.20187 230
10.22199 213
10.2421 206
10.26222 204
10.28233 192
10.30244 231
10.32256 207
10.34267 226
10.36278 245
10.3829 243
10.40301 198
10.42313 224
10.44324 200
10.46335 239
10.48347 226
10.50358 233
10.52369 226
10.54381 248
10.56392 202
10.58403 242
10.60415 221
10.62426 229
10.64438 222
10.66449 239
10.6846 219
10.70472 234
10.72483 236
10.74494 203
10.76506 190
10.78517 229
10.80529 217
10.8254 216
10.84551 208
10.86563 202
10.88574 217
10.90585 216
10.92597 198
10.94608 232
10.9662 221
10.98631 215
11.00642 228
11.02654 226
11.04665 234
11.06676 226
11.08688 198
11.10699 199
11.1271 230
11.14722 230
11.16733 252
11.18745 214
11.20756 213
11.22767 233
11.24779 194
11.2679 220
11.28801 253
11.30813 234
11.32824 206
11.34836 200
11.36847 207
11.38858 212
11.4087 204
11.42881 236
11.44892 231
11.46904 185
11.48915 186
11.50927 205
11.52938 230
11.54949 236
11.56961 213
11.58972 234
11.60983 195
11.62995 247
11.65006 228
11.67017 205
11.69029 226
11.7104 218
11.73052 227
11.75063 256
11.77074 209
11.79086 212
11.81097 216
11.83108 214
11.8512 241
11.87131 234
11.89143 261
11.91154 235
11.93165 219
11.95177 221
11.97188 237
11.99199 241
12.01211 229
12.03222 217
12.05234 242
12.07245 225
12.09256 251
12.11268 216
12.13279 257
12.1529 250
12.17302 258
12.19313 224
12.21324 266
12.23336 252
12.25347 232
12.27359 216
12.2937 266
12.31381 233
12.33393 251
12.35404 235
12.37415 248
12.39427 248
12.41438 231
12.4345 251
12.45461 210
12.47472 248
12.49484 237
12.51495 238
12.53506 225
12.55518 211
12.57529 247
12.5954 188
12.61552 196
12.63563 233
12.65575 222
12.67586 248
12.69597 224
12.71609 240
12.7362 203
12.75631 219
12.77643 201
12.79654 197
12.81666 204
12.83677 211
12.85688 216
12.877 204
12.89711 200
12.91722 222
12.93734 192
12.95745 224
12.97757 205
12.99768 186
13.01779 232
13.03791 209
13.05802 223
13.07813 192
13.09825 206
13.11836 193
13.13847 187
13.15859 213
13.1787 195
13.19882 200
13.21893 222
13.23904 201
13.25916 195
13.27927 167
13.29938 206
13.3195 203
13.33961 249
13.35973 204
13.37984 207
13.39995 234
13.42007 188
13.44018 202
13.46029 182
13.48041 202
13.50052 186
13.52064 199
13.54075 220
13.56086 225
13.58098 193
13.60109 215
13.6212 216
13.64132 228
13.66143 212
13.68154 211
13.70166 233
13.72177 193
13.74189 185
13.762 182
13.78211 195
13.80223 177
13.82234 211
13.84245 189
13.86257 208
13.88268 181
13.9028 183
13.92291 199
13.94302 164
13.96314 175
13.98325 176
14.00336 195
14.02348 197
14.04359 191
14.06371 173
14.08382 201
14.10393 196
14.12405 197
14.14416 164
14.16427 175
14.18439 163
14.2045 193
14.22461 175
14.24473 216
14.26484 174
14.28496 187
14.30507 193
14.32518 171
14.3453 168
14.36541 183
14.38552 191
14.40564 189
14.42575 164
14.44587 200
14.46598 190
14.48609 186
14.50621 178
14.52632 161
14.54643 183
14.56655 182
14.58666 189
14.60677 172
14.62689 190
14.647 196
14.66712 170
14.68723 167
14.70734 183
14.72746 170
14.74757 185
14.76768 163
14.7878 192
14.80791 177
14.82803 192
14.84814 155
14.86825 160
14.88837 169
14.90848 177
14.92859 166
14.94871 157
14.96882 147
14.98894 197
15.00905 179
15.02916 176
15.04928 172
15.06939 166
15.0895 181
15.10962 165
15.12973 181
15.14984 172
15.16996 182
15.19007 168
15.21019 151
15.2303 172
15.25041 168
15.27053 166
15.29064 192
15.31075 189
15.33087 172
15.35098 186
15.3711 181
15.39121 162
15.41132 175
15.43144 173
15.45155 173
15.47166 168
15.49178 173
15.51189 195
15.53201 167
15.55212 186
15.57223 183
15.59235 186
15.61246 167
15.63257 187
15.65269 162
15.6728 179
15.69291 165
15.71303 173
15.73314 147
15.75326 157
15.77337 169
15.79348 150
15.8136 163
15.83371 184
15.85382 174
15.87394 188
15.89405 176
15.91417 162
15.93428 167
15.95439 173
15.97451 173
15.99462 173
16.01473 143
16.03485 169
16.05496 169
16.07508 160
16.09519 171
16.1153 195
16.13542 169
16.15553 192
16.17564 155
16.19576 171
16.21587 149
16.23598 169
16.2561 192
16.27621 181
16.29633 167
16.31644 177
16.33655 182
16.35667 154
16.37678 185
16.39689 170
16.41701 166
16.43712 158
16.45724 154
16.47735 188
16.49746 159
16.51758 146
16.53769 159
16.5578 157
16.57792 176
16.59803 173
16.61814 185
16.63826 173
16.65837 180
16.67849 170
16.6986 147
16.71871 170
16.73883 137
16.75894 165
16.77905 161
16.79917 179
16.81928 163
16.8394 158
16.85951 147
16.87962 162
16.89974 169
16.91985 145
16.93996 163
16.96008 161
16.98019 178
17.00031 183
17.02042 165
17.04053 160
17.06065 176
17.08076 160
17.10087 171
17.12099 194
17.1411 178
17.16121 167
17.18133 164
17.20144 157
17.22156 191
17.24167 178
17.26178 145
17.2819 180
17.30201 156
17.32212 169
17.34224 169
17.36235 162
17.38247 164
17.40258 167
17.42269 174
17.44281 174
17.46292 162
17.48303 182
17.50315 170
17.52326 162
17.54338 154
17.56349 175
17.5836 178
17.60372 177
17.62383 173
17.64394 187
17.66406 192
17.68417 163
17.70428 188
17.7244 170
17.74451 174
17.76463 209
17.78474 184
17.80485 180
17.82497 180
17.84508 167
17.86519 175
17.88531 157
17.90542 155
17.92554 172
17.94565 127
17.96576 182
17.98588 132
18.00599 190
18.0261 149
18.04622 163
18.06633 151
18.08645 148
18.10656 183
18.12667 175
18.14679 161
18.1669 174
18.18701 164
18.20713 164
18.22724 165
18.24735 168
18.26747 157
18.28758 135
18.3077 154
18.32781 157
18.34792 162
18.36804 160
18.38815 171
18.40826 177
18.42838 173
18.44849 152
18.46861 166
18.48872 145
18.50883 144
18.52895 150
18.54906 154
18.56917 180
18.58929 168
18.6094 146
18.62951 149
18.64963 164
18.66974 180
18.68986 136
18.70997 162
18.73008 170
18.7502 153
18.77031 151
18.79042 175
18.81054 151
18.83065 194
18.85077 173
18.87088 155
18.89099 161
18.91111 175
18.93122 168
18.95133 134
18.97145 164
18.99156 162
19.01168 160
19.03179 160
19.0519 164
19.07202 139
19.09213 168
19.11224 168
19.13236 192
19.15247 183
19.17258 143
19.1927 175
19.21281 148
19.23293 166
19.25304 172
19.27315 175
19.29327 155
19.31338 184
19.33349 156
19.35361 156
19.37372 189
19.39384 195
19.41395 161
19.43406 146
19.45418 178
19.47429 154
19.4944 177
19.51452 173
19.53463 186
19.55475 191
19.57486 203
19.59497 190
19.61509 201
19.6352 211
19.65531 217
19.67543 216
19.69554 259
19.71565 221
19.73577 248
19.75588 258
19.776 263
19.79611 293
19.81622 310
19.83634 347
19.85645 278
19.87656 303
19.89668 269
19.91679 278
19.93691 242
19.95702 227
19.97713 225
19.99725 218
20.01736 237
20.03747 215
20.05759 237
20.0777 228
20.09782 229
20.11793 248
20.13804 235
20.15816 245
20.17827 250
20.19838 276
20.2185 289
20.23861 227
20.25872 270
20.27884 261
20.29895 280
20.31907 265
20.33918 278
20.35929 295
20.37941 284
20.39952 311
20.41963 309
20.43975 333
20.45986 330
20.47998 348
20.50009 398
20.5202 384
20.54032 438
20.56043 484
20.58054 483
20.60066 565
20.62077 682
20.64088 839
20.661 1042
20.68111 1393
20.70123 1799
20.72134 2311
20.74145 2963
20.76157 3760
20.78168 4594
20.80179 5485
20.82191 6220
20.84202 6572
20.86214 6518
20.88225 5778
20.90236 4818
20.92248 3370
20.94259 2348
20.9627 1597
20.98282 1051
21.00293 769
21.02305 616
21.04316 580
21.06327 500
21.08339 491
21.1035 408
21.12361 380
21.14373 357
21.16384 360
21.18395 297
21.20407 319
21.22418 284
21.2443 277
21.26441 253
21.28452 270
21.30464 250
21.32475 238
21.34486 260
21.36498 211
21.38509 268
21.40521 224
21.42532 234
21.44543 227
21.46555 255
21.48566 264
21.50577 218
21.52589 247
21.546 238
21.56612 262
21.58623 235
21.60634 225
21.62646 237
21.64657 209
21.66668 194
21.6868 235
21.70691 212
21.72702 223
21.74714 215
21.76725 203
21.78737 180
21.80748 219
21.82759 186
21.84771 197
21.86782 220
21.88793 246
21.90805 241
21.92816 175
21.94828 217
21.96839 203
21.9885 226
22.00862 234
22.02873 240
22.04884 207
22.06896 198
22.08907 228
22.10919 199
22.1293 229
22.14941 195
22.16953 200
22.18964 214
22.20975 236
22.22987 233
22.24998 244
22.27009 243
22.29021 222
22.31032 223
22.33044 239
22.35055 187
22.37066 240
22.39078 187
22.41089 197
22.431 207
22.45112 240
22.47123 202
22.49135 199
22.51146 248
22.53157 197
22.55169 215
22.5718 218
22.59191 225
22.61203 211
22.63214 219
22.65225 241
22.67237 215
22.69248 201
22.7126 245
22.73271 201
22.75282 206
22.77294 200
22.79305 221
22.81316 222
22.83328 265
22.85339 240
22.87351 241
22.89362 253
22.91373 242
22.93385 222
22.95396 233
22.97407 221
22.99419 211
23.0143 236
23.03442 211
23.05453 238
23.07464 230
23.09476 199
23.11487 245
23.13498 267
23.1551 256
23.17521 285
23.19532 237
23.21544 228
23.23555 261
23.25567 228
23.27578 218
23.29589 231
23.31601 179
23.33612 202
23.35623 188
23.37635 185
23.39646 198
23.41658 186
23.43669 198
23.4568 207
23.47692 206
23.49703 188
23.51714 173
23.53726 201
23.55737 208
23.57749 201
23.5976 197
23.61771 263
23.63783 200
23.65794 188
23.67805 216
23.69817 228
23.71828 220
23.73839 242
23.75851 257
23.77862 237
23.79874 245
23.81885 266
23.83896 247
23.85908 215
23.87919 255
23.8993 286
23.91942 275
23.93953 309
23.95965 324
23.97976 312
23.99987 314
24.01999 321
24.0401 284
24.06021 245
24.08033 224
24.10044 223
24.12056 256
24.14067 242
24.16078 214
24.1809 190
24.20101 242
24.22112 229
24.24124 208
24.26135 219
24.28146 234
24.30158 225
24.32169 215
24.34181 214
24.36192 219
24.38203 211
24.40215 207
24.42226 205
24.44237 206
24.46249 191
24.4826 236
24.50272 193
24.52283 215
24.54294 216
24.56306 212
24.58317 216
24.60328 205
24.6234 228
24.64351 218
24.66362 226
24.68374 248
24.70385 245
24.72397 243
24.74408 216
24.76419 233
24.78431 250
24.80442 240
24.82453 221
24.84465 228
24.86476 229
24.88488 241
24.90499 248
24.9251 225
24.94522 201
24.96533 225
24.98544 231
25.00556 214
25.02567 214
25.04579 215
25.0659 239
25.08601 217
25.10613 219
25.12624 238
25.14635 215
25.16647 233
25.18658 220
25.20669 233
25.22681 243
25.24692 239
25.26704 234
25.28715 247
25.30726 243
25.32738 241
25.34749 265
25.3676 276
25.38772 269
25.40783 257
25.42795 299
25.44806 325
25.46817 363
25.48829 344
25.5084 370
25.52851 331
25.54863 350
25.56874 327
25.58886 326
25.60897 358
25.62908 333
25.6492 390
25.66931 423
25.68942 407
25.70954 394
25.72965 419
25.74976 351
25.76988 419
25.78999 404
25.81011 402
25.83022 426
25.85033 448
25.87045 441
25.89056 408
25.91067 404
25.93079 409
25.9509 451
25.97102 417
25.99113 463
26.01124 481
26.03136 516
26.05147 557
26.07158 523
26.0917 571
26.11181 632
26.13193 625
26.15204 721
26.17215 722
26.19227 833
26.21238 843
26.23249 1000
26.25261 1097
26.27272 1113
26.29283 1393
26.31295 1545
26.33306 1825
26.35318 2122
26.37329 2636
26.3934 3316
26.41352 4279
26.43363 5237
26.45374 7002
26.47386 8931
26.49397 11382
26.51409 14389
26.5342 18061
26.55431 21746
26.57443 25235
26.59454 28403
26.61465 29877
26.63477 29699
26.65488 26663
26.67499 21783
26.69511 16705
26.71522 12328
26.73534 8662
26.75545 5576
26.77556 3304
26.79568 2278
26.81579 1834
26.8359 1489
26.85602 1230
26.87613 1110
26.89625 1028
26.91636 978
26.93647 891
26.95659 852
26.9767 753
26.99681 720
27.01693 668
27.03704 627
27.05716 572
27.07727 568
27.09738 545
27.1175 571
27.13761 493
27.15772 471
27.17784 461
27.19795 431
27.21806 417
27.23818 511
27.25829 466
27.27841 486
27.29852 476
27.31863 462
27.33875 541
27.35886 580
27.37897 577
27.39909 589
27.4192 585
27.43932 588
27.45943 560
27.47954 570
27.49966 496
27.51977 456
27.53988 458
27.56 408
27.58011 375
27.60023 372
27.62034 364
27.64045 324
27.66057 338
27.68068 383
27.70079 328
27.72091 336
27.74102 328
27.76113 327
27.78125 343
27.80136 357
27.82148 336
27.84159 331
27.8617 295
27.88182 315
27.90193 325
27.92204 315
27.94216 269
27.96227 301
27.98239 308
28.0025 279
28.02261 309
28.04273 295
28.06284 242
28.08295 279
28.10307 258
28.12318 280
28.1433 260
28.16341 265
28.18352 273
28.20364 250
28.22375 236
28.24386 225
28.26398 240
28.28409 244
28.3042 254
28.32432 251
28.34443 232
28.36455 249
28.38466 241
28.40477 249
28.42489 263
28.445 223
28.46511 231
28.48523 245
28.50534 262
28.52546 254
28.54557 233
28.56568 247
28.5858 246
28.60591 245
28.62602 221
28.64614 258
28.66625 216
28.68636 230
28.70648 222
28.72659 222
28.74671 213
28.76682 209
28.78693 196
28.80705 224
28.82716 221
28.84727 226
28.86739 200
28.8875 203
28.90762 216
28.92773 222
28.94784 208
28.96796 213
28.98807 233
29.00818 194
29.0283 215
29.04841 228
29.06853 204
29.08864 228
29.10875 203
29.12887 219
29.14898 203
29.16909 208
29.18921 192
29.20932 201
29.22943 201
29.24955 192
29.26966 199
29.28978 231
29.30989 223
29.33 240
29.35012 258
29.37023 238
29.39034 255
29.41046 251
29.43057 261
29.45069 247
29.4708 253
29.49091 235
29.51103 235
29.53114 205
29.55125 203
29.57137 229
29.59148 235
29.6116 208
29.63171 254
29.65182 214
29.67194 237
29.69205 241
29.71216 225
29.73228 240
29.75239 253
29.7725 229
29.79262 255
29.81273 257
29.83285 222
29.85296 248
29.87307 254
29.89319 242
29.9133 220
29.93341 239
29.95353 235
29.97364 223
29.99376 220
30.01387 201
30.03398 253
30.0541 238
30.07421 232
30.09432 238
30.11444 292
30.13455 249
30.15467 262
30.17478 277
30.19489 266
30.21501 251
30.23512 272
30.25523 244
30.27535 238
30.29546 232
30.31557 220
30.33569 217
30.3558 200
30.37592 198
30.39603 200
30.41614 217
30.43626 210
30.45637 197
30.47648 211
30.4966 188
30.51671 205
30.53683 202
30.55694 192
30.57705 198
30.59717 180
30.61728 196
30.63739 230
30.65751 217
30.67762 234
30.69773 214
30.71785 229
30.73796 244
30.75808 225
30.77819 233
30.7983 226
30.81842 231
30.83853 232
30.85864 252
30.87876 211
30.89887 209
30.91899 232
30.9391 202
30.95921 184
30.97933 191
30.99944 198
31.01955 194
31.03967 179
31.05978 184
31.0799 174
31.10001 193
31.12012 207
31.14024 219
31.16035 201
31.18046 191
31.20058 205
31.22069 184
31.2408 207
31.26092 176
31.28103 185
31.30115 203
31.32126 191
31.34137 172
31.36149 180
31.3816 185
31.40171 159
31.42183 173
31.44194 165
31.46206 178
31.48217 151
31.50228 168
31.5224 175
31.54251 198
31.56262 196
31.58274 171
31.60285 179
31.62297 153
31.64308 191
31.66319 160
31.68331 134
31.70342 172
31.72353 198
31.74365 176
31.76376 194
31.78387 175
31.80399 178
31.8241 202
31.84422 171
31.86433 174
31.88444 184
31.90456 200
31.92467 165
31.94478 184
31.9649 185
31.98501 200
32.00513 197
32.02524 179
32.04535 192
32.06547 195
32.08558 191
32.10569 174
32.12581 204
32.14592 201
32.16604 200
32.18615 155
32.20626 175
32.22638 168
32.24649 165
32.2666 171
32.28672 203
32.30683 168
32.32694 191
32.34706 191
32.36717 180
32.38729 196
32.4074 193
32.42751 182
32.44763 209
32.46774 197
32.48785 178
32.50797 186
32.52808 196
32.5482 178
32.56831 188
32.58842 177
32.60854 220
32.62865 167
32.64876 153
32.66888 167
32.68899 169
32.7091 184
32.72922 184
32.74933 191
32.76945 191
32.78956 152
32.80967 144
32.82979 158
32.8499 186
32.87001 155
32.89013 168
32.91024 151
32.93036 172
32.95047 162
32.97058 160
32.9907 165
33.01081 158
33.03092 142
33.05104 188
33.07115 172
33.09127 160
33.11138 150
33.13149 178
33.15161 165
33.17172 157
33.19183 162
33.21195 145
33.23206 173
33.25217 149
33.27229 160
33.2924 166
33.31252 141
33.33263 154
33.35274 155
33.37286 163
33.39297 145
33.41308 137
33.4332 159
33.45331 140
33.47343 165
33.49354 151
33.51365 127
33.53377 161
33.55388 162
33.57399 162
33.59411 146
33.61422 151
33.63434 133
33.65445 153
33.67456 165
33.69468 153
33.71479 156
33.7349 156
33.75502 141
33.77513 168
33.79524 145
33.81536 142
33.83547 143
33.85559 171
33.8757 151
33.89581 167
33.91593 157
33.93604 152
33.95615 152
33.97627 172
33.99638 143
34.0165 206
34.03661 168
34.05672 165
34.07684 169
34.09695 171
34.11706 164
34.13718 160
34.15729 194
34.17741 189
34.19752 213
34.21763 207
34.23775 197
34.25786 200
34.27797 172
34.29809 180
34.3182 193
34.33831 180
34.35843 190
34.37854 174
34.39866 167
34.41877 191
34.43888 176
34.459 207
34.47911 207
34.49922 186
34.51934 194
34.53945 202
34.55957 201
34.57968 222
34.59979 219
34.61991 224
34.64002 201
34.66013 192
34.68025 213
34.70036 214
34.72047 231
34.74059 218
34.7607 230
34.78082 233
34.80093 253
34.82104 219
34.84116 265
34.86127 265
34.88138 262
34.9015 244
34.92161 272
34.94173 214
34.96184 198
34.98195 260
35.00207 235
35.02218 218
35.04229 209
35.06241 231
35.08252 214
35.10264 201
35.12275 198
35.14286 191
35.16298 204
35.18309 201
35.2032 219
35.22332 213
35.24343 214
35.26354 191
35.28366 206
35.30377 211
35.32389 216
35.344 217
35.36411 201
35.38423 170
35.40434 181
35.42445 210
35.44457 227
35.46468 203
35.4848 200
35.50491 197
35.52502 239
35.54514 206
35.56525 208
35.58536 205
35.60548 222
35.62559 202
35.64571 195
35.66582 208
35.68593 171
35.70605 216
35.72616 232
35.74627 202
35.76639 208
35.7865 203
35.80661 214
35.82673 206
35.84684 192
35.86696 179
35.88707 198
35.90718 182
35.9273 187
35.94741 217
35.96752 186
35.98764 206
36.00775 205
36.02787 219
36.04798 235
36.06809 208
36.08821 220
36.10832 238
36.12843 252
36.14855 269
36.16866 267
36.18878 260
36.20889 295
36.229 352
36.24912 369
36.26923 427
36.28934 468
36.30946 505
36.32957 695
36.34968 732
36.3698 910
36.38991 1036
36.41003 1236
36.43014 1450
36.45025 1645
36.47037 1770
36.49048 1986
36.51059 2145
36.53071 2106
36.55082 1927
36.57094 1629
36.59105 1291
36.61116 1163
36.63128 1028
36.65139 850
36.6715 564
36.69162 434
36.71173 333
36.73184 290
36.75196 268
36.77207 222
36.79219 249
36.8123 242
36.83241 214
36.85253 223
36.87264 198
36.89275 214
36.91287 204
36.93298 194
36.9531 204
36.97321 198
36.99332 199
37.01344 189
37.03355 192
37.05366 199
37.07378 190
37.09389 192
37.11401 181
37.13412 189
37.15423 178
37.17435 167
37.19446 155
37.21457 162
37.23469 178
37.2548 167
37.27491 176
37.29503 165
37.31514 172
37.33526 200
37.35537 173
37.37548 156
37.3956 192
37.41571 188
37.43582 219
37.45594 173
37.47605 185
37.49617 177
37.51628 181
37.53639 188
37.55651 165
37.57662 184
37.59673 192
37.61685 205
37.63696 188
37.65708 181
37.67719 173
37.6973 197
37.71742 161
37.73753 173
37.75764 192
37.77776 188
37.79787 162
37.81798 169
37.8381 150
37.85821 181
37.87833 161
37.89844 163
37.91855 157
37.93867 169
37.95878 158
37.97889 160
37.99901 161
38.01912 174
38.03924 170
38.05935 182
38.07946 182
38.09958 191
38.11969 175
38.1398 153
38.15992 179
38.18003 174
38.20015 181
38.22026 178
38.24037 156
38.26049 151
38.2806 176
38.30071 194
38.32083 180
38.34094 188
38.36105 194
38.38117 184
38.40128 157
38.4214 165
38.44151 159
38.46162 184
38.48174 186
38.50185 212
38.52196 186
38.54208 169
38.56219 179
38.58231 183
38.60242 180
38.62253 172
38.64265 196
38.66276 187
38.68287 192
38.70299 195
38.7231 172
38.74321 163
38.76333 184
38.78344 182
38.80356 194
38.82367 181
38.84378 175
38.8639 194
38.88401 176
38.90412 183
38.92424 186
38.94435 193
38.96447 190
38.98458 207
39.00469 201
39.02481 216
39.04492 218
39.06503 261
39.08515 246
39.10526 266
39.12538 266
39.14549 332
39.1656 341
39.18572 409
39.20583 468
39.22594 503
39.24606 580
39.26617 751
39.28628 830
39.3064 1008
39.32651 1119
39.34663 1289
39.36674 1539
39.38685 1716
39.40697 1864
39.42708 1940
39.44719 1937
39.46731 1765
39.48742 1557
39.50754 1362
39.52765 1153
39.54776 1009
39.56788 828
39.58799 729
39.6081 548
39.62822 414
39.64833 305
39.66845 288
39.68856 272
39.70867 230
39.72879 224
39.7489 200
39.76901 206
39.78913 195
39.80924 230
39.82935 195
39.84947 227
39.86958 200
39.8897 219
39.90981 219
39.92992 224
39.95004 265
39.97015 271
39.99026 265
40.01038 315
40.03049 317
40.05061 372
40.07072 372
40.09083 449
40.11095 499
40.13106 599
40.15117 644
40.17129 694
40.1914 833
40.21152 857
40.23163 1016
40.25174 1012
40.27186 996
40.29197 933
40.31208 858
40.3322 727
40.35231 590
40.37242 559
40.39254 446
40.41265 430
40.43277 361
40.45288 255
40.47299 239
40.49311 210
40.51322 206
40.53333 194
40.55345 170
40.57356 166
40.59368 182
40.61379 182
40.6339 181
40.65402 164
40.67413 152
40.69424 193
40.71436 163
40.73447 150
40.75458 179
40.7747 178
40.79481 162
40.81493 173
40.83504 169
40.85515 175
40.87527 189
40.89538 201
40.91549 180
40.93561 182
40.95572 170
40.97584 180
40.99595 151
41.01606 165
41.03618 181
41.05629 172
41.0764 150
41.09652 159
41.11663 173
41.13675 155
41.15686 166
41.17697 143
41.19709 158
41.2172 149
41.23731 162
41.25743 154
41.27754 184
41.29765 161
41.31777 170
41.33788 166
41.358 161
41.37811 160
41.39822 152
41.41834 183
41.43845 172
41.45856 166
41.47868 154
41.49879 173
41.51891 172
41.53902 171
41.55913 211
41.57925 176
41.59936 175
41.61947 179
41.63959 217
41.6597 181
41.67982 201
41.69993 182
41.72004 200
41.74016 208
41.76027 220
41.78038 208
41.8005 265
41.82061 229
41.84072 224
41.86084 227
41.88095 192
41.90107 186
41.92118 218
41.94129 213
41.96141 212
41.98152 214
42.00163 199
42.02175 235
42.04186 233
42.06198 216
42.08209 265
42.1022 270
42.12232 306
42.14243 286
42.16254 333
42.18266 364
42.20277 403
42.22289 485
42.243 524
42.26311 634
42.28323 704
42.30334 856
42.32345 992
42.34357 1079
42.36368 1187
42.38379 1305
42.40391 1324
42.42402 1390
42.44414 1333
42.46425 1221
42.48436 1033
42.50448 893
42.52459 788
42.5447 668
42.56482 613
42.58493 487
42.60505 369
42.62516 315
42.64527 256
42.66539 217
42.6855 222
42.70561 208
42.72573 203
42.74584 203
42.76595 184
42.78607 182
42.80618 186
42.8263 197
42.84641 179
42.86652 159
42.88664 134
42.90675 151
42.92686 166
42.94698 175
42.96709 183
42.98721 163
43.00732 151
43.02743 178
43.04755 154
43.06766 160
43.08777 160
43.10789 158
43.128 160
43.14812 159
43.16823 159
43.18834 141
43.20846 166
43.22857 157
43.24868 141
43.2688 157
43.28891 140
43.30902 159
43.32914 159
43.34925 181
43.36937 150
43.38948 133
43.40959 159
43.42971 170
43.44982 163
43.46993 160
43.49005 141
43.51016 164
43.53028 157
43.55039 164
43.5705 151
43.59062 147
43.61073 153
43.63084 138
43.65096 150
43.67107 162
43.69119 149
43.7113 160
43.73141 159
43.75153 159
43.77164 156
43.79175 154
43.81187 159
43.83198 152
43.85209 171
43.87221 158
43.89232 158
43.91244 160
43.93255 135
43.95266 150
43.97278 150
43.99289 161
44.013 145
44.03312 135
44.05323 152
44.07335 147
44.09346 154
44.11357 155
44.13369 157
44.1538 160
44.17391 155
44.19403 170
44.21414 139
44.23426 140
44.25437 152
44.27448 154
44.2946 148
44.31471 155
44.33482 156
44.35494 143
44.37505 130
44.39516 136
44.41528 154
44.43539 169
44.45551 154
44.47562 153
44.49573 146
44.51585 154
44.53596 147
44.55607 150
44.57619 173
44.5963 140
44.61642 180
44.63653 149
44.65664 150
44.67676 161
44.69687 149
44.71698 143
44.7371 174
44.75721 141
44.77732 158
44.79744 126
44.81755 154
44.83767 134
44.85778 138
44.87789 159
44.89801 176
44.91812 167
44.93823 176
44.95835 159
44.97846 155
44.99858 143
45.01869 166
45.0388 139
45.05892 147
45.07903 160
45.09914 165
45.11926 152
45.13937 169
45.15949 188
45.1796 158
45.19971 175
45.21983 184
45.23994 164
45.26005 176
45.28017 185
45.30028 214
45.32039 193
45.34051 202
45.36062 201
45.38074 208
45.40085 215
45.42096 222
45.44108 255
45.46119 235
45.4813 258
45.50142 280
45.52153 295
45.54165 337
45.56176 389
45.58187 405
45.60199 480
45.6221 547
45.64221 589
45.66233 689
45.68244 786
45.70256 843
45.72267 894
45.74278 994
45.7629 949
45.78301 921
45.80312 850
45.82324 744
45.84335 643
45.86346 554
45.88358 509
45.90369 506
45.92381 400
45.94392 365
45.96403 248
45.98415 223
46.00426 189
46.02437 186
46.04449 189
46.0646 186
46.08472 166
46.10483 187
46.12494 172
46.14506 172
46.16517 165
46.18528 145
46.2054 139
46.22551 168
46.24563 143
46.26574 156
46.28585 144
46.30597 159
46.32608 148
46.34619 135
46.36631 147
46.38642 152
46.40653 160
46.42665 139
46.44676 149
46.46688 156
46.48699 125
46.5071 147
46.52722 137
46.54733 138
46.56744 167
46.58756 159
46.60767 142
46.62779 144
46.6479 141
46.66801 154
46.68813 134
46.70824 159
46.72835 138
46.74847 143
46.76858 156
46.78869 145
46.80881 140
46.82892 137
46.84904 132
46.86915 139
46.88926 118
46.90938 152
46.92949 137
46.9496 135
46.96972 139
46.98983 147
47.00995 143
47.03006 127
47.05017 139
47.07029 149
47.0904 143
47.11051 149
47.13063 148
47.15074 170
47.17086 166
47.19097 152
47.21108 127
47.2312 166
47.25131 157
47.27142 136
47.29154 151
47.31165 151
47.33176 162
47.35188 136
47.37199 142
47.39211 137
47.41222 153
47.43233 124
47.45245 158
47.47256 139
47.49267 165
47.51279 134
47.5329 131
47.55302 153
47.57313 121
47.59324 139
47.61336 134
47.63347 142
47.65358 125
47.6737 147
47.69381 146
47.71393 131
47.73404 123
47.75415 129
47.77427 132
47.79438 127
47.81449 125
47.83461 148
47.85472 130
47.87483 108
47.89495 121
47.91506 134
47.93518 159
47.95529 135
47.9754 141
47.99552 143
48.01563 126
48.03574 156
48.05586 147
48.07597 135
48.09609 133
48.1162 135
48.13631 137
48.15643 131
48.17654 155
48.19665 161
48.21677 152
48.23688 128
48.257 134
48.27711 136
48.29722 139
48.31734 172
48.33745 147
48.35756 143
48.37768 149
48.39779 157
48.4179 172
48.43802 143
48.45813 161
48.47825 158
48.49836 132
48.51847 173
48.53859 151
48.5587 149
48.57881 160
48.59893 141
48.61904 150
48.63916 147
48.65927 166
48.67938 157
48.6995 144
48.71961 185
48.73972 176
48.75984 160
48.77995 186
48.80006 149
48.82018 149
48.84029 180
48.86041 151
48.88052 174
48.90063 136
48.92075 150
48.94086 139
48.96097 175
48.98109 154
49.0012 150
49.02132 152
49.04143 165
49.06154 156
49.08166 159
49.10177 169
49.12188 166
49.142 168
49.16211 154
49.18223 132
49.20234 146
49.22245 181
49.24257 146
49.26268 155
49.28279 132
49.30291 169
49.32302 172
49.34313 166
49.36325 168
49.38336 146
49.40348 148
49.42359 189
49.4437 182
49.46382 168
49.48393 197
49.50404 218
49.52416 194
49.54427 209
49.56439 198
49.5845 210
49.60461 237
49.62473 259
49.64484 280
49.66495 270
49.68507 292
49.70518 296
49.7253 327
49.74541 367
49.76552 433
49.78564 455
49.80575 467
49.82586 597
49.84598 598
49.86609 726
49.8862 888
49.90632 938
49.92643 1129
49.94655 1311
49.96666 1572
49.98677 1807
50.00689 2083
50.027 2380
50.04711 2638
50.06723 2926
50.08734 2962
50.10746 3074
50.12757 2860
50.14768 2676
50.1678 2229
50.18791 1944
50.20802 1740
50.22814 1534
50.24825 1491
50.26837 1205
50.28848 1049
50.30859 763
50.32871 586
50.34882 438
50.36893 360
50.38905 362
50.40916 277
50.42927 280
50.44939 285
50.4695 302
50.48962 301
50.50973 283
50.52984 300
50.54996 277
50.57007 284
50.59018 264
50.6103 250
50.63041 266
50.65053 273
50.67064 233
50.69075 213
50.71087 217
50.73098 216
50.75109 192
50.77121 172
50.79132 206
50.81143 180
50.83155 162
50.85166 199
50.87178 175
50.89189 186
50.912 153
50.93212 161
50.95223 177
50.97234 157
50.99246 135
51.01257 170
51.03269 153
51.0528 146
51.07291 151
51.09303 161
51.11314 162
51.13325 132
51.15337 133
51.17348 158
51.1936 142
51.21371 161
51.23382 164
51.25394 134
51.27405 162
51.29416 128
51.31428 135
51.33439 150
51.3545 147
51.37462 128
51.39473 145
51.41485 138
51.43496 157
51.45507 142
51.47519 129
51.4953 120
51.51541 151
51.53553 129
51.55564 127
51.57576 156
51.59587 158
51.61598 152
51.6361 133
51.65621 131
51.67632 137
51.69644 153
51.71655 147
51.73667 135
51.75678 146
51.77689 154
51.79701 149
51.81712 117
51.83723 130
51.85735 123
51.87746 127
51.89757 128
51.91769 119
51.9378 143
51.95792 130
51.97803 134
51.99814 162
52.01826 122
52.03837 126
52.05848 127
52.0786 120
52.09871 128
52.11883 113
52.13894 146
52.15905 133
52.17917 141
52.19928 122
52.21939 146
52.23951 134
52.25962 122
52.27974 121
52.29985 110
52.31996 138
52.34008 130
52.36019 140
52.3803 129
52.40042 147
52.42053 135
52.44064 162
52.46076 133
52.48087 121
52.50099 135
52.5211 121
52.54121 129
52.56133 152
52.58144 122
52.60155 143
52.62167 136
52.64178 138
52.6619 134
52.68201 157
52.70212 131
52.72224 137
52.74235 139
52.76246 152
52.78258 131
52.80269 147
52.8228 153
52.84292 142
52.86303 148
52.88315 142
52.90326 137
52.92337 136
52.94349 139
52.9636 148
52.98371 130
53.00383 146
53.02394 142
53.04406 134
53.06417 136
53.08428 141
53.1044 125
53.12451 127
53.14462 133
53.16474 125
53.18485 133
53.20497 144
53.22508 139
53.24519 148
53.26531 145
53.28542 146
53.30553 152
53.32565 148
53.34576 168
53.36587 140
53.38599 138
53.4061 143
53.42622 142
53.44633 141
53.46644 168
53.48656 133
53.50667 137
53.52678 137
53.5469 142
53.56701 147
53.58713 134
53.60724 136
53.62735 156
53.64747 142
53.66758 150
53.68769 143
53.70781 143
53.72792 159
53.74804 145
53.76815 140
53.78826 160
53.80838 147
53.82849 133
53.8486 155
53.86872 140
53.88883 122
53.90894 149
53.92906 174
53.94917 144
53.96929 161
53.9894 158
54.00951 155
54.02963 162
54.04974 172
54.06985 141
54.08997 148
54.11008 158
54.1302 155
54.15031 154
54.17042 150
54.19054 170
54.21065 157
54.23076 177
54.25088 163
54.27099 176
54.29111 198
54.31122 169
54.33133 181
54.35145 186
54.37156 205
54.39167 200
54.41179 193
54.4319 201
54.45201 213
54.47213 254
54.49224 230
54.51236 236
54.53247 213
54.55258 258
54.5727 260
54.59281 317
54.61292 357
54.63304 414
54.65315 429
54.67327 472
54.69338 547
54.71349 624
54.73361 699
54.75372 784
54.77383 833
54.79395 946
54.81406 979
54.83417 1026
54.85429 963
54.8744 892
54.89452 781
54.91463 685
54.93474 566
54.95486 612
54.97497 613
54.99508 556
55.0152 516
55.03531 473
55.05543 388
55.07554 391
55.09565 358
55.11577 293
55.13588 350
55.15599 366
55.17611 415
55.19622 429
55.21634 445
55.23645 454
55.25656 496
55.27668 491
55.29679 522
55.3169 508
55.33702 466
55.35713 423
55.37724 391
55.39736 352
55.41747 325
55.43759 305
55.4577 333
55.47781 277
55.49793 241
55.51804 239
55.53815 209
55.55827 176
55.57838 184
55.5985 175
55.61861 190
55.63872 181
55.65884 168
55.67895 174
55.69906 158
55.71918 139
55.73929 153
55.75941 172
55.77952 155
55.79963 179
55.81975 175
55.83986 174
55.85997 194
55.88009 165
55.9002 160
55.92031 164
55.94043 162
55.96054 153
55.98066 152
56.00077 136
56.02088 142
56.041 148
56.06111 154
56.08122 143
56.10134 152
56.12145 158
56.14157 150
56.16168 125
56.18179 140
56.20191 135
56.22202 133
56.24213 143
56.26225 149
56.28236 135
56.30248 133
56.32259 136
56.3427 141
56.36282 128
56.38293 134
56.40304 120
56.42316 133
56.44327 148
56.46338 148
56.4835 151
56.50361 119
56.52373 134
56.54384 130
56.56395 128
56.58407 120
56.60418 132
56.62429 134
56.64441 123
56.66452 141
56.68464 119
56.70475 155
56.72486 148
56.74498 154
56.76509 114
56.7852 154
56.80532 158
56.82543 135
56.84554 131
56.86566 124
56.88577 141
56.90589 162
56.926 120
56.94611 136
56.96623 155
56.98634 154
57.00645 170
57.02657 147
57.04668 153
57.0668 154
57.08691 172
57.10702 190
57.12714 183
57.14725 171
57.16736 168
57.18748 157
57.20759 180
57.22771 157
57.24782 137
57.26793 157
57.28805 178
57.30816 160
57.32827 155
57.34839 164
57.3685 156
57.38861 146
57.40873 134
57.42884 143
57.44896 147
57.46907 144
57.48918 151
57.5093 132
57.52941 131
57.54952 115
57.56964 142
57.58975 142
57.60987 130
57.62998 142
57.65009 138
57.67021 127
57.69032 123
57.71043 123
57.73055 147
57.75066 126
57.77078 126
57.79089 147
57.811 136
57.83112 132
57.85123 134
57.87134 126
57.89146 137
57.91157 147
57.93168 126
57.9518 122
57.97191 145
57.99203 156
58.01214 123
58.03225 124
58.05237 138
58.07248 118
58.09259 137
58.11271 141
58.13282 136
58.15294 153
58.17305 132
58.19316 146
58.21328 135
58.23339 130
58.2535 140
58.27362 137
58.29373 125
58.31385 133
58.33396 166
58.35407 131
58.37419 129
58.3943 132
58.41441 133
58.43453 123
58.45464 140
58.47475 110
58.49487 139
58.51498 154
58.5351 160
58.55521 140
58.57532 116
58.59544 144
58.61555 145
58.63566 135
58.65578 151
58.67589 150
58.69601 153
58.71612 139
58.73623 118
58.75635 137
58.77646 139
58.79657 130
58.81669 149
58.8368 149
58.85691 122
58.87703 145
58.89714 154
58.91726 116
58.93737 149
58.95748 144
58.9776 133
58.99771 142
59.01782 136
59.03794 132
59.05805 132
59.07817 156
59.09828 141
59.11839 126
59.13851 152
59.15862 143
59.17873 163
59.19885 150
59.21896 159
59.23908 153
59.25919 165
59.2793 162
59.29942 177
59.31953 189
59.33964 181
59.35976 189
59.37987 199
59.39998 202
59.4201 189
59.44021 217
59.46033 247
59.48044 259
59.50055 255
59.52067 260
59.54078 294
59.56089 349
59.58101 340
59.60112 369
59.62124 421
59.64135 449
59.66146 499
59.68158 609
59.70169 637
59.7218 730
59.74192 848
59.76203 956
59.78215 1145
59.80226 1319
59.82237 1493
59.84249 1681
59.8626 1792
59.88271 1875
59.90283 1964
59.92294 1950
59.94305 1862
59.96317 1648
59.98328 1388
60.0034 1276
60.02351 1137
60.04362 1066
60.06374 1041
60.08385 993
60.10396 902
60.12408 737
60.14419 599
60.16431 444
60.18442 348
60.20453 273
60.22465 259
60.24476 223
60.26487 206
60.28499 200
60.3051 192
60.32522 180
60.34533 172
60.36544 181
60.38556 174
60.40567 165
60.42578 162
60.4459 161
60.46601 182
60.48612 152
60.50624 139
60.52635 150
60.54647 162
60.56658 158
60.58669 138
60.60681 164
60.62692 138
60.64703 140
60.66715 135
60.68726 161
60.70738 146
60.72749 148
60.7476 166
60.76772 138
60.78783 151
60.80794 141
60.82806 159
60.84817 129
60.86828 162
60.8884 159
60.90851 144
60.92863 142
60.94874 150
60.96885 150
60.98897 146
61.00908 138
61.02919 170
61.04931 137
61.06942 148
61.08954 154
61.10965 156
61.12976 177
61.14988 178
61.16999 147
61.1901 149
61.21022 130
61.23033 157
61.25045 123
61.27056 153
61.29067 151
61.31079 138
61.3309 168
61.35101 147
61.37113 159
61.39124 159
61.41135 137
61.43147 177
61.45158 169
61.4717 163
61.49181 157
61.51192 153
61.53204 147
61.55215 168
61.57226 148
61.59238 149
61.61249 153
61.63261 173
61.65272 163
61.67283 176
61.69295 194
61.71306 163
61.73317 155
61.75329 156
61.7734 165
61.79352 142
61.81363 150
61.83374 140
61.85386 156
61.87397 141
61.89408 150
61.9142 151
61.93431 158
61.95442 146
61.97454 151
61.99465 149
62.01477 129
62.03488 149
62.05499 157
62.07511 149
62.09522 139
62.11533 138
62.13545 129
62.15556 141
62.17568 151
62.19579 164
62.2159 127
62.23602 139
62.25613 152
62.27624 138
62.29636 134
62.31647 155
62.33659 141
62.3567 161
62.37681 157
62.39693 149
62.41704 154
62.43715 108
62.45727 171
62.47738 148
62.49749 168
62.51761 140
62.53772 136
62.55784 144
62.57795 142
62.59806 123
62.61818 161
62.63829 148
62.6584 134
62.67852 116
62.69863 126
62.71875 130
62.73886 152
62.75897 124
62.77909 140
62.7992 151
62.81931 119
62.83943 115
62.85954 143
62.87965 142
62.89977 132
62.91988 117
62.94 144
62.96011 154
62.98022 141
63.00034 135
63.02045 153
63.04056 137
63.06068 149
63.08079 155
63.10091 160
63.12102 149
63.14113 135
63.16125 142
63.18136 144
63.20147 147
63.22159 145
63.2417 144
63.26182 127
63.28193 146
63.30204 137
63.32216 153
63.34227 141
63.36238 130
63.3825 129
63.40261 142
63.42272 139
63.44284 146
63.46295 134
63.48307 132
63.50318 176
63.52329 179
63.54341 140
63.56352 168
63.58363 164
63.60375 150
63.62386 181
63.64398 176
63.66409 181
63.6842 205
63.70432 200
63.72443 197
63.74454 205
63.76466 212
63.78477 253
63.80489 268
63.825 292
63.84511 338
63.86523 336
63.88534 395
63.90545 408
63.92557 455
63.94568 440
63.96579 472
63.98591 452
64.00602 468
64.02614 455
64.04625 421
64.06636 367
64.08648 309
64.10659 325
64.1267 294
64.14682 314
64.16693 300
64.18705 265
64.20716 266
64.22727 223
64.24739 210
64.2675 175
64.28761 170
64.30773 145
64.32784 139
64.34796 122
64.36807 126
64.38818 126
64.4083 128
64.42841 134
64.44852 131
64.46864 142
64.48875 130
64.50886 132
64.52898 121
64.54909 137
64.56921 126
64.58932 129
64.60943 103
64.62955 115
64.64966 143
64.66977 136
64.68989 117
64.71 132
64.73012 119
64.75023 125
64.77034 140
64.79046 145
64.81057 113
64.83068 124
64.8508 137
64.87091 123
64.89102 116
64.91114 146
64.93125 128
64.95137 139
64.97148 129
64.99159 136
65.01171 133
65.03182 120
65.05193 149
65.07205 131
65.09216 126
65.11228 119
65.13239 146
65.1525 132
65.17262 140
65.19273 143
65.21284 142
65.23296 157
65.25307 146
65.27319 141
65.2933 155
65.31341 140
65.33353 135
65.35364 138
65.37375 155
65.39387 160
65.41398 138
65.43409 172
65.45421 149
65.47432 147
65.49444 162
65.51455 173
65.53466 155
65.55478 169
65.57489 178
65.595 203
65.61512 194
65.63523 183
65.65535 179
65.67546 213
65.69557 233
65.71569 234
65.7358 231
65.75591 195
65.77603 197
65.79614 192
65.81626 170
65.83637 194
65.85648 172
65.8766 160
65.89671 177
65.91682 156
65.93694 169
65.95705 169
65.97716 154
65.99728 153
66.01739 132
66.03751 146
66.05762 136
66.07773 134
66.09785 131
66.11796 166
66.13807 138
66.15819 130
66.1783 133
66.19842 137
66.21853 136
66.23864 164
66.25876 135
66.27887 115
66.29898 141
66.3191 139
66.33921 126
66.35933 146
66.37944 153
66.39955 137
66.41967 135
66.43978 153
66.45989 145
66.48001 127
66.50012 156
66.52023 147
66.54035 142
66.56046 128
66.58058 140
66.60069 152
66.6208 133
66.64092 161
66.66103 124
66.68114 135
66.70126 145
66.72137 136
66.74149 143
66.7616 147
66.78171 157
66.80183 150
66.82194 150
66.84205 138
66.86217 133
66.88228 139
66.90239 135
66.92251 159
66.94262 140
66.96274 146
66.98285 158
67.00296 162
67.02308 144
67.04319 159
67.0633 189
67.08342 167
67.10353 174
67.12365 195
67.14376 168
67.16387 178
67.18399 187
67.2041 190
67.22421 214
67.24433 205
67.26444 186
67.28456 219
67.30467 266
67.32478 239
67.3449 275
67.36501 270
67.38512 306
67.40524 344
67.42535 378
67.44546 414
67.46558 457
67.48569 459
67.50581 549
67.52592 622
67.54603 719
67.56615 814
67.58626 889
67.60637 951
67.62649 1070
67.6466 1154
67.66672 1261
67.68683 1306
67.70694 1273
67.72706 1282
67.74717 1119
67.76728 1023
67.7874 968
67.80751 957
67.82763 991
67.84774 970
67.86785 1013
67.88797 1047
67.90808 1120
67.92819 1150
67.94831 1104
67.96842 1194
67.98853 1324
68.00865 1401
68.02876 1414
68.04888 1650
68.06899 1757
68.0891 1702
68.10922 1733
68.12933 1778
68.14944 1672
68.16956 1601
68.18967 1513
68.20979 1452
68.2299 1510
68.25001 1521
68.27013 1474
68.29024 1356
68.31035 1365
68.33047 1121
68.35058 1006
68.3707 865
68.39081 734
68.41092 682
68.43104 588
68.45115 590
68.47126 512
68.49138 438
68.51149 402
68.5316 360
68.55172 279
68.57183 245
68.59195 234
68.61206 206
68.63217 217
68.65229 203
68.6724 151
68.69251 176
68.71263 165
68.73274 181
68.75286 182
68.77297 167
68.79308 160
68.8132 176
68.83331 150
68.85342 172
68.87354 153
68.89365 156
68.91376 136
68.93388 148
68.95399 155
68.97411 162
68.99422 133
69.01433 153
69.03445 145
69.05456 132
69.07467 159
69.09479 143
69.1149 149
69.13502 142
69.15513 143
69.17524 144
69.19536 124
69.21547 130
69.23558 132
69.2557 141
69.27581 135
69.29593 132
69.31604 128
69.33615 135
69.35627 145
69.37638 131
69.39649 145
69.41661 145
69.43672 122
69.45683 111
69.47695 151
69.49706 145
69.51718 142
69.53729 155
69.5574 131
69.57752 141
69.59763 163
69.61774 120
69.63786 142
69.65797 125
69.67809 119
69.6982 129
69.71831 149
69.73843 154
69.75854 149
69.77865 131
69.79877 134
69.81888 125
69.839 143
69.85911 139
69.87922 140
69.89934 110
69.91945 134
69.93956 126
69.95968 148
69.97979 134
69.9999 151
70.02002 113
70.04013 126
70.06025 115
70.08036 140
70.10047 130
70.12059 127
70.1407 128
70.16081 134
70.18093 119
70.20104 136
70.22116 146
70.24127 125
70.26138 119
70.2815 126
70.30161 134
70.32172 118
70.34184 127
70.36195 148
70.38207 129
70.40218 117
70.42229 141
70.44241 110
70.46252 117
70.48263 122
70.50275 106
70.52286 134
70.54297 122
70.56309 130
70.5832 142
70.60332 98
70.62343 145
70.64354 139
70.66366 118
70.68377 109
70.70388 113
70.724 126
70.74411 144
70.76423 137
70.78434 118
70.80445 134
70.82457 119
70.84468 126
70.86479 135
70.88491 125
70.90502 117
70.92513 147
70.94525 117
70.96536 112
70.98548 132
71.00559 114
71.0257 123
71.04582 117
71.06593 130
71.08604 119
71.10616 110
71.12627 130
71.14639 124
71.1665 114
71.18661 128
71.20673 141
71.22684 145
71.24695 120
71.26707 145
71.28718 115
71.3073 106
71.32741 145
71.34752 123
71.36764 104
71.38775 121
71.40786 139
71.42798 123
71.44809 146
71.4682 140
71.48832 123
71.50843 118
71.52855 138
71.54866 133
71.56877 142
71.58889 118
71.609 124
71.62911 122
71.64923 134
71.66934 150
71.68946 142
71.70957 133
71.72968 126
71.7498 138
71.76991 150
71.79002 111
71.81014 109
71.83025 138
71.85037 108
71.87048 130
71.89059 116
71.91071 130
71.93082 133
71.95093 127
71.97105 136
71.99116 138
72.01127 103
72.03139 126
72.0515 147
72.07162 114
72.09173 133
72.11184 122
72.13196 119
72.15207 127
72.17218 141
72.1923 113
72.21241 124
72.23253 125
72.25264 125
72.27275 122
72.29287 155
72.31298 135
72.33309 121
72.35321 128
72.37332 140
72.39344 119
72.41355 141
72.43366 136
72.45378 128
72.47389 122
72.494 147
72.51412 130
72.53423 141
72.55434 116
72.57446 139
72.59457 121
72.61469 130
72.6348 126
72.65491 124
72.67503 146
72.69514 135
72.71525 144
72.73537 149
72.75548 160
72.7756 147
72.79571 158
72.81582 143
72.83594 156
72.85605 159
72.87616 119
72.89628 135
72.91639 147
72.9365 143
72.95662 165
72.97673 149
72.99685 164
73.01696 155
73.03707 178
73.05719 163
73.0773 190
73.09741 165
73.11753 214
73.13764 211
73.15776 234
73.17787 228
73.19798 232
73.2181 272
73.23821 302
73.25832 334
73.27844 326
73.29855 420
73.31867 403
73.33878 434
73.35889 458
73.37901 502
73.39912 492
73.41923 505
73.43935 476
73.45946 487
73.47957 420
73.49969 379
73.5198 330
73.53992 312
73.56003 320
73.58014 301
73.60026 330
73.62037 318
73.64048 332
73.6606 309
73.68071 276
73.70083 251
73.72094 228
73.74105 182
73.76117 157
73.78128 166
73.80139 133
73.82151 142
73.84162 135
73.86174 144
73.88185 129
73.90196 146
73.92208 139
73.94219 137
73.9623 138
73.98242 126
74.00253 134
74.02264 123
74.04276 135
74.06287 150
74.08299 114
74.1031 128
74.12321 109
74.14333 122
74.16344 110
74.18355 136
74.20367 151
74.22378 128
74.2439 143
74.26401 134
74.28412 137
74.30424 122
74.32435 123
74.34446 127
74.36458 122
74.38469 121
74.40481 129
74.42492 123
74.44503 126
74.46515 109
74.48526 144
74.50537 131
74.52549 133
74.5456 115
74.56571 123
74.58583 146
74.60594 131
74.62606 137
74.64617 161
74.66628 123
74.6864 151
74.70651 133
74.72662 128
74.74674 124
74.76685 122
74.78697 109
74.80708 126
74.82719 144
74.84731 133
74.86742 137
74.88753 142
74.90765 158
74.92776 129
74.94787 128
74.96799 145
74.9881 130
75.00822 117
