3.00117 20981
3.02128 20207
3.0414 19895
3.06151 19035
3.08162 18183
3.10174 18285
3.12185 17317
3.14197 16859
3.16208 16494
3.18219 15967
3.20231 15518
3.22242 15199
3.24253 14540
3.26265 14341
3.28276 13704
3.30288 13365
3.32299 12850
3.3431 12776
3.36322 12084
3.38333 11736
3.40344 11288
3.42356 11108
3.44367 10772
3.46379 10419
3.4839 9651
3.50401 9685
3.52413 9162
3.54424 8951
3.56435 8590
3.58447 8146
3.60458 7995
3.62469 7727
3.64481 7310
3.66492 7100
3.68504 6624
3.70515 6793
3.72526 6232
3.74538 6122
3.76549 5874
3.7856 5456
3.80572 5543
3.82583 5273
3.84595 4905
3.86606 4797
3.88617 4592
3.90629 4486
3.9264 4079
3.94651 4157
3.96663 3862
3.98674 3628
4.00686 3634
4.02697 3390
4.04708 3159
4.0672 3177
4.08731 2955
4.10742 2892
4.12754 2807
4.14765 2568
4.16776 2515
4.18788 2444
4.20799 2335
4.22811 2323
4.24822 2162
4.26833 2006
4.28845 1940
4.30856 2017
4.32867 1960
4.34879 1841
4.3689 1739
4.38902 1676
4.40913 1804
4.42924 1742
4.44936 1554
4.46947 1596
4.48958 1600
4.5097 1526
4.52981 1529
4.54992 1416
4.57004 1421
4.59015 1373
4.61027 1383
4.63038 1351
4.65049 1317
4.67061 1272
4.69072 1275
4.71083 1277
4.73095 1188
4.75106 1110
4.77118 1170
4.79129 1118
4.8114 1081
4.83152 1179
4.85163 1024
4.87174 1113
4.89186 1013
4.91197 957
4.93209 996
4.9522 907
4.97231 935
4.99243 888
5.01254 923
5.03265 954
5.05277 884
5.07288 818
5.09299 791
5.11311 870
5.13322 797
5.15334 716
5.17345 775
5.19356 797
5.21368 751
5.23379 748
5.2539 662
5.27402 718
5.29413 663
5.31425 692
5.33436 685
5.35447 650
5.37459 693
5.3947 689
5.41481 652
5.43493 636
5.45504 595
5.47516 621
5.49527 640
5.51538 574
5.5355 550
5.55561 583
5.57572 546
5.59584 558
5.61595 574
5.63606 574
5.65618 583
5.67629 540
5.69641 506
5.71652 457
5.73663 472
5.75675 527
5.77686 511
5.79697 474
5.81709 544
5.8372 476
5.85732 472
5.87743 526
5.89754 457
5.91766 455
5.93777 489
5.95788 462
5.978 498
5.99811 450
6.01823 449
6.03834 456
6.05845 494
6.07857 466
6.09868 443
6.11879 445
6.13891 434
6.15902 438
6.17913 444
6.19925 429
6.21936 475
6.23948 484
6.25959 450
6.2797 430
6.29982 449
6.31993 406
6.34004 436
6.36016 440
6.38027 469
6.40039 440
6.4205 361
6.44061 389
6.46073 429
6.48084 422
6.50095 471
6.52107 431
6.54118 450
6.56129 399
6.58141 417
6.60152 401
6.62164 409
6.64175 444
6.66186 396
6.68198 414
6.70209 399
6.7222 444
6.74232 407
6.76243 428
6.78255 414
6.80266 408
6.82277 423
6.84289 429
6.863 441
6.88311 398
6.90323 420
6.92334 421
6.94346 400
6.96357 423
6.98368 393
7.0038 437
7.02391 443
7.04402 426
7.06414 400
7.08425 400
7.10436 434
7.12448 405
7.14459 404
7.16471 414
7.18482 384
7.20493 393
7.22505 375
7.24516 397
7.26527 367
7.28539 374
7.3055 407
7.32562 422
7.34573 379
7.36584 424
7.38596 368
7.40607 397
7.42618 393
7.4463 413
7.46641 408
7.48653 392
7.50664 398
7.52675 411
7.54687 417
7.56698 396
7.58709 405
7.60721 401
7.62732 388
7.64743 379
7.66755 441
7.68766 387
7.70778 396
7.72789 441
7.748 396
7.76812 383
7.78823 416
7.80834 426
7.82846 403
7.84857 409
7.86869 398
7.8888 398
7.90891 412
7.92903 375
7.94914 395
7.96925 440
7.98937 381
8.00948 406
8.0296 397
8.04971 384
8.06982 440
8.08994 400
8.11005 410
8.13016 398
8.15028 358
8.17039 355
8.1905 394
8.21062 430
8.23073 417
8.25085 395
8.27096 370
8.29107 439
8.31119 427
8.3313 411
8.35141 392
8.37153 425
8.39164 383
8.41176 426
8.43187 417
8.45198 419
8.4721 383
8.49221 410
8.51232 423
8.53244 401
8.55255 465
8.57266 403
8.59278 424
8.61289 424
8.63301 388
8.65312 412
8.67323 443
8.69335 412
8.71346 397
8.73357 418
8.75369 423
8.7738 498
8.79392 415
8.81403 419
8.83414 421
8.85426 460
8.87437 445
8.89448 479
8.9146 439
8.93471 459
8.95483 424
8.97494 391
8.99505 430
9.01517 401
9.03528 448
9.05539 430
9.07551 395
9.09562 415
9.11573 412
9.13585 387
9.15596 421
9.17608 438
9.19619 412
9.2163 409
9.23642 413
9.25653 400
9.27664 370
9.29676 404
9.31687 411
9.33699 366
9.3571 363
9.37721 399
9.39733 407
9.41744 390
9.43755 399
9.45767 397
9.47778 390
9.4979 398
9.51801 415
9.53812 417
9.55824 407
9.57835 416
9.59846 458
9.61858 428
9.63869 398
9.6588 410
9.67892 412
9.69903 435
9.71915 427
9.73926 410
9.75937 397
9.77949 425
9.7996 385
9.81971 357
9.83983 405
9.85994 422
9.88006 407
9.90017 394
9.92028 410
9.9404 384
9.96051 395
9.98062 386
10.00074 420
10.02085 423
10.04097 414
10.06108 381
10.08119 388
10.10131 405
10.12142 445
10.14153 372
10.16165 427
10.18176 424
10.20187 386
10.22199 393
10.2421 411
10.26222 383
10.28233 405
10.30244 414
10.32256 403
10.34267 425
10.36278 383
10.3829 415
10.40301 407
10.42313 393
10.44324 408
10.46335 432
10.48347 366
10.50358 394
10.52369 373
10.54381 438
10.56392 389
10.58403 416
10.60415 434
10.62426 451
10.64438 454
10.66449 391
10.6846 429
10.70472 419
10.72483 419
10.74494 423
10.76506 414
10.78517 405
10.80529 366
10.8254 375
10.84551 438
10.86563 426
10.88574 400
10.90585 392
10.92597 407
10.94608 403
10.9662 437
10.98631 405
11.00642 415
11.02654 382
11.04665 380
11.06676 427
11.08688 375
11.10699 393
11.1271 397
11.14722 394
11.16733 439
11.18745 430
11.20756 413
11.22767 424
11.24779 406
11.2679 416
11.28801 427
11.30813 410
11.32824 406
11.34836 388
11.36847 419
11.38858 411
11.4087 400
11.42881 439
11.44892 424
11.46904 437
11.48915 391
11.50927 411
11.52938 450
11.54949 457
11.56961 481
11.58972 410
11.60983 411
11.62995 404
11.65006 426
11.67017 478
11.69029 430
11.7104 503
11.73052 461
11.75063 456
11.77074 461
11.79086 475
11.81097 502
11.83108 519
11.8512 484
11.87131 567
11.89143 552
11.91154 540
11.93165 575
11.95177 596
11.97188 627
11.99199 630
12.01211 587
12.03222 642
12.05234 681
12.07245 706
12.09256 776
12.11268 730
12.13279 829
12.1529 774
12.17302 846
12.19313 883
12.21324 902
12.23336 893
12.25347 880
12.27359 848
12.2937 907
12.31381 895
12.33393 897
12.35404 870
12.37415 872
12.39427 864
12.41438 822
12.4345 825
12.45461 772
12.47472 783
12.49484 687
12.51495 722
12.53506 681
12.55518 656
12.57529 609
12.5954 552
12.61552 600
12.63563 577
12.65575 517
12.67586 525
12.69597 534
12.71609 499
12.7362 527
12.75631 495
12.77643 485
12.79654 436
12.81666 436
12.83677 448
12.85688 461
12.877 427
12.89711 426
12.91722 438
12.93734 415
12.95745 465
12.97757 374
12.99768 410
13.01779 418
13.03791 437
13.05802 425
13.07813 408
13.09825 386
13.11836 439
13.13847 375
13.15859 397
13.1787 425
13.19882 382
13.21893 356
13.23904 378
13.25916 389
13.27927 365
13.29938 403
13.3195 415
13.33961 406
13.35973 406
13.37984 364
13.39995 390
13.42007 393
13.44018 362
13.46029 357
13.48041 375
13.50052 381
13.52064 362
13.54075 331
13.56086 379
13.58098 371
13.60109 365
13.6212 403
13.64132 373
13.66143 383
13.68154 340
13.70166 339
13.72177 377
13.74189 373
13.762 374
13.78211 418
13.80223 350
13.82234 372
13.84245 368
13.86257 338
13.88268 371
13.9028 396
13.92291 378
13.94302 353
13.96314 393
13.98325 371
14.00336 403
14.02348 378
14.04359 409
14.06371 384
14.08382 374
14.10393 393
14.12405 368
14.14416 379
14.16427 361
14.18439 374
14.2045 360
14.22461 375
14.24473 381
14.26484 382
14.28496 350
14.30507 402
14.32518 355
14.3453 420
14.36541 356
14.38552 384
14.40564 353
14.42575 394
14.44587 319
14.46598 338
14.48609 406
14.50621 364
14.52632 385
14.54643 371
14.56655 348
14.58666 358
14.60677 359
14.62689 386
14.647 363
14.66712 339
14.68723 371
14.70734 366
14.72746 388
14.74757 380
14.76768 349
14.7878 347
14.80791 374
14.82803 339
14.84814 368
14.86825 357
14.88837 372
14.90848 372
14.92859 391
14.94871 343
14.96882 368
14.98894 340
15.00905 382
15.02916 349
15.04928 388
15.06939 350
15.0895 355
15.10962 354
15.12973 375
15.14984 360
15.16996 354
15.19007 388
15.21019 374
15.2303 378
15.25041 353
15.27053 351
15.29064 357
15.31075 348
15.33087 349
15.35098 398
15.3711 323
15.39121 356
15.41132 345
15.43144 357
15.45155 386
15.47166 348
15.49178 360
15.51189 347
15.53201 399
15.55212 377
15.57223 372
15.59235 390
15.61246 391
15.63257 370
15.65269 383
15.6728 376
15.69291 390
15.71303 360
15.73314 376
15.75326 357
15.77337 322
15.79348 349
15.8136 353
15.83371 328
15.85382 377
15.87394 355
15.89405 347
15.91417 372
15.93428 361
15.95439 334
15.97451 379
15.99462 364
16.01473 359
16.03485 370
16.05496 347
16.07508 357
16.09519 376
16.1153 367
16.13542 341
16.15553 317
16.17564 364
16.19576 374
16.21587 396
16.23598 338
16.2561 362
16.27621 358
16.29633 324
16.31644 340
16.33655 339
16.35667 364
16.37678 357
16.39689 370
16.41701 368
16.43712 349
16.45724 354
16.47735 365
16.49746 365
16.51758 370
16.53769 361
16.5578 333
16.57792 358
16.59803 349
16.61814 386
16.63826 336
16.65837 358
16.67849 345
16.6986 353
16.71871 330
16.73883 359
16.75894 341
16.77905 340
16.79917 369
16.81928 332
16.8394 366
16.85951 361
16.87962 381
16.89974 353
16.91985 333
16.93996 349
16.96008 342
16.98019 377
17.00031 406
17.02042 368
17.04053 370
17.06065 370
17.08076 349
17.10087 364
17.12099 367
17.1411 339
17.16121 324
17.18133 376
17.20144 331
17.22156 340
17.24167 352
17.26178 330
17.2819 380
17.30201 357
17.32212 387
17.34224 386
17.36235 358
17.38247 352
17.40258 317
17.42269 356
17.44281 342
17.46292 329
17.48303 365
17.50315 338
17.52326 386
17.54338 382
17.56349 343
17.5836 384
17.60372 375
17.62383 388
17.64394 369
17.66406 391
17.68417 390
17.70428 385
17.7244 411
17.74451 359
17.76463 359
17.78474 378
17.80485 385
17.82497 389
17.84508 365
17.86519 395
17.88531 381
17.90542 362
17.92554 396
17.94565 387
17.96576 363
17.98588 423
18.00599 354
18.0261 353
18.04622 371
18.06633 363
18.08645 373
18.10656 401
18.12667 389
18.14679 356
18.1669 352
18.18701 378
18.20713 364
18.22724 384
18.24735 395
18.26747 385
18.28758 351
18.3077 372
18.32781 361
18.34792 369
18.36804 363
18.38815 367
18.40826 330
18.42838 328
18.44849 405
18.46861 367
18.48872 368
18.50883 388
18.52895 374
18.54906 365
18.56917 376
18.58929 376
18.6094 374
18.62951 356
18.64963 360
18.66974 352
18.68986 367
18.70997 409
18.73008 358
18.7502 338
18.77031 322
18.79042 421
18.81054 354
18.83065 365
18.85077 338
18.87088 363
18.89099 377
18.91111 368
18.93122 377
18.95133 366
18.97145 322
18.99156 340
19.01168 403
19.03179 406
19.0519 410
19.07202 335
19.09213 383
19.11224 385
19.13236 329
19.15247 350
19.17258 399
19.1927 354
19.21281 331
19.23293 362
19.25304 383
19.27315 369
19.29327 412
19.31338 402
19.33349 382
19.35361 382
19.37372 440
19.39384 353
19.41395 364
19.43406 333
19.45418 422
19.47429 410
19.4944 408
19.51452 399
19.53463 421
19.55475 405
19.57486 421
19.59497 444
19.61509 440
19.6352 456
19.65531 464
19.67543 501
19.69554 543
19.71565 595
19.73577 624
19.75588 630
19.776 727
19.79611 792
19.81622 759
19.83634 831
19.85645 840
19.87656 898
19.89668 818
19.91679 857
19.93691 773
19.95702 802
19.97713 741
19.99725 744
20.01736 740
20.03747 767
20.05759 717
20.0777 709
20.09782 705
20.11793 718
20.13804 702
20.15816 716
20.17827 710
20.19838 675
20.2185 736
20.23861 741
20.25872 678
20.27884 731
20.29895 740
20.31907 717
20.33918 784
20.35929 738
20.37941 768
20.39952 733
20.41963 776
20.43975 799
20.45986 673
20.47998 750
20.50009 805
20.5202 764
20.54032 738
20.56043 760
20.58054 832
20.60066 883
20.62077 850
20.64088 886
20.661 955
20.68111 1007
20.70123 1171
20.72134 1390
20.74145 1853
20.76157 2199
20.78168 2899
20.80179 3370
20.82191 3830
20.84202 3997
20.86214 3626
20.88225 3055
20.90236 2441
20.92248 1839
20.94259 1378
20.9627 1087
20.98282 938
21.00293 897
21.02305 860
21.04316 812
21.06327 827
21.08339 900
21.1035 836
21.12361 832
21.14373 788
21.16384 798
21.18395 783
21.20407 863
21.22418 834
21.2443 853
21.26441 824
21.28452 858
21.30464 880
21.32475 864
21.34486 913
21.36498 849
21.38509 815
21.40521 837
21.42532 824
21.44543 749
21.46555 739
21.48566 766
21.50577 695
21.52589 695
21.546 713
21.56612 697
21.58623 674
21.60634 624
21.62646 633
21.64657 618
21.66668 625
21.6868 630
21.70691 619
21.72702 664
21.74714 678
21.76725 598
21.78737 565
21.80748 615
21.82759 565
21.84771 589
21.86782 589
21.88793 570
21.90805 572
21.92816 595
21.94828 582
21.96839 536
21.9885 575
22.00862 576
22.02873 541
22.04884 554
22.06896 552
22.08907 579
22.10919 528
22.1293 563
22.14941 575
22.16953 523
22.18964 534
22.20975 525
22.22987 577
22.24998 540
22.27009 562
22.29021 550
22.31032 545
22.33044 539
22.35055 557
22.37066 548
22.39078 541
22.41089 504
22.431 501
22.45112 597
22.47123 536
22.49135 516
22.51146 509
22.53157 543
22.55169 513
22.5718 457
22.59191 457
22.61203 556
22.63214 575
22.65225 503
22.67237 508
22.69248 513
22.7126 476
22.73271 505
22.75282 506
22.77294 548
22.79305 517
22.81316 486
22.83328 510
22.85339 542
22.87351 536
22.89362 512
22.91373 530
22.93385 541
22.95396 552
22.97407 531
22.99419 511
23.0143 494
23.03442 493
23.05453 489
23.07464 489
23.09476 491
23.11487 502
23.13498 467
23.1551 454
23.17521 477
23.19532 467
23.21544 442
23.23555 480
23.25567 491
23.27578 480
23.29589 508
23.31601 487
23.33612 466
23.35623 456
23.37635 465
23.39646 496
23.41658 422
23.43669 499
23.4568 489
23.47692 470
23.49703 489
23.51714 466
23.53726 479
23.55737 459
23.57749 467
23.5976 494
23.61771 511
23.63783 473
23.65794 473
23.67805 516
23.69817 461
23.71828 548
23.73839 509
23.75851 523
23.77862 492
23.79874 513
23.81885 533
23.83896 556
23.85908 540
23.87919 507
23.8993 547
23.91942 580
23.93953 536
23.95965 494
23.97976 507
23.99987 554
24.01999 597
24.0401 524
24.06021 542
24.08033 534
24.10044 513
24.12056 542
24.14067 511
24.16078 510
24.1809 501
24.20101 504
24.22112 554
24.24124 558
24.26135 532
24.28146 556
24.30158 553
24.32169 573
24.34181 561
24.36192 576
24.38203 576
24.40215 568
24.42226 569
24.44237 536
24.46249 523
24.4826 600
24.50272 585
24.52283 572
24.54294 594
24.56306 603
24.58317 655
24.60328 653
24.6234 684
24.64351 698
24.66362 719
24.68374 743
24.70385 729
24.72397 756
24.74408 759
24.76419 825
24.78431 767
24.80442 793
24.82453 841
24.84465 859
24.86476 902
24.88488 811
24.90499 788
24.9251 818
24.94522 811
24.96533 833
24.98544 805
25.00556 753
25.02567 778
25.04579 758
25.0659 697
25.08601 644
25.10613 727
25.12624 675
25.14635 699
25.16647 714
25.18658 664
25.20669 635
25.22681 621
25.24692 602
25.26704 623
25.28715 584
25.30726 583
25.32738 575
25.34749 567
25.3676 516
25.38772 531
25.40783 541
25.42795 530
25.44806 548
25.46817 581
25.48829 508
25.5084 503
25.52851 510
25.54863 523
25.56874 485
25.58886 521
25.60897 593
25.62908 522
25.6492 579
25.66931 520
25.68942 506
25.70954 544
25.72965 580
25.74976 584
25.76988 565
25.78999 574
25.81011 571
25.83022 550
25.85033 558
25.87045 566
25.89056 579
25.91067 547
25.93079 596
25.9509 540
25.97102 561
25.99113 564
26.01124 600
26.03136 600
26.05147 609
26.07158 588
26.0917 645
26.11181 647
26.13193 607
26.15204 657
26.17215 697
26.19227 789
26.21238 779
26.23249 759
26.25261 847
26.27272 861
26.29283 916
26.31295 986
26.33306 1062
26.35318 1084
26.37329 1227
26.3934 1433
26.41352 1666
26.43363 2047
26.45374 2504
26.47386 3352
26.49397 4578
26.51409 6110
26.5342 8321
26.55431 10991
26.57443 13685
26.59454 15309
26.61465 15957
26.63477 14730
26.65488 12527
26.67499 10012
26.69511 7368
26.71522 5353
26.73534 3467
26.75545 2328
26.77556 1668
26.79568 1376
26.81579 1194
26.8359 992
26.85602 961
26.87613 905
26.89625 826
26.91636 757
26.93647 724
26.95659 692
26.9767 664
26.99681 637
27.01693 624
27.03704 625
27.05716 613
27.07727 567
27.09738 550
27.1175 558
27.13761 600
27.15772 525
27.17784 569
27.19795 538
27.21806 497
27.23818 508
27.25829 516
27.27841 505
27.29852 526
27.31863 536
27.33875 528
27.35886 498
27.37897 535
27.39909 508
27.4192 527
27.43932 492
27.45943 502
27.47954 531
27.49966 539
27.51977 525
27.53988 513
27.56 469
27.58011 493
27.60023 486
27.62034 501
27.64045 449
27.66057 487
27.68068 459
27.70079 484
27.72091 442
27.74102 548
27.76113 465
27.78125 487
27.80136 486
27.82148 479
27.84159 508
27.8617 480
27.88182 484
27.90193 438
27.92204 501
27.94216 477
27.96227 497
27.98239 476
28.0025 428
28.02261 448
28.04273 493
28.06284 424
28.08295 437
28.10307 470
28.12318 439
28.1433 422
28.16341 402
28.18352 432
28.20364 459
28.22375 421
28.24386 428
28.26398 434
28.28409 445
28.3042 419
28.32432 452
28.34443 441
28.36455 406
28.38466 396
28.40477 409
28.42489 450
28.445 446
28.46511 455
28.48523 433
28.50534 457
28.52546 430
28.54557 444
28.56568 414
28.5858 396
28.60591 414
28.62602 433
28.64614 461
28.66625 413
28.68636 448
28.70648 394
28.72659 394
28.74671 451
28.76682 381
28.78693 396
28.80705 421
28.82716 418
28.84727 431
28.86739 406
28.8875 398
28.90762 422
28.92773 433
28.94784 473
28.96796 402
28.98807 432
29.00818 456
29.0283 388
29.04841 395
29.06853 427
29.08864 427
29.10875 364
29.12887 433
29.14898 421
29.16909 419
29.18921 390
29.20932 408
29.22943 422
29.24955 394
29.26966 412
29.28978 387
29.30989 430
29.33 422
29.35012 438
29.37023 398
29.39034 396
29.41046 388
29.43057 381
29.45069 406
29.4708 439
29.49091 404
29.51103 422
29.53114 423
29.55125 491
29.57137 455
29.59148 507
29.6116 460
29.63171 461
29.65182 436
29.67194 464
29.69205 443
29.71216 419
29.73228 456
29.75239 450
29.7725 448
29.79262 367
29.81273 436
29.83285 406
29.85296 421
29.87307 427
29.89319 422
29.9133 440
29.93341 423
29.95353 383
29.97364 409
29.99376 405
30.01387 397
30.03398 383
30.0541 436
30.07421 439
30.09432 416
30.11444 406
30.13455 403
30.15467 390
30.17478 401
30.19489 442
30.21501 405
30.23512 440
30.25523 428
30.27535 440
30.29546 412
30.31557 423
30.33569 426
30.3558 375
30.37592 394
30.39603 394
30.41614 453
30.43626 412
30.45637 395
30.47648 420
30.4966 373
30.51671 392
30.53683 406
30.55694 408
30.57705 410
30.59717 411
30.61728 422
30.63739 432
30.65751 371
30.67762 357
30.69773 347
30.71785 426
30.73796 408
30.75808 403
30.77819 392
30.7983 421
30.81842 384
30.83853 399
30.85864 416
30.87876 379
30.89887 364
30.91899 395
30.9391 387
30.95921 390
30.97933 379
30.99944 391
31.01955 411
31.03967 406
31.05978 438
31.0799 382
31.10001 401
31.12012 431
31.14024 407
31.16035 417
31.18046 443
31.20058 424
31.22069 413
31.2408 423
31.26092 396
31.28103 400
31.30115 419
31.32126 435
31.34137 413
31.36149 411
31.3816 391
31.40171 415
31.42183 374
31.44194 372
31.46206 401
31.48217 410
31.50228 392
31.5224 408
31.54251 375
31.56262 421
31.58274 366
31.60285 429
31.62297 401
31.64308 419
31.66319 409
31.68331 400
31.70342 408
31.72353 395
31.74365 349
31.76376 401
31.78387 388
31.80399 411
31.8241 376
31.84422 404
31.86433 398
31.88444 411
31.90456 406
31.92467 393
31.94478 417
31.9649 408
31.98501 408
32.00513 387
32.02524 398
32.04535 390
32.06547 385
32.08558 421
32.10569 413
32.12581 416
32.14592 391
32.16604 419
32.18615 420
32.20626 427
32.22638 392
32.24649 447
32.2666 438
32.28672 444
32.30683 447
32.32694 408
32.34706 450
32.36717 419
32.38729 465
32.4074 413
32.42751 451
32.44763 440
32.46774 449
32.48785 431
32.50797 471
32.52808 449
32.5482 446
32.56831 432
32.58842 493
32.60854 440
32.62865 465
32.64876 444
32.66888 452
32.68899 412
32.7091 422
32.72922 453
32.74933 473
32.76945 453
32.78956 424
32.80967 420
32.82979 459
32.8499 459
32.87001 484
32.89013 491
32.91024 499
32.93036 414
32.95047 462
32.97058 495
32.9907 519
33.01081 491
33.03092 484
33.05104 513
33.07115 502
33.09127 548
33.11138 541
33.13149 584
33.15161 624
33.17172 644
33.19183 604
33.21195 570
33.23206 595
33.25217 630
33.27229 614
33.2924 568
33.31252 526
33.33263 581
33.35274 592
33.37286 577
33.39297 521
33.41308 432
33.4332 521
33.45331 506
33.47343 496
33.49354 511
33.51365 515
33.53377 484
33.55388 493
33.57399 495
33.59411 471
33.61422 436
33.63434 456
33.65445 444
33.67456 464
33.69468 448
33.71479 438
33.7349 452
33.75502 434
33.77513 414
33.79524 408
33.81536 428
33.83547 409
33.85559 416
33.8757 410
33.89581 371
33.91593 393
33.93604 376
33.95615 423
33.97627 399
33.99638 394
34.0165 434
34.03661 422
34.05672 406
34.07684 373
34.09695 420
34.11706 403
34.13718 394
34.15729 435
34.17741 370
34.19752 443
34.21763 428
34.23775 430
34.25786 375
34.27797 407
34.29809 398
34.3182 411
34.33831 405
34.35843 418
34.37854 411
34.39866 394
34.41877 399
34.43888 442
34.459 401
34.47911 416
34.49922 442
34.51934 449
34.53945 439
34.55957 473
34.57968 523
34.59979 493
34.61991 498
34.64002 562
34.66013 464
34.68025 594
34.70036 534
34.72047 540
34.74059 503
34.7607 544
34.78082 593
34.80093 623
34.82104 617
34.84116 700
34.86127 631
34.88138 669
34.9015 651
34.92161 726
34.94173 715
34.96184 786
34.98195 725
35.00207 693
35.02218 688
35.04229 710
35.06241 681
35.08252 656
35.10264 642
35.12275 669
35.14286 624
35.16298 623
35.18309 627
35.2032 573
35.22332 598
35.24343 596
35.26354 585
35.28366 641
35.30377 568
35.32389 592
35.344 568
35.36411 551
35.38423 620
35.40434 550
35.42445 591
35.44457 618
35.46468 610
35.4848 616
35.50491 599
35.52502 579
35.54514 656
35.56525 637
35.58536 632
35.60548 663
35.62559 726
35.64571 686
35.66582 638
35.68593 662
35.70605 649
35.72616 705
35.74627 701
35.76639 706
35.7865 666
35.80661 666
35.82673 744
35.84684 691
35.86696 695
35.88707 618
35.90718 672
35.9273 659
35.94741 620
35.96752 649
35.98764 631
36.00775 609
36.02787 585
36.04798 595
36.06809 615
36.08821 586
36.10832 596
36.12843 554
36.14855 512
36.16866 533
36.18878 531
36.20889 553
36.229 572
36.24912 588
36.26923 581
36.28934 573
36.30946 614
36.32957 671
36.34968 679
36.3698 742
36.38991 828
36.41003 941
36.43014 1055
36.45025 1189
36.47037 1368
36.49048 1509
36.51059 1487
36.53071 1389
36.55082 1222
36.57094 1179
36.59105 986
36.61116 1031
36.63128 886
36.65139 770
36.6715 646
36.69162 666
36.71173 576
36.73184 617
36.75196 595
36.77207 593
36.79219 569
36.8123 544
36.83241 578
36.85253 545
36.87264 555
36.89275 591
36.91287 592
36.93298 578
36.9531 603
36.97321 569
36.99332 570
37.01344 542
37.03355 566
37.05366 497
37.07378 507
37.09389 510
37.11401 488
37.13412 487
37.15423 474
37.17435 491
37.19446 501
37.21457 479
37.23469 484
37.2548 471
37.27491 490
37.29503 540
37.31514 465
37.33526 521
37.35537 546
37.37548 564
37.3956 536
37.41571 504
37.43582 515
37.45594 521
37.47605 501
37.49617 542
37.51628 485
37.53639 549
37.55651 512
37.57662 461
37.59673 486
37.61685 555
37.63696 507
37.65708 477
37.67719 518
37.6973 501
37.71742 480
37.73753 493
37.75764 530
37.77776 502
37.79787 503
37.81798 490
37.8381 551
37.85821 499
37.87833 504
37.89844 527
37.91855 546
37.93867 550
37.95878 523
37.97889 553
37.99901 502
38.01912 570
38.03924 559
38.05935 530
38.07946 593
38.09958 570
38.11969 576
38.1398 614
38.15992 651
38.18003 609
38.20015 612
38.22026 613
38.24037 588
38.26049 680
38.2806 661
38.30071 602
38.32083 620
38.34094 647
38.36105 625
38.38117 627
38.40128 637
38.4214 648
38.44151 633
38.46162 657
38.48174 604
38.50185 582
38.52196 633
38.54208 578
38.56219 584
38.58231 555
38.60242 547
38.62253 485
38.64265 589
38.66276 529
38.68287 533
38.70299 563
38.7231 533
38.74321 524
38.76333 525
38.78344 498
38.80356 475
38.82367 490
38.84378 491
38.8639 525
38.88401 532
38.90412 526
38.92424 574
38.94435 476
38.96447 521
38.98458 541
39.00469 550
39.02481 547
39.04492 595
39.06503 612
39.08515 536
39.10526 552
39.12538 585
39.14549 562
39.1656 598
39.18572 594
39.20583 605
39.22594 665
39.24606 628
39.26617 637
39.28628 758
39.3064 849
39.32651 890
39.34663 1012
39.36674 1044
39.38685 1201
39.40697 1340
39.42708 1382
39.44719 1248
39.46731 1198
39.48742 1074
39.50754 976
39.52765 880
39.54776 839
39.56788 688
39.58799 601
39.6081 546
39.62822 538
39.64833 512
39.66845 498
39.68856 461
39.70867 478
39.72879 463
39.7489 457
39.76901 426
39.78913 415
39.80924 474
39.82935 414
39.84947 468
39.86958 407
39.8897 446
39.90981 446
39.92992 464
39.95004 488
39.97015 498
39.99026 459
40.01038 473
40.03049 514
40.05061 473
40.07072 526
40.09083 531
40.11095 539
40.13106 575
40.15117 677
40.17129 708
40.1914 824
40.21152 847
40.23163 833
40.25174 917
40.27186 838
40.29197 801
40.31208 761
40.3322 701
40.35231 671
40.37242 602
40.39254 600
40.41265 534
40.43277 534
40.45288 515
40.47299 451
40.49311 453
40.51322 435
40.53333 426
40.55345 427
40.57356 472
40.59368 423
40.61379 449
40.6339 480
40.65402 446
40.67413 434
40.69424 459
40.71436 428
40.73447 426
40.75458 416
40.7747 422
40.79481 431
40.81493 467
40.83504 445
40.85515 456
40.87527 507
40.89538 471
40.91549 488
40.93561 457
40.95572 438
40.97584 487
40.99595 460
41.01606 452
41.03618 461
41.05629 472
41.0764 490
41.09652 439
41.11663 462
41.13675 452
41.15686 438
41.17697 442
41.19709 433
41.2172 457
41.23731 454
41.25743 434
41.27754 442
41.29765 437
41.31777 422
41.33788 450
41.358 418
41.37811 440
41.39822 451
41.41834 429
41.43845 439
41.45856 452
41.47868 455
41.49879 407
41.51891 448
41.53902 424
41.55913 419
41.57925 457
41.59936 453
41.61947 416
41.63959 433
41.6597 412
41.67982 437
41.69993 426
41.72004 411
41.74016 442
41.76027 407
41.78038 407
41.8005 409
41.82061 386
41.84072 401
41.86084 402
41.88095 391
41.90107 400
41.92118 421
41.94129 403
41.96141 409
41.98152 387
42.00163 420
42.02175 392
42.04186 418
42.06198 394
42.08209 410
42.1022 417
42.12232 401
42.14243 406
42.16254 419
42.18266 452
42.20277 457
42.22289 511
42.243 468
42.26311 502
42.28323 575
42.30334 711
42.32345 751
42.34357 830
42.36368 905
42.38379 1027
42.40391 1019
42.42402 962
42.44414 931
42.46425 809
42.48436 845
42.50448 715
42.52459 705
42.5447 600
42.56482 561
42.58493 451
42.60505 429
42.62516 423
42.64527 414
42.66539 424
42.6855 400
42.70561 377
42.72573 393
42.74584 406
42.76595 388
42.78607 414
42.80618 381
42.8263 378
42.84641 388
42.86652 406
42.88664 412
42.90675 377
42.92686 377
42.94698 361
42.96709 375
42.98721 380
43.00732 373
43.02743 384
43.04755 353
43.06766 356
43.08777 401
43.10789 374
43.128 399
43.14812 344
43.16823 337
43.18834 357
43.20846 352
43.22857 349
43.24868 400
43.2688 371
43.28891 405
43.30902 374
43.32914 373
43.34925 344
43.36937 352
43.38948 364
43.40959 392
43.42971 346
43.44982 362
43.46993 363
43.49005 367
43.51016 358
43.53028 356
43.55039 359
43.5705 350
43.59062 383
43.61073 352
43.63084 328
43.65096 351
43.67107 395
43.69119 346
43.7113 356
43.73141 378
43.75153 342
43.77164 345
43.79175 358
43.81187 377
43.83198 408
43.85209 329
43.87221 357
43.89232 360
43.91244 385
43.93255 333
43.95266 354
43.97278 369
43.99289 368
44.013 358
44.03312 347
44.05323 378
44.07335 337
44.09346 397
44.11357 357
44.13369 387
44.1538 363
44.17391 323
44.19403 374
44.21414 372
44.23426 346
44.25437 371
44.27448 374
44.2946 378
44.31471 369
44.33482 359
44.35494 355
44.37505 409
44.39516 335
44.41528 326
44.43539 380
44.45551 298
44.47562 342
44.49573 321
44.51585 348
44.53596 357
44.55607 378
44.57619 387
44.5963 374
44.61642 339
44.63653 381
44.65664 364
44.67676 356
44.69687 383
44.71698 377
44.7371 389
44.75721 390
44.77732 402
44.79744 347
44.81755 358
44.83767 411
44.85778 396
44.87789 371
44.89801 385
44.91812 355
44.93823 393
44.95835 376
44.97846 427
44.99858 372
45.01869 395
45.0388 361
45.05892 344
45.07903 377
45.09914 437
45.11926 371
45.13937 392
45.15949 441
45.1796 418
45.19971 428
45.21983 427
45.23994 435
45.26005 428
45.28017 434
45.30028 432
45.32039 460
45.34051 442
45.36062 450
45.38074 455
45.40085 490
45.42096 486
45.44108 465
45.46119 445
45.4813 456
45.50142 512
45.52153 500
45.54165 485
45.56176 502
45.58187 499
45.60199 534
45.6221 559
45.64221 639
45.66233 692
45.68244 740
45.70256 753
45.72267 869
45.74278 846
45.7629 878
45.78301 807
45.80312 770
45.82324 723
45.84335 640
45.86346 615
45.88358 605
45.90369 595
45.92381 552
45.94392 462
45.96403 496
45.98415 449
46.00426 455
46.02437 463
46.04449 458
46.0646 414
46.08472 429
46.10483 413
46.12494 392
46.14506 433
46.16517 426
46.18528 415
46.2054 396
46.22551 450
46.24563 385
46.26574 389
46.28585 382
46.30597 385
46.32608 359
46.34619 373
46.36631 362
46.38642 390
46.40653 371
46.42665 390
46.44676 364
46.46688 424
46.48699 391
46.5071 407
46.52722 362
46.54733 385
46.56744 394
46.58756 390
46.60767 389
46.62779 362
46.6479 390
46.66801 378
46.68813 372
46.70824 373
46.72835 390
46.74847 385
46.76858 421
46.78869 390
46.80881 365
46.82892 380
46.84904 429
46.86915 355
46.88926 370
46.90938 392
46.92949 362
46.9496 375
46.96972 412
46.98983 400
47.00995 386
47.03006 387
47.05017 381
47.07029 425
47.0904 372
47.11051 377
47.13063 378
47.15074 368
47.17086 411
47.19097 379
47.21108 360
47.2312 393
47.25131 389
47.27142 391
47.29154 376
47.31165 374
47.33176 378
47.35188 409
47.37199 375
47.39211 381
47.41222 366
47.43233 357
47.45245 408
47.47256 372
47.49267 370
47.51279 358
47.5329 378
47.55302 415
47.57313 413
47.59324 384
47.61336 397
47.63347 402
47.65358 406
47.6737 421
47.69381 371
47.71393 403
47.73404 402
47.75415 378
47.77427 385
47.79438 386
47.81449 373
47.83461 370
47.85472 402
47.87483 384
47.89495 381
47.91506 402
47.93518 394
47.95529 407
47.9754 400
47.99552 403
48.01563 414
48.03574 384
48.05586 374
48.07597 356
48.09609 412
48.1162 380
48.13631 365
48.15643 365
48.17654 388
48.19665 372
48.21677 384
48.23688 378
48.257 350
48.27711 364
48.29722 350
48.31734 391
48.33745 354
48.35756 370
48.37768 385
48.39779 380
48.4179 367
48.43802 386
48.45813 384
48.47825 414
48.49836 385
48.51847 369
48.53859 397
48.5587 342
48.57881 393
48.59893 383
48.61904 405
48.63916 383
48.65927 389
48.67938 401
48.6995 370
48.71961 401
48.73972 352
48.75984 376
48.77995 421
48.80006 372
48.82018 374
48.84029 359
48.86041 390
48.88052 368
48.90063 369
48.92075 374
48.94086 368
48.96097 415
48.98109 390
49.0012 407
49.02132 401
49.04143 374
49.06154 393
49.08166 382
49.10177 404
49.12188 348
49.142 385
49.16211 383
49.18223 417
49.20234 406
49.22245 418
49.24257 390
49.26268 398
49.28279 397
49.30291 440
49.32302 389
49.34313 452
49.36325 417
49.38336 398
49.40348 394
49.42359 475
49.4437 413
49.46382 420
49.48393 419
49.50404 429
49.52416 448
49.54427 429
49.56439 417
49.5845 398
49.60461 456
49.62473 422
49.64484 407
49.66495 417
49.68507 434
49.70518 426
49.7253 462
49.74541 461
49.76552 430
49.78564 471
49.80575 513
49.82586 480
49.84598 563
49.86609 496
49.8862 576
49.90632 610
49.92643 772
49.94655 800
49.96666 898
49.98677 1050
50.00689 1220
50.027 1430
50.04711 1634
50.06723 1757
50.08734 1865
50.10746 1793
50.12757 1611
50.14768 1424
50.1678 1239
50.18791 1205
50.20802 1100
50.22814 1088
50.24825 978
50.26837 825
50.28848 721
50.30859 535
50.32871 560
50.34882 474
50.36893 475
50.38905 448
50.40916 437
50.42927 441
50.44939 391
50.4695 467
50.48962 471
50.50973 399
50.52984 465
50.54996 410
50.57007 430
50.59018 444
50.6103 419
50.63041 450
50.65053 386
50.67064 430
50.69075 391
50.71087 401
50.73098 433
50.75109 344
50.77121 414
50.79132 379
50.81143 415
50.83155 376
50.85166 389
50.87178 413
50.89189 370
50.912 397
50.93212 399
50.95223 408
50.97234 383
50.99246 382
51.01257 384
51.03269 395
51.0528 377
51.07291 354
51.09303 401
51.11314 347
51.13325 386
51.15337 349
51.17348 386
51.1936 378
51.21371 406
51.23382 376
51.25394 401
51.27405 360
51.29416 337
51.31428 372
51.33439 372
51.3545 352
51.37462 328
51.39473 349
51.41485 346
51.43496 324
51.45507 374
51.47519 367
51.4953 340
51.51541 347
51.53553 357
51.55564 377
51.57576 348
51.59587 351
51.61598 391
51.6361 376
51.65621 325
51.67632 360
51.69644 345
51.71655 376
51.73667 382
51.75678 331
51.77689 371
51.79701 368
51.81712 360
51.83723 345
51.85735 355
51.87746 357
51.89757 367
51.91769 330
51.9378 356
51.95792 401
51.97803 401
51.99814 352
52.01826 325
52.03837 334
52.05848 353
52.0786 380
52.09871 339
52.11883 326
52.13894 344
52.15905 361
52.17917 390
52.19928 372
52.21939 368
52.23951 383
52.25962 364
52.27974 387
52.29985 384
52.31996 327
52.34008 354
52.36019 372
52.3803 369
52.40042 381
52.42053 360
52.44064 361
52.46076 400
52.48087 375
52.50099 358
52.5211 351
52.54121 346
52.56133 349
52.58144 390
52.60155 352
52.62167 347
52.64178 312
52.6619 349
52.68201 363
52.70212 360
52.72224 364
52.74235 357
52.76246 340
52.78258 379
52.80269 365
52.8228 401
52.84292 376
52.86303 400
52.88315 364
52.90326 381
52.92337 370
52.94349 367
52.9636 397
52.98371 424
53.00383 368
53.02394 381
53.04406 404
53.06417 408
53.08428 395
53.1044 441
53.12451 425
53.14462 382
53.16474 369
53.18485 382
53.20497 374
53.22508 405
53.24519 426
53.26531 424
53.28542 407
53.30553 402
53.32565 421
53.34576 434
53.36587 384
53.38599 440
53.4061 427
53.42622 434
53.44633 430
53.46644 444
53.48656 407
53.50667 423
53.52678 441
53.5469 471
53.56701 454
53.58713 440
53.60724 437
53.62735 433
53.64747 464
53.66758 420
53.68769 427
53.70781 419
53.72792 450
53.74804 437
53.76815 456
53.78826 426
53.80838 504
53.82849 454
53.8486 433
53.86872 461
53.88883 453
53.90894 438
53.92906 455
53.94917 440
53.96929 458
53.9894 454
54.00951 493
54.02963 465
54.04974 465
54.06985 424
54.08997 447
54.11008 441
54.1302 544
54.15031 454
54.17042 475
54.19054 507
54.21065 457
54.23076 459
54.25088 459
54.27099 506
54.29111 466
54.31122 496
54.33133 490
54.35145 461
54.37156 458
54.39167 452
54.41179 464
54.4319 491
54.45201 492
54.47213 463
54.49224 517
54.51236 518
54.53247 494
54.55258 492
54.5727 506
54.59281 516
54.61292 514
54.63304 500
54.65315 564
54.67327 556
54.69338 613
54.71349 653
54.73361 727
54.75372 699
54.77383 799
54.79395 876
54.81406 893
54.83417 834
54.85429 857
54.8744 767
54.89452 733
54.91463 711
54.93474 737
54.95486 699
54.97497 668
54.99508 640
55.0152 636
55.03531 587
55.05543 559
55.07554 535
55.09565 523
55.11577 475
55.13588 576
55.15599 574
55.17611 579
55.19622 611
55.21634 637
55.23645 608
55.25656 635
55.27668 669
55.29679 609
55.3169 583
55.33702 540
55.35713 569
55.37724 579
55.39736 576
55.41747 488
55.43759 516
55.4577 516
55.47781 496
55.49793 460
55.51804 459
55.53815 473
55.55827 463
55.57838 446
55.5985 453
55.61861 466
55.63872 436
55.65884 469
55.67895 425
55.69906 436
55.71918 445
55.73929 428
55.75941 394
55.77952 415
55.79963 451
55.81975 410
55.83986 420
55.85997 415
55.88009 376
55.9002 400
55.92031 404
55.94043 410
55.96054 389
55.98066 380
56.00077 420
56.02088 427
56.041 409
56.06111 386
56.08122 405
56.10134 411
56.12145 416
56.14157 413
56.16168 382
56.18179 390
56.20191 446
56.22202 415
56.24213 380
56.26225 404
56.28236 432
56.30248 399
56.32259 409
56.3427 436
56.36282 430
56.38293 401
56.40304 393
56.42316 399
56.44327 387
56.46338 368
56.4835 401
56.50361 429
56.52373 410
56.54384 385
56.56395 385
56.58407 393
56.60418 424
56.62429 404
56.64441 369
56.66452 377
56.68464 373
56.70475 418
56.72486 377
56.74498 401
56.76509 422
56.7852 414
56.80532 402
56.82543 413
56.84554 400
56.86566 386
56.88577 411
56.90589 419
56.926 406
56.94611 390
56.96623 395
56.98634 417
57.00645 402
57.02657 390
57.04668 383
57.0668 373
57.08691 422
57.10702 430
57.12714 411
57.14725 398
57.16736 415
57.18748 411
57.20759 438
57.22771 384
57.24782 411
57.26793 427
57.28805 398
57.30816 412
57.32827 399
57.34839 381
57.3685 400
57.38861 379
57.40873 366
57.42884 403
57.44896 394
57.46907 387
57.48918 389
57.5093 380
57.52941 367
57.54952 361
57.56964 386
57.58975 421
57.60987 409
57.62998 381
57.65009 350
57.67021 382
57.69032 361
57.71043 374
57.73055 375
57.75066 374
57.77078 386
57.79089 362
57.811 365
57.83112 380
57.85123 375
57.87134 395
57.89146 379
57.91157 413
57.93168 362
57.9518 369
57.97191 382
57.99203 397
58.01214 396
58.03225 345
58.05237 366
58.07248 363
58.09259 372
58.11271 345
58.13282 365
58.15294 375
58.17305 365
58.19316 347
58.21328 371
58.23339 354
58.2535 369
58.27362 386
58.29373 358
58.31385 365
58.33396 384
58.35407 392
58.37419 354
58.3943 404
58.41441 362
58.43453 365
58.45464 372
58.47475 350
58.49487 404
58.51498 340
58.5351 396
58.55521 351
58.57532 377
58.59544 393
58.61555 358
58.63566 368
58.65578 363
58.67589 348
58.69601 358
58.71612 399
58.73623 375
58.75635 348
58.77646 362
58.79657 390
58.81669 369
58.8368 373
58.85691 358
58.87703 366
58.89714 347
58.91726 389
58.93737 400
58.95748 382
58.9776 381
58.99771 395
59.01782 370
59.03794 380
59.05805 347
59.07817 392
59.09828 355
59.11839 368
59.13851 366
59.15862 378
59.17873 368
59.19885 401
59.21896 395
59.23908 363
59.25919 394
59.2793 395
59.29942 391
59.31953 386
59.33964 339
59.35976 418
59.37987 430
59.39998 446
59.4201 437
59.44021 408
59.46033 427
59.48044 435
59.50055 420
59.52067 451
59.54078 441
59.56089 446
59.58101 439
59.60112 474
59.62124 465
59.64135 479
59.66146 532
59.68158 518
59.70169 551
59.7218 602
59.74192 693
59.76203 657
59.78215 774
59.80226 863
59.82237 985
59.84249 1075
59.8626 1205
59.88271 1316
59.90283 1348
59.92294 1202
59.94305 1154
59.96317 1059
59.98328 916
60.0034 848
60.02351 870
60.04362 835
60.06374 838
60.08385 801
60.10396 731
60.12408 609
60.14419 539
60.16431 530
60.18442 463
60.20453 400
60.22465 376
60.24476 415
60.26487 426
60.28499 376
60.3051 425
60.32522 385
60.34533 405
60.36544 418
60.38556 355
60.40567 390
60.42578 402
60.4459 401
60.46601 398
60.48612 375
60.50624 347
60.52635 410
60.54647 361
60.56658 351
60.58669 348
60.60681 375
60.62692 363
60.64703 388
60.66715 348
60.68726 389
60.70738 372
60.72749 353
60.7476 381
60.76772 359
60.78783 395
60.80794 404
60.82806 366
60.84817 386
60.86828 386
60.8884 403
60.90851 364
60.92863 381
60.94874 364
60.96885 381
60.98897 384
61.00908 374
61.02919 339
61.04931 360
61.06942 364
61.08954 363
61.10965 365
61.12976 389
61.14988 396
61.16999 371
61.1901 376
61.21022 391
61.23033 403
61.25045 425
61.27056 386
61.29067 418
61.31079 362
61.3309 371
61.35101 363
61.37113 362
61.39124 360
61.41135 409
61.43147 434
61.45158 396
61.4717 395
61.49181 399
61.51192 366
61.53204 376
61.55215 418
61.57226 408
61.59238 419
61.61249 414
61.63261 440
61.65272 387
61.67283 415
61.69295 415
61.71306 477
61.73317 430
61.75329 439
61.7734 434
61.79352 447
61.81363 444
61.83374 500
61.85386 453
61.87397 444
61.89408 465
61.9142 485
61.93431 427
61.95442 470
61.97454 451
61.99465 475
62.01477 516
62.03488 487
62.05499 510
62.07511 541
62.09522 523
62.11533 576
62.13545 518
62.15556 578
62.17568 595
62.19579 579
62.2159 591
62.23602 572
62.25613 575
62.27624 562
62.29636 558
62.31647 535
62.33659 543
62.3567 547
62.37681 510
62.39693 506
62.41704 498
62.43715 486
62.45727 455
62.47738 441
62.49749 485
62.51761 444
62.53772 429
62.55784 439
62.57795 412
62.59806 424
62.61818 425
62.63829 383
62.6584 388
62.67852 398
62.69863 390
62.71875 388
62.73886 375
62.75897 388
62.77909 394
62.7992 391
62.81931 375
62.83943 397
62.85954 382
62.87965 391
62.89977 382
62.91988 374
62.94 378
62.96011 358
62.98022 351
63.00034 385
63.02045 358
63.04056 400
63.06068 388
63.08079 378
63.10091 372
63.12102 386
63.14113 396
63.16125 391
63.18136 391
63.20147 392
63.22159 374
63.2417 408
63.26182 398
63.28193 378
63.30204 347
63.32216 355
63.34227 377
63.36238 386
63.3825 328
63.40261 405
63.42272 398
63.44284 368
63.46295 396
63.48307 393
63.50318 377
63.52329 413
63.54341 389
63.56352 363
63.58363 381
63.60375 415
63.62386 400
63.64398 439
63.66409 390
63.6842 395
63.70432 421
63.72443 396
63.74454 453
63.76466 414
63.78477 456
63.80489 431
63.825 460
63.84511 471
63.86523 499
63.88534 498
63.90545 495
63.92557 536
63.94568 587
63.96579 537
63.98591 593
64.00602 567
64.02614 528
64.04625 519
64.06636 511
64.08648 478
64.10659 458
64.1267 503
64.14682 504
64.16693 488
64.18705 448
64.20716 489
64.22727 449
64.24739 413
64.2675 397
64.28761 411
64.30773 398
64.32784 386
64.34796 384
64.36807 395
64.38818 377
64.4083 370
64.42841 356
64.44852 362
64.46864 343
64.48875 362
64.50886 382
64.52898 373
64.54909 365
64.56921 345
64.58932 360
64.60943 327
64.62955 357
64.64966 338
64.66977 344
64.68989 357
64.71 363
64.73012 369
64.75023 370
64.77034 361
64.79046 386
64.81057 391
64.83068 335
64.8508 354
64.87091 380
64.89102 346
64.91114 364
64.93125 339
64.95137 353
64.97148 376
64.99159 353
65.01171 370
65.03182 332
65.05193 338
65.07205 361
65.09216 356
65.11228 344
65.13239 368
65.1525 339
65.17262 321
65.19273 370
65.21284 375
65.23296 320
65.25307 317
65.27319 328
65.2933 365
65.31341 345
65.33353 347
65.35364 361
65.37375 369
65.39387 363
65.41398 339
65.43409 359
65.45421 319
65.47432 366
65.49444 367
65.51455 351
65.53466 356
65.55478 364
65.57489 359
65.595 324
65.61512 390
65.63523 336
65.65535 353
65.67546 381
65.69557 382
65.71569 400
65.7358 370
65.75591 367
65.77603 367
65.79614 365
65.81626 376
65.83637 393
65.85648 408
65.8766 402
65.89671 351
65.91682 400
65.93694 380
65.95705 374
65.97716 413
65.99728 382
66.01739 341
66.03751 333
66.05762 342
66.07773 375
66.09785 364
66.11796 357
66.13807 387
66.15819 372
66.1783 361
66.19842 362
66.21853 368
66.23864 346
66.25876 343
66.27887 376
66.29898 361
66.3191 347
66.33921 314
66.35933 352
66.37944 342
66.39955 364
66.41967 368
66.43978 355
66.45989 350
66.48001 380
66.50012 325
66.52023 371
66.54035 358
66.56046 335
66.58058 326
66.60069 337
66.6208 337
66.64092 347
66.66103 361
66.68114 334
66.70126 339
66.72137 375
66.74149 363
66.7616 367
66.78171 377
66.80183 339
66.82194 377
66.84205 395
66.86217 394
66.88228 391
66.90239 420
66.92251 436
66.94262 418
66.96274 426
66.98285 440
67.00296 410
67.02308 378
67.04319 390
67.0633 387
67.08342 441
67.10353 385
67.12365 394
67.14376 405
67.16387 406
67.18399 399
67.2041 414
67.22421 413
67.24433 375
67.26444 383
67.28456 407
67.30467 366
67.32478 405
67.3449 351
67.36501 392
67.38512 430
67.40524 417
67.42535 411
67.44546 437
67.46558 440
67.48569 474
67.50581 471
67.52592 528
67.54603 561
67.56615 586
67.58626 655
67.60637 751
67.62649 795
67.6466 871
67.66672 870
67.68683 885
67.70694 893
67.72706 850
67.74717 787
67.76728 689
67.7874 660
67.80751 663
67.82763 653
67.84774 739
67.86785 769
67.88797 779
67.90808 768
67.92819 768
67.94831 725
67.96842 727
67.98853 823
68.00865 842
68.02876 924
68.04888 1009
68.06899 1067
68.0891 1101
68.10922 1115
68.12933 1019
68.14944 1017
68.16956 988
68.18967 913
68.20979 981
68.2299 1002
68.25001 993
68.27013 1027
68.29024 949
68.31035 910
68.33047 835
68.35058 717
68.3707 644
68.39081 604
68.41092 603
68.43104 580
68.45115 571
68.47126 546
68.49138 536
68.51149 499
68.5316 456
68.55172 394
68.57183 377
68.59195 377
68.61206 366
68.63217 386
68.65229 356
68.6724 363
68.69251 389
68.71263 368
68.73274 349
68.75286 351
68.77297 363
68.79308 360
68.8132 385
68.83331 393
68.85342 318
68.87354 366
68.89365 375
68.91376 339
68.93388 347
68.95399 374
68.97411 336
68.99422 349
69.01433 342
69.03445 350
69.05456 340
69.07467 364
69.09479 373
69.1149 344
69.13502 352
69.15513 315
69.17524 343
69.19536 356
69.21547 382
69.23558 354
69.2557 357
69.27581 351
69.29593 327
69.31604 357
69.33615 365
69.35627 320
69.37638 336
69.39649 351
69.41661 361
69.43672 341
69.45683 377
69.47695 335
69.49706 362
69.51718 378
69.53729 320
69.5574 353
69.57752 330
69.59763 374
69.61774 343
69.63786 354
69.65797 361
69.67809 323
69.6982 391
69.71831 346
69.73843 338
69.75854 362
69.77865 357
69.79877 361
69.81888 359
69.839 344
69.85911 342
69.87922 355
69.89934 353
69.91945 342
69.93956 348
69.95968 349
69.97979 346
69.9999 351
70.02002 354
70.04013 319
70.06025 314
70.08036 330
70.10047 317
70.12059 349
70.1407 340
70.16081 349
70.18093 370
70.20104 362
70.22116 355
70.24127 343
70.26138 325
70.2815 334
70.30161 359
70.32172 339
70.34184 352
70.36195 342
70.38207 347
70.40218 343
70.42229 321
70.44241 323
70.46252 326
70.48263 286
70.50275 344
70.52286 354
70.54297 318
70.56309 327
70.5832 338
70.60332 346
70.62343 353
70.64354 353
70.66366 331
70.68377 325
70.70388 319
70.724 309
70.74411 327
70.76423 305
70.78434 356
70.80445 310
70.82457 322
70.84468 350
70.86479 340
70.88491 351
70.90502 300
70.92513 316
70.94525 328
70.96536 332
70.98548 335
71.00559 349
71.0257 348
71.04582 324
71.06593 337
71.08604 345
71.10616 341
71.12627 307
71.14639 339
71.1665 360
71.18661 354
71.20673 352
71.22684 321
71.24695 321
71.26707 343
71.28718 299
71.3073 319
71.32741 328
71.34752 289
71.36764 341
71.38775 323
71.40786 321
71.42798 315
71.44809 330
71.4682 340
71.48832 352
71.50843 335
71.52855 315
71.54866 331
71.56877 364
71.58889 373
71.609 315
71.62911 334
71.64923 343
71.66934 350
71.68946 316
71.70957 361
71.72968 330
71.7498 358
71.76991 372
71.79002 358
71.81014 318
71.83025 365
71.85037 353
71.87048 359
71.89059 348
71.91071 377
71.93082 361
71.95093 343
71.97105 339
71.99116 375
72.01127 353
72.03139 389
72.0515 349
72.07162 349
72.09173 355
72.11184 356
72.13196 343
72.15207 360
72.17218 357
72.1923 356
72.21241 363
72.23253 381
72.25264 329
72.27275 352
72.29287 347
72.31298 326
72.33309 280
72.35321 321
72.37332 332
72.39344 337
72.41355 355
72.43366 332
72.45378 329
72.47389 321
72.494 348
72.51412 307
72.53423 333
72.55434 347
72.57446 353
72.59457 346
72.61469 313
72.6348 344
72.65491 353
72.67503 336
72.69514 332
72.71525 327
72.73537 325
72.75548 315
72.7756 363
72.79571 348
72.81582 332
72.83594 348
72.85605 340
72.87616 361
72.89628 328
72.91639 349
72.9365 329
72.95662 364
72.97673 343
72.99685 305
73.01696 354
73.03707 327
73.05719 345
73.0773 347
73.09741 357
73.11753 347
73.13764 371
73.15776 344
73.17787 379
73.19798 383
73.2181 371
73.23821 364
73.25832 425
73.27844 427
73.29855 418
73.31867 496
73.33878 493
73.35889 511
73.37901 545
73.39912 531
73.41923 522
73.43935 521
73.45946 497
73.47957 457
73.49969 464
73.5198 424
73.53992 432
73.56003 444
73.58014 451
73.60026 397
73.62037 482
73.64048 437
73.6606 442
73.68071 406
73.70083 379
73.72094 376
73.74105 398
73.76117 379
73.78128 355
73.80139 347
73.82151 377
73.84162 378
73.86174 353
73.88185 350
73.90196 336
73.92208 348
73.94219 353
73.9623 325
73.98242 345
74.00253 365
74.02264 325
74.04276 332
74.06287 319
74.08299 339
74.1031 338
74.12321 290
74.14333 326
74.16344 339
74.18355 348
74.20367 331
74.22378 339
74.2439 330
74.26401 303
74.28412 345
74.30424 320
74.32435 323
74.34446 353
74.36458 348
74.38469 314
74.40481 331
74.42492 294
74.44503 306
74.46515 348
74.48526 334
74.50537 332
74.52549 329
74.5456 311
74.56571 351
74.58583 341
74.60594 364
74.62606 336
74.64617 346
74.66628 322
74.6864 346
74.70651 331
74.72662 310
74.74674 326
74.76685 340
74.78697 343
74.80708 338
74.82719 325
74.84731 313
74.86742 366
74.88753 321
74.90765 337
74.92776 334
74.94787 335
74.96799 313
74.9881 345
75.00822 338
