3.00117 20922
3.02128 20650
3.0414 19666
3.06151 19322
3.08162 18704
3.10174 18148
3.12185 18025
3.14197 17101
3.16208 16838
3.18219 16522
3.20231 16008
3.22242 15338
3.24253 15045
3.26265 14572
3.28276 14036
3.30288 13765
3.32299 13603
3.3431 13019
3.36322 12567
3.38333 12028
3.40344 11422
3.42356 11458
3.44367 10815
3.46379 10659
3.4839 10239
3.50401 9725
3.52413 9699
3.54424 9143
3.56435 9077
3.58447 8367
3.60458 8187
3.62469 8014
3.64481 7615
3.66492 7531
3.68504 7060
3.70515 6823
3.72526 6770
3.74538 6275
3.76549 6039
3.7856 5920
3.80572 5551
3.82583 5418
3.84595 5063
3.86606 4912
3.88617 4756
3.90629 4539
3.9264 4461
3.94651 4168
3.96663 4062
3.98674 3832
4.00686 3633
4.02697 3485
4.04708 3456
4.0672 3180
4.08731 3207
4.10742 3038
4.12754 2830
4.14765 2858
4.16776 2754
4.18788 2615
4.20799 2433
4.22811 2500
4.24822 2338
4.26833 2219
4.28845 2115
4.30856 2063
4.32867 2077
4.34879 1947
4.3689 1906
4.38902 1880
4.40913 1779
4.42924 1763
4.44936 1776
4.46947 1524
4.48958 1635
4.5097 1592
4.52981 1618
4.54992 1592
4.57004 1468
4.59015 1486
4.61027 1402
4.63038 1388
4.65049 1443
4.67061 1332
4.69072 1368
4.71083 1269
4.73095 1286
4.75106 1277
4.77118 1139
4.79129 1189
4.8114 1064
4.83152 1140
4.85163 1163
4.87174 1142
4.89186 1082
4.91197 1051
4.93209 1066
4.9522 1127
4.97231 1002
4.99243 969
5.01254 976
5.03265 988
5.05277 977
5.07288 868
5.09299 913
5.11311 918
5.13322 912
5.15334 902
5.17345 840
5.19356 856
5.21368 830
5.23379 812
5.2539 829
5.27402 805
5.29413 873
5.31425 815
5.33436 800
5.35447 813
5.37459 687
5.3947 691
5.41481 727
5.43493 657
5.45504 710
5.47516 654
5.49527 710
5.51538 693
5.5355 611
5.55561 648
5.57572 630
5.59584 654
5.61595 622
5.63606 638
5.65618 605
5.67629 573
5.69641 606
5.71652 648
5.73663 539
5.75675 603
5.77686 573
5.79697 574
5.81709 593
5.8372 580
5.85732 527
5.87743 546
5.89754 558
5.91766 551
5.93777 563
5.95788 559
5.978 580
5.99811 567
6.01823 566
6.03834 612
6.05845 574
6.07857 612
6.09868 598
6.11879 557
6.13891 579
6.15902 611
6.17913 523
6.19925 609
6.21936 593
6.23948 600
6.25959 531
6.2797 549
6.29982 539
6.31993 507
6.34004 585
6.36016 529
6.38027 537
6.40039 547
6.4205 531
6.44061 513
6.46073 493
6.48084 477
6.50095 507
6.52107 523
6.54118 490
6.56129 486
6.58141 531
6.60152 481
6.62164 514
6.64175 479
6.66186 492
6.68198 517
6.70209 497
6.7222 476
6.74232 526
6.76243 488
6.78255 471
6.80266 476
6.82277 465
6.84289 503
6.863 526
6.88311 462
6.90323 511
6.92334 464
6.94346 473
6.96357 456
6.98368 466
7.0038 493
7.02391 486
7.04402 463
7.06414 459
7.08425 451
7.10436 486
7.12448 406
7.14459 474
7.16471 497
7.18482 500
7.20493 468
7.22505 472
7.24516 468
7.26527 475
7.28539 519
7.3055 468
7.32562 454
7.34573 490
7.36584 454
7.38596 451
7.40607 433
7.42618 472
7.4463 474
7.46641 508
7.48653 406
7.50664 489
7.52675 448
7.54687 429
7.56698 466
7.58709 480
7.60721 507
7.62732 463
7.64743 487
7.66755 430
7.68766 513
7.70778 408
7.72789 451
7.748 451
7.76812 469
7.78823 466
7.80834 473
7.82846 426
7.84857 423
7.86869 446
7.8888 486
7.90891 481
7.92903 462
7.94914 445
7.96925 425
7.98937 443
8.00948 446
8.0296 479
8.04971 440
8.06982 474
8.08994 526
8.11005 427
8.13016 457
8.15028 444
8.17039 442
8.1905 436
8.21062 491
8.23073 445
8.25085 518
8.27096 488
8.29107 464
8.31119 429
8.3313 444
8.35141 463
8.37153 505
8.39164 459
8.41176 458
8.43187 456
8.45198 477
8.4721 453
8.49221 486
8.51232 502
8.53244 424
8.55255 452
8.57266 437
8.59278 463
8.61289 440
8.63301 462
8.65312 491
8.67323 432
8.69335 486
8.71346 456
8.73357 475
8.75369 438
8.7738 448
8.79392 445
8.81403 448
8.83414 464
8.85426 440
8.87437 466
8.89448 436
8.9146 472
8.93471 527
8.95483 439
8.97494 427
8.99505 446
9.01517 423
9.03528 475
9.05539 445
9.07551 405
9.09562 409
9.11573 448
9.13585 465
9.15596 434
9.17608 476
9.19619 460
9.2163 461
9.23642 446
9.25653 493
9.27664 485
9.29676 456
9.31687 420
9.33699 444
9.3571 482
9.37721 428
9.39733 463
9.41744 522
9.43755 451
9.45767 457
9.47778 491
9.4979 471
9.51801 472
9.53812 471
9.55824 448
9.57835 482
9.59846 430
9.61858 505
9.63869 469
9.6588 425
9.67892 502
9.69903 447
9.71915 488
9.73926 467
9.75937 454
9.77949 449
9.7996 429
9.81971 472
9.83983 467
9.85994 454
9.88006 430
9.90017 439
9.92028 437
9.9404 474
9.96051 474
9.98062 417
10.00074 412
10.02085 466
10.04097 439
10.06108 484
10.08119 437
10.10131 474
10.12142 459
10.14153 430
10.16165 462
10.18176 464
10.20187 429
10.22199 428
10.2421 428
10.26222 448
10.28233 474
10.30244 435
10.32256 451
10.34267 468
10.36278 489
10.3829 484
10.40301 475
10.42313 469
10.44324 477
10.46335 473
10.48347 524
10.50358 446
10.52369 482
10.54381 494
10.56392 489
10.58403 466
10.60415 464
10.62426 473
10.64438 431
10.66449 464
10.6846 465
10.70472 461
10.72483 456
10.74494 458
10.76506 424
10.78517 454
10.80529 478
10.8254 444
10.84551 478
10.86563 462
10.88574 463
10.90585 436
10.92597 433
10.94608 490
10.9662 413
10.98631 454
11.00642 417
11.02654 440
11.04665 457
11.06676 461
11.08688 430
11.10699 444
11.1271 414
11.14722 452
11.16733 479
11.18745 455
11.20756 479
11.22767 502
11.24779 414
11.2679 498
11.28801 507
11.30813 482
11.32824 479
11.34836 498
11.36847 472
11.38858 463
11.4087 495
11.42881 498
11.44892 435
11.46904 490
11.48915 480
11.50927 478
11.52938 519
11.54949 496
11.56961 498
11.58972 519
11.60983 504
11.62995 493
11.65006 474
11.67017 526
11.69029 494
11.7104 487
11.73052 533
11.75063 472
11.77074 496
11.79086 517
11.81097 511
11.83108 533
11.8512 496
11.87131 533
11.89143 505
11.91154 533
11.93165 525
11.95177 572
11.97188 516
11.99199 527
12.01211 529
12.03222 606
12.05234 598
12.07245 595
12.09256 574
12.11268 572
12.13279 586
12.1529 629
12.17302 597
12.19313 575
12.21324 586
12.23336 604
12.25347 678
12.27359 632
12.2937 681
12.31381 699
12.33393 686
12.35404 638
12.37415 691
12.39427 684
12.41438 639
12.4345 562
12.45461 629
12.47472 550
12.49484 539
12.51495 564
12.53506 537
12.55518 551
12.57529 544
12.5954 523
12.61552 541
12.63563 516
12.65575 459
12.67586 482
12.69597 439
12.71609 539
12.7362 508
12.75631 473
12.77643 466
12.79654 462
12.81666 494
12.83677 467
12.85688 431
12.877 427
12.89711 448
12.91722 472
12.93734 442
12.95745 451
12.97757 435
12.99768 484
13.01779 457
13.03791 449
13.05802 399
13.07813 450
13.09825 444
13.11836 444
13.13847 431
13.15859 447
13.1787 428
13.19882 477
13.21893 392
13.23904 418
13.25916 446
13.27927 466
13.29938 424
13.3195 421
13.33961 395
13.35973 404
13.37984 416
13.39995 440
13.42007 424
13.44018 422
13.46029 426
13.48041 444
13.50052 400
13.52064 456
13.54075 421
13.56086 395
13.58098 394
13.60109 453
13.6212 376
13.64132 411
13.66143 450
13.68154 420
13.70166 443
13.72177 450
13.74189 460
13.762 411
13.78211 442
13.80223 420
13.82234 438
13.84245 435
13.86257 438
13.88268 404
13.9028 423
13.92291 429
13.94302 452
13.96314 424
13.98325 448
14.00336 388
14.02348 451
14.04359 401
14.06371 359
14.08382 417
14.10393 379
14.12405 427
14.14416 434
14.16427 360
14.18439 428
14.2045 434
14.22461 468
14.24473 424
14.26484 424
14.28496 392
14.30507 383
14.32518 425
14.3453 419
14.36541 419
14.38552 453
14.40564 382
14.42575 400
14.44587 432
14.46598 411
14.48609 460
14.50621 382
14.52632 424
14.54643 396
14.56655 441
14.58666 406
14.60677 413
14.62689 393
14.647 421
14.66712 434
14.68723 437
14.70734 437
14.72746 405
14.74757 407
14.76768 402
14.7878 401
14.80791 385
14.82803 371
14.84814 432
14.86825 382
14.88837 462
14.90848 459
14.92859 419
14.94871 464
14.96882 380
14.98894 429
15.00905 417
15.02916 414
15.04928 381
15.06939 415
15.0895 433
15.10962 440
15.12973 446
15.14984 423
15.16996 403
15.19007 414
15.21019 409
15.2303 404
15.25041 421
15.27053 369
15.29064 457
15.31075 443
15.33087 447
15.35098 434
15.3711 401
15.39121 391
15.41132 398
15.43144 408
15.45155 410
15.47166 427
15.49178 428
15.51189 421
15.53201 397
15.55212 421
15.57223 393
15.59235 394
15.61246 419
15.63257 405
15.65269 414
15.6728 465
15.69291 434
15.71303 414
15.73314 421
15.75326 389
15.77337 438
15.79348 390
15.8136 360
15.83371 418
15.85382 402
15.87394 479
15.89405 495
15.91417 537
15.93428 562
15.95439 496
15.97451 551
15.99462 531
16.01473 577
16.03485 460
16.05496 457
16.07508 413
16.09519 365
16.1153 443
16.13542 403
16.15553 418
16.17564 402
16.19576 417
16.21587 435
16.23598 410
16.2561 394
16.27621 389
16.29633 402
16.31644 437
16.33655 388
16.35667 403
16.37678 417
16.39689 435
16.41701 415
16.43712 447
16.45724 423
16.47735 454
16.49746 386
16.51758 442
16.53769 422
16.5578 445
16.57792 412
16.59803 422
16.61814 419
16.63826 452
16.65837 390
16.67849 404
16.6986 418
16.71871 389
16.73883 425
16.75894 408
16.77905 380
16.79917 449
16.81928 435
16.8394 458
16.85951 416
16.87962 423
16.89974 408
16.91985 423
16.93996 410
16.96008 392
16.98019 421
17.00031 405
17.02042 445
17.04053 438
17.06065 398
17.08076 388
17.10087 396
17.12099 378
17.1411 423
17.16121 425
17.18133 394
17.20144 406
17.22156 438
17.24167 421
17.26178 400
17.2819 387
17.30201 461
17.32212 427
17.34224 400
17.36235 414
17.38247 396
17.40258 419
17.42269 397
17.44281 416
17.46292 414
17.48303 424
17.50315 410
17.52326 437
17.54338 416
17.56349 370
17.5836 447
17.60372 426
17.62383 427
17.64394 416
17.66406 433
17.68417 421
17.70428 414
17.7244 456
17.74451 451
17.76463 454
17.78474 435
17.80485 428
17.82497 435
17.84508 470
17.86519 396
17.88531 441
17.90542 437
17.92554 436
17.94565 451
17.96576 440
17.98588 439
18.00599 419
18.0261 462
18.04622 452
18.06633 440
18.08645 505
18.10656 461
18.12667 502
18.14679 472
18.1669 498
18.18701 547
18.20713 604
18.22724 607
18.24735 666
18.26747 745
18.28758 705
18.3077 817
18.32781 729
18.34792 694
18.36804 621
18.38815 571
18.40826 516
18.42838 493
18.44849 506
18.46861 481
18.48872 485
18.50883 446
18.52895 448
18.54906 430
18.56917 450
18.58929 472
18.6094 453
18.62951 504
18.64963 434
18.66974 469
18.68986 446
18.70997 412
18.73008 424
18.7502 399
18.77031 438
18.79042 471
18.81054 449
18.83065 411
18.85077 420
18.87088 451
18.89099 435
18.91111 451
18.93122 413
18.95133 441
18.97145 427
18.99156 436
19.01168 451
19.03179 424
19.0519 451
19.07202 480
19.09213 481
19.11224 426
19.13236 444
19.15247 448
19.17258 430
19.1927 475
19.21281 437
19.23293 491
19.25304 462
19.27315 425
19.29327 466
19.31338 474
19.33349 489
19.35361 481
19.37372 477
19.39384 477
19.41395 526
19.43406 492
19.45418 566
19.47429 567
19.4944 598
19.51452 598
19.53463 657
19.55475 629
19.57486 660
19.59497 661
19.61509 650
19.6352 592
19.65531 584
19.67543 603
19.69554 600
19.71565 608
19.73577 626
19.75588 642
19.776 666
19.79611 682
19.81622 678
19.83634 732
19.85645 710
19.87656 755
19.89668 699
19.91679 728
19.93691 720
19.95702 711
19.97713 756
19.99725 697
20.01736 761
20.03747 703
20.05759 654
20.0777 672
20.09782 688
20.11793 722
20.13804 679
20.15816 687
20.17827 672
20.19838 736
20.2185 758
20.23861 722
20.25872 748
20.27884 783
20.29895 770
20.31907 815
20.33918 767
20.35929 716
20.37941 712
20.39952 758
20.41963 676
20.43975 663
20.45986 694
20.47998 744
20.50009 798
20.5202 737
20.54032 777
20.56043 728
20.58054 747
20.60066 655
20.62077 728
20.64088 717
20.661 769
20.68111 833
20.70123 889
20.72134 1069
20.74145 1249
20.76157 1590
20.78168 2054
20.80179 2541
20.82191 2996
20.84202 3387
20.86214 3399
20.88225 3059
20.90236 2377
20.92248 1877
20.94259 1414
20.9627 1031
20.98282 855
21.00293 839
21.02305 809
21.04316 713
21.06327 727
21.08339 765
21.1035 738
21.12361 740
21.14373 698
21.16384 678
21.18395 803
21.20407 734
21.22418 732
21.2443 767
21.26441 734
21.28452 723
21.30464 752
21.32475 746
21.34486 760
21.36498 800
21.38509 821
21.40521 723
21.42532 772
21.44543 771
21.46555 754
21.48566 693
21.50577 746
21.52589 682
21.546 724
21.56612 702
21.58623 667
21.60634 653
21.62646 612
21.64657 612
21.66668 650
21.6868 643
21.70691 666
21.72702 579
21.74714 587
21.76725 602
21.78737 585
21.80748 586
21.82759 622
21.84771 578
21.86782 608
21.88793 630
21.90805 629
21.92816 592
21.94828 585
21.96839 630
21.9885 546
22.00862 615
22.02873 570
22.04884 589
22.06896 571
22.08907 574
22.10919 615
22.1293 553
22.14941 542
22.16953 519
22.18964 533
22.20975 523
22.22987 551
22.24998 504
22.27009 551
22.29021 535
22.31032 554
22.33044 551
22.35055 505
22.37066 535
22.39078 543
22.41089 548
22.431 540
22.45112 538
22.47123 539
22.49135 563
22.51146 570
22.53157 576
22.55169 604
22.5718 564
22.59191 621
22.61203 636
22.63214 543
22.65225 577
22.67237 539
22.69248 516
22.7126 558
22.73271 568
22.75282 575
22.77294 491
22.79305 485
22.81316 539
22.83328 525
22.85339 491
22.87351 493
22.89362 454
22.91373 501
22.93385 491
22.95396 549
22.97407 497
22.99419 546
23.0143 495
23.03442 530
23.05453 505
23.07464 547
23.09476 530
23.11487 501
23.13498 550
23.1551 501
23.17521 478
23.19532 513
23.21544 513
23.23555 526
23.25567 470
23.27578 527
23.29589 499
23.31601 504
23.33612 447
23.35623 516
23.37635 493
23.39646 570
23.41658 503
23.43669 504
23.4568 481
23.47692 542
23.49703 507
23.51714 473
23.53726 520
23.55737 530
23.57749 475
23.5976 576
23.61771 531
23.63783 551
23.65794 555
23.67805 514
23.69817 573
23.71828 536
23.73839 565
23.75851 599
23.77862 649
23.79874 563
23.81885 631
23.83896 539
23.85908 631
23.87919 569
23.8993 600
23.91942 588
23.93953 568
23.95965 551
23.97976 585
23.99987 522
24.01999 562
24.0401 575
24.06021 573
24.08033 568
24.10044 496
24.12056 516
24.14067 492
24.16078 516
24.1809 518
24.20101 565
24.22112 575
24.24124 550
24.26135 570
24.28146 544
24.30158 596
24.32169 570
24.34181 521
24.36192 584
24.38203 544
24.40215 586
24.42226 556
24.44237 533
24.46249 518
24.4826 525
24.50272 539
24.52283 593
24.54294 558
24.56306 564
24.58317 528
24.60328 553
24.6234 602
24.64351 623
24.66362 641
24.68374 620
24.70385 617
24.72397 598
24.74408 607
24.76419 604
24.78431 647
24.80442 600
24.82453 658
24.84465 652
24.86476 616
24.88488 704
24.90499 641
24.9251 632
24.94522 637
24.96533 601
24.98544 690
25.00556 613
25.02567 662
25.04579 637
25.0659 623
25.08601 629
25.10613 627
25.12624 579
25.14635 587
25.16647 637
25.18658 597
25.20669 623
25.22681 576
25.24692 639
25.26704 630
25.28715 626
25.30726 534
25.32738 568
25.34749 544
25.3676 569
25.38772 548
25.40783 586
25.42795 553
25.44806 577
25.46817 590
25.48829 550
25.5084 588
25.52851 537
25.54863 506
25.56874 524
25.58886 586
25.60897 549
25.62908 536
25.6492 521
25.66931 542
25.68942 606
25.70954 578
25.72965 545
25.74976 566
25.76988 573
25.78999 578
25.81011 588
25.83022 535
25.85033 630
25.87045 587
25.89056 563
25.91067 576
25.93079 612
25.9509 580
25.97102 631
25.99113 619
26.01124 582
26.03136 631
26.05147 588
26.07158 651
26.0917 593
26.11181 677
26.13193 685
26.15204 648
26.17215 703
26.19227 645
26.21238 694
26.23249 716
26.25261 735
26.27272 721
26.29283 773
26.31295 789
26.33306 845
26.35318 885
26.37329 934
26.3934 1029
26.41352 1131
26.43363 1375
26.45374 1686
26.47386 2070
26.49397 2832
26.51409 3734
26.5342 5256
26.55431 7112
26.57443 9286
26.59454 11662
26.61465 12937
26.63477 13097
26.65488 12035
26.67499 9541
26.69511 7190
26.71522 5355
26.73534 3837
26.75545 2362
26.77556 1631
26.79568 1159
26.81579 991
26.8359 967
26.85602 986
26.87613 932
26.89625 858
26.91636 799
26.93647 758
26.95659 772
26.9767 675
26.99681 727
27.01693 644
27.03704 604
27.05716 593
27.07727 626
27.09738 597
27.1175 589
27.13761 617
27.15772 581
27.17784 549
27.19795 583
27.21806 534
27.23818 572
27.25829 584
27.27841 560
27.29852 538
27.31863 559
27.33875 546
27.35886 545
27.37897 555
27.39909 548
27.4192 586
27.43932 557
27.45943 521
27.47954 526
27.49966 506
27.51977 572
27.53988 514
27.56 506
27.58011 478
27.60023 507
27.62034 499
27.64045 543
27.66057 518
27.68068 511
27.70079 558
27.72091 503
27.74102 520
27.76113 550
27.78125 517
27.80136 501
27.82148 557
27.84159 515
27.8617 528
27.88182 536
27.90193 536
27.92204 538
27.94216 538
27.96227 515
27.98239 515
28.0025 516
28.02261 532
28.04273 500
28.06284 483
28.08295 520
28.10307 515
28.12318 484
28.1433 499
28.16341 510
28.18352 558
28.20364 474
28.22375 473
28.24386 491
28.26398 532
28.28409 488
28.3042 486
28.32432 516
28.34443 474
28.36455 544
28.38466 515
28.40477 489
28.42489 508
28.445 507
28.46511 467
28.48523 486
28.50534 496
28.52546 446
28.54557 492
28.56568 501
28.5858 500
28.60591 484
28.62602 438
28.64614 491
28.66625 490
28.68636 510
28.70648 452
28.72659 462
28.74671 484
28.76682 447
28.78693 477
28.80705 463
28.82716 428
28.84727 510
28.86739 468
28.8875 445
28.90762 446
28.92773 472
28.94784 499
28.96796 453
28.98807 452
29.00818 463
29.0283 437
29.04841 479
29.06853 469
29.08864 449
29.10875 474
29.12887 464
29.14898 445
29.16909 477
29.18921 446
29.20932 450
29.22943 463
29.24955 464
29.26966 453
29.28978 452
29.30989 525
29.33 432
29.35012 511
29.37023 460
29.39034 448
29.41046 473
29.43057 412
29.45069 470
29.4708 417
29.49091 422
29.51103 429
29.53114 447
29.55125 446
29.57137 440
29.59148 438
29.6116 482
29.63171 452
29.65182 439
29.67194 427
29.69205 449
29.71216 491
29.73228 464
29.75239 445
29.7725 476
29.79262 479
29.81273 518
29.83285 452
29.85296 465
29.87307 448
29.89319 469
29.9133 466
29.93341 451
29.95353 511
29.97364 455
29.99376 439
30.01387 435
30.03398 468
30.0541 468
30.07421 501
30.09432 452
30.11444 463
30.13455 445
30.15467 412
30.17478 502
30.19489 468
30.21501 473
30.23512 468
30.25523 474
30.27535 501
30.29546 501
30.31557 464
30.33569 465
30.3558 494
30.37592 507
30.39603 461
30.41614 462
30.43626 482
30.45637 497
30.47648 417
30.4966 482
30.51671 431
30.53683 460
30.55694 481
30.57705 430
30.59717 452
30.61728 464
30.63739 468
30.65751 454
30.67762 494
30.69773 463
30.71785 451
30.73796 454
30.75808 436
30.77819 459
30.7983 479
30.81842 475
30.83853 458
30.85864 436
30.87876 444
30.89887 492
30.91899 463
30.9391 409
30.95921 448
30.97933 466
30.99944 511
31.01955 475
31.03967 464
31.05978 434
31.0799 475
31.10001 439
31.12012 441
31.14024 431
31.16035 501
31.18046 484
31.20058 458
31.22069 461
31.2408 462
31.26092 476
31.28103 442
31.30115 435
31.32126 416
31.34137 428
31.36149 469
31.3816 456
31.40171 422
31.42183 458
31.44194 479
31.46206 486
31.48217 467
31.50228 458
31.5224 420
31.54251 462
31.56262 433
31.58274 429
31.60285 434
31.62297 425
31.64308 465
31.66319 481
31.68331 439
31.70342 472
31.72353 452
31.74365 432
31.76376 443
31.78387 448
31.80399 443
31.8241 474
31.84422 431
31.86433 395
31.88444 457
31.90456 475
31.92467 460
31.94478 431
31.9649 456
31.98501 466
32.00513 470
32.02524 467
32.04535 475
32.06547 476
32.08558 511
32.10569 449
32.12581 518
32.14592 492
32.16604 531
32.18615 553
32.20626 582
32.22638 572
32.24649 578
32.2666 596
32.28672 570
32.30683 585
32.32694 573
32.34706 541
32.36717 560
32.38729 553
32.4074 582
32.42751 574
32.44763 634
32.46774 688
32.48785 656
32.50797 711
32.52808 708
32.5482 657
32.56831 690
32.58842 652
32.60854 661
32.62865 599
32.64876 594
32.66888 578
32.68899 596
32.7091 552
32.72922 541
32.74933 528
32.76945 535
32.78956 511
32.80967 537
32.82979 525
32.8499 471
32.87001 498
32.89013 539
32.91024 509
32.93036 520
32.95047 514
32.97058 509
32.9907 474
33.01081 510
33.03092 507
33.05104 536
33.07115 554
33.09127 500
33.11138 509
33.13149 550
33.15161 560
33.17172 553
33.19183 527
33.21195 537
33.23206 509
33.25217 514
33.27229 530
33.2924 534
33.31252 535
33.33263 529
33.35274 587
33.37286 529
33.39297 508
33.41308 563
33.4332 502
33.45331 518
33.47343 532
33.49354 557
33.51365 546
33.53377 528
33.55388 523
33.57399 518
33.59411 536
33.61422 519
33.63434 536
33.65445 532
33.67456 554
33.69468 485
33.71479 520
33.7349 512
33.75502 521
33.77513 518
33.79524 508
33.81536 522
33.83547 516
33.85559 427
33.8757 512
33.89581 509
33.91593 476
33.93604 472
33.95615 492
33.97627 498
33.99638 485
34.0165 468
34.03661 488
34.05672 463
34.07684 504
34.09695 468
34.11706 487
34.13718 479
34.15729 488
34.17741 501
34.19752 507
34.21763 485
34.23775 498
34.25786 455
34.27797 476
34.29809 477
34.3182 472
34.33831 510
34.35843 513
34.37854 479
34.39866 522
34.41877 498
34.43888 455
34.459 519
34.47911 492
34.49922 470
34.51934 479
34.53945 500
34.55957 548
34.57968 471
34.59979 504
34.61991 492
34.64002 484
34.66013 555
34.68025 529
34.70036 534
34.72047 557
34.74059 508
34.7607 549
34.78082 571
34.80093 584
34.82104 559
34.84116 636
34.86127 592
34.88138 625
34.9015 622
34.92161 599
34.94173 595
34.96184 647
34.98195 602
35.00207 622
35.02218 604
35.04229 628
35.06241 652
35.08252 658
35.10264 600
35.12275 690
35.14286 684
35.16298 679
35.18309 768
35.2032 735
35.22332 753
35.24343 760
35.26354 776
35.28366 742
35.30377 694
35.32389 724
35.344 682
35.36411 643
35.38423 741
35.40434 637
35.42445 666
35.44457 668
35.46468 661
35.4848 665
35.50491 635
35.52502 682
35.54514 710
35.56525 654
35.58536 639
35.60548 654
35.62559 700
35.64571 657
35.66582 659
35.68593 662
35.70605 634
35.72616 713
35.74627 694
35.76639 684
35.7865 651
35.80661 649
35.82673 648
35.84684 697
35.86696 662
35.88707 661
35.90718 647
35.9273 620
35.94741 642
35.96752 648
35.98764 618
36.00775 656
36.02787 700
36.04798 673
36.06809 615
36.08821 657
36.10832 625
36.12843 653
36.14855 620
36.16866 611
36.18878 656
36.20889 600
36.229 584
36.24912 601
36.26923 642
36.28934 678
36.30946 593
36.32957 674
36.34968 690
36.3698 721
36.38991 796
36.41003 875
36.43014 948
36.45025 1062
36.47037 1206
36.49048 1353
36.51059 1398
36.53071 1355
36.55082 1270
36.57094 1195
36.59105 1081
36.61116 999
36.63128 884
36.65139 799
36.6715 719
36.69162 616
36.71173 615
36.73184 614
36.75196 676
36.77207 568
36.79219 597
36.8123 579
36.83241 604
36.85253 625
36.87264 558
36.89275 603
36.91287 581
36.93298 616
36.9531 647
36.97321 582
36.99332 609
37.01344 615
37.03355 596
37.05366 635
37.07378 593
37.09389 609
37.11401 619
37.13412 587
37.15423 586
37.17435 655
37.19446 569
37.21457 610
37.23469 601
37.2548 584
37.27491 536
37.29503 563
37.31514 605
37.33526 524
37.35537 586
37.37548 567
37.3956 554
37.41571 530
37.43582 578
37.45594 569
37.47605 535
37.49617 597
37.51628 590
37.53639 559
37.55651 555
37.57662 551
37.59673 567
37.61685 542
37.63696 616
37.65708 588
37.67719 535
37.6973 596
37.71742 550
37.73753 551
37.75764 531
37.77776 563
37.79787 555
37.81798 557
37.8381 584
37.85821 538
37.87833 507
37.89844 530
37.91855 492
37.93867 472
37.95878 550
37.97889 548
37.99901 525
38.01912 552
38.03924 528
38.05935 540
38.07946 548
38.09958 513
38.11969 504
38.1398 546
38.15992 558
38.18003 494
38.20015 524
38.22026 572
38.24037 562
38.26049 596
38.2806 543
38.30071 578
38.32083 618
38.34094 576
38.36105 601
38.38117 552
38.40128 552
38.4214 561
38.44151 569
38.46162 526
38.48174 530
38.50185 537
38.52196 558
38.54208 508
38.56219 561
38.58231 547
38.60242 507
38.62253 562
38.64265 569
38.66276 528
38.68287 578
38.70299 509
38.7231 513
38.74321 555
38.76333 526
38.78344 544
38.80356 483
38.82367 552
38.84378 504
38.8639 510
38.88401 498
38.90412 508
38.92424 500
38.94435 485
38.96447 497
38.98458 494
39.00469 552
39.02481 518
39.04492 505
39.06503 514
39.08515 527
39.10526 501
39.12538 514
39.14549 500
39.1656 526
39.18572 533
39.20583 565
39.22594 583
39.24606 603
39.26617 631
39.28628 642
39.3064 725
39.32651 737
39.34663 853
39.36674 930
39.38685 1012
39.40697 1149
39.42708 1265
39.44719 1170
39.46731 1179
39.48742 1090
39.50754 985
39.52765 886
39.54776 900
39.56788 852
39.58799 735
39.6081 636
39.62822 539
39.64833 544
39.66845 528
39.68856 466
39.70867 519
39.72879 508
39.7489 485
39.76901 522
39.78913 520
39.80924 511
39.82935 486
39.84947 496
39.86958 514
39.8897 494
39.90981 529
39.92992 505
39.95004 500
39.97015 542
39.99026 498
40.01038 506
40.03049 535
40.05061 548
40.07072 540
40.09083 595
40.11095 536
40.13106 576
40.15117 573
40.17129 718
40.1914 724
40.21152 781
40.23163 844
40.25174 908
40.27186 887
40.29197 850
40.31208 784
40.3322 745
40.35231 716
40.37242 705
40.39254 671
40.41265 613
40.43277 598
40.45288 532
40.47299 524
40.49311 531
40.51322 535
40.53333 526
40.55345 494
40.57356 534
40.59368 533
40.61379 498
40.6339 510
40.65402 532
40.67413 496
40.69424 478
40.71436 462
40.73447 480
40.75458 500
40.7747 519
40.79481 512
40.81493 530
40.83504 495
40.85515 523
40.87527 467
40.89538 522
40.91549 505
40.93561 526
40.95572 491
40.97584 542
40.99595 501
41.01606 500
41.03618 474
41.05629 520
41.0764 464
41.09652 475
41.11663 446
41.13675 501
41.15686 480
41.17697 510
41.19709 463
41.2172 509
41.23731 482
41.25743 509
41.27754 505
41.29765 554
41.31777 511
41.33788 511
41.358 555
41.37811 502
41.39822 534
41.41834 512
41.43845 548
41.45856 513
41.47868 539
41.49879 559
41.51891 536
41.53902 519
41.55913 541
41.57925 538
41.59936 517
41.61947 523
41.63959 561
41.6597 474
41.67982 504
41.69993 489
41.72004 491
41.74016 471
41.76027 451
41.78038 507
41.8005 505
41.82061 494
41.84072 455
41.86084 448
41.88095 467
41.90107 459
41.92118 469
41.94129 462
41.96141 514
41.98152 477
42.00163 476
42.02175 458
42.04186 430
42.06198 481
42.08209 439
42.1022 461
42.12232 458
42.14243 459
42.16254 454
42.18266 475
42.20277 473
42.22289 469
42.243 486
42.26311 554
42.28323 548
42.30334 618
42.32345 592
42.34357 721
42.36368 807
42.38379 903
42.40391 959
42.42402 1006
42.44414 930
42.46425 815
42.48436 789
42.50448 754
42.52459 661
42.5447 686
42.56482 592
42.58493 556
42.60505 551
42.62516 442
42.64527 419
42.66539 481
42.6855 503
42.70561 444
42.72573 415
42.74584 439
42.76595 411
42.78607 487
42.80618 420
42.8263 502
42.84641 437
42.86652 422
42.88664 422
42.90675 409
42.92686 451
42.94698 445
42.96709 421
42.98721 447
43.00732 444
43.02743 423
43.04755 456
43.06766 451
43.08777 447
43.10789 431
43.128 452
43.14812 432
43.16823 440
43.18834 427
43.20846 406
43.22857 411
43.24868 452
43.2688 395
43.28891 414
43.30902 425
43.32914 421
43.34925 388
43.36937 414
43.38948 431
43.40959 405
43.42971 442
43.44982 454
43.46993 419
43.49005 410
43.51016 389
43.53028 444
43.55039 412
43.5705 426
43.59062 473
43.61073 437
43.63084 419
43.65096 398
43.67107 457
43.69119 463
43.7113 442
43.73141 422
43.75153 388
43.77164 432
43.79175 415
43.81187 415
43.83198 412
43.85209 418
43.87221 403
43.89232 438
43.91244 421
43.93255 412
43.95266 401
43.97278 437
43.99289 423
44.013 437
44.03312 461
44.05323 471
44.07335 461
44.09346 406
44.11357 404
44.13369 457
44.1538 411
44.17391 411
44.19403 432
44.21414 458
44.23426 437
44.25437 471
44.27448 428
44.2946 464
44.31471 420
44.33482 432
44.35494 422
44.37505 419
44.39516 411
44.41528 451
44.43539 419
44.45551 429
44.47562 415
44.49573 421
44.51585 413
44.53596 422
44.55607 442
44.57619 422
44.5963 400
44.61642 449
44.63653 400
44.65664 418
44.67676 450
44.69687 391
44.71698 380
44.7371 443
44.75721 433
44.77732 443
44.79744 430
44.81755 471
44.83767 469
44.85778 428
44.87789 434
44.89801 414
44.91812 415
44.93823 415
44.95835 450
44.97846 456
44.99858 457
45.01869 438
45.0388 430
45.05892 447
45.07903 386
45.09914 434
45.11926 489
45.13937 485
45.15949 443
45.1796 465
45.19971 426
45.21983 451
45.23994 458
45.26005 468
45.28017 485
45.30028 469
45.32039 467
45.34051 466
45.36062 450
45.38074 492
45.40085 462
45.42096 487
45.44108 469
45.46119 483
45.4813 504
45.50142 471
45.52153 490
45.54165 509
45.56176 477
45.58187 499
45.60199 474
45.6221 536
45.64221 570
45.66233 583
45.68244 632
45.70256 661
45.72267 723
45.74278 750
45.7629 784
45.78301 724
45.80312 733
45.82324 666
45.84335 635
45.86346 639
45.88358 610
45.90369 573
45.92381 553
45.94392 484
45.96403 464
45.98415 456
46.00426 463
46.02437 474
46.04449 421
46.0646 438
46.08472 462
46.10483 396
46.12494 435
46.14506 426
46.16517 435
46.18528 442
46.2054 446
46.22551 405
46.24563 423
46.26574 466
46.28585 414
46.30597 433
46.32608 399
46.34619 434
46.36631 410
46.38642 439
46.40653 415
46.42665 390
46.44676 419
46.46688 399
46.48699 408
46.5071 415
46.52722 411
46.54733 435
46.56744 419
46.58756 417
46.60767 433
46.62779 393
46.6479 454
46.66801 422
46.68813 443
46.70824 427
46.72835 446
46.74847 435
46.76858 435
46.78869 424
46.80881 424
46.82892 438
46.84904 434
46.86915 447
46.88926 469
46.90938 375
46.92949 428
46.9496 454
46.96972 450
46.98983 404
47.00995 421
47.03006 437
47.05017 414
47.07029 449
47.0904 427
47.11051 400
47.13063 415
47.15074 414
47.17086 434
47.19097 414
47.21108 425
47.2312 446
47.25131 413
47.27142 440
47.29154 446
47.31165 431
47.33176 428
47.35188 436
47.37199 422
47.39211 485
47.41222 430
47.43233 382
47.45245 430
47.47256 453
47.49267 456
47.51279 415
47.5329 401
47.55302 442
47.57313 464
47.59324 433
47.61336 433
47.63347 433
47.65358 461
47.6737 420
47.69381 461
47.71393 471
47.73404 394
47.75415 399
47.77427 435
47.79438 407
47.81449 425
47.83461 402
47.85472 415
47.87483 389
47.89495 434
47.91506 426
47.93518 483
47.95529 420
47.9754 456
47.99552 417
48.01563 436
48.03574 427
48.05586 440
48.07597 439
48.09609 467
48.1162 474
48.13631 463
48.15643 421
48.17654 430
48.19665 412
48.21677 407
48.23688 425
48.257 440
48.27711 441
48.29722 415
48.31734 401
48.33745 443
48.35756 394
48.37768 432
48.39779 435
48.4179 426
48.43802 457
48.45813 418
48.47825 410
48.49836 436
48.51847 441
48.53859 429
48.5587 468
48.57881 443
48.59893 448
48.61904 464
48.63916 418
48.65927 449
48.67938 468
48.6995 510
48.71961 478
48.73972 483
48.75984 473
48.77995 445
48.80006 463
48.82018 475
48.84029 464
48.86041 494
48.88052 502
48.90063 451
48.92075 465
48.94086 419
48.96097 424
48.98109 443
49.0012 426
49.02132 417
49.04143 413
49.06154 442
49.08166 406
49.10177 455
49.12188 425
49.142 422
49.16211 391
49.18223 429
49.20234 443
49.22245 422
49.24257 423
49.26268 405
49.28279 410
49.30291 454
49.32302 453
49.34313 412
49.36325 449
49.38336 447
49.40348 433
49.42359 445
49.4437 425
49.46382 434
49.48393 400
49.50404 439
49.52416 426
49.54427 427
49.56439 424
49.5845 453
49.60461 447
49.62473 454
49.64484 412
49.66495 475
49.68507 440
49.70518 401
49.7253 451
49.74541 483
49.76552 438
49.78564 465
49.80575 475
49.82586 478
49.84598 525
49.86609 520
49.8862 551
49.90632 570
49.92643 588
49.94655 657
49.96666 722
49.98677 854
50.00689 962
50.027 1125
50.04711 1344
50.06723 1505
50.08734 1618
50.10746 1628
50.12757 1614
50.14768 1301
50.1678 1198
50.18791 1092
50.20802 1069
50.22814 1017
50.24825 960
50.26837 889
50.28848 726
50.30859 627
50.32871 553
50.34882 540
50.36893 489
50.38905 476
50.40916 494
50.42927 461
50.44939 463
50.4695 511
50.48962 482
50.50973 481
50.52984 459
50.54996 485
50.57007 495
50.59018 473
50.6103 458
50.63041 496
50.65053 468
50.67064 442
50.69075 472
50.71087 458
50.73098 473
50.75109 465
50.77121 429
50.79132 413
50.81143 455
50.83155 428
50.85166 433
50.87178 470
50.89189 463
50.912 454
50.93212 451
50.95223 439
50.97234 415
50.99246 411
51.01257 395
51.03269 441
51.0528 460
51.07291 418
51.09303 425
51.11314 454
51.13325 428
51.15337 415
51.17348 436
51.1936 436
51.21371 424
51.23382 419
51.25394 433
51.27405 422
51.29416 440
51.31428 399
51.33439 394
51.3545 409
51.37462 424
51.39473 424
51.41485 420
51.43496 442
51.45507 350
51.47519 405
51.4953 396
51.51541 431
51.53553 380
51.55564 396
51.57576 399
51.59587 395
51.61598 425
51.6361 396
51.65621 448
51.67632 389
51.69644 386
51.71655 446
51.73667 407
51.75678 416
51.77689 412
51.79701 396
51.81712 455
51.83723 397
51.85735 396
51.87746 410
51.89757 412
51.91769 434
51.9378 422
51.95792 383
51.97803 436
51.99814 417
52.01826 456
52.03837 427
52.05848 449
52.0786 443
52.09871 428
52.11883 420
52.13894 402
52.15905 441
52.17917 462
52.19928 416
52.21939 450
52.23951 402
52.25962 434
52.27974 435
52.29985 392
52.31996 407
52.34008 487
52.36019 411
52.3803 437
52.40042 422
52.42053 429
52.44064 424
52.46076 421
52.48087 393
52.50099 433
52.5211 417
52.54121 443
52.56133 424
52.58144 419
52.60155 390
52.62167 408
52.64178 401
52.6619 386
52.68201 431
52.70212 433
52.72224 442
52.74235 410
52.76246 433
52.78258 431
52.80269 424
52.8228 448
52.84292 424
52.86303 443
52.88315 422
52.90326 461
52.92337 481
52.94349 467
52.9636 492
52.98371 496
53.00383 474
53.02394 483
53.04406 509
53.06417 473
53.08428 509
53.1044 540
53.12451 488
53.14462 518
53.16474 495
53.18485 475
53.20497 484
53.22508 492
53.24519 488
53.26531 467
53.28542 504
53.30553 520
53.32565 480
53.34576 492
53.36587 443
53.38599 459
53.4061 464
53.42622 470
53.44633 481
53.46644 446
53.48656 453
53.50667 471
53.52678 458
53.5469 483
53.56701 456
53.58713 505
53.60724 502
53.62735 487
53.64747 494
53.66758 491
53.68769 462
53.70781 471
53.72792 488
53.74804 469
53.76815 493
53.78826 497
53.80838 457
53.82849 468
53.8486 477
53.86872 533
53.88883 509
53.90894 503
53.92906 533
53.94917 520
53.96929 491
53.9894 530
54.00951 521
54.02963 538
54.04974 533
54.06985 506
54.08997 548
54.11008 526
54.1302 512
54.15031 527
54.17042 504
54.19054 524
54.21065 477
54.23076 541
54.25088 548
54.27099 563
54.29111 561
54.31122 565
54.33133 505
54.35145 550
54.37156 512
54.39167 522
54.41179 555
54.4319 516
54.45201 551
54.47213 515
54.49224 514
54.51236 530
54.53247 522
54.55258 508
54.5727 537
54.59281 542
54.61292 546
54.63304 534
54.65315 568
54.67327 547
54.69338 555
54.71349 591
54.73361 603
54.75372 728
54.77383 721
54.79395 764
54.81406 830
54.83417 833
54.85429 796
54.8744 758
54.89452 663
54.91463 699
54.93474 663
54.95486 662
54.97497 656
54.99508 637
55.0152 594
55.03531 565
55.05543 512
55.07554 548
55.09565 523
55.11577 481
55.13588 505
55.15599 546
55.17611 544
55.19622 572
55.21634 604
55.23645 601
55.25656 635
55.27668 616
55.29679 583
55.3169 629
55.33702 550
55.35713 595
55.37724 562
55.39736 566
55.41747 519
55.43759 524
55.4577 530
55.47781 495
55.49793 452
55.51804 461
55.53815 450
55.55827 434
55.57838 453
55.5985 455
55.61861 466
55.63872 466
55.65884 416
55.67895 461
55.69906 489
55.71918 428
55.73929 496
55.75941 422
55.77952 445
55.79963 449
55.81975 438
55.83986 456
55.85997 434
55.88009 447
55.9002 430
55.92031 423
55.94043 432
55.96054 390
55.98066 449
56.00077 429
56.02088 459
56.041 437
56.06111 434
56.08122 457
56.10134 419
56.12145 458
56.14157 440
56.16168 401
56.18179 415
56.20191 485
56.22202 428
56.24213 458
56.26225 410
56.28236 428
56.30248 447
56.32259 458
56.3427 422
56.36282 457
56.38293 402
56.40304 394
56.42316 404
56.44327 436
56.46338 413
56.4835 442
56.50361 437
56.52373 413
56.54384 418
56.56395 419
56.58407 400
56.60418 443
56.62429 408
56.64441 421
56.66452 465
56.68464 421
56.70475 430
56.72486 449
56.74498 442
56.76509 423
56.7852 422
56.80532 437
56.82543 405
56.84554 433
56.86566 429
56.88577 405
56.90589 425
56.926 436
56.94611 447
56.96623 480
56.98634 438
57.00645 426
57.02657 432
57.04668 417
57.0668 431
57.08691 461
57.10702 412
57.12714 435
57.14725 437
57.16736 444
57.18748 444
57.20759 441
57.22771 443
57.24782 414
57.26793 429
57.28805 430
57.30816 438
57.32827 429
57.34839 454
57.3685 420
57.38861 371
57.40873 395
57.42884 421
57.44896 408
57.46907 447
57.48918 424
57.5093 410
57.52941 422
57.54952 397
57.56964 417
57.58975 424
57.60987 417
57.62998 448
57.65009 444
57.67021 425
57.69032 444
57.71043 410
57.73055 448
57.75066 422
57.77078 422
57.79089 456
57.811 393
57.83112 466
57.85123 421
57.87134 444
57.89146 412
57.91157 420
57.93168 424
57.9518 406
57.97191 443
57.99203 425
58.01214 450
58.03225 387
58.05237 421
58.07248 411
58.09259 404
58.11271 443
58.13282 450
58.15294 414
58.17305 412
58.19316 422
58.21328 422
58.23339 391
58.2535 406
58.27362 431
58.29373 390
58.31385 419
58.33396 406
58.35407 404
58.37419 392
58.3943 369
58.41441 420
58.43453 407
58.45464 416
58.47475 410
58.49487 430
58.51498 410
58.5351 418
58.55521 415
58.57532 420
58.59544 393
58.61555 435
58.63566 410
58.65578 399
58.67589 387
58.69601 379
58.71612 369
58.73623 429
58.75635 384
58.77646 419
58.79657 417
58.81669 422
58.8368 403
58.85691 395
58.87703 393
58.89714 404
58.91726 417
58.93737 412
58.95748 406
58.9776 424
58.99771 421
59.01782 410
59.03794 400
59.05805 391
59.07817 437
59.09828 441
59.11839 421
59.13851 403
59.15862 410
59.17873 421
59.19885 399
59.21896 432
59.23908 410
59.25919 458
59.2793 394
59.29942 413
59.31953 437
59.33964 407
59.35976 424
59.37987 436
59.39998 437
59.4201 431
59.44021 438
59.46033 423
59.48044 426
59.50055 441
59.52067 448
59.54078 439
59.56089 428
59.58101 461
59.60112 450
59.62124 482
59.64135 462
59.66146 443
59.68158 522
59.70169 551
59.7218 543
59.74192 584
59.76203 642
59.78215 616
59.80226 733
59.82237 823
59.84249 854
59.8626 1098
59.88271 1076
59.90283 1161
59.92294 1186
59.94305 1035
59.96317 922
59.98328 843
60.0034 819
60.02351 819
60.04362 788
60.06374 796
60.08385 788
60.10396 740
60.12408 705
60.14419 628
60.16431 539
60.18442 468
60.20453 478
60.22465 427
60.24476 443
60.26487 456
60.28499 420
60.3051 439
60.32522 409
60.34533 431
60.36544 430
60.38556 428
60.40567 418
60.42578 399
60.4459 409
60.46601 434
60.48612 456
60.50624 472
60.52635 443
60.54647 409
60.56658 418
60.58669 422
60.60681 404
60.62692 430
60.64703 416
60.66715 390
60.68726 426
60.70738 426
60.72749 413
60.7476 390
60.76772 420
60.78783 403
60.80794 430
60.82806 407
60.84817 446
60.86828 408
60.8884 401
60.90851 422
60.92863 451
60.94874 388
60.96885 381
60.98897 418
61.00908 402
61.02919 432
61.04931 382
61.06942 396
61.08954 421
61.10965 396
61.12976 399
61.14988 388
61.16999 457
61.1901 427
61.21022 418
61.23033 430
61.25045 435
61.27056 441
61.29067 460
61.31079 459
61.3309 444
61.35101 479
61.37113 398
61.39124 409
61.41135 444
61.43147 392
61.45158 457
61.4717 460
61.49181 437
61.51192 451
61.53204 482
61.55215 494
61.57226 424
61.59238 443
61.61249 451
61.63261 446
61.65272 460
61.67283 441
61.69295 452
61.71306 467
61.73317 441
61.75329 434
61.7734 458
61.79352 476
61.81363 487
61.83374 468
61.85386 456
61.87397 463
61.89408 469
61.9142 451
61.93431 445
61.95442 473
61.97454 482
61.99465 497
62.01477 486
62.03488 463
62.05499 427
62.07511 491
62.09522 486
62.11533 492
62.13545 478
62.15556 530
62.17568 486
62.19579 529
62.2159 490
62.23602 473
62.25613 501
62.27624 535
62.29636 529
62.31647 570
62.33659 533
62.3567 542
62.37681 519
62.39693 541
62.41704 502
62.43715 486
62.45727 493
62.47738 451
62.49749 464
62.51761 476
62.53772 485
62.55784 501
62.57795 462
62.59806 472
62.61818 489
62.63829 482
62.6584 461
62.67852 454
62.69863 495
62.71875 450
62.73886 487
62.75897 445
62.77909 466
62.7992 459
62.81931 461
62.83943 447
62.85954 423
62.87965 406
62.89977 428
62.91988 423
62.94 399
62.96011 411
62.98022 418
63.00034 459
63.02045 445
63.04056 462
63.06068 413
63.08079 460
63.10091 402
63.12102 468
63.14113 464
63.16125 463
63.18136 419
63.20147 460
63.22159 430
63.2417 466
63.26182 474
63.28193 433
63.30204 453
63.32216 438
63.34227 483
63.36238 461
63.3825 455
63.40261 475
63.42272 433
63.44284 441
63.46295 461
63.48307 435
63.50318 439
63.52329 433
63.54341 458
63.56352 429
63.58363 466
63.60375 483
63.62386 430
63.64398 434
63.66409 440
63.6842 461
63.70432 436
63.72443 432
63.74454 457
63.76466 485
63.78477 428
63.80489 483
63.825 466
63.84511 474
63.86523 455
63.88534 491
63.90545 507
63.92557 543
63.94568 559
63.96579 554
63.98591 550
64.00602 571
64.02614 537
64.04625 478
64.06636 471
64.08648 479
64.10659 475
64.1267 541
64.14682 522
64.16693 509
64.18705 486
64.20716 476
64.22727 448
64.24739 441
64.2675 444
64.28761 415
64.30773 404
64.32784 423
64.34796 426
64.36807 419
64.38818 408
64.4083 448
64.42841 390
64.44852 419
64.46864 412
64.48875 423
64.50886 452
64.52898 409
64.54909 415
64.56921 403
64.58932 393
64.60943 392
64.62955 420
64.64966 359
64.66977 399
64.68989 431
64.71 443
64.73012 431
64.75023 412
64.77034 408
64.79046 443
64.81057 370
64.83068 376
64.8508 405
64.87091 429
64.89102 408
64.91114 435
64.93125 421
64.95137 364
64.97148 425
64.99159 396
65.01171 384
65.03182 416
65.05193 390
65.07205 410
65.09216 392
65.11228 374
65.13239 395
65.1525 382
65.17262 427
65.19273 421
65.21284 411
65.23296 363
65.25307 375
65.27319 404
65.2933 423
65.31341 418
65.33353 383
65.35364 387
65.37375 371
65.39387 368
65.41398 380
65.43409 399
65.45421 424
65.47432 369
65.49444 374
65.51455 368
65.53466 366
65.55478 398
65.57489 393
65.595 369
65.61512 441
65.63523 391
65.65535 445
65.67546 413
65.69557 386
65.71569 443
65.7358 398
65.75591 394
65.77603 435
65.79614 379
65.81626 382
65.83637 397
65.85648 403
65.8766 389
65.89671 359
65.91682 379
65.93694 398
65.95705 417
65.97716 386
65.99728 414
66.01739 393
66.03751 397
66.05762 411
66.07773 399
66.09785 389
66.11796 372
66.13807 416
66.15819 385
66.1783 394
66.19842 432
66.21853 408
66.23864 372
66.25876 367
66.27887 398
66.29898 366
66.3191 398
66.33921 369
66.35933 364
66.37944 387
66.39955 346
66.41967 380
66.43978 390
66.45989 390
66.48001 400
66.50012 401
66.52023 394
66.54035 387
66.56046 403
66.58058 349
66.60069 395
66.6208 385
66.64092 369
66.66103 396
66.68114 381
66.70126 371
66.72137 387
66.74149 409
66.7616 381
66.78171 379
66.80183 382
66.82194 424
66.84205 391
66.86217 380
66.88228 371
66.90239 385
66.92251 387
66.94262 356
66.96274 401
66.98285 393
67.00296 388
67.02308 419
67.04319 354
67.0633 388
67.08342 388
67.10353 383
67.12365 371
67.14376 385
67.16387 409
67.18399 428
67.2041 427
67.22421 382
67.24433 399
67.26444 380
67.28456 410
67.30467 421
67.32478 402
67.3449 422
67.36501 406
67.38512 375
67.40524 453
67.42535 384
67.44546 409
67.46558 459
67.48569 504
67.50581 449
67.52592 495
67.54603 530
67.56615 485
67.58626 572
67.60637 682
67.62649 654
67.6466 742
67.66672 760
67.68683 857
67.70694 758
67.72706 789
67.74717 722
67.76728 614
67.7874 611
67.80751 630
67.82763 610
67.84774 622
67.86785 636
67.88797 651
67.90808 702
67.92819 654
67.94831 626
67.96842 677
67.98853 715
68.00865 704
68.02876 770
68.04888 893
68.06899 902
68.0891 944
68.10922 1015
68.12933 957
68.14944 905
68.16956 890
68.18967 772
68.20979 839
68.2299 873
68.25001 901
68.27013 909
68.29024 891
68.31035 821
68.33047 740
68.35058 651
68.3707 587
68.39081 580
68.41092 528
68.43104 534
68.45115 510
68.47126 529
68.49138 483
68.51149 490
68.5316 447
68.55172 450
68.57183 416
68.59195 393
68.61206 412
68.63217 409
68.65229 397
68.6724 377
68.69251 394
68.71263 419
68.73274 385
68.75286 391
68.77297 398
68.79308 377
68.8132 407
68.83331 399
68.85342 387
68.87354 396
68.89365 396
68.91376 381
68.93388 366
68.95399 361
68.97411 399
68.99422 404
69.01433 364
69.03445 407
69.05456 406
69.07467 397
69.09479 391
69.1149 372
69.13502 415
69.15513 404
69.17524 389
69.19536 372
69.21547 402
69.23558 375
69.2557 372
69.27581 388
69.29593 384
69.31604 390
69.33615 391
69.35627 400
69.37638 346
69.39649 398
69.41661 379
69.43672 350
69.45683 419
69.47695 406
69.49706 389
69.51718 380
69.53729 385
69.5574 356
69.57752 372
69.59763 365
69.61774 353
69.63786 399
69.65797 355
69.67809 385
69.6982 408
69.71831 378
69.73843 363
69.75854 369
69.77865 346
69.79877 383
69.81888 380
69.839 400
69.85911 371
69.87922 418
69.89934 393
69.91945 338
69.93956 382
69.95968 379
69.97979 402
69.9999 400
70.02002 395
70.04013 374
70.06025 379
70.08036 358
70.10047 420
70.12059 407
70.1407 401
70.16081 388
70.18093 442
70.20104 389
70.22116 383
70.24127 367
70.26138 380
70.2815 357
70.30161 370
70.32172 382
70.34184 352
70.36195 366
70.38207 420
70.40218 348
70.42229 380
70.44241 376
70.46252 388
70.48263 391
70.50275 376
70.52286 379
70.54297 346
70.56309 396
70.5832 332
70.60332 376
70.62343 375
70.64354 389
70.66366 383
70.68377 351
70.70388 426
70.724 378
70.74411 397
70.76423 372
70.78434 356
70.80445 380
70.82457 377
70.84468 386
70.86479 353
70.88491 385
70.90502 386
70.92513 379
70.94525 386
70.96536 354
70.98548 334
71.00559 387
71.0257 359
71.04582 364
71.06593 386
71.08604 369
71.10616 415
71.12627 381
71.14639 385
71.1665 373
71.18661 384
71.20673 402
71.22684 355
71.24695 348
71.26707 339
71.28718 367
71.3073 350
71.32741 353
71.34752 368
71.36764 364
71.38775 339
71.40786 340
71.42798 380
71.44809 376
71.4682 323
71.48832 408
71.50843 353
71.52855 357
71.54866 382
71.56877 356
71.58889 353
71.609 383
71.62911 374
71.64923 392
71.66934 393
71.68946 358
71.70957 360
71.72968 402
71.7498 374
71.76991 385
71.79002 398
71.81014 372
71.83025 380
71.85037 382
71.87048 387
71.89059 359
71.91071 361
71.93082 392
71.95093 380
71.97105 370
71.99116 354
72.01127 366
72.03139 355
72.0515 352
72.07162 359
72.09173 385
72.11184 360
72.13196 368
72.15207 364
72.17218 375
72.1923 375
72.21241 380
72.23253 386
72.25264 340
72.27275 378
72.29287 378
72.31298 403
72.33309 406
72.35321 369
72.37332 363
72.39344 355
72.41355 407
72.43366 371
72.45378 387
72.47389 354
72.494 359
72.51412 340
72.53423 349
72.55434 389
72.57446 383
72.59457 387
72.61469 375
72.6348 398
72.65491 368
72.67503 371
72.69514 337
72.71525 344
72.73537 389
72.75548 377
72.7756 357
72.79571 368
72.81582 378
72.83594 364
72.85605 395
72.87616 335
72.89628 360
72.91639 383
72.9365 413
72.95662 372
72.97673 349
72.99685 378
73.01696 376
73.03707 393
73.05719 363
73.0773 345
73.09741 359
73.11753 371
73.13764 370
73.15776 342
73.17787 366
73.19798 410
73.2181 393
73.23821 382
73.25832 416
73.27844 393
73.29855 440
73.31867 432
73.33878 454
73.35889 425
73.37901 498
73.39912 567
73.41923 513
73.43935 516
73.45946 520
73.47957 473
73.49969 477
73.5198 434
73.53992 432
73.56003 424
73.58014 467
73.60026 440
73.62037 452
73.64048 425
73.6606 414
73.68071 438
73.70083 408
73.72094 379
73.74105 426
73.76117 391
73.78128 379
73.80139 374
73.82151 395
73.84162 416
73.86174 398
73.88185 346
73.90196 360
73.92208 392
73.94219 337
73.9623 386
73.98242 368
74.00253 341
74.02264 348
74.04276 366
74.06287 344
74.08299 360
74.1031 331
74.12321 394
74.14333 361
74.16344 365
74.18355 329
74.20367 373
74.22378 353
74.2439 379
74.26401 357
74.28412 346
74.30424 368
74.32435 339
74.34446 352
74.36458 391
74.38469 376
74.40481 353
74.42492 334
74.44503 356
74.46515 338
74.48526 345
74.50537 382
74.52549 368
74.5456 341
74.56571 365
74.58583 370
74.60594 392
74.62606 354
74.64617 361
74.66628 334
74.6864 355
74.70651 392
74.72662 354
74.74674 346
74.76685 348
74.78697 372
74.80708 371
74.82719 339
74.84731 353
74.86742 343
74.88753 356
74.90765 360
74.92776 350
74.94787 319
74.96799 389
74.9881 355
75.00822 374
