3.00117 20366
3.02128 19706
3.0414 18869
3.06151 18414
3.08162 18044
3.10174 17795
3.12185 17023
3.14197 16393
3.16208 15903
3.18219 15424
3.20231 15150
3.22242 14753
3.24253 14230
3.26265 13849
3.28276 13328
3.30288 12897
3.32299 12461
3.3431 11938
3.36322 11706
3.38333 11229
3.40344 11107
3.42356 10671
3.44367 10167
3.46379 9994
3.4839 9306
3.50401 9313
3.52413 8901
3.54424 8459
3.56435 8457
3.58447 7728
3.60458 7724
3.62469 7354
3.64481 6988
3.66492 6835
3.68504 6361
3.70515 6347
3.72526 6112
3.74538 5718
3.76549 5640
3.7856 5200
3.80572 5039
3.82583 4925
3.84595 4442
3.86606 4509
3.88617 4119
3.90629 4143
3.9264 4092
3.94651 3713
3.96663 3565
3.98674 3365
4.00686 3298
4.02697 3032
4.04708 2852
4.0672 2863
4.08731 2714
4.10742 2554
4.12754 2524
4.14765 2256
4.16776 2261
4.18788 2103
4.20799 2096
4.22811 2026
4.24822 1854
4.26833 1870
4.28845 1754
4.30856 1780
4.32867 1678
4.34879 1458
4.3689 1595
4.38902 1534
4.40913 1398
4.42924 1515
4.44936 1262
4.46947 1349
4.48958 1262
4.5097 1240
4.52981 1262
4.54992 1133
4.57004 1216
4.59015 1085
4.61027 1094
4.63038 1207
4.65049 949
4.67061 1004
4.69072 1059
4.71083 969
4.73095 953
4.75106 850
4.77118 903
4.79129 866
4.8114 835
4.83152 793
4.85163 766
4.87174 834
4.89186 770
4.91197 773
4.93209 790
4.9522 684
4.97231 753
4.99243 707
5.01254 672
5.03265 660
5.05277 635
5.07288 651
5.09299 610
5.11311 598
5.13322 588
5.15334 540
5.17345 504
5.19356 578
5.21368 581
5.23379 574
5.2539 478
5.27402 474
5.29413 508
5.31425 508
5.33436 497
5.35447 409
5.37459 462
5.3947 453
5.41481 381
5.43493 420
5.45504 370
5.47516 383
5.49527 395
5.51538 366
5.5355 410
5.55561 348
5.57572 364
5.59584 343
5.61595 347
5.63606 307
5.65618 369
5.67629 304
5.69641 318
5.71652 324
5.73663 234
5.75675 304
5.77686 315
5.79697 291
5.81709 288
5.8372 284
5.85732 285
5.87743 280
5.89754 268
5.91766 273
5.93777 271
5.95788 268
5.978 269
5.99811 245
6.01823 295
6.03834 285
6.05845 244
6.07857 258
6.09868 234
6.11879 251
6.13891 246
6.15902 260
6.17913 276
6.19925 256
6.21936 241
6.23948 241
6.25959 229
6.2797 204
6.29982 241
6.31993 212
6.34004 223
6.36016 249
6.38027 244
6.40039 232
6.4205 214
6.44061 200
6.46073 205
6.48084 218
6.50095 211
6.52107 208
6.54118 207
6.56129 205
6.58141 242
6.60152 230
6.62164 218
6.64175 223
6.66186 223
6.68198 232
6.70209 197
6.7222 238
6.74232 198
6.76243 234
6.78255 229
6.80266 199
6.82277 217
6.84289 193
6.863 218
6.88311 167
6.90323 202
6.92334 201
6.94346 205
6.96357 203
6.98368 217
7.0038 207
7.02391 226
7.04402 217
7.06414 190
7.08425 229
7.10436 212
7.12448 212
7.14459 202
7.16471 190
7.18482 242
7.20493 212
7.22505 221
7.24516 200
7.26527 236
7.28539 214
7.3055 204
7.32562 181
7.34573 199
7.36584 235
7.38596 224
7.40607 219
7.42618 222
7.4463 224
7.46641 224
7.48653 205
7.50664 228
7.52675 222
7.54687 221
7.56698 232
7.58709 217
7.60721 225
7.62732 234
7.64743 204
7.66755 230
7.68766 218
7.70778 235
7.72789 231
7.748 234
7.76812 244
7.78823 219
7.80834 215
7.82846 196
7.84857 234
7.86869 209
7.8888 229
7.90891 231
7.92903 217
7.94914 235
7.96925 264
7.98937 244
8.00948 217
8.0296 220
8.04971 258
8.06982 227
8.08994 238
8.11005 222
8.13016 244
8.15028 204
8.17039 245
8.1905 243
8.21062 260
8.23073 246
8.25085 219
8.27096 232
8.29107 213
8.31119 221
8.3313 224
8.35141 238
8.37153 263
8.39164 221
8.41176 234
8.43187 234
8.45198 209
8.4721 242
8.49221 257
8.51232 274
8.53244 229
8.55255 198
8.57266 227
8.59278 269
8.61289 252
8.63301 264
8.65312 215
8.67323 241
8.69335 260
8.71346 228
8.73357 250
8.75369 247
8.7738 224
8.79392 229
8.81403 245
8.83414 237
8.85426 254
8.87437 253
8.89448 219
8.9146 240
8.93471 225
8.95483 231
8.97494 233
8.99505 220
9.01517 203
9.03528 242
9.05539 221
9.07551 242
9.09562 267
9.11573 236
9.13585 226
9.15596 251
9.17608 258
9.19619 252
9.2163 253
9.23642 244
9.25653 232
9.27664 246
9.29676 239
9.31687 239
9.33699 213
9.3571 237
9.37721 235
9.39733 203
9.41744 240
9.43755 224
9.45767 246
9.47778 220
9.4979 261
9.51801 233
9.53812 217
9.55824 211
9.57835 232
9.59846 230
9.61858 227
9.63869 200
9.6588 216
9.67892 251
9.69903 236
9.71915 223
9.73926 217
9.75937 230
9.77949 260
9.7996 247
9.81971 197
9.83983 223
9.85994 206
9.88006 238
9.90017 259
9.92028 225
9.9404 205
9.96051 202
9.98062 241
10.00074 221
10.02085 196
10.04097 249
10.06108 235
10.08119 242
10.10131 239
10.12142 236
10.14153 207
10.16165 234
10.18176 212
10.20187 251
10.22199 247
10.2421 233
10.26222 240
10.28233 240
10.30244 245
10.32256 254
10.34267 268
10.36278 239
10.3829 226
10.40301 244
10.42313 237
10.44324 233
10.46335 214
10.48347 206
10.50358 249
10.52369 229
10.54381 210
10.56392 215
10.58403 255
10.60415 211
10.62426 247
10.64438 234
10.66449 221
10.6846 261
10.70472 219
10.72483 254
10.74494 200
10.76506 225
10.78517 247
10.80529 209
10.8254 236
10.84551 237
10.86563 272
10.88574 235
10.90585 246
10.92597 248
10.94608 238
10.9662 244
10.98631 204
11.00642 233
11.02654 244
11.04665 250
11.06676 259
11.08688 202
11.10699 248
11.1271 238
11.14722 222
11.16733 202
11.18745 190
11.20756 250
11.22767 219
11.24779 250
11.2679 241
11.28801 230
11.30813 264
11.32824 258
11.34836 253
11.36847 247
11.38858 216
11.4087 262
11.42881 247
11.44892 252
11.46904 213
11.48915 223
11.50927 245
11.52938 241
11.54949 245
11.56961 243
11.58972 259
11.60983 230
11.62995 218
11.65006 229
11.67017 246
11.69029 247
11.7104 252
11.73052 219
11.75063 242
11.77074 245
11.79086 250
11.81097 251
11.83108 229
11.8512 245
11.87131 228
11.89143 226
11.91154 232
11.93165 276
11.95177 248
11.97188 249
11.99199 248
12.01211 240
12.03222 212
12.05234 260
12.07245 212
12.09256 257
12.11268 241
12.13279 280
12.1529 267
12.17302 232
12.19313 274
12.21324 244
12.23336 269
12.25347 245
12.27359 286
12.2937 263
12.31381 231
12.33393 269
12.35404 260
12.37415 243
12.39427 274
12.41438 234
12.4345 251
12.45461 246
12.47472 242
12.49484 220
12.51495 249
12.53506 207
12.55518 246
12.57529 265
12.5954 254
12.61552 231
12.63563 224
12.65575 237
12.67586 227
12.69597 227
12.71609 230
12.7362 216
12.75631 223
12.77643 226
12.79654 222
12.81666 197
12.83677 226
12.85688 222
12.877 246
12.89711 226
12.91722 217
12.93734 198
12.95745 201
12.97757 216
12.99768 196
13.01779 209
13.03791 203
13.05802 238
13.07813 227
13.09825 250
13.11836 217
13.13847 262
13.15859 261
13.1787 230
13.19882 216
13.21893 204
13.23904 229
13.25916 241
13.27927 231
13.29938 205
13.3195 197
13.33961 195
13.35973 217
13.37984 237
13.39995 197
13.42007 199
13.44018 233
13.46029 206
13.48041 216
13.50052 213
13.52064 222
13.54075 221
13.56086 199
13.58098 251
13.60109 211
13.6212 243
13.64132 232
13.66143 265
13.68154 251
13.70166 239
13.72177 254
13.74189 195
13.762 217
13.78211 209
13.80223 205
13.82234 213
13.84245 215
13.86257 203
13.88268 212
13.9028 205
13.92291 177
13.94302 207
13.96314 249
13.98325 227
14.00336 198
14.02348 211
14.04359 225
14.06371 236
14.08382 206
14.10393 206
14.12405 228
14.14416 205
14.16427 196
14.18439 202
14.2045 168
14.22461 182
14.24473 171
14.26484 236
14.28496 200
14.30507 203
14.32518 220
14.3453 201
14.36541 192
14.38552 206
14.40564 194
14.42575 176
14.44587 189
14.46598 183
14.48609 214
14.50621 227
14.52632 236
14.54643 204
14.56655 203
14.58666 174
14.60677 175
14.62689 213
14.647 190
14.66712 197
14.68723 186
14.70734 197
14.72746 198
14.74757 227
14.76768 179
14.7878 182
14.80791 200
14.82803 198
14.84814 213
14.86825 228
14.88837 209
14.90848 208
14.92859 220
14.94871 242
14.96882 200
14.98894 203
15.00905 217
15.02916 218
15.04928 210
15.06939 193
15.0895 186
15.10962 167
15.12973 186
15.14984 191
15.16996 207
15.19007 209
15.21019 214
15.2303 234
15.25041 210
15.27053 208
15.29064 194
15.31075 221
15.33087 212
15.35098 206
15.3711 180
15.39121 198
15.41132 200
15.43144 221
15.45155 165
15.47166 159
15.49178 183
15.51189 199
15.53201 185
15.55212 193
15.57223 216
15.59235 184
15.61246 204
15.63257 171
15.65269 186
15.6728 195
15.69291 203
15.71303 212
15.73314 182
15.75326 203
15.77337 182
15.79348 182
15.8136 180
15.83371 225
15.85382 163
15.87394 200
15.89405 161
15.91417 180
15.93428 193
15.95439 201
15.97451 200
15.99462 158
16.01473 199
16.03485 190
16.05496 164
16.07508 167
16.09519 197
16.1153 198
16.13542 172
16.15553 171
16.17564 205
16.19576 188
16.21587 167
16.23598 169
16.2561 192
16.27621 177
16.29633 200
16.31644 163
16.33655 233
16.35667 202
16.37678 197
16.39689 178
16.41701 214
16.43712 186
16.45724 178
16.47735 200
16.49746 184
16.51758 201
16.53769 175
16.5578 182
16.57792 176
16.59803 200
16.61814 212
16.63826 219
16.65837 184
16.67849 202
16.6986 173
16.71871 209
16.73883 167
16.75894 190
16.77905 191
16.79917 182
16.81928 192
16.8394 191
16.85951 180
16.87962 228
16.89974 219
16.91985 200
16.93996 177
16.96008 183
16.98019 219
17.00031 225
17.02042 186
17.04053 183
17.06065 196
17.08076 175
17.10087 174
17.12099 178
17.1411 184
17.16121 184
17.18133 186
17.20144 186
17.22156 186
17.24167 182
17.26178 173
17.2819 210
17.30201 198
17.32212 195
17.34224 199
17.36235 198
17.38247 211
17.40258 210
17.42269 195
17.44281 179
17.46292 212
17.48303 180
17.50315 204
17.52326 202
17.54338 182
17.56349 200
17.5836 180
17.60372 191
17.62383 220
17.64394 180
17.66406 214
17.68417 204
17.70428 197
17.7244 200
17.74451 179
17.76463 183
17.78474 214
17.80485 198
17.82497 185
17.84508 207
17.86519 178
17.88531 197
17.90542 183
17.92554 212
17.94565 201
17.96576 189
17.98588 196
18.00599 199
18.0261 189
18.04622 167
18.06633 188
18.08645 213
18.10656 239
18.12667 203
18.14679 183
18.1669 196
18.18701 209
18.20713 188
18.22724 194
18.24735 171
18.26747 167
18.28758 195
18.3077 209
18.32781 198
18.34792 195
18.36804 210
18.38815 181
18.40826 191
18.42838 206
18.44849 179
18.46861 218
18.48872 171
18.50883 202
18.52895 188
18.54906 200
18.56917 200
18.58929 171
18.6094 192
18.62951 196
18.64963 186
18.66974 200
18.68986 174
18.70997 213
18.73008 186
18.7502 207
18.77031 215
18.79042 219
18.81054 236
18.83065 179
18.85077 196
18.87088 207
18.89099 209
18.91111 203
18.93122 205
18.95133 179
18.97145 229
18.99156 221
19.01168 215
19.03179 201
19.0519 193
19.07202 218
19.09213 212
19.11224 201
19.13236 225
19.15247 222
19.17258 203
19.1927 213
19.21281 187
19.23293 219
19.25304 222
19.27315 216
19.29327 225
19.31338 253
19.33349 204
19.35361 223
19.37372 235
19.39384 201
19.41395 216
19.43406 201
19.45418 252
19.47429 228
19.4944 204
19.51452 233
19.53463 231
19.55475 247
19.57486 263
19.59497 238
19.61509 231
19.6352 269
19.65531 271
19.67543 298
19.69554 290
19.71565 287
19.73577 324
19.75588 329
19.776 318
19.79611 337
19.81622 324
19.83634 320
19.85645 333
19.87656 334
19.89668 324
19.91679 351
19.93691 357
19.95702 351
19.97713 366
19.99725 319
20.01736 359
20.03747 333
20.05759 317
20.0777 355
20.09782 322
20.11793 360
20.13804 289
20.15816 338
20.17827 383
20.19838 319
20.2185 324
20.23861 354
20.25872 331
20.27884 351
20.29895 353
20.31907 384
20.33918 368
20.35929 344
20.37941 355
20.39952 385
20.41963 373
20.43975 374
20.45986 386
20.47998 375
20.50009 426
20.5202 439
20.54032 455
20.56043 468
20.58054 479
20.60066 534
20.62077 561
20.64088 629
20.661 761
20.68111 913
20.70123 1260
20.72134 1644
20.74145 2285
20.76157 3218
20.78168 4264
20.80179 5752
20.82191 6776
20.84202 7345
20.86214 7054
20.88225 5784
20.90236 4151
20.92248 3021
20.94259 1980
20.9627 1243
20.98282 935
21.00293 837
21.02305 795
21.04316 762
21.06327 655
21.08339 634
21.1035 516
21.12361 465
21.14373 466
21.16384 378
21.18395 406
21.20407 354
21.22418 337
21.2443 360
21.26441 352
21.28452 355
21.30464 300
21.32475 312
21.34486 331
21.36498 311
21.38509 294
21.40521 326
21.42532 311
21.44543 311
21.46555 294
21.48566 269
21.50577 331
21.52589 284
21.546 311
21.56612 285
21.58623 280
21.60634 301
21.62646 276
21.64657 325
21.66668 285
21.6868 298
21.70691 280
21.72702 292
21.74714 305
21.76725 313
21.78737 287
21.80748 295
21.82759 277
21.84771 277
21.86782 259
21.88793 297
21.90805 259
21.92816 303
21.94828 290
21.96839 294
21.9885 265
22.00862 287
22.02873 294
22.04884 282
22.06896 267
22.08907 291
22.10919 288
22.1293 295
22.14941 272
22.16953 291
22.18964 271
22.20975 248
22.22987 314
22.24998 326
22.27009 375
22.29021 347
22.31032 331
22.33044 304
22.35055 326
22.37066 290
22.39078 293
22.41089 259
22.431 294
22.45112 270
22.47123 270
22.49135 262
22.51146 288
22.53157 247
22.55169 301
22.5718 287
22.59191 270
22.61203 304
22.63214 305
22.65225 281
22.67237 313
22.69248 285
22.7126 258
22.73271 290
22.75282 280
22.77294 264
22.79305 277
22.81316 272
22.83328 202
22.85339 267
22.87351 283
22.89362 280
22.91373 265
22.93385 272
22.95396 269
22.97407 271
22.99419 273
23.0143 247
23.03442 337
23.05453 300
23.07464 298
23.09476 358
23.11487 349
23.13498 390
23.1551 395
23.17521 397
23.19532 393
23.21544 377
23.23555 368
23.25567 345
23.27578 335
23.29589 259
23.31601 281
23.33612 267
23.35623 281
23.37635 274
23.39646 257
23.41658 280
23.43669 311
23.4568 259
23.47692 297
23.49703 297
23.51714 248
23.53726 262
23.55737 305
23.57749 268
23.5976 254
23.61771 258
23.63783 250
23.65794 277
23.67805 275
23.69817 257
23.71828 296
23.73839 292
23.75851 272
23.77862 276
23.79874 304
23.81885 296
23.83896 293
23.85908 333
23.87919 353
23.8993 350
23.91942 350
23.93953 404
23.95965 456
23.97976 494
23.99987 410
24.01999 431
24.0401 372
24.06021 377
24.08033 316
24.10044 297
24.12056 289
24.14067 277
24.16078 292
24.1809 288
24.20101 276
24.22112 288
24.24124 260
24.26135 302
24.28146 314
24.30158 342
24.32169 324
24.34181 307
24.36192 286
24.38203 316
24.40215 282
24.42226 289
24.44237 248
24.46249 257
24.4826 253
24.50272 246
24.52283 250
24.54294 281
24.56306 249
24.58317 280
24.60328 261
24.6234 290
24.64351 281
24.66362 308
24.68374 306
24.70385 284
24.72397 295
24.74408 301
24.76419 317
24.78431 285
24.80442 318
24.82453 295
24.84465 318
24.86476 301
24.88488 308
24.90499 323
24.9251 315
24.94522 312
24.96533 242
24.98544 283
25.00556 279
25.02567 263
25.04579 281
25.0659 257
25.08601 255
25.10613 258
25.12624 288
25.14635 303
25.16647 311
25.18658 346
25.20669 292
25.22681 337
25.24692 345
25.26704 381
25.28715 371
25.30726 350
25.32738 385
25.34749 356
25.3676 362
25.38772 336
25.40783 333
25.42795 402
25.44806 415
25.46817 396
25.48829 462
25.5084 446
25.52851 454
25.54863 497
25.56874 484
25.58886 501
25.60897 437
25.62908 517
25.6492 482
25.66931 496
25.68942 495
25.70954 490
25.72965 491
25.74976 467
25.76988 477
25.78999 473
25.81011 472
25.83022 441
25.85033 467
25.87045 456
25.89056 446
25.91067 506
25.93079 467
25.9509 485
25.97102 476
25.99113 500
26.01124 480
26.03136 533
26.05147 519
26.07158 528
26.0917 546
26.11181 608
26.13193 624
26.15204 677
26.17215 774
26.19227 835
26.21238 809
26.23249 825
26.25261 895
26.27272 1024
26.29283 1085
26.31295 1241
26.33306 1303
26.35318 1500
26.37329 1728
26.3934 2128
26.41352 2503
26.43363 3126
26.45374 4111
26.47386 5620
26.49397 7717
26.51409 10699
26.5342 14857
26.55431 20322
26.57443 26013
26.59454 30909
26.61465 33186
26.63477 31993
26.65488 27099
26.67499 20623
26.69511 15530
26.71522 10897
26.73534 6639
26.75545 3782
26.77556 2453
26.79568 1909
26.81579 1593
26.8359 1430
26.85602 1345
26.87613 1234
26.89625 1172
26.91636 1078
26.93647 1035
26.95659 1035
26.9767 930
26.99681 937
27.01693 892
27.03704 889
27.05716 837
27.07727 809
27.09738 716
27.1175 654
27.13761 613
27.15772 609
27.17784 570
27.19795 530
27.21806 521
27.23818 507
27.25829 554
27.27841 580
27.29852 606
27.31863 691
27.33875 722
27.35886 821
27.37897 949
27.39909 963
27.4192 1003
27.43932 969
27.45943 892
27.47954 857
27.49966 793
27.51977 741
27.53988 603
27.56 555
27.58011 479
27.60023 421
27.62034 404
27.64045 400
27.66057 388
27.68068 395
27.70079 345
27.72091 347
27.74102 366
27.76113 332
27.78125 384
27.80136 335
27.82148 363
27.84159 365
27.8617 385
27.88182 328
27.90193 368
27.92204 344
27.94216 405
27.96227 320
27.98239 326
28.0025 338
28.02261 322
28.04273 318
28.06284 317
28.08295 296
28.10307 293
28.12318 328
28.1433 310
28.16341 320
28.18352 318
28.20364 284
28.22375 270
28.24386 285
28.26398 285
28.28409 259
28.3042 261
28.32432 295
28.34443 278
28.36455 298
28.38466 299
28.40477 332
28.42489 254
28.445 256
28.46511 251
28.48523 265
28.50534 255
28.52546 241
28.54557 234
28.56568 265
28.5858 276
28.60591 273
28.62602 246
28.64614 280
28.66625 244
28.68636 249
28.70648 267
28.72659 281
28.74671 297
28.76682 274
28.78693 256
28.80705 297
28.82716 259
28.84727 248
28.86739 228
28.8875 260
28.90762 251
28.92773 248
28.94784 259
28.96796 264
28.98807 258
29.00818 208
29.0283 267
29.04841 255
29.06853 240
29.08864 240
29.10875 251
29.12887 275
29.14898 258
29.16909 265
29.18921 259
29.20932 279
29.22943 247
29.24955 277
29.26966 282
29.28978 304
29.30989 279
29.33 266
29.35012 293
29.37023 296
29.39034 337
29.41046 350
29.43057 311
29.45069 304
29.4708 313
29.49091 298
29.51103 274
29.53114 273
29.55125 265
29.57137 279
29.59148 270
29.6116 257
29.63171 282
29.65182 234
29.67194 251
29.69205 248
29.71216 251
29.73228 227
29.75239 233
29.7725 244
29.79262 261
29.81273 267
29.83285 283
29.85296 234
29.87307 270
29.89319 242
29.9133 247
29.93341 252
29.95353 252
29.97364 272
29.99376 273
30.01387 229
30.03398 273
30.0541 276
30.07421 262
30.09432 296
30.11444 323
30.13455 313
30.15467 336
30.17478 373
30.19489 353
30.21501 358
30.23512 314
30.25523 302
30.27535 303
30.29546 304
30.31557 269
30.33569 250
30.3558 237
30.37592 251
30.39603 224
30.41614 250
30.43626 230
30.45637 248
30.47648 225
30.4966 225
30.51671 239
30.53683 234
30.55694 275
30.57705 233
30.59717 226
30.61728 269
30.63739 267
30.65751 291
30.67762 356
30.69773 313
30.71785 323
30.73796 320
30.75808 316
30.77819 315
30.7983 309
30.81842 305
30.83853 275
30.85864 289
30.87876 274
30.89887 261
30.91899 293
30.9391 240
30.95921 240
30.97933 241
30.99944 219
31.01955 220
31.03967 220
31.05978 202
31.0799 212
31.10001 213
31.12012 198
31.14024 247
31.16035 201
31.18046 194
31.20058 184
31.22069 243
31.2408 212
31.26092 192
31.28103 216
31.30115 240
31.32126 218
31.34137 192
31.36149 211
31.3816 187
31.40171 182
31.42183 174
31.44194 191
31.46206 217
31.48217 186
31.50228 217
31.5224 172
31.54251 206
31.56262 211
31.58274 187
31.60285 212
31.62297 203
31.64308 201
31.66319 221
31.68331 196
31.70342 196
31.72353 219
31.74365 205
31.76376 205
31.78387 200
31.80399 180
31.8241 183
31.84422 193
31.86433 188
31.88444 181
31.90456 180
31.92467 203
31.94478 205
31.9649 248
31.98501 193
32.00513 172
32.02524 202
32.04535 232
32.06547 235
32.08558 220
32.10569 212
32.12581 225
32.14592 196
32.16604 177
32.18615 208
32.20626 224
32.22638 209
32.24649 213
32.2666 200
32.28672 222
32.30683 203
32.32694 213
32.34706 206
32.36717 235
32.38729 194
32.4074 182
32.42751 245
32.44763 224
32.46774 234
32.48785 218
32.50797 227
32.52808 221
32.5482 191
32.56831 189
32.58842 203
32.60854 198
32.62865 168
32.64876 197
32.66888 186
32.68899 209
32.7091 182
32.72922 158
32.74933 177
32.76945 174
32.78956 189
32.80967 202
32.82979 141
32.8499 199
32.87001 155
32.89013 179
32.91024 177
32.93036 165
32.95047 182
32.97058 186
32.9907 196
33.01081 186
33.03092 183
33.05104 207
33.07115 176
33.09127 177
33.11138 176
33.13149 193
33.15161 173
33.17172 187
33.19183 166
33.21195 165
33.23206 171
33.25217 171
33.27229 185
33.2924 168
33.31252 189
33.33263 202
33.35274 177
33.37286 190
33.39297 171
33.41308 170
33.4332 184
33.45331 169
33.47343 160
33.49354 162
33.51365 201
33.53377 201
33.55388 182
33.57399 182
33.59411 183
33.61422 176
33.63434 178
33.65445 173
33.67456 195
33.69468 161
33.71479 169
33.7349 188
33.75502 198
33.77513 176
33.79524 173
33.81536 158
33.83547 189
33.85559 164
33.8757 173
33.89581 194
33.91593 173
33.93604 181
33.95615 167
33.97627 189
33.99638 200
34.0165 182
34.03661 171
34.05672 191
34.07684 211
34.09695 249
34.11706 224
34.13718 255
34.15729 247
34.17741 253
34.19752 259
34.21763 223
34.23775 226
34.25786 246
34.27797 234
34.29809 193
34.3182 194
34.33831 216
34.35843 201
34.37854 197
34.39866 193
34.41877 203
34.43888 210
34.459 203
34.47911 192
34.49922 217
34.51934 213
34.53945 244
34.55957 240
34.57968 222
34.59979 240
34.61991 227
34.64002 259
34.66013 228
34.68025 238
34.70036 229
34.72047 258
34.74059 247
34.7607 239
34.78082 248
34.80093 239
34.82104 240
34.84116 272
34.86127 279
34.88138 245
34.9015 282
34.92161 253
34.94173 264
34.96184 261
34.98195 248
35.00207 260
35.02218 260
35.04229 260
35.06241 237
35.08252 245
35.10264 263
35.12275 250
35.14286 228
35.16298 200
35.18309 281
35.2032 241
35.22332 253
35.24343 238
35.26354 249
35.28366 254
35.30377 233
35.32389 247
35.344 254
35.36411 266
35.38423 250
35.40434 258
35.42445 295
35.44457 293
35.46468 308
35.4848 347
35.50491 305
35.52502 325
35.54514 343
35.56525 299
35.58536 301
35.60548 262
35.62559 271
35.64571 267
35.66582 259
35.68593 241
35.70605 235
35.72616 227
35.74627 222
35.76639 253
35.7865 246
35.80661 221
35.82673 242
35.84684 222
35.86696 257
35.88707 222
35.90718 252
35.9273 231
35.94741 227
35.96752 224
35.98764 254
36.00775 251
36.02787 256
36.04798 245
36.06809 240
36.08821 232
36.10832 229
36.12843 223
36.14855 249
36.16866 220
36.18878 278
36.20889 260
36.229 270
36.24912 327
36.26923 324
36.28934 323
36.30946 426
36.32957 452
36.34968 494
36.3698 664
36.38991 809
36.41003 1010
36.43014 1263
36.45025 1612
36.47037 1987
36.49048 2237
36.51059 2257
36.53071 2237
36.55082 1932
36.57094 1558
36.59105 1326
36.61116 1229
36.63128 961
36.65139 760
36.6715 536
36.69162 401
36.71173 341
36.73184 299
36.75196 277
36.77207 256
36.79219 293
36.8123 266
36.83241 249
36.85253 266
36.87264 280
36.89275 243
36.91287 254
36.93298 257
36.9531 257
36.97321 230
36.99332 231
37.01344 223
37.03355 220
37.05366 219
37.07378 211
37.09389 207
37.11401 213
37.13412 213
37.15423 216
37.17435 196
37.19446 188
37.21457 194
37.23469 183
37.2548 206
37.27491 183
37.29503 185
37.31514 191
37.33526 206
37.35537 196
37.37548 181
37.3956 195
37.41571 217
37.43582 211
37.45594 189
37.47605 202
37.49617 187
37.51628 200
37.53639 181
37.55651 191
37.57662 199
37.59673 221
37.61685 202
37.63696 225
37.65708 211
37.67719 220
37.6973 197
37.71742 235
37.73753 167
37.75764 170
37.77776 186
37.79787 198
37.81798 200
37.8381 177
37.85821 177
37.87833 211
37.89844 206
37.91855 189
37.93867 179
37.95878 179
37.97889 183
37.99901 193
38.01912 225
38.03924 178
38.05935 197
38.07946 178
38.09958 205
38.11969 194
38.1398 193
38.15992 180
38.18003 190
38.20015 183
38.22026 206
38.24037 220
38.26049 185
38.2806 203
38.30071 206
38.32083 231
38.34094 195
38.36105 200
38.38117 234
38.40128 238
38.4214 236
38.44151 229
38.46162 247
38.48174 254
38.50185 256
38.52196 247
38.54208 246
38.56219 241
38.58231 245
38.60242 223
38.62253 212
38.64265 224
38.66276 203
38.68287 201
38.70299 218
38.7231 208
38.74321 199
38.76333 171
38.78344 181
38.80356 206
38.82367 218
38.84378 219
38.8639 214
38.88401 195
38.90412 216
38.92424 234
38.94435 227
38.96447 192
38.98458 224
39.00469 219
39.02481 227
39.04492 218
39.06503 221
39.08515 232
39.10526 239
39.12538 258
39.14549 273
39.1656 288
39.18572 336
39.20583 342
39.22594 335
39.24606 423
39.26617 475
39.28628 571
39.3064 707
39.32651 826
39.34663 1175
39.36674 1397
39.38685 1705
39.40697 1946
39.42708 2058
39.44719 2080
39.46731 1835
39.48742 1541
39.50754 1279
39.52765 1156
39.54776 1025
39.56788 896
39.58799 657
39.6081 417
39.62822 328
39.64833 299
39.66845 264
39.68856 264
39.70867 261
39.72879 238
39.7489 240
39.76901 209
39.78913 189
39.80924 250
39.82935 212
39.84947 214
39.86958 213
39.8897 207
39.90981 223
39.92992 206
39.95004 240
39.97015 239
39.99026 248
40.01038 231
40.03049 293
40.05061 305
40.07072 305
40.09083 353
40.11095 407
40.13106 478
40.15117 588
40.17129 681
40.1914 743
40.21152 941
40.23163 1040
40.25174 1110
40.27186 1032
40.29197 963
40.31208 767
40.3322 720
40.35231 667
40.37242 591
40.39254 541
40.41265 419
40.43277 297
40.45288 258
40.47299 233
40.49311 228
40.51322 202
40.53333 227
40.55345 225
40.57356 185
40.59368 195
40.61379 200
40.6339 196
40.65402 194
40.67413 178
40.69424 202
40.71436 194
40.73447 195
40.75458 198
40.7747 194
40.79481 159
40.81493 187
40.83504 186
40.85515 195
40.87527 180
40.89538 201
40.91549 175
40.93561 187
40.95572 190
40.97584 207
40.99595 189
41.01606 181
41.03618 165
41.05629 179
41.0764 195
41.09652 177
41.11663 204
41.13675 213
41.15686 219
41.17697 172
41.19709 199
41.2172 184
41.23731 176
41.25743 190
41.27754 179
41.29765 188
41.31777 194
41.33788 201
41.358 193
41.37811 183
41.39822 165
41.41834 187
41.43845 212
41.45856 183
41.47868 206
41.49879 202
41.51891 176
41.53902 195
41.55913 217
41.57925 226
41.59936 202
41.61947 207
41.63959 241
41.6597 246
41.67982 256
41.69993 261
41.72004 274
41.74016 269
41.76027 288
41.78038 297
41.8005 296
41.82061 306
41.84072 266
41.86084 255
41.88095 250
41.90107 240
41.92118 239
41.94129 209
41.96141 231
41.98152 224
42.00163 199
42.02175 202
42.04186 177
42.06198 223
42.08209 235
42.1022 245
42.12232 247
42.14243 247
42.16254 263
42.18266 283
42.20277 298
42.22289 329
42.243 403
42.26311 435
42.28323 534
42.30334 637
42.32345 847
42.34357 1092
42.36368 1280
42.38379 1426
42.40391 1545
42.42402 1500
42.44414 1359
42.46425 1128
42.48436 937
42.50448 872
42.52459 905
42.5447 759
42.56482 608
42.58493 432
42.60505 317
42.62516 278
42.64527 253
42.66539 265
42.6855 232
42.70561 216
42.72573 224
42.74584 196
42.76595 194
42.78607 223
42.80618 194
42.8263 222
42.84641 222
42.86652 225
42.88664 175
42.90675 171
42.92686 150
42.94698 158
42.96709 192
42.98721 174
43.00732 166
43.02743 174
43.04755 167
43.06766 179
43.08777 173
43.10789 182
43.128 175
43.14812 169
43.16823 175
43.18834 187
43.20846 171
43.22857 165
43.24868 181
43.2688 175
43.28891 198
43.30902 155
43.32914 156
43.34925 173
43.36937 179
43.38948 178
43.40959 169
43.42971 167
43.44982 180
43.46993 175
43.49005 186
43.51016 194
43.53028 172
43.55039 174
43.5705 178
43.59062 187
43.61073 170
43.63084 179
43.65096 182
43.67107 193
43.69119 197
43.7113 183
43.73141 165
43.75153 189
43.77164 168
43.79175 172
43.81187 164
43.83198 194
43.85209 192
43.87221 167
43.89232 199
43.91244 165
43.93255 157
43.95266 161
43.97278 172
43.99289 193
44.013 166
44.03312 156
44.05323 176
44.07335 157
44.09346 166
44.11357 162
44.13369 163
44.1538 181
44.17391 181
44.19403 191
44.21414 184
44.23426 178
44.25437 169
44.27448 182
44.2946 165
44.31471 175
44.33482 185
44.35494 182
44.37505 190
44.39516 157
44.41528 190
44.43539 153
44.45551 191
44.47562 169
44.49573 153
44.51585 152
44.53596 189
44.55607 165
44.57619 148
44.5963 179
44.61642 180
44.63653 171
44.65664 181
44.67676 174
44.69687 177
44.71698 157
44.7371 191
44.75721 191
44.77732 152
44.79744 177
44.81755 153
44.83767 159
44.85778 161
44.87789 172
44.89801 177
44.91812 170
44.93823 175
44.95835 179
44.97846 178
44.99858 163
45.01869 174
45.0388 172
45.05892 160
45.07903 167
45.09914 152
45.11926 155
45.13937 168
45.15949 191
45.1796 162
45.19971 158
45.21983 180
45.23994 176
45.26005 181
45.28017 192
45.30028 180
45.32039 196
45.34051 190
45.36062 188
45.38074 198
45.40085 222
45.42096 208
45.44108 205
45.46119 242
45.4813 246
45.50142 276
45.52153 251
45.54165 293
45.56176 327
45.58187 387
45.60199 369
45.6221 459
45.64221 548
45.66233 617
45.68244 774
45.70256 888
45.72267 944
45.74278 995
45.7629 1047
45.78301 974
45.80312 839
45.82324 674
45.84335 609
45.86346 636
45.88358 569
45.90369 476
45.92381 412
45.94392 288
45.96403 243
45.98415 244
46.00426 206
46.02437 177
46.04449 193
46.0646 195
46.08472 194
46.10483 171
46.12494 184
46.14506 211
46.16517 194
46.18528 193
46.2054 185
46.22551 184
46.24563 161
46.26574 161
46.28585 153
46.30597 167
46.32608 175
46.34619 176
46.36631 171
46.38642 216
46.40653 159
46.42665 171
46.44676 136
46.46688 126
46.48699 160
46.5071 138
46.52722 155
46.54733 156
46.56744 156
46.58756 146
46.60767 168
46.62779 148
46.6479 159
46.66801 158
46.68813 137
46.70824 157
46.72835 159
46.74847 140
46.76858 139
46.78869 175
46.80881 168
46.82892 152
46.84904 135
46.86915 142
46.88926 152
46.90938 167
46.92949 163
46.9496 185
46.96972 171
46.98983 188
47.00995 171
47.03006 173
47.05017 185
47.07029 183
47.0904 188
47.11051 187
47.13063 171
47.15074 202
47.17086 169
47.19097 182
47.21108 158
47.2312 167
47.25131 168
47.27142 165
47.29154 157
47.31165 164
47.33176 182
47.35188 185
47.37199 161
47.39211 155
47.41222 185
47.43233 169
47.45245 184
47.47256 171
47.49267 169
47.51279 190
47.5329 172
47.55302 167
47.57313 171
47.59324 161
47.61336 151
47.63347 147
47.65358 169
47.6737 150
47.69381 160
47.71393 138
47.73404 151
47.75415 170
47.77427 167
47.79438 156
47.81449 161
47.83461 148
47.85472 150
47.87483 159
47.89495 169
47.91506 172
47.93518 205
47.95529 170
47.9754 176
47.99552 194
48.01563 180
48.03574 191
48.05586 197
48.07597 209
48.09609 191
48.1162 165
48.13631 161
48.15643 215
48.17654 168
48.19665 181
48.21677 185
48.23688 175
48.257 150
48.27711 144
48.29722 159
48.31734 149
48.33745 153
48.35756 153
48.37768 167
48.39779 152
48.4179 169
48.43802 163
48.45813 151
48.47825 165
48.49836 159
48.51847 151
48.53859 163
48.5587 168
48.57881 158
48.59893 157
48.61904 164
48.63916 165
48.65927 178
48.67938 192
48.6995 156
48.71961 197
48.73972 159
48.75984 200
48.77995 177
48.80006 163
48.82018 164
48.84029 176
48.86041 171
48.88052 186
48.90063 178
48.92075 161
48.94086 188
48.96097 186
48.98109 183
49.0012 191
49.02132 175
49.04143 183
49.06154 166
49.08166 202
49.10177 184
49.12188 183
49.142 187
49.16211 173
49.18223 171
49.20234 202
49.22245 172
49.24257 191
49.26268 178
49.28279 180
49.30291 169
49.32302 180
49.34313 167
49.36325 173
49.38336 182
49.40348 165
49.42359 167
49.4437 194
49.46382 159
49.48393 182
49.50404 195
49.52416 194
49.54427 198
49.56439 187
49.5845 208
49.60461 203
49.62473 249
49.64484 219
49.66495 199
49.68507 239
49.70518 225
49.7253 270
49.74541 247
49.76552 301
49.78564 287
49.80575 347
49.82586 408
49.84598 410
49.86609 516
49.8862 580
49.90632 654
49.92643 780
49.94655 955
49.96666 1179
49.98677 1479
50.00689 1821
50.027 2128
50.04711 2613
50.06723 3004
50.08734 3218
50.10746 3211
50.12757 2851
50.14768 2433
50.1678 2032
50.18791 1828
50.20802 1678
50.22814 1705
50.24825 1507
50.26837 1212
50.28848 916
50.30859 620
50.32871 488
50.34882 374
50.36893 372
50.38905 367
50.40916 344
50.42927 338
50.44939 355
50.4695 349
50.48962 371
50.50973 352
50.52984 362
50.54996 336
50.57007 323
50.59018 346
50.6103 312
50.63041 307
50.65053 296
50.67064 291
50.69075 286
50.71087 267
50.73098 254
50.75109 222
50.77121 216
50.79132 221
50.81143 247
50.83155 202
50.85166 204
50.87178 207
50.89189 216
50.912 166
50.93212 188
50.95223 174
50.97234 188
50.99246 169
51.01257 174
51.03269 179
51.0528 170
51.07291 155
51.09303 186
51.11314 186
51.13325 161
51.15337 188
51.17348 165
51.1936 171
51.21371 158
51.23382 164
51.25394 184
51.27405 149
51.29416 144
51.31428 128
51.33439 149
51.3545 132
51.37462 152
51.39473 148
51.41485 157
51.43496 143
51.45507 169
51.47519 140
51.4953 147
51.51541 154
51.53553 140
51.55564 147
51.57576 148
51.59587 152
51.61598 143
51.6361 148
51.65621 159
51.67632 136
51.69644 149
51.71655 126
51.73667 146
51.75678 140
51.77689 148
51.79701 145
51.81712 128
51.83723 125
51.85735 143
51.87746 139
51.89757 162
51.91769 141
51.9378 158
51.95792 131
51.97803 153
51.99814 156
52.01826 145
52.03837 154
52.05848 150
52.0786 134
52.09871 147
52.11883 170
52.13894 157
52.15905 146
52.17917 157
52.19928 146
52.21939 166
52.23951 160
52.25962 140
52.27974 146
52.29985 143
52.31996 137
52.34008 159
52.36019 146
52.3803 139
52.40042 152
52.42053 122
52.44064 151
52.46076 159
52.48087 166
52.50099 136
52.5211 145
52.54121 144
52.56133 147
52.58144 143
52.60155 158
52.62167 160
52.64178 153
52.6619 133
52.68201 126
52.70212 185
52.72224 136
52.74235 144
52.76246 158
52.78258 149
52.80269 148
52.8228 172
52.84292 151
52.86303 143
52.88315 148
52.90326 130
52.92337 155
52.94349 169
52.9636 163
52.98371 154
53.00383 173
53.02394 146
53.04406 158
53.06417 151
53.08428 156
53.1044 150
53.12451 167
53.14462 188
53.16474 161
53.18485 141
53.20497 160
53.22508 175
53.24519 172
53.26531 182
53.28542 193
53.30553 197
53.32565 177
53.34576 184
53.36587 165
53.38599 190
53.4061 185
53.42622 171
53.44633 153
53.46644 177
53.48656 199
53.50667 163
53.52678 176
53.5469 173
53.56701 178
53.58713 204
53.60724 166
53.62735 162
53.64747 169
53.66758 163
53.68769 145
53.70781 177
53.72792 149
53.74804 168
53.76815 172
53.78826 154
53.80838 175
53.82849 181
53.8486 174
53.86872 187
53.88883 182
53.90894 164
53.92906 175
53.94917 172
53.96929 189
53.9894 153
54.00951 171
54.02963 166
54.04974 177
54.06985 167
54.08997 187
54.11008 205
54.1302 179
54.15031 182
54.17042 170
54.19054 191
54.21065 180
54.23076 207
54.25088 190
54.27099 182
54.29111 201
54.31122 195
54.33133 193
54.35145 190
54.37156 196
54.39167 195
54.41179 194
54.4319 183
54.45201 201
54.47213 213
54.49224 248
54.51236 198
54.53247 236
54.55258 231
54.5727 259
54.59281 268
54.61292 272
54.63304 337
54.65315 318
54.67327 398
54.69338 453
54.71349 529
54.73361 634
54.75372 776
54.77383 795
54.79395 948
54.81406 1019
54.83417 1028
54.85429 987
54.8744 829
54.89452 687
54.91463 638
54.93474 618
54.95486 655
54.97497 532
54.99508 533
55.0152 500
55.03531 436
55.05543 351
55.07554 304
55.09565 239
55.11577 281
55.13588 286
55.15599 349
55.17611 344
55.19622 410
55.21634 508
55.23645 464
55.25656 542
55.27668 544
55.29679 534
55.3169 515
55.33702 409
55.35713 358
55.37724 342
55.39736 339
55.41747 336
55.43759 390
55.4577 337
55.47781 325
55.49793 255
55.51804 234
55.53815 211
55.55827 187
55.57838 212
55.5985 202
55.61861 193
55.63872 191
55.65884 171
55.67895 193
55.69906 189
55.71918 186
55.73929 174
55.75941 154
55.77952 140
55.79963 153
55.81975 161
55.83986 142
55.85997 149
55.88009 142
55.9002 133
55.92031 146
55.94043 168
55.96054 145
55.98066 156
56.00077 144
56.02088 165
56.041 157
56.06111 134
56.08122 152
56.10134 156
56.12145 141
56.14157 160
56.16168 153
56.18179 134
56.20191 150
56.22202 157
56.24213 157
56.26225 149
56.28236 162
56.30248 145
56.32259 136
56.3427 148
56.36282 161
56.38293 162
56.40304 157
56.42316 155
56.44327 152
56.46338 162
56.4835 145
56.50361 142
56.52373 156
56.54384 154
56.56395 160
56.58407 155
56.60418 165
56.62429 175
56.64441 148
56.66452 164
56.68464 147
56.70475 170
56.72486 166
56.74498 140
56.76509 135
56.7852 158
56.80532 154
56.82543 165
56.84554 163
56.86566 133
56.88577 133
56.90589 163
56.926 157
56.94611 155
56.96623 146
56.98634 150
57.00645 150
57.02657 147
57.04668 172
57.0668 167
57.08691 155
57.10702 176
57.12714 170
57.14725 190
57.16736 221
57.18748 180
57.20759 203
57.22771 208
57.24782 182
57.26793 177
57.28805 193
57.30816 172
57.32827 173
57.34839 187
57.3685 185
57.38861 165
57.40873 174
57.42884 150
57.44896 126
57.46907 142
57.48918 157
57.5093 145
57.52941 149
57.54952 137
57.56964 142
57.58975 138
57.60987 144
57.62998 144
57.65009 165
57.67021 147
57.69032 155
57.71043 142
57.73055 153
57.75066 173
57.77078 159
57.79089 161
57.811 144
57.83112 115
57.85123 147
57.87134 144
57.89146 146
57.91157 124
57.93168 161
57.9518 127
57.97191 154
57.99203 154
58.01214 166
58.03225 149
58.05237 159
58.07248 145
58.09259 168
58.11271 147
58.13282 159
58.15294 150
58.17305 151
58.19316 147
58.21328 132
58.23339 142
58.2535 132
58.27362 142
58.29373 177
58.31385 169
58.33396 150
58.35407 163
58.37419 169
58.3943 168
58.41441 185
58.43453 153
58.45464 174
58.47475 140
58.49487 140
58.51498 158
58.5351 172
58.55521 158
58.57532 165
58.59544 160
58.61555 151
58.63566 147
58.65578 151
58.67589 147
58.69601 158
58.71612 163
58.73623 157
58.75635 160
58.77646 161
58.79657 150
58.81669 146
58.8368 143
58.85691 158
58.87703 155
58.89714 161
58.91726 145
58.93737 147
58.95748 149
58.9776 138
58.99771 140
59.01782 140
59.03794 137
59.05805 143
59.07817 164
59.09828 149
59.11839 140
59.13851 169
59.15862 160
59.17873 158
59.19885 175
59.21896 162
59.23908 152
59.25919 162
59.2793 157
59.29942 169
59.31953 181
59.33964 169
59.35976 191
59.37987 176
59.39998 178
59.4201 184
59.44021 188
59.46033 204
59.48044 209
59.50055 203
59.52067 249
59.54078 251
59.56089 241
59.58101 274
59.60112 307
59.62124 329
59.64135 349
59.66146 380
59.68158 411
59.70169 493
59.7218 540
59.74192 619
59.76203 801
59.78215 931
59.80226 1083
59.82237 1246
59.84249 1498
59.8626 1778
59.88271 1965
59.90283 1961
59.92294 1864
59.94305 1772
59.96317 1478
59.98328 1271
60.0034 1102
60.02351 1127
60.04362 1058
60.06374 1092
60.08385 1003
60.10396 913
60.12408 701
60.14419 488
60.16431 409
60.18442 303
60.20453 287
60.22465 246
60.24476 227
60.26487 243
60.28499 196
60.3051 199
60.32522 175
60.34533 205
60.36544 166
60.38556 192
60.40567 172
60.42578 169
60.4459 137
60.46601 180
60.48612 158
60.50624 176
60.52635 198
60.54647 183
60.56658 163
60.58669 154
60.60681 153
60.62692 155
60.64703 157
60.66715 150
60.68726 162
60.70738 157
60.72749 142
60.7476 160
60.76772 172
60.78783 167
60.80794 149
60.82806 150
60.84817 157
60.86828 163
60.8884 162
60.90851 138
60.92863 176
60.94874 171
60.96885 171
60.98897 169
61.00908 168
61.02919 152
61.04931 163
61.06942 151
61.08954 157
61.10965 204
61.12976 164
61.14988 161
61.16999 169
61.1901 153
61.21022 167
61.23033 170
61.25045 170
61.27056 169
61.29067 161
61.31079 164
61.3309 163
61.35101 154
61.37113 144
61.39124 162
61.41135 167
61.43147 160
61.45158 139
61.4717 137
61.49181 150
61.51192 184
61.53204 160
61.55215 174
61.57226 149
61.59238 163
61.61249 150
61.63261 152
61.65272 163
61.67283 185
61.69295 177
61.71306 164
61.73317 177
61.75329 177
61.7734 171
61.79352 163
61.81363 176
61.83374 174
61.85386 175
61.87397 161
61.89408 167
61.9142 176
61.93431 175
61.95442 152
61.97454 169
61.99465 170
62.01477 176
62.03488 177
62.05499 197
62.07511 162
62.09522 153
62.11533 175
62.13545 169
62.15556 150
62.17568 168
62.19579 172
62.2159 162
62.23602 184
62.25613 171
62.27624 145
62.29636 184
62.31647 159
62.33659 151
62.3567 185
62.37681 165
62.39693 160
62.41704 170
62.43715 169
62.45727 160
62.47738 151
62.49749 156
62.51761 163
62.53772 190
62.55784 163
62.57795 149
62.59806 165
62.61818 165
62.63829 179
62.6584 193
62.67852 179
62.69863 157
62.71875 162
62.73886 165
62.75897 169
62.77909 164
62.7992 162
62.81931 157
62.83943 131
62.85954 147
62.87965 153
62.89977 156
62.91988 138
62.94 161
62.96011 184
62.98022 176
63.00034 171
63.02045 163
63.04056 172
63.06068 154
63.08079 175
63.10091 151
63.12102 164
63.14113 159
63.16125 173
63.18136 179
63.20147 141
63.22159 136
63.2417 179
63.26182 156
63.28193 172
63.30204 147
63.32216 147
63.34227 151
63.36238 184
63.3825 164
63.40261 145
63.42272 155
63.44284 173
63.46295 149
63.48307 162
63.50318 144
63.52329 160
63.54341 176
63.56352 169
63.58363 161
63.60375 171
63.62386 156
63.64398 174
63.66409 204
63.6842 191
63.70432 202
63.72443 197
63.74454 197
63.76466 178
63.78477 244
63.80489 226
63.825 265
63.84511 278
63.86523 291
63.88534 349
63.90545 359
63.92557 413
63.94568 452
63.96579 465
63.98591 479
64.00602 442
64.02614 443
64.04625 374
64.06636 346
64.08648 283
64.10659 296
64.1267 304
64.14682 294
64.16693 272
64.18705 274
64.20716 266
64.22727 200
64.24739 154
64.2675 176
64.28761 185
64.30773 162
64.32784 170
64.34796 147
64.36807 141
64.38818 166
64.4083 155
64.42841 164
64.44852 132
64.46864 119
64.48875 127
64.50886 143
64.52898 120
64.54909 140
64.56921 136
64.58932 144
64.60943 117
64.62955 147
64.64966 125
64.66977 143
64.68989 147
64.71 144
64.73012 134
64.75023 134
64.77034 133
64.79046 132
64.81057 138
64.83068 139
64.8508 138
64.87091 147
64.89102 131
64.91114 157
64.93125 137
64.95137 142
64.97148 159
64.99159 154
65.01171 134
65.03182 144
65.05193 137
65.07205 159
65.09216 154
65.11228 136
65.13239 162
65.1525 159
65.17262 154
65.19273 139
65.21284 141
65.23296 141
65.25307 159
65.27319 149
65.2933 164
65.31341 161
65.33353 136
65.35364 154
65.37375 154
65.39387 151
65.41398 174
65.43409 170
65.45421 127
65.47432 137
65.49444 165
65.51455 158
65.53466 171
65.55478 172
65.57489 166
65.595 169
65.61512 191
65.63523 196
65.65535 198
65.67546 211
65.69557 206
65.71569 235
65.7358 229
65.75591 234
65.77603 194
65.79614 192
65.81626 182
65.83637 183
65.85648 187
65.8766 192
65.89671 191
65.91682 166
65.93694 173
65.95705 171
65.97716 167
65.99728 143
66.01739 155
66.03751 144
66.05762 150
66.07773 145
66.09785 145
66.11796 159
66.13807 162
66.15819 147
66.1783 159
66.19842 159
66.21853 152
66.23864 166
66.25876 162
66.27887 179
66.29898 168
66.3191 132
66.33921 159
66.35933 149
66.37944 149
66.39955 137
66.41967 141
66.43978 183
66.45989 152
66.48001 142
66.50012 151
66.52023 159
66.54035 161
66.56046 126
66.58058 124
66.60069 156
66.6208 120
66.64092 155
66.66103 136
66.68114 154
66.70126 169
66.72137 129
66.74149 143
66.7616 150
66.78171 141
66.80183 162
66.82194 151
66.84205 171
66.86217 148
66.88228 162
66.90239 148
66.92251 171
66.94262 145
66.96274 159
66.98285 168
67.00296 164
67.02308 178
67.04319 152
67.0633 154
67.08342 165
67.10353 155
67.12365 174
67.14376 160
67.16387 198
67.18399 174
67.2041 178
67.22421 165
67.24433 184
67.26444 211
67.28456 204
67.30467 212
67.32478 191
67.3449 232
67.36501 230
67.38512 274
67.40524 273
67.42535 300
67.44546 288
67.46558 353
67.48569 333
67.50581 434
67.52592 451
67.54603 518
67.56615 599
67.58626 732
67.60637 859
67.62649 973
67.6466 1106
67.66672 1131
67.68683 1200
67.70694 1162
67.72706 1063
67.74717 955
67.76728 834
67.7874 740
67.80751 787
67.82763 814
67.84774 869
67.86785 895
67.88797 937
67.90808 949
67.92819 845
67.94831 861
67.96842 949
67.98853 1032
68.00865 1169
68.02876 1334
68.04888 1446
68.06899 1584
68.0891 1649
68.10922 1584
68.12933 1541
68.14944 1434
68.16956 1373
68.18967 1274
68.20979 1331
68.2299 1378
68.25001 1451
68.27013 1483
68.29024 1405
68.31035 1185
68.33047 1046
68.35058 842
68.3707 683
68.39081 636
68.41092 609
68.43104 555
68.45115 525
68.47126 502
68.49138 455
68.51149 366
68.5316 324
68.55172 289
68.57183 234
68.59195 235
68.61206 212
68.63217 195
68.65229 219
68.6724 190
68.69251 166
68.71263 187
68.73274 184
68.75286 158
68.77297 174
68.79308 205
68.8132 182
68.83331 158
68.85342 162
68.87354 168
68.89365 168
68.91376 171
68.93388 190
68.95399 167
68.97411 146
68.99422 156
69.01433 162
69.03445 152
69.05456 145
69.07467 163
69.09479 150
69.1149 171
69.13502 145
69.15513 168
69.17524 155
69.19536 147
69.21547 150
69.23558 122
69.2557 157
69.27581 160
69.29593 141
69.31604 157
69.33615 121
69.35627 140
69.37638 144
69.39649 140
69.41661 143
69.43672 142
69.45683 144
69.47695 152
69.49706 137
69.51718 156
69.53729 130
69.5574 149
69.57752 101
69.59763 134
69.61774 146
69.63786 127
69.65797 144
69.67809 147
69.6982 122
69.71831 138
69.73843 159
69.75854 134
69.77865 147
69.79877 121
69.81888 107
69.839 141
69.85911 137
69.87922 147
69.89934 136
69.91945 140
69.93956 143
69.95968 140
69.97979 129
69.9999 156
70.02002 124
70.04013 135
70.06025 130
70.08036 129
70.10047 138
70.12059 130
70.1407 127
70.16081 124
70.18093 142
70.20104 125
70.22116 141
70.24127 122
70.26138 135
70.2815 145
70.30161 142
70.32172 124
70.34184 133
70.36195 140
70.38207 144
70.40218 144
70.42229 133
70.44241 151
70.46252 144
70.48263 143
70.50275 126
70.52286 133
70.54297 130
70.56309 133
70.5832 130
70.60332 169
70.62343 128
70.64354 159
70.66366 125
70.68377 129
70.70388 105
70.724 131
70.74411 115
70.76423 164
70.78434 127
70.80445 129
70.82457 132
70.84468 130
70.86479 126
70.88491 137
70.90502 131
70.92513 137
70.94525 132
70.96536 138
70.98548 129
71.00559 150
71.0257 125
71.04582 134
71.06593 137
71.08604 119
71.10616 118
71.12627 119
71.14639 136
71.1665 132
71.18661 146
71.20673 117
71.22684 114
71.24695 131
71.26707 111
71.28718 122
71.3073 131
71.32741 129
71.34752 129
71.36764 143
71.38775 128
71.40786 141
71.42798 142
71.44809 124
71.4682 132
71.48832 124
71.50843 148
71.52855 128
71.54866 138
71.56877 135
71.58889 131
71.609 127
71.62911 131
71.64923 119
71.66934 142
71.68946 122
71.70957 131
71.72968 126
71.7498 128
71.76991 110
71.79002 137
71.81014 124
71.83025 141
71.85037 139
71.87048 131
71.89059 127
71.91071 142
71.93082 124
71.95093 135
71.97105 136
71.99116 143
72.01127 150
72.03139 123
72.0515 150
72.07162 112
72.09173 136
72.11184 118
72.13196 156
72.15207 136
72.17218 149
72.1923 130
72.21241 121
72.23253 155
72.25264 156
72.27275 142
72.29287 143
72.31298 143
72.33309 123
72.35321 147
72.37332 156
72.39344 142
72.41355 122
72.43366 128
72.45378 129
72.47389 144
72.494 131
72.51412 148
72.53423 127
72.55434 122
72.57446 134
72.59457 133
72.61469 116
72.6348 138
72.65491 128
72.67503 120
72.69514 121
72.71525 134
72.73537 140
72.75548 139
72.7756 124
72.79571 126
72.81582 120
72.83594 118
72.85605 121
72.87616 135
72.89628 141
72.91639 139
72.9365 150
72.95662 122
72.97673 166
72.99685 159
73.01696 171
73.03707 145
73.05719 146
73.0773 164
73.09741 198
73.11753 153
73.13764 198
73.15776 177
73.17787 193
73.19798 213
73.2181 247
73.23821 259
73.25832 231
73.27844 283
73.29855 313
73.31867 345
73.33878 370
73.35889 453
73.37901 492
73.39912 485
73.41923 477
73.43935 466
73.45946 407
73.47957 343
73.49969 311
73.5198 273
73.53992 292
73.56003 306
73.58014 323
73.60026 287
73.62037 326
73.64048 303
73.6606 291
73.68071 240
73.70083 236
73.72094 169
73.74105 175
73.76117 146
73.78128 146
73.80139 145
73.82151 156
73.84162 146
73.86174 132
73.88185 137
73.90196 120
73.92208 129
73.94219 141
73.9623 151
73.98242 127
74.00253 127
74.02264 147
74.04276 146
74.06287 131
74.08299 127
74.1031 118
74.12321 144
74.14333 147
74.16344 144
74.18355 120
74.20367 128
74.22378 124
74.2439 130
74.26401 136
74.28412 143
74.30424 138
74.32435 150
74.34446 131
74.36458 126
74.38469 136
74.40481 128
74.42492 150
74.44503 134
74.46515 136
74.48526 147
74.50537 150
74.52549 125
74.5456 125
74.56571 146
74.58583 134
74.60594 122
74.62606 135
74.64617 125
74.66628 146
74.6864 148
74.70651 147
74.72662 130
74.74674 137
74.76685 141
74.78697 147
74.80708 139
74.82719 130
74.84731 163
74.86742 141
74.88753 142
74.90765 142
74.92776 142
74.94787 145
74.96799 125
74.9881 133
75.00822 152
