3.00117 21887
3.02128 21050
3.0414 20334
3.06151 20055
3.08162 19213
3.10174 19083
3.12185 18483
3.14197 17737
3.16208 17362
3.18219 16625
3.20231 16375
3.22242 15948
3.24253 15103
3.26265 15240
3.28276 14556
3.30288 14204
3.32299 13907
3.3431 13105
3.36322 12706
3.38333 12149
3.40344 12042
3.42356 12016
3.44367 11122
3.46379 10917
3.4839 10490
3.50401 10212
3.52413 9969
3.54424 9443
3.56435 9231
3.58447 8815
3.60458 8647
3.62469 8289
3.64481 7767
3.66492 7734
3.68504 7148
3.70515 7061
3.72526 7021
3.74538 6296
3.76549 6179
3.7856 6007
3.80572 5756
3.82583 5624
3.84595 5213
3.86606 5188
3.88617 4845
3.90629 4754
3.9264 4468
3.94651 4195
3.96663 4215
3.98674 3892
4.00686 3750
4.02697 3646
4.04708 3347
4.0672 3316
4.08731 3169
4.10742 2920
4.12754 2894
4.14765 2570
4.16776 2498
4.18788 2448
4.20799 2322
4.22811 2322
4.24822 2010
4.26833 2020
4.28845 1968
4.30856 1978
4.32867 1922
4.34879 1544
4.3689 1666
4.38902 1627
4.40913 1521
4.42924 1635
4.44936 1446
4.46947 1383
4.48958 1350
4.5097 1318
4.52981 1326
4.54992 1217
4.57004 1235
4.59015 1208
4.61027 1151
4.63038 1189
4.65049 1061
4.67061 1058
4.69072 1120
4.71083 1013
4.73095 1008
4.75106 905
4.77118 956
4.79129 930
4.8114 884
4.83152 859
4.85163 798
4.87174 794
4.89186 848
4.91197 838
4.93209 779
4.9522 742
4.97231 709
4.99243 727
5.01254 701
5.03265 664
5.05277 637
5.07288 664
5.09299 630
5.11311 617
5.13322 622
5.15334 569
5.17345 556
5.19356 589
5.21368 591
5.23379 532
5.2539 547
5.27402 530
5.29413 511
5.31425 497
5.33436 449
5.35447 417
5.37459 424
5.3947 452
5.41481 470
5.43493 416
5.45504 376
5.47516 394
5.49527 417
5.51538 413
5.5355 344
5.55561 363
5.57572 350
5.59584 411
5.61595 359
5.63606 300
5.65618 314
5.67629 338
5.69641 300
5.71652 298
5.73663 314
5.75675 321
5.77686 278
5.79697 280
5.81709 274
5.8372 282
5.85732 274
5.87743 275
5.89754 251
5.91766 270
5.93777 259
5.95788 298
5.978 288
5.99811 250
6.01823 231
6.03834 258
6.05845 242
6.07857 263
6.09868 268
6.11879 232
6.13891 258
6.15902 238
6.17913 258
6.19925 208
6.21936 229
6.23948 228
6.25959 202
6.2797 209
6.29982 235
6.31993 205
6.34004 219
6.36016 210
6.38027 212
6.40039 214
6.4205 197
6.44061 225
6.46073 200
6.48084 211
6.50095 226
6.52107 207
6.54118 210
6.56129 189
6.58141 223
6.60152 230
6.62164 169
6.64175 221
6.66186 230
6.68198 188
6.70209 207
6.7222 182
6.74232 207
6.76243 219
6.78255 196
6.80266 160
6.82277 213
6.84289 199
6.863 216
6.88311 199
6.90323 208
6.92334 184
6.94346 198
6.96357 193
6.98368 197
7.0038 204
7.02391 182
7.04402 188
7.06414 202
7.08425 165
7.10436 188
7.12448 217
7.14459 181
7.16471 211
7.18482 226
7.20493 174
7.22505 194
7.24516 183
7.26527 207
7.28539 209
7.3055 176
7.32562 211
7.34573 166
7.36584 196
7.38596 205
7.40607 214
7.42618 196
7.4463 209
7.46641 217
7.48653 203
7.50664 202
7.52675 219
7.54687 194
7.56698 204
7.58709 225
7.60721 212
7.62732 223
7.64743 183
7.66755 195
7.68766 189
7.70778 205
7.72789 233
7.748 207
7.76812 195
7.78823 213
7.80834 223
7.82846 217
7.84857 218
7.86869 207
7.8888 226
7.90891 217
7.92903 214
7.94914 212
7.96925 228
7.98937 219
8.00948 236
8.0296 224
8.04971 187
8.06982 229
8.08994 209
8.11005 183
8.13016 219
8.15028 237
8.17039 214
8.1905 223
8.21062 215
8.23073 203
8.25085 208
8.27096 224
8.29107 226
8.31119 210
8.3313 192
8.35141 214
8.37153 206
8.39164 235
8.41176 222
8.43187 266
8.45198 231
8.4721 237
8.49221 235
8.51232 218
8.53244 231
8.55255 222
8.57266 243
8.59278 223
8.61289 235
8.63301 196
8.65312 210
8.67323 222
8.69335 208
8.71346 228
8.73357 238
8.75369 230
8.7738 239
8.79392 259
8.81403 216
8.83414 220
8.85426 259
8.87437 218
8.89448 251
8.9146 252
8.93471 237
8.95483 236
8.97494 221
8.99505 265
9.01517 236
9.03528 242
9.05539 255
9.07551 234
9.09562 225
9.11573 231
9.13585 216
9.15596 226
9.17608 225
9.19619 228
9.2163 226
9.23642 234
9.25653 252
9.27664 256
9.29676 228
9.31687 246
9.33699 217
9.3571 211
9.37721 219
9.39733 204
9.41744 235
9.43755 241
9.45767 251
9.47778 223
9.4979 245
9.51801 225
9.53812 223
9.55824 252
9.57835 241
9.59846 220
9.61858 230
9.63869 207
9.6588 209
9.67892 245
9.69903 218
9.71915 228
9.73926 226
9.75937 197
9.77949 206
9.7996 228
9.81971 213
9.83983 215
9.85994 209
9.88006 198
9.90017 203
9.92028 216
9.9404 244
9.96051 209
9.98062 211
10.00074 204
10.02085 224
10.04097 225
10.06108 217
10.08119 260
10.10131 203
10.12142 225
10.14153 231
10.16165 254
10.18176 213
10.20187 229
10.22199 229
10.2421 257
10.26222 272
10.28233 232
10.30244 228
10.32256 242
10.34267 202
10.36278 207
10.3829 227
10.40301 246
10.42313 186
10.44324 221
10.46335 245
10.48347 198
10.50358 232
10.52369 218
10.54381 232
10.56392 254
10.58403 230
10.60415 270
10.62426 229
10.64438 215
10.66449 223
10.6846 232
10.70472 230
10.72483 225
10.74494 232
10.76506 212
10.78517 227
10.80529 212
10.8254 224
10.84551 247
10.86563 231
10.88574 214
10.90585 237
10.92597 235
10.94608 231
10.9662 231
10.98631 237
11.00642 244
11.02654 240
11.04665 226
11.06676 215
11.08688 215
11.10699 207
11.1271 233
11.14722 235
11.16733 208
11.18745 226
11.20756 218
11.22767 249
11.24779 234
11.2679 244
11.28801 233
11.30813 228
11.32824 227
11.34836 213
11.36847 228
11.38858 231
11.4087 242
11.42881 209
11.44892 218
11.46904 208
11.48915 237
11.50927 244
11.52938 217
11.54949 230
11.56961 228
11.58972 242
11.60983 217
11.62995 221
11.65006 216
11.67017 219
11.69029 205
11.7104 213
11.73052 259
11.75063 221
11.77074 242
11.79086 251
11.81097 230
11.83108 247
11.8512 224
11.87131 227
11.89143 209
11.91154 223
11.93165 220
11.95177 209
11.97188 224
11.99199 224
12.01211 247
12.03222 205
12.05234 238
12.07245 202
12.09256 242
12.11268 225
12.13279 229
12.1529 212
12.17302 243
12.19313 217
12.21324 269
12.23336 240
12.25347 251
12.27359 256
12.2937 249
12.31381 255
12.33393 263
12.35404 264
12.37415 261
12.39427 230
12.41438 231
12.4345 267
12.45461 255
12.47472 265
12.49484 237
12.51495 214
12.53506 192
12.55518 247
12.57529 232
12.5954 222
12.61552 212
12.63563 206
12.65575 233
12.67586 192
12.69597 219
12.71609 200
12.7362 204
12.75631 227
12.77643 208
12.79654 227
12.81666 224
12.83677 192
12.85688 173
12.877 176
12.89711 205
12.91722 186
12.93734 206
12.95745 205
12.97757 190
12.99768 185
13.01779 210
13.03791 180
13.05802 197
13.07813 199
13.09825 182
13.11836 202
13.13847 214
13.15859 166
13.1787 183
13.19882 198
13.21893 210
13.23904 199
13.25916 201
13.27927 225
13.29938 194
13.3195 209
13.33961 201
13.35973 190
13.37984 180
13.39995 202
13.42007 206
13.44018 188
13.46029 183
13.48041 198
13.50052 197
13.52064 186
13.54075 209
13.56086 190
13.58098 193
13.60109 195
13.6212 176
13.64132 213
13.66143 149
13.68154 212
13.70166 173
13.72177 203
13.74189 201
13.762 174
13.78211 166
13.80223 189
13.82234 205
13.84245 229
13.86257 185
13.88268 196
13.9028 209
13.92291 193
13.94302 196
13.96314 207
13.98325 179
14.00336 214
14.02348 203
14.04359 211
14.06371 197
14.08382 176
14.10393 185
14.12405 202
14.14416 176
14.16427 186
14.18439 177
14.2045 211
14.22461 190
14.24473 195
14.26484 175
14.28496 216
14.30507 188
14.32518 197
14.3453 196
14.36541 176
14.38552 198
14.40564 202
14.42575 197
14.44587 174
14.46598 179
14.48609 177
14.50621 174
14.52632 169
14.54643 193
14.56655 178
14.58666 162
14.60677 186
14.62689 194
14.647 176
14.66712 196
14.68723 201
14.70734 196
14.72746 166
14.74757 189
14.76768 142
14.7878 169
14.80791 163
14.82803 171
14.84814 185
14.86825 188
14.88837 172
14.90848 174
14.92859 187
14.94871 182
14.96882 181
14.98894 169
15.00905 168
15.02916 176
15.04928 194
15.06939 164
15.0895 198
15.10962 202
15.12973 186
15.14984 148
15.16996 185
15.19007 155
15.21019 162
15.2303 189
15.25041 184
15.27053 178
15.29064 174
15.31075 157
15.33087 206
15.35098 154
15.3711 163
15.39121 170
15.41132 175
15.43144 176
15.45155 197
15.47166 171
15.49178 163
15.51189 196
15.53201 174
15.55212 172
15.57223 165
15.59235 158
15.61246 165
15.63257 147
15.65269 181
15.6728 171
15.69291 185
15.71303 164
15.73314 195
15.75326 192
15.77337 194
15.79348 187
15.8136 186
15.83371 167
15.85382 184
15.87394 193
15.89405 170
15.91417 183
15.93428 168
15.95439 170
15.97451 165
15.99462 169
16.01473 190
16.03485 154
16.05496 159
16.07508 174
16.09519 152
16.1153 155
16.13542 150
16.15553 154
16.17564 143
16.19576 177
16.21587 169
16.23598 184
16.2561 171
16.27621 185
16.29633 167
16.31644 187
16.33655 178
16.35667 174
16.37678 167
16.39689 190
16.41701 147
16.43712 176
16.45724 151
16.47735 164
16.49746 158
16.51758 161
16.53769 172
16.5578 170
16.57792 179
16.59803 180
16.61814 167
16.63826 177
16.65837 173
16.67849 168
16.6986 156
16.71871 168
16.73883 150
16.75894 177
16.77905 143
16.79917 169
16.81928 168
16.8394 172
16.85951 160
16.87962 172
16.89974 172
16.91985 169
16.93996 172
16.96008 166
16.98019 190
17.00031 167
17.02042 137
17.04053 160
17.06065 178
17.08076 154
17.10087 150
17.12099 155
17.1411 169
17.16121 163
17.18133 173
17.20144 184
17.22156 162
17.24167 172
17.26178 157
17.2819 163
17.30201 164
17.32212 176
17.34224 161
17.36235 177
17.38247 165
17.40258 157
17.42269 163
17.44281 189
17.46292 160
17.48303 180
17.50315 166
17.52326 168
17.54338 188
17.56349 148
17.5836 175
17.60372 150
17.62383 146
17.64394 167
17.66406 171
17.68417 171
17.70428 155
17.7244 173
17.74451 151
17.76463 181
17.78474 161
17.80485 141
17.82497 152
17.84508 178
17.86519 163
17.88531 164
17.90542 184
17.92554 165
17.94565 155
17.96576 155
17.98588 167
18.00599 172
18.0261 165
18.04622 181
18.06633 156
18.08645 155
18.10656 172
18.12667 140
18.14679 162
18.1669 167
18.18701 160
18.20713 194
18.22724 151
18.24735 154
18.26747 160
18.28758 147
18.3077 160
18.32781 170
18.34792 171
18.36804 170
18.38815 174
18.40826 177
18.42838 165
18.44849 181
18.46861 163
18.48872 169
18.50883 113
18.52895 147
18.54906 166
18.56917 154
18.58929 153
18.6094 195
18.62951 191
18.64963 142
18.66974 160
18.68986 160
18.70997 164
18.73008 167
18.7502 156
18.77031 147
18.79042 170
18.81054 181
18.83065 208
18.85077 186
18.87088 182
18.89099 193
18.91111 208
18.93122 200
18.95133 168
18.97145 179
18.99156 178
19.01168 183
19.03179 196
19.0519 156
19.07202 170
19.09213 161
19.11224 156
19.13236 158
19.15247 160
19.17258 174
19.1927 171
19.21281 169
19.23293 193
19.25304 176
19.27315 160
19.29327 160
19.31338 170
19.33349 183
19.35361 187
19.37372 162
19.39384 161
19.41395 153
19.43406 173
19.45418 166
19.47429 208
19.4944 182
19.51452 198
19.53463 174
19.55475 186
19.57486 169
19.59497 199
19.61509 202
19.6352 170
19.65531 207
19.67543 211
19.69554 202
19.71565 215
19.73577 220
19.75588 198
19.776 208
19.79611 236
19.81622 256
19.83634 258
19.85645 235
19.87656 240
19.89668 264
19.91679 258
19.93691 265
19.95702 262
19.97713 259
19.99725 243
20.01736 272
20.03747 234
20.05759 258
20.0777 239
20.09782 219
20.11793 269
20.13804 263
20.15816 251
20.17827 275
20.19838 318
20.2185 292
20.23861 275
20.25872 300
20.27884 298
20.29895 339
20.31907 285
20.33918 302
20.35929 280
20.37941 323
20.39952 343
20.41963 309
20.43975 304
20.45986 335
20.47998 342
20.50009 389
20.5202 388
20.54032 394
20.56043 431
20.58054 400
20.60066 428
20.62077 429
20.64088 468
20.661 485
20.68111 591
20.70123 735
20.72134 936
20.74145 1319
20.76157 1811
20.78168 2691
20.80179 3801
20.82191 5455
20.84202 7253
20.86214 8915
20.88225 9877
20.90236 8959
20.92248 7261
20.94259 4972
20.9627 3288
20.98282 1933
21.00293 998
21.02305 702
21.04316 600
21.06327 525
21.08339 471
21.1035 413
21.12361 425
21.14373 441
21.16384 389
21.18395 396
21.20407 383
21.22418 355
21.2443 326
21.26441 320
21.28452 302
21.30464 315
21.32475 279
21.34486 305
21.36498 280
21.38509 271
21.40521 287
21.42532 276
21.44543 268
21.46555 273
21.48566 252
21.50577 237
21.52589 246
21.546 270
21.56612 242
21.58623 230
21.60634 261
21.62646 261
21.64657 231
21.66668 247
21.6868 228
21.70691 227
21.72702 216
21.74714 231
21.76725 232
21.78737 218
21.80748 228
21.82759 255
21.84771 246
21.86782 231
21.88793 214
21.90805 210
21.92816 196
21.94828 226
21.96839 231
21.9885 225
22.00862 223
22.02873 232
22.04884 255
22.06896 242
22.08907 212
22.10919 217
22.1293 215
22.14941 222
22.16953 223
22.18964 198
22.20975 191
22.22987 201
22.24998 203
22.27009 221
22.29021 246
22.31032 214
22.33044 216
22.35055 188
22.37066 208
22.39078 221
22.41089 238
22.431 231
22.45112 195
22.47123 205
22.49135 224
22.51146 216
22.53157 209
22.55169 244
22.5718 234
22.59191 213
22.61203 226
22.63214 204
22.65225 207
22.67237 244
22.69248 199
22.7126 194
22.73271 192
22.75282 197
22.77294 192
22.79305 198
22.81316 196
22.83328 212
22.85339 228
22.87351 190
22.89362 193
22.91373 207
22.93385 224
22.95396 210
22.97407 192
22.99419 214
23.0143 204
23.03442 207
23.05453 219
23.07464 204
23.09476 214
23.11487 215
23.13498 223
23.1551 158
23.17521 197
23.19532 171
23.21544 221
23.23555 204
23.25567 180
23.27578 179
23.29589 195
23.31601 217
23.33612 193
23.35623 205
23.37635 162
23.39646 204
23.41658 237
23.43669 230
23.4568 216
23.47692 203
23.49703 230
23.51714 198
23.53726 205
23.55737 200
23.57749 181
23.5976 196
23.61771 204
23.63783 220
23.65794 190
23.67805 211
23.69817 202
23.71828 218
23.73839 203
23.75851 240
23.77862 179
23.79874 196
23.81885 191
23.83896 226
23.85908 206
23.87919 222
23.8993 222
23.91942 222
23.93953 212
23.95965 228
23.97976 238
23.99987 328
24.01999 269
24.0401 281
24.06021 260
24.08033 262
24.10044 250
24.12056 220
24.14067 181
24.16078 180
24.1809 228
24.20101 188
24.22112 192
24.24124 204
24.26135 204
24.28146 222
24.30158 195
24.32169 205
24.34181 195
24.36192 188
24.38203 212
24.40215 205
24.42226 222
24.44237 205
24.46249 191
24.4826 205
24.50272 205
24.52283 190
24.54294 196
24.56306 202
24.58317 222
24.60328 193
24.6234 207
24.64351 217
24.66362 193
24.68374 213
24.70385 200
24.72397 240
24.74408 237
24.76419 198
24.78431 204
24.80442 221
24.82453 219
24.84465 234
24.86476 207
24.88488 266
24.90499 234
24.9251 222
24.94522 209
24.96533 241
24.98544 221
25.00556 229
25.02567 201
25.04579 221
25.0659 226
25.08601 223
25.10613 221
25.12624 232
25.14635 211
25.16647 212
25.18658 215
25.20669 219
25.22681 204
25.24692 199
25.26704 231
25.28715 228
25.30726 221
25.32738 199
25.34749 247
25.3676 214
25.38772 234
25.40783 234
25.42795 217
25.44806 201
25.46817 240
25.48829 220
25.5084 247
25.52851 241
25.54863 230
25.56874 258
25.58886 240
25.60897 237
25.62908 296
25.6492 271
25.66931 314
25.68942 316
25.70954 365
25.72965 351
25.74976 375
25.76988 478
25.78999 436
25.81011 458
25.83022 430
25.85033 421
25.87045 433
25.89056 411
25.91067 412
25.93079 439
25.9509 413
25.97102 444
25.99113 523
26.01124 492
26.03136 493
26.05147 485
26.07158 538
26.0917 529
26.11181 500
26.13193 585
26.15204 628
26.17215 647
26.19227 713
26.21238 744
26.23249 748
26.25261 835
26.27272 934
26.29283 971
26.31295 1018
26.33306 1100
26.35318 1210
26.37329 1284
26.3934 1477
26.41352 1716
26.43363 2000
26.45374 2651
26.47386 3404
26.49397 4517
26.51409 6580
26.5342 9194
26.55431 13382
26.57443 19065
26.59454 26573
26.61465 34865
26.63477 42385
26.65488 45099
26.67499 40666
26.69511 32711
26.71522 24874
26.73534 18675
26.75545 12007
26.77556 6531
26.79568 3536
26.81579 2327
26.8359 1846
26.85602 1623
26.87613 1467
26.89625 1314
26.91636 1244
26.93647 1067
26.95659 984
26.9767 832
26.99681 808
27.01693 682
27.03704 673
27.05716 607
27.07727 566
27.09738 527
27.1175 522
27.13761 521
27.15772 507
27.17784 450
27.19795 476
27.21806 423
27.23818 406
27.25829 458
27.27841 416
27.29852 417
27.31863 410
27.33875 443
27.35886 384
27.37897 373
27.39909 415
27.4192 391
27.43932 418
27.45943 394
27.47954 378
27.49966 399
27.51977 370
27.53988 355
27.56 365
27.58011 373
27.60023 352
27.62034 328
27.64045 321
27.66057 332
27.68068 336
27.70079 357
27.72091 304
27.74102 318
27.76113 334
27.78125 338
27.80136 309
27.82148 314
27.84159 342
27.8617 313
27.88182 311
27.90193 299
27.92204 280
27.94216 277
27.96227 272
27.98239 300
28.0025 272
28.02261 283
28.04273 257
28.06284 308
28.08295 285
28.10307 281
28.12318 287
28.1433 256
28.16341 274
28.18352 298
28.20364 262
28.22375 285
28.24386 254
28.26398 244
28.28409 263
28.3042 277
28.32432 257
28.34443 241
28.36455 258
28.38466 297
28.40477 239
28.42489 277
28.445 264
28.46511 260
28.48523 246
28.50534 272
28.52546 233
28.54557 220
28.56568 251
28.5858 270
28.60591 225
28.62602 247
28.64614 232
28.66625 264
28.68636 267
28.70648 252
28.72659 240
28.74671 241
28.76682 228
28.78693 220
28.80705 253
28.82716 234
28.84727 234
28.86739 218
28.8875 233
28.90762 250
28.92773 277
28.94784 219
28.96796 231
28.98807 208
29.00818 219
29.0283 235
29.04841 227
29.06853 234
29.08864 258
29.10875 228
29.12887 216
29.14898 226
29.16909 246
29.18921 209
29.20932 213
29.22943 214
29.24955 232
29.26966 224
29.28978 216
29.30989 248
29.33 228
29.35012 235
29.37023 235
29.39034 244
29.41046 213
29.43057 221
29.45069 238
29.4708 256
29.49091 253
29.51103 232
29.53114 244
29.55125 226
29.57137 223
29.59148 229
29.6116 231
29.63171 204
29.65182 223
29.67194 195
29.69205 227
29.71216 219
29.73228 233
29.75239 214
29.7725 207
29.79262 238
29.81273 208
29.83285 214
29.85296 232
29.87307 218
29.89319 206
29.9133 236
29.93341 216
29.95353 206
29.97364 199
29.99376 201
30.01387 213
30.03398 186
30.0541 210
30.07421 230
30.09432 211
30.11444 219
30.13455 220
30.15467 220
30.17478 221
30.19489 208
30.21501 205
30.23512 197
30.25523 224
30.27535 195
30.29546 207
30.31557 222
30.33569 209
30.3558 201
30.37592 184
30.39603 193
30.41614 188
30.43626 228
30.45637 212
30.47648 214
30.4966 214
30.51671 200
30.53683 177
30.55694 205
30.57705 193
30.59717 187
30.61728 173
30.63739 202
30.65751 203
30.67762 209
30.69773 186
30.71785 204
30.73796 204
30.75808 219
30.77819 203
30.7983 211
30.81842 203
30.83853 210
30.85864 175
30.87876 217
30.89887 208
30.91899 188
30.9391 210
30.95921 212
30.97933 166
30.99944 169
31.01955 201
31.03967 199
31.05978 191
31.0799 223
31.10001 189
31.12012 184
31.14024 188
31.16035 186
31.18046 171
31.20058 160
31.22069 211
31.2408 207
31.26092 189
31.28103 175
31.30115 195
31.32126 217
31.34137 191
31.36149 170
31.3816 188
31.40171 209
31.42183 174
31.44194 178
31.46206 182
31.48217 163
31.50228 145
31.5224 178
31.54251 180
31.56262 189
31.58274 151
31.60285 199
31.62297 193
31.64308 188
31.66319 167
31.68331 173
31.70342 169
31.72353 157
31.74365 171
31.76376 191
31.78387 162
31.80399 184
31.8241 166
31.84422 163
31.86433 153
31.88444 189
31.90456 181
31.92467 186
31.94478 173
31.9649 154
31.98501 169
32.00513 171
32.02524 170
32.04535 156
32.06547 146
32.08558 147
32.10569 158
32.12581 177
32.14592 165
32.16604 190
32.18615 184
32.20626 190
32.22638 177
32.24649 188
32.2666 169
32.28672 184
32.30683 168
32.32694 173
32.34706 173
32.36717 177
32.38729 194
32.4074 172
32.42751 173
32.44763 170
32.46774 174
32.48785 164
32.50797 160
32.52808 151
32.5482 145
32.56831 142
32.58842 156
32.60854 160
32.62865 162
32.64876 158
32.66888 210
32.68899 161
32.7091 174
32.72922 152
32.74933 159
32.76945 156
32.78956 154
32.80967 182
32.82979 168
32.8499 182
32.87001 163
32.89013 178
32.91024 200
32.93036 203
32.95047 188
32.97058 188
32.9907 170
33.01081 150
33.03092 163
33.05104 166
33.07115 181
33.09127 171
33.11138 177
33.13149 171
33.15161 182
33.17172 169
33.19183 164
33.21195 152
33.23206 159
33.25217 159
33.27229 141
33.2924 172
33.31252 170
33.33263 185
33.35274 150
33.37286 159
33.39297 163
33.41308 149
33.4332 155
33.45331 206
33.47343 139
33.49354 171
33.51365 159
33.53377 157
33.55388 166
33.57399 141
33.59411 147
33.61422 149
33.63434 159
33.65445 143
33.67456 139
33.69468 155
33.71479 160
33.7349 143
33.75502 149
33.77513 152
33.79524 150
33.81536 143
33.83547 162
33.85559 148
33.8757 151
33.89581 153
33.91593 162
33.93604 143
33.95615 138
33.97627 135
33.99638 142
34.0165 175
34.03661 132
34.05672 153
34.07684 185
34.09695 135
34.11706 166
34.13718 133
34.15729 163
34.17741 161
34.19752 147
34.21763 169
34.23775 162
34.25786 191
34.27797 165
34.29809 170
34.3182 186
34.33831 167
34.35843 159
34.37854 148
34.39866 191
34.41877 172
34.43888 176
34.459 169
34.47911 165
34.49922 136
34.51934 155
34.53945 179
34.55957 177
34.57968 189
34.59979 186
34.61991 193
34.64002 155
34.66013 165
34.68025 181
34.70036 165
34.72047 182
34.74059 178
34.7607 194
34.78082 178
34.80093 172
34.82104 200
34.84116 167
34.86127 225
34.88138 188
34.9015 184
34.92161 216
34.94173 212
34.96184 187
34.98195 201
35.00207 204
35.02218 194
35.04229 196
35.06241 196
35.08252 192
35.10264 173
35.12275 189
35.14286 182
35.16298 180
35.18309 188
35.2032 177
35.22332 194
35.24343 184
35.26354 160
35.28366 190
35.30377 220
35.32389 179
35.344 177
35.36411 192
35.38423 177
35.40434 177
35.42445 193
35.44457 179
35.46468 216
35.4848 213
35.50491 190
35.52502 189
35.54514 221
35.56525 200
35.58536 226
35.60548 211
35.62559 213
35.64571 196
35.66582 199
35.68593 210
35.70605 200
35.72616 179
35.74627 218
35.76639 214
35.7865 179
35.80661 209
35.82673 181
35.84684 208
35.86696 184
35.88707 203
35.90718 202
35.9273 220
35.94741 217
35.96752 208
35.98764 214
36.00775 190
36.02787 188
36.04798 200
36.06809 194
36.08821 227
36.10832 207
36.12843 229
36.14855 210
36.16866 241
36.18878 211
36.20889 223
36.229 211
36.24912 256
36.26923 281
36.28934 282
36.30946 322
36.32957 357
36.34968 438
36.3698 514
36.38991 610
36.41003 747
36.43014 999
36.45025 1222
36.47037 1696
36.49048 2050
36.51059 2531
36.53071 2907
36.55082 3002
36.57094 2708
36.59105 2107
36.61116 1714
36.63128 1616
36.65139 1364
36.6715 1138
36.69162 706
36.71173 411
36.73184 357
36.75196 288
36.77207 311
36.79219 292
36.8123 233
36.83241 275
36.85253 240
36.87264 264
36.89275 228
36.91287 208
36.93298 210
36.9531 211
36.97321 209
36.99332 216
37.01344 168
37.03355 184
37.05366 198
37.07378 198
37.09389 201
37.11401 185
37.13412 187
37.15423 197
37.17435 186
37.19446 182
37.21457 175
37.23469 165
37.2548 153
37.27491 179
37.29503 172
37.31514 179
37.33526 178
37.35537 175
37.37548 157
37.3956 165
37.41571 172
37.43582 161
37.45594 172
37.47605 177
37.49617 168
37.51628 206
37.53639 162
37.55651 177
37.57662 164
37.59673 155
37.61685 181
37.63696 171
37.65708 178
37.67719 151
37.6973 172
37.71742 167
37.73753 184
37.75764 172
37.77776 168
37.79787 217
37.81798 171
37.8381 191
37.85821 172
37.87833 178
37.89844 155
37.91855 160
37.93867 164
37.95878 151
37.97889 168
37.99901 178
38.01912 185
38.03924 169
38.05935 190
38.07946 200
38.09958 179
38.11969 186
38.1398 162
38.15992 164
38.18003 179
38.20015 190
38.22026 169
38.24037 182
38.26049 187
38.2806 168
38.30071 193
38.32083 179
38.34094 186
38.36105 168
38.38117 182
38.40128 178
38.4214 207
38.44151 212
38.46162 185
38.48174 171
38.50185 161
38.52196 209
38.54208 200
38.56219 185
38.58231 181
38.60242 219
38.62253 180
38.64265 184
38.66276 192
38.68287 177
38.70299 176
38.7231 189
38.74321 175
38.76333 180
38.78344 201
38.80356 192
38.82367 170
38.84378 170
38.8639 186
38.88401 157
38.90412 201
38.92424 205
38.94435 190
38.96447 188
38.98458 184
39.00469 178
39.02481 217
39.04492 225
39.06503 208
39.08515 203
39.10526 226
39.12538 221
39.14549 245
39.1656 278
39.18572 283
39.20583 289
39.22594 332
39.24606 336
39.26617 404
39.28628 448
39.3064 600
39.32651 699
39.34663 891
39.36674 1161
39.38685 1405
39.40697 1932
39.42708 2273
39.44719 2680
39.46731 2831
39.48742 2435
39.50754 2073
39.52765 1657
39.54776 1504
39.56788 1454
39.58799 1207
39.6081 839
39.62822 514
39.64833 365
39.66845 306
39.68856 281
39.70867 271
39.72879 242
39.7489 222
39.76901 229
39.78913 231
39.80924 197
39.82935 216
39.84947 218
39.86958 224
39.8897 225
39.90981 199
39.92992 193
39.95004 225
39.97015 198
39.99026 213
40.01038 245
40.03049 277
40.05061 246
40.07072 266
40.09083 316
40.11095 348
40.13106 407
40.15117 435
40.17129 531
40.1914 659
40.21152 790
40.23163 1029
40.25174 1147
40.27186 1376
40.29197 1411
40.31208 1269
40.3322 1099
40.35231 914
40.37242 785
40.39254 772
40.41265 657
40.43277 496
40.45288 389
40.47299 282
40.49311 264
40.51322 239
40.53333 216
40.55345 192
40.57356 203
40.59368 200
40.61379 214
40.6339 188
40.65402 196
40.67413 187
40.69424 176
40.71436 153
40.73447 176
40.75458 165
40.7747 197
40.79481 169
40.81493 163
40.83504 177
40.85515 176
40.87527 159
40.89538 179
40.91549 181
40.93561 182
40.95572 180
40.97584 157
40.99595 167
41.01606 188
41.03618 142
41.05629 152
41.0764 171
41.09652 193
41.11663 185
41.13675 188
41.15686 172
41.17697 177
41.19709 154
41.2172 179
41.23731 154
41.25743 148
41.27754 165
41.29765 178
41.31777 174
41.33788 178
41.358 175
41.37811 161
41.39822 172
41.41834 173
41.43845 175
41.45856 167
41.47868 182
41.49879 184
41.51891 174
41.53902 202
41.55913 174
41.57925 183
41.59936 181
41.61947 180
41.63959 175
41.6597 179
41.67982 158
41.69993 148
41.72004 156
41.74016 184
41.76027 169
41.78038 192
41.8005 159
41.82061 211
41.84072 173
41.86084 148
41.88095 179
41.90107 165
41.92118 208
41.94129 183
41.96141 199
41.98152 178
42.00163 182
42.02175 147
42.04186 184
42.06198 220
42.08209 200
42.1022 221
42.12232 232
42.14243 230
42.16254 247
42.18266 232
42.20277 284
42.22289 300
42.243 352
42.26311 375
42.28323 438
42.30334 551
42.32345 703
42.34357 874
42.36368 1058
42.38379 1276
42.40391 1565
42.42402 1873
42.44414 1983
42.46425 1896
42.48436 1617
42.50448 1251
42.52459 1094
42.5447 1058
42.56482 1022
42.58493 828
42.60505 578
42.62516 399
42.64527 288
42.66539 258
42.6855 226
42.70561 224
42.72573 217
42.74584 217
42.76595 205
42.78607 209
42.80618 186
42.8263 196
42.84641 161
42.86652 164
42.88664 168
42.90675 175
42.92686 176
42.94698 159
42.96709 161
42.98721 176
43.00732 177
43.02743 177
43.04755 149
43.06766 144
43.08777 158
43.10789 163
43.128 197
43.14812 133
43.16823 148
43.18834 176
43.20846 181
43.22857 155
43.24868 172
43.2688 156
43.28891 158
43.30902 154
43.32914 152
43.34925 130
43.36937 163
43.38948 156
43.40959 149
43.42971 150
43.44982 154
43.46993 138
43.49005 145
43.51016 157
43.53028 137
43.55039 164
43.5705 146
43.59062 154
43.61073 148
43.63084 172
43.65096 146
43.67107 162
43.69119 143
43.7113 135
43.73141 130
43.75153 162
43.77164 136
43.79175 144
43.81187 143
43.83198 142
43.85209 153
43.87221 133
43.89232 138
43.91244 143
43.93255 154
43.95266 165
43.97278 148
43.99289 129
44.013 153
44.03312 137
44.05323 167
44.07335 166
44.09346 139
44.11357 147
44.13369 144
44.1538 151
44.17391 162
44.19403 162
44.21414 153
44.23426 153
44.25437 136
44.27448 162
44.2946 159
44.31471 138
44.33482 155
44.35494 159
44.37505 159
44.39516 150
44.41528 128
44.43539 164
44.45551 157
44.47562 161
44.49573 157
44.51585 174
44.53596 149
44.55607 150
44.57619 152
44.5963 144
44.61642 166
44.63653 149
44.65664 164
44.67676 140
44.69687 158
44.71698 146
44.7371 150
44.75721 162
44.77732 144
44.79744 141
44.81755 167
44.83767 150
44.85778 157
44.87789 169
44.89801 164
44.91812 169
44.93823 170
44.95835 147
44.97846 188
44.99858 138
45.01869 157
45.0388 145
45.05892 155
45.07903 151
45.09914 142
45.11926 144
45.13937 152
45.15949 162
45.1796 162
45.19971 162
45.21983 144
45.23994 175
45.26005 135
45.28017 159
45.30028 150
45.32039 176
45.34051 130
45.36062 163
45.38074 168
45.40085 202
45.42096 194
45.44108 197
45.46119 192
45.4813 191
45.50142 219
45.52153 221
45.54165 220
45.56176 248
45.58187 295
45.60199 312
45.6221 364
45.64221 441
45.66233 490
45.68244 610
45.70256 716
45.72267 900
45.74278 1054
45.7629 1259
45.78301 1303
45.80312 1248
45.82324 1094
45.84335 890
45.86346 767
45.88358 741
45.90369 685
45.92381 634
45.94392 495
45.96403 374
45.98415 269
46.00426 221
46.02437 200
46.04449 199
46.0646 200
46.08472 185
46.10483 183
46.12494 167
46.14506 164
46.16517 172
46.18528 159
46.2054 177
46.22551 153
46.24563 149
46.26574 157
46.28585 158
46.30597 171
46.32608 164
46.34619 135
46.36631 156
46.38642 134
46.40653 167
46.42665 157
46.44676 143
46.46688 138
46.48699 167
46.5071 149
46.52722 170
46.54733 147
46.56744 137
46.58756 119
46.60767 130
46.62779 116
46.6479 129
46.66801 150
46.68813 141
46.70824 144
46.72835 135
46.74847 141
46.76858 157
46.78869 151
46.80881 143
46.82892 138
46.84904 149
46.86915 144
46.88926 130
46.90938 131
46.92949 129
46.9496 148
46.96972 162
46.98983 135
47.00995 134
47.03006 132
47.05017 133
47.07029 139
47.0904 127
47.11051 157
47.13063 131
47.15074 129
47.17086 141
47.19097 148
47.21108 153
47.2312 152
47.25131 142
47.27142 154
47.29154 146
47.31165 142
47.33176 130
47.35188 135
47.37199 131
47.39211 140
47.41222 135
47.43233 141
47.45245 145
47.47256 129
47.49267 137
47.51279 141
47.5329 145
47.55302 117
47.57313 144
47.59324 138
47.61336 149
47.63347 127
47.65358 143
47.6737 132
47.69381 129
47.71393 150
47.73404 137
47.75415 141
47.77427 145
47.79438 154
47.81449 146
47.83461 137
47.85472 143
47.87483 123
47.89495 159
47.91506 124
47.93518 132
47.95529 154
47.9754 132
47.99552 148
48.01563 149
48.03574 131
48.05586 145
48.07597 139
48.09609 148
48.1162 113
48.13631 158
48.15643 129
48.17654 143
48.19665 145
48.21677 141
48.23688 127
48.257 122
48.27711 117
48.29722 127
48.31734 140
48.33745 139
48.35756 145
48.37768 136
48.39779 166
48.4179 149
48.43802 140
48.45813 156
48.47825 134
48.49836 137
48.51847 141
48.53859 149
48.5587 165
48.57881 143
48.59893 141
48.61904 140
48.63916 144
48.65927 141
48.67938 162
48.6995 166
48.71961 144
48.73972 149
48.75984 162
48.77995 158
48.80006 161
48.82018 132
48.84029 168
48.86041 156
48.88052 158
48.90063 152
48.92075 179
48.94086 147
48.96097 157
48.98109 145
49.0012 141
49.02132 169
49.04143 150
49.06154 143
49.08166 150
49.10177 157
49.12188 156
49.142 169
49.16211 158
49.18223 178
49.20234 139
49.22245 133
49.24257 166
49.26268 161
49.28279 146
49.30291 171
49.32302 168
49.34313 165
49.36325 161
49.38336 151
49.40348 173
49.42359 145
49.4437 172
49.46382 185
49.48393 183
49.50404 164
49.52416 170
49.54427 171
49.56439 181
49.5845 188
49.60461 177
49.62473 198
49.64484 208
49.66495 199
49.68507 212
49.70518 226
49.7253 246
49.74541 268
49.76552 263
49.78564 311
49.80575 325
49.82586 333
49.84598 396
49.86609 443
49.8862 465
49.90632 574
49.92643 627
49.94655 769
49.96666 958
49.98677 1264
50.00689 1470
50.027 1913
50.04711 2371
50.06723 2977
50.08734 3559
50.10746 4131
50.12757 4366
50.14768 4094
50.1678 3286
50.18791 2678
50.20802 2185
50.22814 2164
50.24825 2229
50.26837 2089
50.28848 1718
50.30859 1241
50.32871 769
50.34882 490
50.36893 409
50.38905 312
50.40916 328
50.42927 303
50.44939 307
50.4695 273
50.48962 256
50.50973 282
50.52984 301
50.54996 253
50.57007 261
50.59018 299
50.6103 284
50.63041 284
50.65053 253
50.67064 217
50.69075 194
50.71087 234
50.73098 230
50.75109 211
50.77121 183
50.79132 161
50.81143 196
50.83155 174
50.85166 171
50.87178 174
50.89189 162
50.912 182
50.93212 141
50.95223 147
50.97234 143
50.99246 167
51.01257 164
51.03269 155
51.0528 146
51.07291 135
51.09303 144
51.11314 143
51.13325 136
51.15337 141
51.17348 150
51.1936 175
51.21371 149
51.23382 147
51.25394 150
51.27405 140
51.29416 149
51.31428 131
51.33439 127
51.3545 152
51.37462 140
51.39473 139
51.41485 155
51.43496 144
51.45507 133
51.47519 128
51.4953 140
51.51541 132
51.53553 129
51.55564 128
51.57576 148
51.59587 129
51.61598 131
51.6361 134
51.65621 124
51.67632 152
51.69644 149
51.71655 133
51.73667 126
51.75678 137
51.77689 124
51.79701 144
51.81712 135
51.83723 145
51.85735 143
51.87746 135
51.89757 149
51.91769 120
51.9378 134
51.95792 116
51.97803 133
51.99814 118
52.01826 154
52.03837 137
52.05848 141
52.0786 141
52.09871 140
52.11883 128
52.13894 135
52.15905 132
52.17917 125
52.19928 126
52.21939 131
52.23951 123
52.25962 152
52.27974 136
52.29985 119
52.31996 144
52.34008 125
52.36019 148
52.3803 125
52.40042 110
52.42053 132
52.44064 135
52.46076 125
52.48087 141
52.50099 129
52.5211 130
52.54121 136
52.56133 139
52.58144 159
52.60155 145
52.62167 130
52.64178 144
52.6619 133
52.68201 135
52.70212 137
52.72224 149
52.74235 145
52.76246 145
52.78258 134
52.80269 148
52.8228 127
52.84292 132
52.86303 139
52.88315 137
52.90326 156
52.92337 137
52.94349 168
52.9636 138
52.98371 152
53.00383 133
53.02394 145
53.04406 154
53.06417 155
53.08428 164
53.1044 124
53.12451 119
53.14462 134
53.16474 150
53.18485 167
53.20497 147
53.22508 146
53.24519 123
53.26531 146
53.28542 153
53.30553 135
53.32565 156
53.34576 146
53.36587 156
53.38599 145
53.4061 124
53.42622 176
53.44633 157
53.46644 148
53.48656 151
53.50667 156
53.52678 180
53.5469 155
53.56701 176
53.58713 151
53.60724 181
53.62735 161
53.64747 162
53.66758 156
53.68769 150
53.70781 155
53.72792 141
53.74804 150
53.76815 145
53.78826 143
53.80838 179
53.82849 142
53.8486 154
53.86872 157
53.88883 182
53.90894 164
53.92906 126
53.94917 132
53.96929 144
53.9894 144
54.00951 154
54.02963 130
54.04974 156
54.06985 153
54.08997 146
54.11008 155
54.1302 145
54.15031 150
54.17042 170
54.19054 148
54.21065 139
54.23076 179
54.25088 165
54.27099 154
54.29111 188
54.31122 193
54.33133 159
54.35145 157
54.37156 181
54.39167 174
54.41179 172
54.4319 158
54.45201 177
54.47213 159
54.49224 188
54.51236 182
54.53247 219
54.55258 199
54.5727 220
54.59281 246
54.61292 253
54.63304 293
54.65315 325
54.67327 335
54.69338 434
54.71349 470
54.73361 529
54.75372 664
54.77383 750
54.79395 950
54.81406 1151
54.83417 1267
54.85429 1357
54.8744 1297
54.89452 1106
54.91463 899
54.93474 735
54.95486 755
54.97497 733
54.99508 749
55.0152 753
55.03531 680
55.05543 506
55.07554 382
55.09565 321
55.11577 318
55.13588 317
55.15599 320
55.17611 332
55.19622 395
55.21634 432
55.23645 485
55.25656 539
55.27668 599
55.29679 655
55.3169 631
55.33702 603
55.35713 486
55.37724 431
55.39736 368
55.41747 384
55.43759 419
55.4577 402
55.47781 378
55.49793 283
55.51804 255
55.53815 211
55.55827 182
55.57838 186
55.5985 201
55.61861 168
55.63872 154
55.65884 170
55.67895 164
55.69906 192
55.71918 159
55.73929 139
55.75941 144
55.77952 140
55.79963 147
55.81975 131
55.83986 156
55.85997 151
55.88009 147
55.9002 156
55.92031 156
55.94043 135
55.96054 126
55.98066 116
56.00077 142
56.02088 144
56.041 154
56.06111 112
56.08122 141
56.10134 144
56.12145 113
56.14157 121
56.16168 127
56.18179 135
56.20191 159
56.22202 141
56.24213 135
56.26225 140
56.28236 130
56.30248 134
56.32259 119
56.3427 112
56.36282 140
56.38293 137
56.40304 129
56.42316 115
56.44327 135
56.46338 135
56.4835 149
56.50361 147
56.52373 124
56.54384 146
56.56395 126
56.58407 134
56.60418 142
56.62429 147
56.64441 134
56.66452 140
56.68464 148
56.70475 136
56.72486 140
56.74498 127
56.76509 126
56.7852 139
56.80532 137
56.82543 144
56.84554 135
56.86566 130
56.88577 128
56.90589 136
56.926 138
56.94611 135
56.96623 138
56.98634 140
57.00645 135
57.02657 158
57.04668 158
57.0668 138
57.08691 135
57.10702 155
57.12714 168
57.14725 169
57.16736 196
57.18748 200
57.20759 213
57.22771 206
57.24782 177
57.26793 171
57.28805 174
57.30816 181
57.32827 171
57.34839 143
57.3685 160
57.38861 176
57.40873 150
57.42884 147
57.44896 130
57.46907 128
57.48918 154
57.5093 157
57.52941 140
57.54952 137
57.56964 127
57.58975 128
57.60987 133
57.62998 130
57.65009 126
57.67021 132
57.69032 118
57.71043 119
57.73055 147
57.75066 126
57.77078 140
57.79089 128
57.811 126
57.83112 126
57.85123 150
57.87134 142
57.89146 128
57.91157 153
57.93168 113
57.9518 129
57.97191 143
57.99203 144
58.01214 144
58.03225 141
58.05237 129
58.07248 153
58.09259 141
58.11271 140
58.13282 136
58.15294 153
58.17305 147
58.19316 131
58.21328 124
58.23339 124
58.2535 136
58.27362 138
58.29373 123
58.31385 154
58.33396 129
58.35407 134
58.37419 145
58.3943 135
58.41441 124
58.43453 147
58.45464 142
58.47475 133
58.49487 129
58.51498 141
58.5351 152
58.55521 129
58.57532 143
58.59544 139
58.61555 145
58.63566 130
58.65578 127
58.67589 132
58.69601 144
58.71612 153
58.73623 129
58.75635 145
58.77646 124
58.79657 133
58.81669 145
58.8368 159
58.85691 142
58.87703 160
58.89714 143
58.91726 111
58.93737 129
58.95748 128
58.9776 168
58.99771 127
59.01782 150
59.03794 151
59.05805 155
59.07817 130
59.09828 145
59.11839 133
59.13851 127
59.15862 139
59.17873 151
59.19885 154
59.21896 158
59.23908 152
59.25919 150
59.2793 176
59.29942 161
59.31953 159
59.33964 161
59.35976 155
59.37987 183
59.39998 173
59.4201 169
59.44021 164
59.46033 196
59.48044 190
59.50055 181
59.52067 196
59.54078 209
59.56089 256
59.58101 223
59.60112 245
59.62124 287
59.64135 309
59.66146 326
59.68158 402
59.70169 419
59.7218 518
59.74192 535
59.76203 672
59.78215 736
59.80226 965
59.82237 1189
59.84249 1386
59.8626 1734
59.88271 2117
59.90283 2463
59.92294 2762
59.94305 2688
59.96317 2519
59.98328 2055
60.0034 1552
60.02351 1276
60.04362 1337
60.06374 1400
60.08385 1426
60.10396 1389
60.12408 1295
60.14419 995
60.16431 737
60.18442 503
60.20453 375
60.22465 301
60.24476 263
60.26487 236
60.28499 228
60.3051 212
60.32522 207
60.34533 219
60.36544 190
60.38556 199
60.40567 197
60.42578 174
60.4459 171
60.46601 157
60.48612 167
60.50624 165
60.52635 137
60.54647 153
60.56658 169
60.58669 156
60.60681 147
60.62692 128
60.64703 131
60.66715 144
60.68726 163
60.70738 153
60.72749 149
60.7476 145
60.76772 143
60.78783 141
60.80794 136
60.82806 154
60.84817 133
60.86828 167
60.8884 149
60.90851 154
60.92863 173
60.94874 139
60.96885 145
60.98897 133
61.00908 145
61.02919 115
61.04931 132
61.06942 177
61.08954 149
61.10965 127
61.12976 136
61.14988 133
61.16999 137
61.1901 143
61.21022 140
61.23033 118
61.25045 154
61.27056 153
61.29067 156
61.31079 133
61.3309 160
61.35101 144
61.37113 149
61.39124 145
61.41135 143
61.43147 125
61.45158 147
61.4717 125
61.49181 137
61.51192 139
61.53204 155
61.55215 134
61.57226 138
61.59238 151
61.61249 146
61.63261 130
61.65272 166
61.67283 137
61.69295 128
61.71306 167
61.73317 155
61.75329 140
61.7734 149
61.79352 129
61.81363 164
61.83374 136
61.85386 149
61.87397 147
61.89408 153
61.9142 145
61.93431 157
61.95442 155
61.97454 159
61.99465 137
62.01477 145
62.03488 137
62.05499 141
62.07511 149
62.09522 154
62.11533 170
62.13545 162
62.15556 166
62.17568 165
62.19579 129
62.2159 146
62.23602 141
62.25613 180
62.27624 155
62.29636 148
62.31647 163
62.33659 128
62.3567 160
62.37681 140
62.39693 145
62.41704 146
62.43715 131
62.45727 154
62.47738 136
62.49749 153
62.51761 149
62.53772 146
62.55784 164
62.57795 114
62.59806 159
62.61818 145
62.63829 126
62.6584 137
62.67852 141
62.69863 158
62.71875 141
62.73886 137
62.75897 123
62.77909 155
62.7992 127
62.81931 127
62.83943 137
62.85954 121
62.87965 139
62.89977 121
62.91988 122
62.94 161
62.96011 129
62.98022 138
63.00034 114
63.02045 130
63.04056 152
63.06068 143
63.08079 134
63.10091 141
63.12102 128
63.14113 142
63.16125 141
63.18136 156
63.20147 143
63.22159 134
63.2417 113
63.26182 138
63.28193 151
63.30204 140
63.32216 149
63.34227 135
63.36238 152
63.3825 126
63.40261 133
63.42272 130
63.44284 123
63.46295 125
63.48307 117
63.50318 147
63.52329 148
63.54341 126
63.56352 144
63.58363 147
63.60375 143
63.62386 159
63.64398 160
63.66409 167
63.6842 148
63.70432 154
63.72443 169
63.74454 170
63.76466 174
63.78477 187
63.80489 198
63.825 207
63.84511 225
63.86523 242
63.88534 284
63.90545 363
63.92557 420
63.94568 433
63.96579 497
63.98591 567
64.00602 552
64.02614 596
64.04625 535
64.06636 431
64.08648 356
64.10659 315
64.1267 319
64.14682 323
64.16693 356
64.18705 372
64.20716 335
64.22727 320
64.24739 268
64.2675 216
64.28761 160
64.30773 161
64.32784 140
64.34796 150
64.36807 143
64.38818 143
64.4083 122
64.42841 132
64.44852 123
64.46864 116
64.48875 129
64.50886 117
64.52898 145
64.54909 131
64.56921 118
64.58932 121
64.60943 127
64.62955 136
64.64966 142
64.66977 116
64.68989 126
64.71 137
64.73012 142
64.75023 128
64.77034 122
64.79046 115
64.81057 133
64.83068 125
64.8508 119
64.87091 120
64.89102 133
64.91114 132
64.93125 160
64.95137 138
64.97148 129
64.99159 127
65.01171 104
65.03182 127
65.05193 111
65.07205 112
65.09216 137
65.11228 131
65.13239 142
65.1525 140
65.17262 129
65.19273 122
65.21284 137
65.23296 150
65.25307 130
65.27319 125
65.2933 137
65.31341 132
65.33353 118
65.35364 137
65.37375 140
65.39387 141
65.41398 148
65.43409 148
65.45421 124
65.47432 138
65.49444 142
65.51455 150
65.53466 143
65.55478 141
65.57489 163
65.595 187
65.61512 169
65.63523 214
65.65535 186
65.67546 201
65.69557 216
65.71569 254
65.7358 261
65.75591 259
65.77603 259
65.79614 233
65.81626 220
65.83637 226
65.85648 191
65.8766 196
65.89671 175
65.91682 202
65.93694 193
65.95705 178
65.97716 210
65.99728 174
66.01739 169
66.03751 135
66.05762 163
66.07773 128
66.09785 141
66.11796 151
66.13807 147
66.15819 134
66.1783 148
66.19842 132
66.21853 135
66.23864 106
66.25876 125
66.27887 126
66.29898 137
66.3191 129
66.33921 137
66.35933 152
66.37944 148
66.39955 134
66.41967 159
66.43978 136
66.45989 142
66.48001 146
66.50012 147
66.52023 131
66.54035 140
66.56046 143
66.58058 138
66.60069 142
66.6208 133
66.64092 153
66.66103 148
66.68114 134
66.70126 132
66.72137 131
66.74149 132
66.7616 148
66.78171 140
66.80183 144
66.82194 152
66.84205 153
66.86217 144
66.88228 140
66.90239 149
66.92251 122
66.94262 148
66.96274 159
66.98285 152
67.00296 140
67.02308 149
67.04319 179
67.0633 164
67.08342 151
67.10353 139
67.12365 158
67.14376 178
67.16387 174
67.18399 154
67.2041 160
67.22421 165
67.24433 156
67.26444 176
67.28456 203
67.30467 168
67.32478 218
67.3449 214
67.36501 243
67.38512 226
67.40524 232
67.42535 267
67.44546 271
67.46558 312
67.48569 355
67.50581 361
67.52592 440
67.54603 469
67.56615 573
67.58626 662
67.60637 854
67.62649 916
67.6466 1122
67.66672 1287
67.68683 1497
67.70694 1549
67.72706 1590
67.74717 1470
67.76728 1287
67.7874 972
67.80751 917
67.82763 881
67.84774 929
67.86785 959
67.88797 1036
67.90808 1122
67.92819 1138
67.94831 1101
67.96842 1083
67.98853 1094
68.00865 1176
68.02876 1245
68.04888 1413
68.06899 1753
68.0891 1915
68.10922 2110
68.12933 2130
68.14944 1943
68.16956 1718
68.18967 1619
68.20979 1489
68.2299 1613
68.25001 1788
68.27013 1962
68.29024 2015
68.31035 1949
68.33047 1722
68.35058 1480
68.3707 1054
68.39081 892
68.41092 797
68.43104 744
68.45115 726
68.47126 764
68.49138 737
68.51149 656
68.5316 520
68.55172 396
68.57183 334
68.59195 329
68.61206 257
68.63217 202
68.65229 216
68.6724 194
68.69251 193
68.71263 176
68.73274 158
68.75286 188
68.77297 168
68.79308 180
68.8132 186
68.83331 144
68.85342 144
68.87354 148
68.89365 175
68.91376 167
68.93388 142
68.95399 151
68.97411 141
68.99422 145
69.01433 155
69.03445 147
69.05456 157
69.07467 146
69.09479 150
69.1149 152
69.13502 148
69.15513 143
69.17524 136
69.19536 130
69.21547 137
69.23558 128
69.2557 135
69.27581 147
69.29593 144
69.31604 139
69.33615 121
69.35627 153
69.37638 123
69.39649 152
69.41661 138
69.43672 141
69.45683 130
69.47695 153
69.49706 127
69.51718 137
69.53729 131
69.5574 119
69.57752 132
69.59763 123
69.61774 129
69.63786 140
69.65797 137
69.67809 127
69.6982 140
69.71831 119
69.73843 148
69.75854 109
69.77865 116
69.79877 127
69.81888 129
69.839 122
69.85911 130
69.87922 116
69.89934 128
69.91945 138
69.93956 125
69.95968 127
69.97979 118
69.9999 132
70.02002 129
70.04013 134
70.06025 121
70.08036 121
70.10047 122
70.12059 151
70.1407 129
70.16081 121
70.18093 103
70.20104 125
70.22116 129
70.24127 122
70.26138 124
70.2815 133
70.30161 131
70.32172 127
70.34184 127
70.36195 117
70.38207 130
70.40218 109
70.42229 144
70.44241 125
70.46252 141
70.48263 122
70.50275 126
70.52286 123
70.54297 103
70.56309 106
70.5832 132
70.60332 137
70.62343 108
70.64354 126
70.66366 112
70.68377 130
70.70388 117
70.724 147
70.74411 148
70.76423 141
70.78434 121
70.80445 118
70.82457 136
70.84468 135
70.86479 127
70.88491 121
70.90502 127
70.92513 129
70.94525 102
70.96536 117
70.98548 122
71.00559 121
71.0257 113
71.04582 103
71.06593 123
71.08604 112
71.10616 125
71.12627 131
71.14639 115
71.1665 118
71.18661 125
71.20673 126
71.22684 119
71.24695 140
71.26707 108
71.28718 137
71.3073 128
71.32741 135
71.34752 122
71.36764 115
71.38775 129
71.40786 128
71.42798 113
71.44809 125
71.4682 132
71.48832 133
71.50843 135
71.52855 119
71.54866 121
71.56877 137
71.58889 125
71.609 138
71.62911 123
71.64923 127
71.66934 127
71.68946 144
71.70957 129
71.72968 126
71.7498 117
71.76991 132
71.79002 100
71.81014 136
71.83025 115
71.85037 138
71.87048 129
71.89059 111
71.91071 121
71.93082 121
71.95093 117
71.97105 109
71.99116 133
72.01127 126
72.03139 146
72.0515 123
72.07162 107
72.09173 123
72.11184 128
72.13196 129
72.15207 128
72.17218 109
72.1923 115
72.21241 136
72.23253 119
72.25264 131
72.27275 119
72.29287 128
72.31298 124
72.33309 122
72.35321 116
72.37332 136
72.39344 117
72.41355 132
72.43366 115
72.45378 96
72.47389 98
72.494 120
72.51412 139
72.53423 114
72.55434 118
72.57446 126
72.59457 128
72.61469 137
72.6348 123
72.65491 145
72.67503 125
72.69514 136
72.71525 140
72.73537 154
72.75548 128
72.7756 155
72.79571 134
72.81582 121
72.83594 125
72.85605 122
72.87616 132
72.89628 142
72.91639 133
72.9365 145
72.95662 130
72.97673 126
72.99685 146
73.01696 131
73.03707 149
73.05719 139
73.0773 152
73.09741 149
73.11753 155
73.13764 166
73.15776 157
73.17787 174
73.19798 175
73.2181 183
73.23821 218
73.25832 239
73.27844 261
73.29855 275
73.31867 324
73.33878 406
73.35889 488
73.37901 516
73.39912 564
73.41923 551
73.43935 632
73.45946 596
73.47957 568
73.49969 407
73.5198 385
73.53992 302
73.56003 347
73.58014 332
73.60026 363
73.62037 336
73.64048 373
73.6606 349
73.68071 328
73.70083 300
73.72094 237
73.74105 220
73.76117 159
73.78128 163
73.80139 161
73.82151 134
73.84162 148
73.86174 141
73.88185 138
73.90196 137
73.92208 125
73.94219 135
73.9623 131
73.98242 145
74.00253 124
74.02264 111
74.04276 108
74.06287 127
74.08299 132
74.1031 126
74.12321 136
74.14333 132
74.16344 117
74.18355 139
74.20367 131
74.22378 116
74.2439 143
74.26401 113
74.28412 115
74.30424 112
74.32435 121
74.34446 122
74.36458 122
74.38469 125
74.40481 137
74.42492 132
74.44503 132
74.46515 132
74.48526 120
74.50537 135
74.52549 133
74.5456 128
74.56571 116
74.58583 132
74.60594 135
74.62606 120
74.64617 126
74.66628 131
74.6864 123
74.70651 123
74.72662 107
74.74674 145
74.76685 142
74.78697 131
74.80708 116
74.82719 130
74.84731 110
74.86742 133
74.88753 123
74.90765 134
74.92776 116
74.94787 114
74.96799 149
74.9881 126
75.00822 139
