3.00117 19571
3.02128 18662
3.0414 18623
3.06151 18088
3.08162 17026
3.10174 17069
3.12185 16419
3.14197 16077
3.16208 15353
3.18219 15040
3.20231 14898
3.22242 14168
3.24253 14124
3.26265 13640
3.28276 13020
3.30288 12840
3.32299 12127
3.3431 11884
3.36322 11399
3.38333 11108
3.40344 10713
3.42356 10491
3.44367 10164
3.46379 9557
3.4839 9505
3.50401 9245
3.52413 8662
3.54424 8560
3.56435 8111
3.58447 7903
3.60458 7813
3.62469 7572
3.64481 7280
3.66492 6775
3.68504 6531
3.70515 6600
3.72526 6235
3.74538 6048
3.76549 5553
3.7856 5585
3.80572 5365
3.82583 5006
3.84595 4973
3.86606 4530
3.88617 4683
3.90629 4487
3.9264 4233
3.94651 4011
3.96663 3996
3.98674 3719
4.00686 3688
4.02697 3311
4.04708 3348
4.0672 3212
4.08731 3085
4.10742 3123
4.12754 2778
4.14765 2797
4.16776 2615
4.18788 2654
4.20799 2621
4.22811 2492
4.24822 2294
4.26833 2388
4.28845 2187
4.30856 2205
4.32867 2054
4.34879 2063
4.3689 2043
4.38902 1998
4.40913 1944
4.42924 1819
4.44936 1845
4.46947 1786
4.48958 1765
4.5097 1818
4.52981 1617
4.54992 1715
4.57004 1634
4.59015 1673
4.61027 1616
4.63038 1617
4.65049 1587
4.67061 1537
4.69072 1533
4.71083 1490
4.73095 1327
4.75106 1342
4.77118 1427
4.79129 1298
4.8114 1370
4.83152 1359
4.85163 1301
4.87174 1256
4.89186 1255
4.91197 1273
4.93209 1213
4.9522 1224
4.97231 1220
4.99243 1189
5.01254 1210
5.03265 1255
5.05277 1101
5.07288 1122
5.09299 1021
5.11311 1100
5.13322 1090
5.15334 1027
5.17345 1057
5.19356 968
5.21368 1032
5.23379 998
5.2539 1042
5.27402 912
5.29413 948
5.31425 984
5.33436 945
5.35447 888
5.37459 937
5.3947 949
5.41481 883
5.43493 899
5.45504 907
5.47516 856
5.49527 889
5.51538 831
5.5355 818
5.55561 878
5.57572 843
5.59584 814
5.61595 883
5.63606 835
5.65618 853
5.67629 799
5.69641 795
5.71652 769
5.73663 760
5.75675 821
5.77686 783
5.79697 837
5.81709 756
5.8372 786
5.85732 733
5.87743 713
5.89754 736
5.91766 789
5.93777 743
5.95788 757
5.978 757
5.99811 709
6.01823 794
6.03834 757
6.05845 748
6.07857 755
6.09868 715
6.11879 731
6.13891 750
6.15902 683
6.17913 680
6.19925 705
6.21936 698
6.23948 668
6.25959 664
6.2797 665
6.29982 738
6.31993 709
6.34004 682
6.36016 684
6.38027 706
6.40039 680
6.4205 699
6.44061 678
6.46073 709
6.48084 712
6.50095 667
6.52107 725
6.54118 715
6.56129 666
6.58141 678
6.60152 661
6.62164 640
6.64175 654
6.66186 657
6.68198 691
6.70209 659
6.7222 636
6.74232 684
6.76243 675
6.78255 693
6.80266 658
6.82277 626
6.84289 661
6.863 670
6.88311 694
6.90323 627
6.92334 665
6.94346 618
6.96357 656
6.98368 655
7.0038 653
7.02391 631
7.04402 669
7.06414 679
7.08425 664
7.10436 622
7.12448 619
7.14459 635
7.16471 590
7.18482 625
7.20493 622
7.22505 696
7.24516 630
7.26527 661
7.28539 646
7.3055 660
7.32562 614
7.34573 635
7.36584 607
7.38596 627
7.40607 587
7.42618 577
7.4463 651
7.46641 641
7.48653 592
7.50664 621
7.52675 624
7.54687 674
7.56698 628
7.58709 639
7.60721 584
7.62732 630
7.64743 591
7.66755 582
7.68766 622
7.70778 639
7.72789 665
7.748 650
7.76812 620
7.78823 583
7.80834 622
7.82846 586
7.84857 591
7.86869 631
7.8888 602
7.90891 639
7.92903 612
7.94914 607
7.96925 548
7.98937 598
8.00948 584
8.0296 600
8.04971 545
8.06982 615
8.08994 627
8.11005 582
8.13016 597
8.15028 610
8.17039 617
8.1905 611
8.21062 583
8.23073 555
8.25085 648
8.27096 617
8.29107 623
8.31119 585
8.3313 600
8.35141 600
8.37153 601
8.39164 618
8.41176 610
8.43187 558
8.45198 605
8.4721 554
8.49221 582
8.51232 584
8.53244 648
8.55255 600
8.57266 565
8.59278 642
8.61289 588
8.63301 618
8.65312 603
8.67323 609
8.69335 601
8.71346 596
8.73357 580
8.75369 581
8.7738 625
8.79392 616
8.81403 577
8.83414 635
8.85426 611
8.87437 631
8.89448 601
8.9146 576
8.93471 604
8.95483 587
8.97494 575
8.99505 567
9.01517 610
9.03528 563
9.05539 555
9.07551 572
9.09562 621
9.11573 558
9.13585 575
9.15596 539
9.17608 607
9.19619 585
9.2163 584
9.23642 565
9.25653 575
9.27664 557
9.29676 581
9.31687 573
9.33699 599
9.3571 599
9.37721 558
9.39733 555
9.41744 585
9.43755 562
9.45767 607
9.47778 607
9.4979 563
9.51801 541
9.53812 556
9.55824 581
9.57835 578
9.59846 574
9.61858 576
9.63869 551
9.6588 604
9.67892 571
9.69903 579
9.71915 551
9.73926 556
9.75937 571
9.77949 579
9.7996 595
9.81971 605
9.83983 568
9.85994 570
9.88006 533
9.90017 515
9.92028 521
9.9404 557
9.96051 566
9.98062 580
10.00074 560
10.02085 556
10.04097 604
10.06108 545
10.08119 571
10.10131 565
10.12142 554
10.14153 546
10.16165 571
10.18176 611
10.20187 622
10.22199 573
10.2421 601
10.26222 562
10.28233 562
10.30244 545
10.32256 582
10.34267 567
10.36278 567
10.3829 578
10.40301 575
10.42313 566
10.44324 595
10.46335 621
10.48347 574
10.50358 584
10.52369 603
10.54381 602
10.56392 580
10.58403 558
10.60415 510
10.62426 537
10.64438 557
10.66449 571
10.6846 602
10.70472 554
10.72483 566
10.74494 577
10.76506 609
10.78517 567
10.80529 594
10.8254 575
10.84551 564
10.86563 662
10.88574 577
10.90585 625
10.92597 602
10.94608 616
10.9662 560
10.98631 578
11.00642 585
11.02654 550
11.04665 586
11.06676 583
11.08688 570
11.10699 588
11.1271 607
11.14722 596
11.16733 599
11.18745 597
11.20756 634
11.22767 584
11.24779 616
11.2679 611
11.28801 552
11.30813 600
11.32824 626
11.34836 628
11.36847 593
11.38858 630
11.4087 634
11.42881 622
11.44892 614
11.46904 644
11.48915 639
11.50927 681
11.52938 593
11.54949 585
11.56961 613
11.58972 595
11.60983 666
11.62995 653
11.65006 685
11.67017 718
11.69029 664
11.7104 700
11.73052 656
11.75063 610
11.77074 748
11.79086 685
11.81097 688
11.83108 671
11.8512 751
11.87131 761
11.89143 667
11.91154 753
11.93165 725
11.95177 762
11.97188 714
11.99199 768
12.01211 778
12.03222 752
12.05234 727
12.07245 706
12.09256 774
12.11268 752
12.13279 811
12.1529 759
12.17302 831
12.19313 792
12.21324 769
12.23336 810
12.25347 783
12.27359 752
12.2937 741
12.31381 778
12.33393 750
12.35404 784
12.37415 703
12.39427 708
12.41438 691
12.4345 649
12.45461 656
12.47472 664
12.49484 691
12.51495 610
12.53506 646
12.55518 709
12.57529 632
12.5954 656
12.61552 604
12.63563 625
12.65575 602
12.67586 626
12.69597 593
12.71609 599
12.7362 576
12.75631 579
12.77643 590
12.79654 549
12.81666 599
12.83677 589
12.85688 558
12.877 547
12.89711 573
12.91722 583
12.93734 549
12.95745 540
12.97757 533
12.99768 510
13.01779 528
13.03791 609
13.05802 523
13.07813 509
13.09825 553
13.11836 517
13.13847 533
13.15859 536
13.1787 530
13.19882 539
13.21893 499
13.23904 514
13.25916 511
13.27927 575
13.29938 519
13.3195 455
13.33961 521
13.35973 537
13.37984 515
13.39995 541
13.42007 553
13.44018 487
13.46029 477
13.48041 507
13.50052 499
13.52064 524
13.54075 566
13.56086 524
13.58098 538
13.60109 542
13.6212 509
13.64132 529
13.66143 538
13.68154 499
13.70166 536
13.72177 481
13.74189 503
13.762 489
13.78211 471
13.80223 481
13.82234 452
13.84245 516
13.86257 506
13.88268 515
13.9028 526
13.92291 506
13.94302 486
13.96314 522
13.98325 463
14.00336 518
14.02348 489
14.04359 493
14.06371 535
14.08382 516
14.10393 534
14.12405 515
14.14416 495
14.16427 522
14.18439 560
14.2045 539
14.22461 508
14.24473 508
14.26484 523
14.28496 486
14.30507 500
14.32518 473
14.3453 513
14.36541 469
14.38552 479
14.40564 484
14.42575 501
14.44587 482
14.46598 516
14.48609 463
14.50621 489
14.52632 516
14.54643 523
14.56655 516
14.58666 508
14.60677 494
14.62689 449
14.647 495
14.66712 461
14.68723 508
14.70734 487
14.72746 502
14.74757 506
14.76768 487
14.7878 514
14.80791 439
14.82803 533
14.84814 499
14.86825 468
14.88837 490
14.90848 493
14.92859 447
14.94871 492
14.96882 502
14.98894 484
15.00905 487
15.02916 483
15.04928 550
15.06939 455
15.0895 519
15.10962 466
15.12973 498
15.14984 472
15.16996 504
15.19007 444
15.21019 501
15.2303 491
15.25041 472
15.27053 490
15.29064 456
15.31075 498
15.33087 485
15.35098 499
15.3711 467
15.39121 499
15.41132 484
15.43144 495
15.45155 515
15.47166 487
15.49178 519
15.51189 476
15.53201 487
15.55212 509
15.57223 492
15.59235 478
15.61246 456
15.63257 504
15.65269 493
15.6728 507
15.69291 475
15.71303 483
15.73314 498
15.75326 507
15.77337 480
15.79348 450
15.8136 460
15.83371 480
15.85382 510
15.87394 492
15.89405 472
15.91417 457
15.93428 522
15.95439 492
15.97451 497
15.99462 528
16.01473 503
16.03485 451
16.05496 479
16.07508 488
16.09519 457
16.1153 445
16.13542 496
16.15553 493
16.17564 530
16.19576 466
16.21587 492
16.23598 493
16.2561 505
16.27621 507
16.29633 480
16.31644 478
16.33655 471
16.35667 490
16.37678 455
16.39689 519
16.41701 495
16.43712 491
16.45724 460
16.47735 470
16.49746 473
16.51758 491
16.53769 483
16.5578 446
16.57792 489
16.59803 478
16.61814 461
16.63826 493
16.65837 499
16.67849 468
16.6986 476
16.71871 497
16.73883 504
16.75894 470
16.77905 479
16.79917 451
16.81928 449
16.8394 468
16.85951 529
16.87962 469
16.89974 409
16.91985 465
16.93996 473
16.96008 487
16.98019 508
17.00031 473
17.02042 466
17.04053 471
17.06065 498
17.08076 471
17.10087 502
17.12099 499
17.1411 447
17.16121 484
17.18133 477
17.20144 465
17.22156 503
17.24167 453
17.26178 482
17.2819 442
17.30201 540
17.32212 520
17.34224 507
17.36235 496
17.38247 488
17.40258 501
17.42269 512
17.44281 482
17.46292 524
17.48303 473
17.50315 511
17.52326 491
17.54338 462
17.56349 499
17.5836 506
17.60372 487
17.62383 505
17.64394 505
17.66406 527
17.68417 509
17.70428 521
17.7244 519
17.74451 549
17.76463 517
17.78474 527
17.80485 516
17.82497 517
17.84508 526
17.86519 531
17.88531 495
17.90542 515
17.92554 489
17.94565 514
17.96576 493
17.98588 515
18.00599 471
18.0261 516
18.04622 474
18.06633 519
18.08645 489
18.10656 528
18.12667 503
18.14679 516
18.1669 490
18.18701 515
18.20713 472
18.22724 525
18.24735 477
18.26747 488
18.28758 502
18.3077 472
18.32781 460
18.34792 522
18.36804 543
18.38815 509
18.40826 482
18.42838 507
18.44849 539
18.46861 504
18.48872 506
18.50883 532
18.52895 518
18.54906 508
18.56917 514
18.58929 492
18.6094 512
18.62951 536
18.64963 519
18.66974 528
18.68986 572
18.70997 531
18.73008 550
18.7502 452
18.77031 503
18.79042 494
18.81054 499
18.83065 478
18.85077 483
18.87088 492
18.89099 519
18.91111 517
18.93122 541
18.95133 495
18.97145 504
18.99156 549
19.01168 516
19.03179 546
19.0519 580
19.07202 533
19.09213 531
19.11224 558
19.13236 545
19.15247 461
19.17258 587
19.1927 541
19.21281 517
19.23293 510
19.25304 560
19.27315 502
19.29327 563
19.31338 559
19.33349 554
19.35361 578
19.37372 625
19.39384 593
19.41395 627
19.43406 603
19.45418 565
19.47429 585
19.4944 648
19.51452 655
19.53463 654
19.55475 709
19.57486 750
19.59497 710
19.61509 806
19.6352 823
19.65531 812
19.67543 889
19.69554 947
19.71565 938
19.73577 1062
19.75588 1018
19.776 1108
19.79611 1107
19.81622 1094
19.83634 1104
19.85645 1130
19.87656 1090
19.89668 1098
19.91679 1101
19.93691 1083
19.95702 1049
19.97713 1049
19.99725 1059
20.01736 1004
20.03747 1031
20.05759 1002
20.0777 1025
20.09782 1028
20.11793 979
20.13804 961
20.15816 980
20.17827 1036
20.19838 975
20.2185 935
20.23861 948
20.25872 955
20.27884 930
20.29895 920
20.31907 861
20.33918 908
20.35929 946
20.37941 889
20.39952 886
20.41963 998
20.43975 916
20.45986 893
20.47998 913
20.50009 952
20.5202 910
20.54032 943
20.56043 895
20.58054 938
20.60066 916
20.62077 923
20.64088 962
20.661 941
20.68111 1059
20.70123 1251
20.72134 1375
20.74145 1640
20.76157 1629
20.78168 1827
20.80179 1704
20.82191 1638
20.84202 1427
20.86214 1207
20.88225 1135
20.90236 1075
20.92248 939
20.94259 899
20.9627 887
20.98282 849
21.00293 905
21.02305 848
21.04316 867
21.06327 871
21.08339 795
21.1035 880
21.12361 842
21.14373 845
21.16384 872
21.18395 852
21.20407 804
21.22418 858
21.2443 795
21.26441 815
21.28452 782
21.30464 816
21.32475 791
21.34486 800
21.36498 783
21.38509 799
21.40521 762
21.42532 791
21.44543 732
21.46555 754
21.48566 749
21.50577 783
21.52589 765
21.546 829
21.56612 791
21.58623 754
21.60634 732
21.62646 753
21.64657 796
21.66668 757
21.6868 721
21.70691 758
21.72702 729
21.74714 736
21.76725 765
21.78737 736
21.80748 749
21.82759 721
21.84771 712
21.86782 736
21.88793 703
21.90805 723
21.92816 718
21.94828 735
21.96839 727
21.9885 689
22.00862 701
22.02873 687
22.04884 721
22.06896 667
22.08907 692
22.10919 713
22.1293 721
22.14941 695
22.16953 709
22.18964 702
22.20975 690
22.22987 715
22.24998 705
22.27009 692
22.29021 734
22.31032 656
22.33044 658
22.35055 651
22.37066 678
22.39078 718
22.41089 730
22.431 682
22.45112 692
22.47123 654
22.49135 708
22.51146 659
22.53157 596
22.55169 704
22.5718 655
22.59191 638
22.61203 639
22.63214 674
22.65225 677
22.67237 646
22.69248 641
22.7126 681
22.73271 670
22.75282 646
22.77294 622
22.79305 675
22.81316 717
22.83328 635
22.85339 675
22.87351 681
22.89362 640
22.91373 698
22.93385 630
22.95396 654
22.97407 652
22.99419 647
23.0143 611
23.03442 651
23.05453 666
23.07464 633
23.09476 626
23.11487 635
23.13498 641
23.1551 642
23.17521 625
23.19532 670
23.21544 637
23.23555 634
23.25567 716
23.27578 587
23.29589 665
23.31601 678
23.33612 652
23.35623 675
23.37635 652
23.39646 709
23.41658 683
23.43669 708
23.4568 654
23.47692 683
23.49703 713
23.51714 683
23.53726 633
23.55737 625
23.57749 673
23.5976 709
23.61771 655
23.63783 618
23.65794 704
23.67805 721
23.69817 704
23.71828 770
23.73839 676
23.75851 706
23.77862 713
23.79874 685
23.81885 721
23.83896 727
23.85908 757
23.87919 732
23.8993 742
23.91942 756
23.93953 725
23.95965 767
23.97976 720
23.99987 704
24.01999 670
24.0401 724
24.06021 748
24.08033 811
24.10044 733
24.12056 781
24.14067 700
24.16078 763
24.1809 767
24.20101 773
24.22112 729
24.24124 752
24.26135 728
24.28146 755
24.30158 718
24.32169 768
24.34181 711
24.36192 788
24.38203 683
24.40215 764
24.42226 730
24.44237 729
24.46249 728
24.4826 747
24.50272 742
24.52283 801
24.54294 731
24.56306 793
24.58317 791
24.60328 808
24.6234 744
24.64351 850
24.66362 820
24.68374 831
24.70385 829
24.72397 873
24.74408 809
24.76419 874
24.78431 863
24.80442 838
24.82453 874
24.84465 861
24.86476 867
24.88488 827
24.90499 847
24.9251 852
24.94522 823
24.96533 842
24.98544 821
25.00556 837
25.02567 821
25.04579 880
25.0659 844
25.08601 828
25.10613 860
25.12624 913
25.14635 860
25.16647 880
25.18658 912
25.20669 841
25.22681 878
25.24692 862
25.26704 870
25.28715 806
25.30726 814
25.32738 775
25.34749 786
25.3676 809
25.38772 728
25.40783 737
25.42795 789
25.44806 740
25.46817 761
25.48829 710
25.5084 729
25.52851 757
25.54863 735
25.56874 755
25.58886 703
25.60897 702
25.62908 684
25.6492 727
25.66931 729
25.68942 707
25.70954 693
25.72965 657
25.74976 666
25.76988 645
25.78999 725
25.81011 681
25.83022 691
25.85033 682
25.87045 703
25.89056 673
25.91067 688
25.93079 699
25.9509 712
25.97102 703
25.99113 709
26.01124 683
26.03136 701
26.05147 767
26.07158 745
26.0917 704
26.11181 755
26.13193 713
26.15204 700
26.17215 745
26.19227 734
26.21238 837
26.23249 812
26.25261 805
26.27272 789
26.29283 858
26.31295 862
26.33306 925
26.35318 1004
26.37329 1086
26.3934 1150
26.41352 1353
26.43363 1635
26.45374 2037
26.47386 2665
26.49397 3249
26.51409 4061
26.5342 4640
26.55431 5175
26.57443 5132
26.59454 4573
26.61465 3870
26.63477 3181
26.65488 2514
26.67499 1886
26.69511 1528
26.71522 1113
26.73534 990
26.75545 895
26.77556 859
26.79568 831
26.81579 825
26.8359 759
26.85602 759
26.87613 747
26.89625 718
26.91636 721
26.93647 761
26.95659 620
26.9767 688
26.99681 674
27.01693 683
27.03704 649
27.05716 693
27.07727 664
27.09738 638
27.1175 618
27.13761 647
27.15772 600
27.17784 591
27.19795 647
27.21806 572
27.23818 638
27.25829 667
27.27841 620
27.29852 708
27.31863 640
27.33875 644
27.35886 697
27.37897 679
27.39909 667
27.4192 656
27.43932 614
27.45943 587
27.47954 618
27.49966 613
27.51977 633
27.53988 683
27.56 637
27.58011 633
27.60023 610
27.62034 631
27.64045 582
27.66057 594
27.68068 611
27.70079 656
27.72091 651
27.74102 630
27.76113 651
27.78125 618
27.80136 624
27.82148 633
27.84159 609
27.8617 605
27.88182 606
27.90193 606
27.92204 645
27.94216 599
27.96227 642
27.98239 575
28.0025 594
28.02261 642
28.04273 571
28.06284 583
28.08295 608
28.10307 580
28.12318 536
28.1433 564
28.16341 561
28.18352 509
28.20364 568
28.22375 634
28.24386 630
28.26398 589
28.28409 576
28.3042 510
28.32432 582
28.34443 536
28.36455 564
28.38466 561
28.40477 532
28.42489 566
28.445 578
28.46511 542
28.48523 573
28.50534 555
28.52546 550
28.54557 538
28.56568 565
28.5858 564
28.60591 517
28.62602 515
28.64614 520
28.66625 479
28.68636 539
28.70648 563
28.72659 571
28.74671 530
28.76682 575
28.78693 557
28.80705 559
28.82716 576
28.84727 576
28.86739 590
28.8875 550
28.90762 553
28.92773 593
28.94784 597
28.96796 554
28.98807 586
29.00818 607
29.0283 504
29.04841 510
29.06853 540
29.08864 551
29.10875 550
29.12887 546
29.14898 570
29.16909 559
29.18921 545
29.20932 551
29.22943 523
29.24955 580
29.26966 528
29.28978 546
29.30989 589
29.33 548
29.35012 565
29.37023 536
29.39034 537
29.41046 555
29.43057 555
29.45069 518
29.4708 596
29.49091 508
29.51103 583
29.53114 556
29.55125 534
29.57137 566
29.59148 578
29.6116 560
29.63171 550
29.65182 530
29.67194 570
29.69205 538
29.71216 563
29.73228 588
29.75239 575
29.7725 567
29.79262 550
29.81273 539
29.83285 576
29.85296 559
29.87307 595
29.89319 572
29.9133 549
29.93341 542
29.95353 563
29.97364 560
29.99376 578
30.01387 539
30.03398 565
30.0541 554
30.07421 530
30.09432 565
30.11444 563
30.13455 580
30.15467 560
30.17478 586
30.19489 602
30.21501 600
30.23512 577
30.25523 525
30.27535 584
30.29546 533
30.31557 534
30.33569 581
30.3558 540
30.37592 546
30.39603 560
30.41614 559
30.43626 624
30.45637 534
30.47648 525
30.4966 550
30.51671 600
30.53683 560
30.55694 552
30.57705 571
30.59717 548
30.61728 521
30.63739 523
30.65751 528
30.67762 575
30.69773 560
30.71785 537
30.73796 577
30.75808 548
30.77819 545
30.7983 550
30.81842 544
30.83853 572
30.85864 566
30.87876 532
30.89887 554
30.91899 538
30.9391 553
30.95921 549
30.97933 539
30.99944 579
31.01955 567
31.03967 551
31.05978 568
31.0799 565
31.10001 543
31.12012 540
31.14024 596
31.16035 605
31.18046 543
31.20058 569
31.22069 562
31.2408 541
31.26092 550
31.28103 523
31.30115 574
31.32126 501
31.34137 529
31.36149 576
31.3816 496
31.40171 549
31.42183 511
31.44194 524
31.46206 496
31.48217 580
31.50228 566
31.5224 537
31.54251 540
31.56262 567
31.58274 548
31.60285 528
31.62297 543
31.64308 536
31.66319 560
31.68331 571
31.70342 538
31.72353 508
31.74365 557
31.76376 570
31.78387 546
31.80399 512
31.8241 545
31.84422 554
31.86433 582
31.88444 557
31.90456 527
31.92467 535
31.94478 574
31.9649 504
31.98501 511
32.00513 559
32.02524 588
32.04535 535
32.06547 565
32.08558 589
32.10569 532
32.12581 523
32.14592 556
32.16604 560
32.18615 575
32.20626 588
32.22638 483
32.24649 557
32.2666 554
32.28672 573
32.30683 567
32.32694 604
32.34706 612
32.36717 610
32.38729 565
32.4074 525
32.42751 573
32.44763 612
32.46774 611
32.48785 652
32.50797 575
32.52808 618
32.5482 608
32.56831 579
32.58842 614
32.60854 592
32.62865 638
32.64876 615
32.66888 653
32.68899 650
32.7091 641
32.72922 618
32.74933 645
32.76945 607
32.78956 650
32.80967 693
32.82979 650
32.8499 721
32.87001 687
32.89013 685
32.91024 705
32.93036 712
32.95047 724
32.97058 682
32.9907 782
33.01081 747
33.03092 815
33.05104 821
33.07115 795
33.09127 770
33.11138 803
33.13149 768
33.15161 747
33.17172 726
33.19183 741
33.21195 755
33.23206 744
33.25217 766
33.27229 756
33.2924 700
33.31252 722
33.33263 681
33.35274 706
33.37286 676
33.39297 681
33.41308 605
33.4332 627
33.45331 601
33.47343 637
33.49354 622
33.51365 580
33.53377 597
33.55388 600
33.57399 549
33.59411 587
33.61422 635
33.63434 566
33.65445 575
33.67456 618
33.69468 569
33.71479 598
33.7349 585
33.75502 539
33.77513 580
33.79524 571
33.81536 570
33.83547 596
33.85559 573
33.8757 568
33.89581 573
33.91593 534
33.93604 533
33.95615 550
33.97627 566
33.99638 570
34.0165 600
34.03661 587
34.05672 609
34.07684 598
34.09695 547
34.11706 524
34.13718 575
34.15729 593
34.17741 590
34.19752 542
34.21763 553
34.23775 562
34.25786 604
34.27797 570
34.29809 594
34.3182 587
34.33831 588
34.35843 550
34.37854 593
34.39866 618
34.41877 595
34.43888 621
34.459 624
34.47911 627
34.49922 664
34.51934 643
34.53945 667
34.55957 637
34.57968 650
34.59979 703
34.61991 739
34.64002 681
34.66013 754
34.68025 750
34.70036 750
34.72047 718
34.74059 777
34.7607 746
34.78082 804
34.80093 778
34.82104 815
34.84116 854
34.86127 824
34.88138 828
34.9015 820
34.92161 855
34.94173 781
34.96184 764
34.98195 832
35.00207 785
35.02218 778
35.04229 788
35.06241 746
35.08252 759
35.10264 756
35.12275 771
35.14286 796
35.16298 741
35.18309 754
35.2032 756
35.22332 794
35.24343 798
35.26354 774
35.28366 817
35.30377 761
35.32389 815
35.344 770
35.36411 848
35.38423 796
35.40434 920
35.42445 906
35.44457 887
35.46468 891
35.4848 890
35.50491 928
35.52502 997
35.54514 982
35.56525 976
35.58536 963
35.60548 1005
35.62559 995
35.64571 916
35.66582 967
35.68593 965
35.70605 1005
35.72616 967
35.74627 911
35.76639 1017
35.7865 990
35.80661 930
35.82673 919
35.84684 906
35.86696 893
35.88707 849
35.90718 851
35.9273 816
35.94741 803
35.96752 793
35.98764 842
36.00775 790
36.02787 773
36.04798 765
36.06809 780
36.08821 789
36.10832 812
36.12843 828
36.14855 733
36.16866 682
36.18878 691
36.20889 733
36.229 723
36.24912 780
36.26923 718
36.28934 741
36.30946 755
36.32957 771
36.34968 803
36.3698 790
36.38991 836
36.41003 914
36.43014 944
36.45025 946
36.47037 991
36.49048 909
36.51059 948
36.53071 867
36.55082 812
36.57094 779
36.59105 802
36.61116 755
36.63128 725
36.65139 666
36.6715 710
36.69162 738
36.71173 703
36.73184 712
36.75196 626
36.77207 660
36.79219 688
36.8123 713
36.83241 742
36.85253 675
36.87264 703
36.89275 703
36.91287 705
36.93298 722
36.9531 663
36.97321 684
36.99332 711
37.01344 701
37.03355 674
37.05366 653
37.07378 640
37.09389 682
37.11401 668
37.13412 695
37.15423 674
37.17435 683
37.19446 620
37.21457 641
37.23469 695
37.2548 622
37.27491 608
37.29503 694
37.31514 659
37.33526 666
37.35537 633
37.37548 653
37.3956 633
37.41571 610
37.43582 664
37.45594 675
37.47605 727
37.49617 664
37.51628 663
37.53639 693
37.55651 667
37.57662 685
37.59673 719
37.61685 730
37.63696 659
37.65708 678
37.67719 706
37.6973 684
37.71742 647
37.73753 709
37.75764 650
37.77776 686
37.79787 663
37.81798 689
37.8381 696
37.85821 676
37.87833 656
37.89844 662
37.91855 675
37.93867 697
37.95878 672
37.97889 679
37.99901 673
38.01912 703
38.03924 669
38.05935 701
38.07946 696
38.09958 657
38.11969 668
38.1398 685
38.15992 707
38.18003 667
38.20015 677
38.22026 694
38.24037 669
38.26049 703
38.2806 756
38.30071 665
38.32083 672
38.34094 712
38.36105 686
38.38117 664
38.40128 693
38.4214 673
38.44151 695
38.46162 642
38.48174 670
38.50185 683
38.52196 689
38.54208 641
38.56219 676
38.58231 636
38.60242 679
38.62253 643
38.64265 685
38.66276 639
38.68287 643
38.70299 645
38.7231 658
38.74321 657
38.76333 607
38.78344 619
38.80356 649
38.82367 643
38.84378 601
38.8639 598
38.88401 592
38.90412 607
38.92424 608
38.94435 613
38.96447 618
38.98458 553
39.00469 604
39.02481 620
39.04492 621
39.06503 598
39.08515 622
39.10526 657
39.12538 633
39.14549 657
39.1656 643
39.18572 660
39.20583 640
39.22594 637
39.24606 718
39.26617 675
39.28628 680
39.3064 720
39.32651 829
39.34663 821
39.36674 838
39.38685 829
39.40697 809
39.42708 801
39.44719 759
39.46731 684
39.48742 695
39.50754 707
39.52765 639
39.54776 611
39.56788 599
39.58799 632
39.6081 549
39.62822 594
39.64833 574
39.66845 586
39.68856 524
39.70867 591
39.72879 617
39.7489 577
39.76901 563
39.78913 529
39.80924 592
39.82935 591
39.84947 519
39.86958 552
39.8897 572
39.90981 563
39.92992 604
39.95004 570
39.97015 606
39.99026 581
40.01038 584
40.03049 624
40.05061 600
40.07072 577
40.09083 614
40.11095 620
40.13106 673
40.15117 668
40.17129 647
40.1914 685
40.21152 741
40.23163 725
40.25174 684
40.27186 650
40.29197 635
40.31208 630
40.3322 612
40.35231 614
40.37242 613
40.39254 611
40.41265 624
40.43277 604
40.45288 568
40.47299 632
40.49311 544
40.51322 595
40.53333 558
40.55345 620
40.57356 595
40.59368 539
40.61379 587
40.6339 555
40.65402 585
40.67413 591
40.69424 645
40.71436 552
40.73447 637
40.75458 613
40.7747 606
40.79481 650
40.81493 648
40.83504 674
40.85515 622
40.87527 624
40.89538 635
40.91549 670
40.93561 625
40.95572 646
40.97584 616
40.99595 600
41.01606 602
41.03618 612
41.05629 637
41.0764 624
41.09652 583
41.11663 648
41.13675 585
41.15686 591
41.17697 546
41.19709 595
41.2172 562
41.23731 548
41.25743 561
41.27754 594
41.29765 588
41.31777 562
41.33788 563
41.358 616
41.37811 548
41.39822 565
41.41834 539
41.43845 529
41.45856 580
41.47868 577
41.49879 539
41.51891 513
41.53902 540
41.55913 547
41.57925 561
41.59936 544
41.61947 526
41.63959 546
41.6597 530
41.67982 572
41.69993 522
41.72004 584
41.74016 566
41.76027 555
41.78038 540
41.8005 543
41.82061 519
41.84072 520
41.86084 541
41.88095 526
41.90107 551
41.92118 506
41.94129 542
41.96141 525
41.98152 537
42.00163 509
42.02175 527
42.04186 517
42.06198 506
42.08209 542
42.1022 586
42.12232 530
42.14243 534
42.16254 575
42.18266 556
42.20277 556
42.22289 569
42.243 577
42.26311 645
42.28323 670
42.30334 645
42.32345 649
42.34357 724
42.36368 705
42.38379 692
42.40391 641
42.42402 650
42.44414 618
42.46425 559
42.48436 591
42.50448 573
42.52459 594
42.5447 523
42.56482 539
42.58493 522
42.60505 519
42.62516 526
42.64527 539
42.66539 510
42.6855 522
42.70561 526
42.72573 497
42.74584 536
42.76595 516
42.78607 522
42.80618 540
42.8263 519
42.84641 533
42.86652 542
42.88664 489
42.90675 498
42.92686 509
42.94698 514
42.96709 559
42.98721 551
43.00732 524
43.02743 463
43.04755 490
43.06766 550
43.08777 510
43.10789 489
43.128 562
43.14812 517
43.16823 516
43.18834 546
43.20846 515
43.22857 485
43.24868 504
43.2688 535
43.28891 490
43.30902 504
43.32914 525
43.34925 520
43.36937 536
43.38948 496
43.40959 547
43.42971 478
43.44982 552
43.46993 517
43.49005 521
43.51016 546
43.53028 505
43.55039 505
43.5705 527
43.59062 533
43.61073 514
43.63084 519
43.65096 521
43.67107 501
43.69119 543
43.7113 520
43.73141 541
43.75153 516
43.77164 511
43.79175 545
43.81187 544
43.83198 515
43.85209 523
43.87221 542
43.89232 534
43.91244 477
43.93255 502
43.95266 497
43.97278 482
43.99289 578
44.013 513
44.03312 505
44.05323 494
44.07335 532
44.09346 498
44.11357 502
44.13369 545
44.1538 535
44.17391 478
44.19403 511
44.21414 514
44.23426 513
44.25437 551
44.27448 530
44.2946 483
44.31471 513
44.33482 541
44.35494 506
44.37505 506
44.39516 497
44.41528 550
44.43539 533
44.45551 514
44.47562 515
44.49573 528
44.51585 541
44.53596 507
44.55607 532
44.57619 565
44.5963 514
44.61642 496
44.63653 543
44.65664 507
44.67676 541
44.69687 450
44.71698 515
44.7371 484
44.75721 510
44.77732 537
44.79744 505
44.81755 557
44.83767 539
44.85778 522
44.87789 512
44.89801 525
44.91812 494
44.93823 523
44.95835 506
44.97846 502
44.99858 546
45.01869 563
45.0388 501
45.05892 496
45.07903 527
45.09914 512
45.11926 572
45.13937 515
45.15949 517
45.1796 525
45.19971 515
45.21983 526
45.23994 532
45.26005 540
45.28017 513
45.30028 542
45.32039 543
45.34051 530
45.36062 525
45.38074 521
45.40085 512
45.42096 568
45.44108 574
45.46119 534
45.4813 548
45.50142 537
45.52153 572
45.54165 530
45.56176 612
45.58187 564
45.60199 608
45.6221 653
45.64221 610
45.66233 627
45.68244 670
45.70256 630
45.72267 633
45.74278 610
45.7629 621
45.78301 602
45.80312 593
45.82324 568
45.84335 597
45.86346 581
45.88358 502
45.90369 584
45.92381 551
45.94392 556
45.96403 548
45.98415 571
46.00426 517
46.02437 538
46.04449 534
46.0646 486
46.08472 519
46.10483 514
46.12494 511
46.14506 498
46.16517 497
46.18528 519
46.2054 530
46.22551 516
46.24563 532
46.26574 494
46.28585 540
46.30597 519
46.32608 524
46.34619 519
46.36631 542
46.38642 536
46.40653 503
46.42665 507
46.44676 498
46.46688 530
46.48699 528
46.5071 538
46.52722 506
46.54733 501
46.56744 541
46.58756 549
46.60767 532
46.62779 515
46.6479 507
46.66801 513
46.68813 513
46.70824 496
46.72835 528
46.74847 535
46.76858 475
46.78869 535
46.80881 530
46.82892 528
46.84904 511
46.86915 545
46.88926 521
46.90938 539
46.92949 520
46.9496 572
46.96972 499
46.98983 518
47.00995 511
47.03006 528
47.05017 517
47.07029 558
47.0904 517
47.11051 539
47.13063 500
47.15074 499
47.17086 464
47.19097 504
47.21108 534
47.2312 524
47.25131 531
47.27142 494
47.29154 504
47.31165 510
47.33176 486
47.35188 499
47.37199 487
47.39211 497
47.41222 478
47.43233 496
47.45245 495
47.47256 484
47.49267 520
47.51279 540
47.5329 480
47.55302 538
47.57313 434
47.59324 554
47.61336 533
47.63347 474
47.65358 534
47.6737 543
47.69381 474
47.71393 513
47.73404 493
47.75415 550
47.77427 507
47.79438 540
47.81449 557
47.83461 569
47.85472 546
47.87483 540
47.89495 572
47.91506 535
47.93518 543
47.95529 563
47.9754 551
47.99552 508
48.01563 505
48.03574 528
48.05586 523
48.07597 572
48.09609 514
48.1162 503
48.13631 503
48.15643 539
48.17654 536
48.19665 511
48.21677 543
48.23688 522
48.257 516
48.27711 489
48.29722 482
48.31734 512
48.33745 533
48.35756 493
48.37768 471
48.39779 518
48.4179 537
48.43802 523
48.45813 508
48.47825 528
48.49836 510
48.51847 504
48.53859 523
48.5587 490
48.57881 523
48.59893 497
48.61904 480
48.63916 522
48.65927 506
48.67938 510
48.6995 571
48.71961 484
48.73972 527
48.75984 511
48.77995 536
48.80006 505
48.82018 474
48.84029 550
48.86041 544
48.88052 518
48.90063 527
48.92075 515
48.94086 496
48.96097 508
48.98109 495
49.0012 554
49.02132 538
49.04143 518
49.06154 549
49.08166 510
49.10177 513
49.12188 534
49.142 519
49.16211 520
49.18223 548
49.20234 581
49.22245 590
49.24257 556
49.26268 536
49.28279 527
49.30291 568
49.32302 508
49.34313 592
49.36325 532
49.38336 551
49.40348 559
49.42359 558
49.4437 540
49.46382 570
49.48393 596
49.50404 578
49.52416 589
49.54427 574
49.56439 567
49.5845 561
49.60461 558
49.62473 577
49.64484 563
49.66495 631
49.68507 557
49.70518 581
49.7253 585
49.74541 543
49.76552 610
49.78564 574
49.80575 598
49.82586 573
49.84598 588
49.86609 571
49.8862 627
49.90632 639
49.92643 721
49.94655 740
49.96666 783
49.98677 903
50.00689 885
50.027 953
50.04711 958
50.06723 933
50.08734 879
50.10746 817
50.12757 815
50.14768 750
50.1678 684
50.18791 674
50.20802 699
50.22814 660
50.24825 625
50.26837 542
50.28848 577
50.30859 561
50.32871 525
50.34882 515
50.36893 459
50.38905 543
50.40916 520
50.42927 490
50.44939 514
50.4695 536
50.48962 519
50.50973 515
50.52984 500
50.54996 536
50.57007 557
50.59018 483
50.6103 511
50.63041 514
50.65053 461
50.67064 542
50.69075 455
50.71087 494
50.73098 486
50.75109 444
50.77121 496
50.79132 471
50.81143 492
50.83155 499
50.85166 483
50.87178 520
50.89189 478
50.912 482
50.93212 477
50.95223 509
50.97234 502
50.99246 510
51.01257 465
51.03269 510
51.0528 458
51.07291 494
51.09303 449
51.11314 484
51.13325 500
51.15337 464
51.17348 519
51.1936 488
51.21371 463
51.23382 488
51.25394 466
51.27405 482
51.29416 488
51.31428 496
51.33439 488
51.3545 438
51.37462 495
51.39473 460
51.41485 478
51.43496 465
51.45507 469
51.47519 526
51.4953 470
51.51541 509
51.53553 466
51.55564 421
51.57576 428
51.59587 485
51.61598 511
51.6361 498
51.65621 465
51.67632 488
51.69644 496
51.71655 501
51.73667 454
51.75678 469
51.77689 479
51.79701 490
51.81712 478
51.83723 480
51.85735 486
51.87746 480
51.89757 501
51.91769 479
51.9378 483
51.95792 457
51.97803 468
51.99814 489
52.01826 479
52.03837 507
52.05848 493
52.0786 503
52.09871 487
52.11883 431
52.13894 473
52.15905 512
52.17917 492
52.19928 491
52.21939 491
52.23951 496
52.25962 506
52.27974 475
52.29985 526
52.31996 529
52.34008 490
52.36019 475
52.3803 491
52.40042 492
52.42053 505
52.44064 511
52.46076 492
52.48087 473
52.50099 467
52.5211 463
52.54121 501
52.56133 495
52.58144 472
52.60155 479
52.62167 467
52.64178 471
52.6619 464
52.68201 499
52.70212 473
52.72224 488
52.74235 516
52.76246 505
52.78258 484
52.80269 491
52.8228 474
52.84292 503
52.86303 483
52.88315 508
52.90326 527
52.92337 528
52.94349 507
52.9636 506
52.98371 560
53.00383 518
53.02394 506
53.04406 515
53.06417 541
53.08428 537
53.1044 488
53.12451 479
53.14462 566
53.16474 503
53.18485 489
53.20497 566
53.22508 460
53.24519 525
53.26531 545
53.28542 537
53.30553 489
53.32565 557
53.34576 529
53.36587 566
53.38599 511
53.4061 564
53.42622 495
53.44633 557
53.46644 591
53.48656 589
53.50667 570
53.52678 530
53.5469 538
53.56701 552
53.58713 539
53.60724 574
53.62735 611
53.64747 564
53.66758 577
53.68769 642
53.70781 654
53.72792 608
53.74804 681
53.76815 629
53.78826 605
53.80838 636
53.82849 614
53.8486 644
53.86872 629
53.88883 677
53.90894 687
53.92906 665
53.94917 687
53.96929 657
53.9894 692
54.00951 681
54.02963 690
54.04974 672
54.06985 692
54.08997 671
54.11008 715
54.1302 738
54.15031 678
54.17042 663
54.19054 659
54.21065 656
54.23076 666
54.25088 739
54.27099 708
54.29111 703
54.31122 691
54.33133 654
54.35145 654
54.37156 612
54.39167 681
54.41179 680
54.4319 633
54.45201 597
54.47213 646
54.49224 670
54.51236 585
54.53247 650
54.55258 644
54.5727 641
54.59281 653
54.61292 633
54.63304 624
54.65315 653
54.67327 663
54.69338 670
54.71349 652
54.73361 707
54.75372 685
54.77383 665
54.79395 696
54.81406 697
54.83417 690
54.85429 674
54.8744 650
54.89452 666
54.91463 623
54.93474 607
54.95486 669
54.97497 657
54.99508 599
55.0152 600
55.03531 629
55.05543 637
55.07554 575
55.09565 613
55.11577 611
55.13588 608
55.15599 621
55.17611 630
55.19622 602
55.21634 620
55.23645 630
55.25656 606
55.27668 611
55.29679 594
55.3169 559
55.33702 595
55.35713 613
55.37724 553
55.39736 582
55.41747 576
55.43759 569
55.4577 553
55.47781 578
55.49793 525
55.51804 549
55.53815 546
55.55827 519
55.57838 528
55.5985 537
55.61861 556
55.63872 552
55.65884 570
55.67895 558
55.69906 570
55.71918 553
55.73929 517
55.75941 541
55.77952 565
55.79963 548
55.81975 541
55.83986 535
55.85997 533
55.88009 557
55.9002 523
55.92031 513
55.94043 555
55.96054 509
55.98066 568
56.00077 563
56.02088 520
56.041 570
56.06111 533
56.08122 563
56.10134 561
56.12145 530
56.14157 587
56.16168 514
56.18179 540
56.20191 543
56.22202 541
56.24213 547
56.26225 524
56.28236 531
56.30248 541
56.32259 512
56.3427 523
56.36282 519
56.38293 535
56.40304 528
56.42316 542
56.44327 550
56.46338 532
56.4835 507
56.50361 547
56.52373 495
56.54384 517
56.56395 512
56.58407 505
56.60418 531
56.62429 523
56.64441 537
56.66452 499
56.68464 501
56.70475 516
56.72486 576
56.74498 546
56.76509 485
56.7852 519
56.80532 540
56.82543 516
56.84554 516
56.86566 496
56.88577 509
56.90589 482
56.926 553
56.94611 490
56.96623 529
56.98634 510
57.00645 514
57.02657 516
57.04668 510
57.0668 496
57.08691 525
57.10702 531
57.12714 520
57.14725 535
57.16736 548
57.18748 573
57.20759 525
57.22771 518
57.24782 537
57.26793 547
57.28805 521
57.30816 568
57.32827 546
57.34839 493
57.3685 520
57.38861 504
57.40873 527
57.42884 529
57.44896 589
57.46907 506
57.48918 528
57.5093 536
57.52941 581
57.54952 547
57.56964 549
57.58975 520
57.60987 486
57.62998 536
57.65009 516
57.67021 500
57.69032 488
57.71043 519
57.73055 506
57.75066 518
57.77078 509
57.79089 491
57.811 526
57.83112 478
57.85123 500
57.87134 460
57.89146 517
57.91157 548
57.93168 502
57.9518 523
57.97191 478
57.99203 523
58.01214 497
58.03225 478
58.05237 454
58.07248 480
58.09259 493
58.11271 492
58.13282 486
58.15294 465
58.17305 497
58.19316 481
58.21328 481
58.23339 471
58.2535 470
58.27362 486
58.29373 494
58.31385 471
58.33396 471
58.35407 493
58.37419 516
58.3943 501
58.41441 477
58.43453 461
58.45464 497
58.47475 467
58.49487 493
58.51498 503
58.5351 500
58.55521 504
58.57532 477
58.59544 500
58.61555 446
58.63566 498
58.65578 463
58.67589 469
58.69601 497
58.71612 485
58.73623 456
58.75635 490
58.77646 469
58.79657 468
58.81669 512
58.8368 497
58.85691 456
58.87703 509
58.89714 498
58.91726 502
58.93737 496
58.95748 455
58.9776 484
58.99771 450
59.01782 486
59.03794 498
59.05805 522
59.07817 499
59.09828 522
59.11839 490
59.13851 459
59.15862 510
59.17873 465
59.19885 461
59.21896 470
59.23908 474
59.25919 475
59.2793 475
59.29942 482
59.31953 510
59.33964 495
59.35976 484
59.37987 495
59.39998 495
59.4201 483
59.44021 494
59.46033 503
59.48044 521
59.50055 525
59.52067 466
59.54078 524
59.56089 498
59.58101 526
59.60112 520
59.62124 527
59.64135 517
59.66146 549
59.68158 558
59.70169 564
59.7218 564
59.74192 595
59.76203 645
59.78215 657
59.80226 777
59.82237 765
59.84249 721
59.8626 784
59.88271 716
59.90283 730
59.92294 652
59.94305 670
59.96317 662
59.98328 652
60.0034 648
60.02351 597
60.04362 592
60.06374 559
60.08385 564
60.10396 569
60.12408 511
60.14419 502
60.16431 511
60.18442 491
60.20453 514
60.22465 493
60.24476 457
60.26487 461
60.28499 458
60.3051 469
60.32522 482
60.34533 483
60.36544 495
60.38556 442
60.40567 472
60.42578 454
60.4459 494
60.46601 544
60.48612 498
60.50624 497
60.52635 496
60.54647 465
60.56658 488
60.58669 485
60.60681 497
60.62692 480
60.64703 494
60.66715 480
60.68726 511
60.70738 499
60.72749 518
60.7476 485
60.76772 495
60.78783 451
60.80794 452
60.82806 495
60.84817 508
60.86828 495
60.8884 506
60.90851 485
60.92863 475
60.94874 511
60.96885 472
60.98897 480
61.00908 474
61.02919 484
61.04931 505
61.06942 473
61.08954 473
61.10965 483
61.12976 495
61.14988 510
61.16999 488
61.1901 501
61.21022 497
61.23033 484
61.25045 498
61.27056 502
61.29067 501
61.31079 497
61.3309 484
61.35101 525
61.37113 497
61.39124 502
61.41135 481
61.43147 555
61.45158 553
61.4717 528
61.49181 539
61.51192 541
61.53204 561
61.55215 579
61.57226 554
61.59238 565
61.61249 584
61.63261 544
61.65272 549
61.67283 590
61.69295 603
61.71306 568
61.73317 615
61.75329 647
61.7734 544
61.79352 600
61.81363 575
61.83374 637
61.85386 601
61.87397 595
61.89408 646
61.9142 609
61.93431 636
61.95442 623
61.97454 680
61.99465 617
62.01477 677
62.03488 676
62.05499 638
62.07511 680
62.09522 670
62.11533 620
62.13545 688
62.15556 698
62.17568 666
62.19579 696
62.2159 743
62.23602 707
62.25613 668
62.27624 704
62.29636 685
62.31647 666
62.33659 698
62.3567 681
62.37681 660
62.39693 655
62.41704 681
62.43715 626
62.45727 649
62.47738 638
62.49749 636
62.51761 635
62.53772 612
62.55784 625
62.57795 607
62.59806 615
62.61818 619
62.63829 578
62.6584 560
62.67852 619
62.69863 547
62.71875 569
62.73886 585
62.75897 555
62.77909 623
62.7992 560
62.81931 583
62.83943 551
62.85954 547
62.87965 559
62.89977 566
62.91988 564
62.94 537
62.96011 566
62.98022 562
63.00034 529
63.02045 567
63.04056 550
63.06068 535
63.08079 530
63.10091 549
63.12102 569
63.14113 514
63.16125 561
63.18136 550
63.20147 542
63.22159 564
63.2417 545
63.26182 522
63.28193 556
63.30204 529
63.32216 548
63.34227 480
63.36238 535
63.3825 526
63.40261 571
63.42272 582
63.44284 515
63.46295 491
63.48307 568
63.50318 518
63.52329 521
63.54341 514
63.56352 517
63.58363 510
63.60375 506
63.62386 544
63.64398 487
63.66409 544
63.6842 536
63.70432 506
63.72443 527
63.74454 552
63.76466 608
63.78477 557
63.80489 516
63.825 538
63.84511 563
63.86523 580
63.88534 593
63.90545 582
63.92557 598
63.94568 583
63.96579 593
63.98591 615
64.00602 544
64.02614 579
64.04625 609
64.06636 568
64.08648 613
64.10659 636
64.1267 624
64.14682 595
64.16693 543
64.18705 566
64.20716 566
64.22727 541
64.24739 571
64.2675 532
64.28761 516
64.30773 516
64.32784 571
64.34796 482
64.36807 533
64.38818 527
64.4083 551
64.42841 504
64.44852 488
64.46864 485
64.48875 512
64.50886 507
64.52898 495
64.54909 541
64.56921 469
64.58932 499
64.60943 497
64.62955 464
64.64966 479
64.66977 484
64.68989 452
64.71 478
64.73012 494
64.75023 430
64.77034 472
64.79046 474
64.81057 434
64.83068 480
64.8508 518
64.87091 458
64.89102 460
64.91114 510
64.93125 473
64.95137 451
64.97148 505
64.99159 510
65.01171 467
65.03182 459
65.05193 490
65.07205 455
65.09216 474
65.11228 448
65.13239 490
65.1525 426
65.17262 427
65.19273 438
65.21284 467
65.23296 464
65.25307 445
65.27319 453
65.2933 437
65.31341 494
65.33353 472
65.35364 472
65.37375 437
65.39387 473
65.41398 437
65.43409 456
65.45421 481
65.47432 470
65.49444 494
65.51455 480
65.53466 480
65.55478 427
65.57489 452
65.595 441
65.61512 439
65.63523 461
65.65535 448
65.67546 445
65.69557 478
65.71569 431
65.7358 449
65.75591 456
65.77603 437
65.79614 452
65.81626 461
65.83637 456
65.85648 444
65.8766 433
65.89671 446
65.91682 487
65.93694 422
65.95705 452
65.97716 470
65.99728 433
66.01739 483
66.03751 471
66.05762 441
66.07773 439
66.09785 437
66.11796 454
66.13807 465
66.15819 442
66.1783 476
66.19842 438
66.21853 439
66.23864 446
66.25876 423
66.27887 456
66.29898 476
66.3191 473
66.33921 478
66.35933 441
66.37944 448
66.39955 467
66.41967 432
66.43978 406
66.45989 432
66.48001 410
66.50012 419
66.52023 476
66.54035 441
66.56046 457
66.58058 455
66.60069 420
66.6208 423
66.64092 454
66.66103 453
66.68114 464
66.70126 449
66.72137 434
66.74149 461
66.7616 491
66.78171 459
66.80183 451
66.82194 454
66.84205 436
66.86217 443
66.88228 490
66.90239 391
66.92251 428
66.94262 453
66.96274 467
66.98285 429
67.00296 452
67.02308 448
67.04319 470
67.0633 447
67.08342 466
67.10353 466
67.12365 466
67.14376 434
67.16387 473
67.18399 433
67.2041 458
67.22421 494
67.24433 450
67.26444 411
67.28456 466
67.30467 479
67.32478 484
67.3449 474
67.36501 504
67.38512 473
67.40524 495
67.42535 489
67.44546 489
67.46558 518
67.48569 528
67.50581 473
67.52592 488
67.54603 569
67.56615 568
67.58626 608
67.60637 611
67.62649 591
67.6466 588
67.66672 603
67.68683 563
67.70694 582
67.72706 578
67.74717 537
67.76728 492
67.7874 548
67.80751 583
67.82763 598
67.84774 566
67.86785 594
67.88797 549
67.90808 573
67.92819 574
67.94831 594
67.96842 594
67.98853 587
68.00865 633
68.02876 644
68.04888 662
68.06899 641
68.0891 666
68.10922 619
68.12933 673
68.14944 604
68.16956 605
68.18967 629
68.20979 675
68.2299 643
68.25001 620
68.27013 622
68.29024 575
68.31035 573
68.33047 547
68.35058 498
68.3707 522
68.39081 528
68.41092 512
68.43104 514
68.45115 511
68.47126 518
68.49138 482
68.51149 482
68.5316 501
68.55172 471
68.57183 495
68.59195 463
68.61206 488
68.63217 458
68.65229 446
68.6724 480
68.69251 431
68.71263 431
68.73274 454
68.75286 449
68.77297 430
68.79308 477
68.8132 416
68.83331 456
68.85342 475
68.87354 451
68.89365 459
68.91376 440
68.93388 457
68.95399 432
68.97411 463
68.99422 432
69.01433 436
69.03445 438
69.05456 460
69.07467 448
69.09479 443
69.1149 441
69.13502 443
69.15513 426
69.17524 437
69.19536 476
69.21547 428
69.23558 474
69.2557 492
69.27581 442
69.29593 451
69.31604 450
69.33615 457
69.35627 442
69.37638 418
69.39649 462
69.41661 450
69.43672 444
69.45683 461
69.47695 415
69.49706 412
69.51718 475
69.53729 453
69.5574 443
69.57752 446
69.59763 447
69.61774 413
69.63786 433
69.65797 428
69.67809 445
69.6982 475
69.71831 451
69.73843 467
69.75854 461
69.77865 452
69.79877 436
69.81888 450
69.839 483
69.85911 436
69.87922 468
69.89934 466
69.91945 433
69.93956 462
69.95968 458
69.97979 421
69.9999 447
70.02002 442
70.04013 475
70.06025 415
70.08036 452
70.10047 510
70.12059 447
70.1407 451
70.16081 423
70.18093 438
70.20104 438
70.22116 463
70.24127 436
70.26138 436
70.2815 459
70.30161 433
70.32172 433
70.34184 459
70.36195 451
70.38207 436
70.40218 469
70.42229 471
70.44241 448
70.46252 444
70.48263 439
70.50275 465
70.52286 457
70.54297 428
70.56309 477
70.5832 459
70.60332 449
70.62343 481
70.64354 398
70.66366 446
70.68377 460
70.70388 434
70.724 438
70.74411 416
70.76423 410
70.78434 420
70.80445 441
70.82457 418
70.84468 463
70.86479 441
70.88491 416
70.90502 443
70.92513 410
70.94525 431
70.96536 438
70.98548 397
71.00559 441
71.0257 447
71.04582 422
71.06593 481
71.08604 409
71.10616 421
71.12627 443
71.14639 458
71.1665 418
71.18661 439
71.20673 462
71.22684 444
71.24695 394
71.26707 435
71.28718 422
71.3073 458
71.32741 453
71.34752 434
71.36764 435
71.38775 430
71.40786 436
71.42798 421
71.44809 475
71.4682 418
71.48832 433
71.50843 476
71.52855 431
71.54866 436
71.56877 432
71.58889 463
71.609 433
71.62911 464
71.64923 446
71.66934 435
71.68946 449
71.70957 465
71.72968 446
71.7498 452
71.76991 444
71.79002 474
71.81014 441
71.83025 450
71.85037 440
71.87048 453
71.89059 480
71.91071 455
71.93082 439
71.95093 444
71.97105 436
71.99116 457
72.01127 462
72.03139 431
72.0515 462
72.07162 478
72.09173 489
72.11184 447
72.13196 392
72.15207 412
72.17218 493
72.1923 460
72.21241 437
72.23253 463
72.25264 500
72.27275 470
72.29287 450
72.31298 437
72.33309 437
72.35321 466
72.37332 461
72.39344 463
72.41355 438
72.43366 459
72.45378 466
72.47389 488
72.494 456
72.51412 429
72.53423 442
72.55434 436
72.57446 426
72.59457 443
72.61469 455
72.6348 446
72.65491 427
72.67503 434
72.69514 416
72.71525 467
72.73537 490
72.75548 451
72.7756 433
72.79571 453
72.81582 456
72.83594 422
72.85605 444
72.87616 444
72.89628 463
72.91639 477
72.9365 452
72.95662 491
72.97673 464
72.99685 456
73.01696 448
73.03707 479
73.05719 442
73.0773 471
73.09741 467
73.11753 453
73.13764 459
73.15776 456
73.17787 480
73.19798 485
73.2181 467
73.23821 520
73.25832 489
73.27844 514
73.29855 492
73.31867 520
73.33878 520
73.35889 503
73.37901 488
73.39912 481
73.41923 490
73.43935 493
73.45946 506
73.47957 522
73.49969 471
73.5198 472
73.53992 462
73.56003 456
73.58014 492
73.60026 477
73.62037 460
73.64048 517
73.6606 490
73.68071 489
73.70083 465
73.72094 472
73.74105 476
73.76117 462
73.78128 408
73.80139 441
73.82151 430
73.84162 430
73.86174 473
73.88185 397
73.90196 486
73.92208 402
73.94219 463
73.9623 468
73.98242 420
74.00253 444
74.02264 468
74.04276 478
74.06287 430
74.08299 469
74.1031 445
74.12321 475
74.14333 412
74.16344 440
74.18355 386
74.20367 458
74.22378 424
74.2439 467
74.26401 439
74.28412 431
74.30424 398
74.32435 417
74.34446 447
74.36458 442
74.38469 473
74.40481 451
74.42492 473
74.44503 480
74.46515 416
74.48526 465
74.50537 431
74.52549 411
74.5456 430
74.56571 437
74.58583 460
74.60594 433
74.62606 460
74.64617 436
74.66628 461
74.6864 403
74.70651 437
74.72662 445
74.74674 452
74.76685 415
74.78697 458
74.80708 435
74.82719 469
74.84731 450
74.86742 453
74.88753 416
74.90765 436
74.92776 459
74.94787 459
74.96799 459
74.9881 452
75.00822 443
