3.00117 22301.860863735
3.02128 22114.7458740368
3.0414 21092
3.06151 20756.783559611
3.08162 20040.3112361373
3.10174 19587.3990314665
3.12185 19130.0647789725
3.14197 18197.8093740272
3.16208 18074.1652906057
3.18219 17507.4290840722
3.20231 16758.8369131891
3.22242 16587.4201403984
3.24253 15686.1653715343
3.26265 15586.5522877889
3.28276 15058.203911129
3.30288 14587.3924495258
3.32299 14126.3038418751
3.3431 13531
3.36322 13379.6948864031
3.38333 12783.9806411875
3.40344 12302.6188224188
3.42356 12176.7434255376
3.44367 11622.5279648012
3.46379 11526.0814148131
3.4839 11015
3.50401 10285.8484170221
3.52413 10274.7194902872
3.54424 9720.7290739284
3.56435 9306.39654027805
3.58447 9245.22262808523
3.60458 8937.34834674443
3.62469 8559.25286336086
3.64481 8045.85608145287
3.66492 8002.99822067483
3.68504 7744.79627964784
3.70515 7133.53417241203
3.72526 7218.45014072439
3.74538 6613.46575031578
3.76549 6548.95485713969
3.7856 6443
3.80572 5893.5681637932
3.82583 5666.72330119176
3.84595 5486.88764823494
3.86606 5486.34832962206
3.88617 5109.57780017132
3.90629 4882.04418875029
3.9264 4738
3.94651 4289.89922335791
3.96663 4365.09406367443
3.98674 4216.46247198976
4.00686 3957.40492037905
4.02697 3776.35120116278
4.04708 3553.06668726444
4.0672 3611
4.08731 3445.85877172088
4.10742 3204.91066016668
4.12754 3165.60853215845
4.14765 2850.46127634309
4.16776 2894.7459236262
4.18788 2906.15668189893
4.20799 2666.09149387618
4.22811 2542.90239078416
4.24822 2305.88901680885
4.26833 2374.20349022355
4.28845 2410.70320793587
4.30856 2194.39255317047
4.32867 2096.05134851758
4.34879 2070.01868080985
4.3689 2052
4.38902 2078.85450292966
4.40913 1836.83064509953
4.42924 1870.95494587955
4.44936 1730.22977518009
4.46947 1768.73227368328
4.48958 1911.05947391625
4.5097 1675
4.52981 1602.00857758506
4.54992 1640.04688598155
4.57004 1673.01434647499
4.59015 1624.30625096482
4.61027 1499.05360084691
4.63038 1524.03373597614
4.65049 1421.0308963395
4.67061 1454.03591075333
4.69072 1468.91754577379
4.71083 1348.91637743139
4.73095 1396.22082391315
4.75106 1410.23035307229
4.77118 1263.02462068432
4.79129 1335.00540946477
4.8114 1206
4.83152 1187.98008075547
4.85163 1134.95426252847
4.87174 1160.1174015309
4.89186 1196.04483635203
4.91197 1133.07493106732
4.93209 1119.00390585136
4.9522 1089
4.97231 1073.03567643008
4.99243 1171.01430404482
5.01254 1058.6953144393
5.03265 958.087174801133
5.05277 984.891898603863
5.07288 1042.999935098
5.09299 996.019581631471
5.11311 968.967813244794
5.13322 895.998094191056
5.15334 940.977301920258
5.17345 894.101854578486
5.19356 996.969568383587
5.21368 876.155702686696
5.23379 809.975236871533
5.2539 905
5.27402 863.936353016986
5.29413 822.949198074445
5.31425 792.968095513465
5.33436 819.848836848511
5.35447 867.103295610575
5.37459 741.017485130813
5.3947 793
5.41481 703.986892234243
5.43493 764.046200753167
5.45504 738.007962828954
5.47516 786.956931717208
5.49527 748.090738389005
5.51538 705.024264620395
5.5355 699
5.55561 706.992737660231
5.57572 688.014069883346
5.59584 710.940435686673
5.61595 652.005379288285
5.63606 705.952722019524
5.65618 661.064993934822
5.67629 637.983281537523
5.69641 674.98640192055
5.71652 611.997594487254
5.73663 660.993019746192
5.75675 590.894611564045
5.77686 605.98126353039
5.79697 592.983760247218
5.81709 623.001084048933
5.8372 578
5.85732 577.05243347507
5.87743 631.99760054476
5.89754 567.853121085817
5.91766 541.946146634726
5.93777 580.992567584226
5.95788 557.998700043947
5.978 592
5.99811 568.970730271189
6.01823 534.057987832382
6.03834 591.945816099464
6.05845 495.115179833159
6.07857 532.946581908672
6.09868 522.015710994923
6.11879 526.995344102206
6.13891 514.978767808481
6.15902 479.017287862685
6.17913 525.005055965758
6.19925 475.899677368553
6.21936 502.817744404077
6.23948 581.011196950728
6.25959 500.027412237952
6.2797 513
6.29982 523.013715143041
6.31993 548.033388800589
6.34004 544.9255222294
6.36016 491.085763832158
6.38027 483.959156023148
6.40039 512.001793246619
6.4205 494
6.44061 534.000529783972
6.46073 499.994855300929
6.48084 528.996135335654
6.50095 487.06833041662
6.52107 506.931482329424
6.54118 535.012232650478
6.56129 503.004239647493
6.58141 515.994664758752
6.60152 480.985384400224
6.62164 503.061022096901
6.64175 513.977348259364
6.66186 497.024201677872
6.68198 491.011027074737
6.70209 489.982343622446
6.7222 536
6.74232 493.960662905151
6.76243 489.019887375539
6.78255 489.935812078053
6.80266 470.928819989234
6.82277 531.986864900432
6.84289 475.029069962116
6.863 473
6.88311 520.000692554485
6.90323 478.946777475456
6.92334 478.030870053013
6.94346 511.856588988083
6.96357 579.001870506516
6.98368 506.084009217701
7.0038 461
7.02391 459.001735592697
7.04402 465.013015438763
7.06414 476.996382216742
7.08425 478.910608916239
7.10436 519.032023476579
7.12448 461.024784096606
7.14459 482.996237120073
7.16471 459.995884321967
7.18482 483.025530088974
7.20493 476.935080260439
7.22505 440.048025887652
7.24516 496.948099208728
7.26527 484.983645426486
7.28539 524.993121762711
7.3055 492
7.32562 468.99912971033
7.34573 484.037035268087
7.36584 495.965319275639
7.38596 471.982135749783
7.40607 509.96469186234
7.42618 504.007391423697
7.4463 507
7.46641 479.973751846405
7.48653 444.037463571796
7.50664 497.007401300273
7.52675 458.987432568665
7.54687 522.919594357063
7.56698 517.046132538138
7.58709 466.019518077763
7.60721 451.002617667724
7.62732 467.021097857078
7.64743 489.035725960128
7.66755 495.925192806564
7.68766 449.046472700833
7.70778 467.960347713412
7.72789 504.98416434543
7.748 506
7.76812 435.974022964737
7.78823 467.061106546693
7.80834 484.012394046256
7.82846 488.999918083021
7.84857 480.027495110496
7.86869 463.002134472544
7.8888 470
7.90891 465.995561658294
7.92903 469.040579148977
7.94914 487.932721276223
7.96925 423.073331033088
7.98937 461.889566579461
8.00948 514.990725501565
8.0296 493
8.04971 490.995412007222
8.06982 466.976970465397
8.08994 461.023657490618
8.11005 484.066537070651
8.13016 500.004076890034
8.15028 487.009694196509
8.17039 490.993036486366
8.1905 488
8.21062 436.997212784459
8.23073 483.059403943626
8.25085 486.983515878987
8.27096 478.05593651341
8.29107 457.951952223206
8.31119 507.007011429721
8.3313 432
8.35141 442.016852930035
8.37153 468.039048493787
8.39164 477.939079758335
8.41176 433.016712200934
8.43187 468.943960966509
8.45198 472.024569978053
8.4721 451
8.49221 476.003585647205
8.51232 466.008706398058
8.53244 491.005699489221
8.55255 463.072105317935
8.57266 452.00747756982
8.59278 444.012956876993
8.61289 450.973712229859
8.63301 515.007202154392
8.65312 466.937347249367
8.67323 450.063539176822
8.69335 511.062000290144
8.71346 493.026751521592
8.73357 499.010740805349
8.75369 472.010257617218
8.7738 474
8.79392 481.991931589827
8.81403 456.950242881055
8.83414 450.090726706104
8.85426 509.981001261855
8.87437 466.054141538663
8.89448 475.966797845432
8.9146 506
8.93471 498.97254231727
8.95483 447.031556759335
8.97494 515.038107771886
8.99505 467.093186954243
9.01517 473.988431851428
9.03528 471.97866689303
9.05539 511.989871914884
9.07551 488.974219917699
9.09562 451.003964565513
9.11573 478.004546674649
9.13585 461.034028362486
9.15596 494.019402863645
9.17608 446.019653538729
9.19619 483.970847678478
9.2163 507
9.23642 448.963440277762
9.25653 448.002825363261
9.27664 449.058057291644
9.29676 495.950327024683
9.31687 462.134833215001
9.33699 391.987685415978
9.3571 486
9.37721 473.984522594712
9.39733 456.961779345419
9.41744 431.008944434361
9.43755 461.944248139559
9.45767 471.957226543411
9.47778 507.999161251942
9.4979 486
9.51801 527.007648488578
9.53812 492.949406626703
9.55824 472.046068243993
9.57835 510.023755448957
9.59846 471.127372341393
9.61858 432.984283797082
9.63869 484.978840085126
9.6588 492
9.67892 478.975169175298
9.69903 456.001046440972
9.71915 476.033135321616
9.73926 476.982382690369
9.75937 497.97444892731
9.77949 484.027980137759
9.7996 439
9.81971 521.021539487234
9.83983 484.900922115016
9.85994 451.024678383995
9.88006 482.978839686931
9.90017 472.983876912444
9.92028 493.023875325854
9.9404 432
9.96051 458.034438322498
9.98062 509.994620994528
10.00074 483.054297176683
10.02085 533.086341204853
10.04097 442.016870900729
10.06108 515.971853185502
10.08119 461.022147943434
10.10131 480.02076691223
10.12142 493.976534095248
10.14153 451.952914693764
10.16165 454.074662822924
10.18176 483.98546830627
10.20187 467.030604820601
10.22199 461.995671969826
10.2421 484
10.26222 510.991642153967
10.28233 464.910016300687
10.30244 437.055136629477
10.32256 497.904630672882
10.34267 513.983591135867
10.36278 512.049582329478
10.3829 446
10.40301 479.006155517236
10.42313 467.043082726596
10.44324 522.002961904085
10.46335 470.063549326117
10.48347 479.042022583948
10.50358 424.996602921015
10.52369 487.979526072805
10.54381 471.986596235327
10.56392 467.003711997166
10.58403 468.000030026722
10.60415 461.953085721225
10.62426 449.957449170459
10.64438 491.976774370522
10.66449 482.009276167204
10.6846 477
10.70472 478.984626035109
10.72483 465.029126739807
10.74494 509.054999873004
10.76506 500.049776256951
10.78517 493.959181706109
10.80529 522.009267783507
10.8254 455
10.84551 437.021188319067
10.86563 483.979577101292
10.88574 425.957541328442
10.90585 462.910974808758
10.92597 466.998317385533
10.94608 477.995303505534
10.9662 474
10.98631 485.006032515358
11.00642 492.004417885052
11.02654 489.970293556145
11.04665 473.004020025208
11.06676 484.987078946495
11.08688 477.01218542156
11.10699 464.01018661123
11.1271 457
11.14722 517.042533420915
11.16733 517.966566512576
11.18745 487.899836246025
11.20756 460.974799070831
11.22767 496.974809656111
11.24779 478.014400201424
11.2679 476
11.28801 522.008488240511
11.30813 496.938318307301
11.32824 470.990690785209
11.34836 474.017610036889
11.36847 463.971510182677
11.38858 495.004689556553
11.4087 466
11.42881 507.008321618353
11.44892 492.004967526127
11.46904 521.010758733524
11.48915 484.124991381238
11.50927 471.927183494096
11.52938 546.956567780262
11.54949 539.011028368989
11.56961 534.003016620489
11.58972 525.959064565179
11.60983 477.985696706044
11.62995 512.094104618713
11.65006 518.043448558904
11.67017 503.96225658644
11.69029 536.012753616215
11.7104 469
11.73052 494.010011772112
11.75063 487.061501695596
11.77074 561.05264355726
11.79086 517.112768034078
11.81097 505.947153650782
11.83108 554.971422808082
11.8512 559
11.87131 579.003923559511
11.89143 565.970953296776
11.91154 565.055855314055
11.93165 593.02959524902
11.95177 558.997851181693
11.97188 600.970303382829
11.99199 600.997373641137
12.01211 619.001493494345
12.03222 602.988693008999
12.05234 612.04289099556
12.07245 651.172449794469
12.09256 700.069782465226
12.11268 627.001418386948
12.13279 710.963486369982
12.1529 728
12.17302 766.047863484775
12.19313 787.965040832762
12.21324 763.072522844614
12.23336 851.86311362801
12.25347 876.955918351587
12.27359 933.970669186741
12.2937 971
12.31381 984.012246701351
12.33393 1020.04768249777
12.35404 1020.91718362735
12.37415 958.126497339216
12.39427 939.99609536063
12.41438 938.019645846294
12.4345 884
12.45461 782.960656439117
12.47472 754.0179117282
12.49484 772.954444102618
12.51495 717.092002701898
12.53506 697.11278306808
12.55518 614.044654998742
12.57529 622.993044658655
12.5954 597
12.61552 548.009327665692
12.63563 595.028107442743
12.65575 565.922760185913
12.67586 554.034459619846
12.69597 529.015470592192
12.71609 538.993222681863
12.7362 538
12.75631 518.997518896368
12.77643 521.983742954616
12.79654 512.054736017144
12.81666 556.988932718401
12.83677 513.070225864426
12.85688 501.982532737564
12.877 518
12.89711 503.009316005966
12.91722 528.966604143746
12.93734 460.978819299277
12.95745 517.893424333154
12.97757 499.069876945727
12.99768 471.993451774256
13.01779 484.012271037705
13.03791 450.013060796557
13.05802 506.98884294612
13.07813 447.013848609992
13.09825 520.033820584679
13.11836 469.989825551778
13.13847 542.947845540169
13.15859 500.027064281216
13.1787 487
13.19882 489.965446253712
13.21893 434.952228464346
13.23904 444.049886180034
13.25916 461.97502995631
13.27927 477.960534537018
13.29938 500.004342286516
13.3195 474
13.33961 465.992874470921
13.35973 455.03156549167
13.37984 494.027745232572
13.39995 463.130774259719
13.42007 439.948456833982
13.44018 499.975109173249
13.46029 473.017592360426
13.48041 453.989274390801
13.50052 437.013522965682
13.52064 461.982594986305
13.54075 428.992620230967
13.56086 462.953267620649
13.58098 452.021992361162
13.60109 441.000503501426
13.6212 440
13.64132 433.016486432159
13.66143 468.041388741424
13.68154 466.948887540515
13.70166 431.070827943979
13.72177 415.97694008289
13.74189 450.983313881873
13.762 472
13.78211 484.997485493397
13.80223 460.953409805928
13.82234 440.995973333777
13.84245 449.984338265665
13.86257 444.021131771713
13.88268 435.991666102014
13.9028 457
13.92291 453.983758813193
13.94302 409.9701383938
13.96314 406.017563610286
13.98325 427.879799731022
14.00336 475.985019180388
14.02348 444.0297823689
14.04359 442.993440342663
14.06371 457.008035348434
14.08382 465.991233642718
14.10393 449.997061051832
14.12405 473.09422850527
14.14416 499.99958551429
14.16427 477.040297009445
14.18439 456.012046001693
14.2045 437
14.22461 459.008856553462
14.24473 460.995370055957
14.26484 456.977311799282
14.28496 439.033983136825
14.30507 434.979271114034
14.32518 457.981702413908
14.3453 456
14.36541 425.991675624624
14.38552 423.995400718222
14.40564 416.010381704171
14.42575 438.929108851668
14.44587 448.034914065119
14.46598 420.988777214837
14.48609 458.994494809719
14.50621 427.982864349449
14.52632 413.991847121235
14.54643 414.037705298175
14.56655 449.030471918759
14.58666 436.016610736991
14.60677 450.959566489464
14.62689 462.010977100656
14.647 430
14.66712 458.01689813048
14.68723 440.950152366442
14.70734 417.993277981016
14.72746 422.019886027677
14.74757 411.962170335126
14.76768 461.971816435349
14.7878 443
14.80791 421.015273282142
14.82803 490.095181853669
14.84814 491.854304795549
14.86825 401.092578008005
14.88837 426.958617505965
14.90848 422.010609889372
14.92859 430.986606268808
14.94871 448.991987259514
14.96882 420.004432219691
14.98894 452.014773199337
15.00905 428.981280603703
15.02916 452.949196547058
15.04928 461.995738570284
15.06939 465.003294871919
15.0895 444
15.10962 426.016656476899
15.12973 446.96101309878
15.14984 390.965026876606
15.16996 426.928043779703
15.19007 441.961623166424
15.21019 468.008017369403
15.2303 425
15.25041 445.999358686529
15.27053 420.003389096189
15.29064 451.014927164978
15.31075 430.998139655772
15.33087 450.020242328723
15.35098 412.003248802342
15.3711 455
15.39121 463.996855520946
15.41132 453.980992450961
15.43144 424.931686583779
15.45155 403.983570393573
15.47166 422.001769957705
15.49178 405.996827774887
15.51189 429.994007741771
15.53201 433.014776580099
15.55212 469.989249741197
15.57223 425.988499895103
15.59235 454.992293572736
15.61246 408.067035926378
15.63257 423.932735193871
15.65269 454.004350133759
15.6728 426
15.69291 458.018251458326
15.71303 468.979329331092
15.73314 448.983311911889
15.75326 443.060428489825
15.77337 397.038711128523
15.79348 407.971262641745
15.8136 428
15.83371 417.993925980794
15.85382 415.00649681601
15.87394 423.002198801945
15.89405 429.915937796392
15.91417 466.011216681029
15.93428 426.01532254345
15.95439 438.007482277794
15.97451 404.004821057514
15.99462 457.033281600179
16.01473 439.946660359041
16.03485 417.98143276669
16.05496 422.970943066059
16.07508 444.970154825799
16.09519 472.992345737664
16.1153 462
16.13542 436.03554482417
16.15553 486.959378751548
16.17564 403.953384459252
16.19576 463.897542942649
16.21587 458.03104986342
16.23598 453.998241725306
16.2561 441
16.27621 400.99423347459
16.29633 419.02645034437
16.31644 431.060973422692
16.33655 467.984026585154
16.35667 439.048504862396
16.37678 422.014348637859
16.39689 408.00140912582
16.41701 418.006822738004
16.43712 437.034808332926
16.45724 466.986715503814
16.47735 425.896233756583
16.49746 421.923332577877
16.51758 469.980419074758
16.53769 449.017948536473
16.5578 419
16.57792 401.005391116445
16.59803 426.041461755292
16.61814 446.036669057284
16.63826 456.023027434853
16.65837 436.00334793365
16.67849 452.994345715599
16.6986 444
16.71871 434.004255320259
16.73883 435.941720395251
16.75894 388.018798512793
16.77905 443.937925316885
16.79917 425.993200312042
16.81928 458.998351581262
16.8394 423
16.85951 434.00159954638
16.87962 423.007013117197
16.89974 436.955444698496
16.91985 401.951392622447
16.93996 466.931937664795
16.96008 445.026707457806
16.98019 433.014320765089
17.00031 403.007998269384
17.02042 457.036433866511
17.04053 438.918192186738
17.06065 403.051437799149
17.08076 449.989935197991
17.10087 420.980928317595
17.12099 472.993828453783
17.1411 425
17.16121 424.020906368851
17.18133 461.989844522303
17.20144 419.945935810907
17.22156 437.91390944262
17.24167 469.993974971546
17.26178 445.037964151052
17.2819 417
17.30201 428.014237174145
17.32212 461.027771963414
17.34224 457.899626779865
17.36235 412.925506050915
17.38247 470.049569226196
17.40258 373.016361394395
17.42269 460.964444173207
17.44281 459.995847066414
17.46292 471.995076151421
17.48303 444.974652433202
17.50315 442.965124642431
17.52326 419.00956572359
17.54338 450.942935417079
17.56349 480.020740265495
17.5836 395
17.60372 414.0769466126
17.62383 477.997076298595
17.64394 438.004139391987
17.66406 495.906235351966
17.68417 502.994012062069
17.70428 508.027014562452
17.7244 461
17.74451 469.999007598046
17.76463 452.003228518801
17.78474 474.011038605576
17.80485 454.045269640006
17.82497 454.984632108996
17.84508 460.005016490371
17.86519 458.989100128205
17.88531 480.990197361058
17.90542 434.984880672711
17.92554 466.071079967071
17.94565 467.927984995676
17.96576 437.013469145573
17.98588 457.973848792503
18.00599 462.011629278969
18.0261 441
18.04622 476.000105985321
18.06633 455.037450901898
18.08645 525.116631032455
18.10656 505.12454534416
18.12667 450.032107524707
18.14679 453.003812750269
18.1669 445
18.18701 494.992507436067
18.20713 438.003022759246
18.22724 511.11070678213
18.24735 506.051296292193
18.26747 512.951436265034
18.28758 554.962910405406
18.3077 564
18.32781 513.977189061969
18.34792 499.017004896977
18.36804 522.003065710601
18.38815 496.079640491593
18.40826 476.02243856896
18.42838 462.024821311558
18.44849 440.996966438665
18.46861 475.019634932235
18.48872 491.989000600614
18.50883 467.975599242996
18.52895 470.026318892983
18.54906 469.045488217985
18.56917 431.053835437332
18.58929 419.990015450166
18.6094 453
18.62951 452.996093795252
18.64963 452.01005799745
18.66974 463.021774336565
18.68986 469.993240184354
18.70997 463.036708926041
18.73008 438.997923924255
18.7502 461
18.77031 442.984846011269
18.79042 438.042620112765
18.81054 487.988400987336
18.83065 440.033245089042
18.85077 466.009895542475
18.87088 429.989938087383
18.89099 478.997554045969
18.91111 436.995726647374
18.93122 466.993651679273
18.95133 419.97443782362
18.97145 459.127600421475
18.99156 475.046198727309
19.01168 438.021560771311
19.03179 441.994625150817
19.0519 438
19.07202 430.039348657798
19.09213 487.015736191957
19.11224 448.949956211191
19.13236 468.928695118652
19.15247 481.033163206935
19.17258 441.030543203168
19.1927 438
19.21281 458.008933022985
19.23293 452.936058016447
19.25304 426.114218407735
19.27315 525.921406437667
19.29327 466.095813644917
19.31338 448.008794556897
19.33349 439.989299937788
19.35361 476.00332613826
19.37372 460.011595955969
19.39384 488.971674460159
19.41395 429.887348448987
19.43406 428.969021663039
19.45418 450.954024932257
19.47429 505.984827077968
19.4944 494
19.51452 471.02098586105
19.53463 516.031250230493
19.55475 485.850193817607
19.57486 431.068568301802
19.59497 427.963137731335
19.61509 472.969430381872
19.6352 536
19.65531 557.989888833345
19.67543 512.938469623743
19.69554 518.130425006265
19.71565 597.916872577089
19.73577 590.971428334711
19.75588 642.975314098556
19.776 642
19.79611 707.013886272701
19.81622 689.997404615583
19.83634 740.162755280878
19.85645 808.921139751256
19.87656 808.010628282892
19.89668 837.923816735457
19.91679 908.99906873461
19.93691 859.991149851535
19.95702 880.985537637729
19.97713 813.906924474592
19.99725 803.07540539276
20.01736 821.075058321297
20.03747 752.048503745651
20.05759 776.982438336775
20.0777 785
20.09782 780.012809175171
20.11793 794.982579541483
20.13804 769.001290277612
20.15816 792.994090830499
20.17827 763.045674294408
20.19838 747.018509739265
20.2185 727
20.23861 748.016643258679
20.25872 783.036965593567
20.27884 796.929965644032
20.29895 737.084328050557
20.31907 750.950492982282
20.33918 773.987961060579
20.35929 766.018152967072
20.37941 727.997995177579
20.39952 763.043523549944
20.41963 768.928222525989
20.43975 718.033604069642
20.45986 793.863431208528
20.47998 798.048305544728
20.50009 742.015001604467
20.5202 757
20.54032 784.97483072597
20.56043 745.028274156445
20.58054 813.067640626491
20.60066 802.962398674407
20.62077 860.948992418574
20.64088 849.017228613159
20.661 850
20.68111 849.004478491697
20.70123 870.032763490918
20.72134 919.225562211361
20.74145 1082.59788290529
20.76157 1250.65090759874
20.78168 1620.48655949563
20.80179 2149.80178916446
20.82191 2500.26267070498
20.84202 3151.49077405697
20.86214 3369.2083089836
20.88225 3363.31831337573
20.90236 2833.22152432986
20.92248 2267.55232455512
20.94259 1752.20198327937
20.9627 1423
20.98282 1053.7266429841
21.00293 918.9119675015
21.02305 869.897861446195
21.04316 836.050242882259
21.06327 835.939620142443
21.08339 873.012867238732
21.1035 815
21.12361 843.969247237228
21.14373 725.970225529813
21.16384 821.146651671629
21.18395 820.975488938096
21.20407 855.017478577259
21.22418 782.079205141633
21.2443 745
21.26441 769.019984997998
21.28452 819.060948239695
21.30464 848.909723646575
21.32475 783.961740399093
21.34486 864.93630755223
21.36498 827.013596247234
21.38509 861.993258254283
21.40521 831.987338764848
21.42532 821.968494662099
21.44543 764.926798093133
21.46555 764.134789412617
21.48566 828.952457404261
21.50577 795.085522160024
21.52589 756.006761208035
21.546 753
21.56612 720.966441244877
21.58623 707.017059620969
21.60634 709.910512318664
21.62646 653.980542834504
21.64657 731.892218022823
21.66668 730.070026709914
21.6868 652
21.70691 684.026756762588
21.72702 703.971256271985
21.74714 640.865781964719
21.76725 598.046622370493
21.78737 606.938908099672
21.80748 658.962407523683
21.82759 660.016385440115
21.84771 625.997556840359
21.86782 639.992686352603
21.88793 617.010760504292
21.90805 643.976803003299
21.92816 599.047240694598
21.94828 615.979581121429
21.96839 620.99620721866
21.9885 654
22.00862 703.989402919899
22.02873 638.901898283092
22.04884 611.995605558185
22.06896 601.077752547636
22.08907 575.92445987377
22.10919 650.008457941954
22.1293 559
22.14941 624.036162766601
22.16953 635.960400668729
22.18964 592.881128447105
22.20975 550.973144186478
22.22987 588.992768243203
22.24998 559.005889011467
22.27009 586.993696548807
22.29021 590.024046969916
22.31032 656.001072054451
22.33044 592.912482459254
22.35055 591.958487649673
22.37066 544.071308780874
22.39078 545.977730874304
22.41089 561.001391426972
22.431 545
22.45112 554.038216163715
22.47123 594.011274508021
22.49135 560.88070503373
22.51146 539.95538192219
22.53157 578.98128468886
22.55169 556.012088160194
22.5718 568
22.59191 606.985307129346
22.61203 550.018571551652
22.63214 604.948824394215
22.65225 502.131458551333
22.67237 553.874013806315
22.69248 592.014864780897
22.7126 552
22.73271 542.994735182223
22.75282 540.036526936944
22.77294 593.027521290123
22.79305 555.116310387635
22.81316 544.941646136817
22.83328 585.978014756695
22.85339 574.015218349469
22.87351 546.991703640068
22.89362 544.007297525891
22.91373 546.981098055339
22.93385 541.085454410887
22.95396 585.021569675596
22.97407 530.036227282037
22.99419 553.992752783799
23.0143 532
23.03442 531.02843436578
23.05453 553.969732004321
23.07464 498.912846151893
23.09476 503.909710046334
23.11487 554.954737193549
23.13498 561.99251940396
23.1551 571
23.17521 541.991132288135
23.19532 545.005754535084
23.21544 551.043206747704
23.23555 581.955038939793
23.25567 584.988465106822
23.27578 584.04275905597
23.29589 521.013740793266
23.31601 541.012101373866
23.33612 556.03507549933
23.35623 591.981651322314
23.37635 533.869489040112
23.39646 520.981145159206
23.41658 525.012027856299
23.43669 511.994055602857
23.4568 538
23.47692 516.990239494277
23.49703 528.009188545664
23.51714 523.006174963401
23.53726 544.936043988847
23.55737 572.972997830571
23.57749 581.996724039251
23.5976 588
23.61771 561.965693717811
23.63783 495.998969694988
23.65794 574.21574342201
23.67805 624.122424987339
23.69817 533.05204231759
23.71828 575.956030016942
23.73839 575.007874981665
23.75851 568.999088794249
23.77862 558.975246522108
23.79874 543.04655234017
23.81885 584.016481250372
23.83896 553.039484751925
23.85908 559.999157104743
23.87919 564.973908199751
23.8993 628
23.91942 562.96885846476
23.93953 589.022892006041
23.95965 584.08169316826
23.97976 637.9997816537
23.99987 588.032271310733
24.01999 619.984069045633
24.0401 622
24.06021 644.028901832027
24.08033 694.986669346155
24.10044 636.912714116213
24.12056 636.979136148294
24.14067 642.970003408
24.16078 653.042715551534
24.1809 604
24.20101 689.005532409359
24.22112 613.950557804707
24.24124 644.105503558431
24.26135 663.038639937674
24.28146 628.077773926481
24.30158 620.954445278838
24.32169 686.983741685569
24.34181 652.959993637406
24.36192 582.977160392265
24.38203 607.051505376489
24.40215 624.019516856427
24.42226 629.994060057305
24.44237 628.011722084548
24.46249 616.006727237448
24.4826 620
24.50272 668.017568398272
24.52283 642.94054470163
24.54294 637.097197336666
24.56306 689.035378866442
24.58317 632.985348399697
24.60328 701.983142523506
24.6234 646
24.64351 679.033317851282
24.66362 728.016177412452
24.68374 725.011703576579
24.70385 740.009519495721
24.72397 733.945704027719
24.74408 808.935354902014
24.76419 813.029410745989
24.78431 777.037702537014
24.80442 904.029027783455
24.82453 839.993974003534
24.84465 930.163300428789
24.86476 917.055409848015
24.88488 931.948864733204
24.90499 957.02879013407
24.9251 860
24.94522 883.981569067995
24.96533 799.894516157239
24.98544 798.086904855346
25.00556 826.051808918614
25.02567 758.089132090793
25.04579 738.998139581409
25.0659 743
25.08601 734.992835956029
25.10613 706.925193067265
25.12624 662.997722070947
25.14635 686.020490637822
25.16647 654.984803870957
25.18658 702.981894969026
25.20669 670.018782881324
25.22681 670.016839703399
25.24692 714.034200997654
25.26704 716.939287007043
25.28715 682.986317768661
25.30726 708.943474069827
25.32738 699.05991339324
25.34749 632.00910661146
25.3676 653
25.38772 613.983275558272
25.40783 614.937471314757
25.42795 560.055376323266
25.44806 632.986465872733
25.46817 569.034060650003
25.48829 615.983592742068
25.5084 591
25.52851 572.00377892768
25.54863 585.996634459291
25.56874 562.948730733599
25.58886 558.951673258388
25.60897 596.954246687209
25.62908 591.050497353161
25.6492 533
25.66931 566.026569753851
25.68942 605.021630118613
25.70954 616.019048198031
25.72965 622.022500479767
25.74976 620.917386456106
25.76988 664.031250602952
25.78999 572.031094723111
25.81011 591.031006362192
25.83022 631.993120544829
25.85033 586.929985751313
25.87045 557.931955986021
25.89056 558.856591335033
25.91067 663.915066556616
25.93079 641.026442350204
25.9509 614
25.97102 629.996726472195
25.99113 598.943495142214
26.01124 582.021546309168
26.03136 603.981255710349
26.05147 601.983149918692
26.07158 620.006643451195
26.0917 606
26.11181 675.030532230065
26.13193 690.972821420838
26.15204 666.974846418728
26.17215 677.926314875718
26.19227 696.028250868056
26.21238 683.9360358596
26.23249 782.988856412887
26.25261 721.980305063869
26.27272 775.111759829612
26.29283 846.948090176571
26.31295 775.065607279351
26.33306 881.932258727214
26.35318 831.992112349908
26.37329 917.979110852872
26.3934 917
26.41352 1091.15915442004
26.43363 1173.07234643703
26.45374 1272.37684214762
26.47386 1541.4079377471
26.49397 1884.31994759044
26.51409 2492.63588646143
26.5342 3404
26.55431 4911.90970530854
26.57443 7043.61429080084
26.59454 9534.66332531425
26.61465 11663.8767924554
26.63477 13282.0344479865
26.65488 12806.2239927716
26.67499 11126.0927504208
26.69511 8736.9137640931
26.71522 6907.29165564389
26.73534 5086.23197163058
26.75545 3296.17942387856
26.77556 2133.62874233115
26.79568 1554.40899020673
26.81579 1250.09178104633
26.8359 1128
26.85602 983.904610158532
26.87613 945.951102976811
26.89625 904.974904714925
26.91636 904.10422556301
26.93647 811.092612116387
26.95659 796.011832627803
26.9767 748
26.99681 744.999086188132
27.01693 739.018201172517
27.03704 735.852804922991
27.05716 634.0606373622
27.07727 682.943645435479
27.09738 658.048065103316
27.1175 637
27.13761 653.983099186583
27.15772 595.995281793235
27.17784 631.974390830696
27.19795 553.179323612529
27.21806 540.942914896964
27.23818 575.974126327503
27.25829 577.012254038793
27.27841 557.007775651997
27.29852 592.007149644283
27.31863 577.023116984849
27.33875 625.074906717802
27.35886 619.020137014159
27.37897 616.024997461146
27.39909 591.003362631859
27.4192 608
27.43932 622.020666178082
27.45943 641.99879277592
27.47954 622.970736554346
27.49966 631.94133487935
27.51977 646.051079312811
27.53988 577.056910299834
27.56 555
27.58011 551.009746978454
27.60023 564.942801785863
27.62034 503.984851305
27.64045 563.837667271468
27.66057 556.14569411741
27.68068 455.001218174445
27.70079 555.949297247381
27.72091 584.99182219411
27.74102 555.964029253221
27.76113 539.034499705432
27.78125 557.874926313161
27.80136 486.956067136873
27.82148 576.980804078114
27.84159 517.004433248035
27.8617 569
27.88182 491.965351724007
27.90193 534.063558766708
27.92204 541.022433997912
27.94216 550.078813553246
27.96227 496.977381191818
27.98239 567.983907730451
28.0025 530
28.02261 514.995369532699
28.04273 496.975678224454
28.06284 505.08885414885
28.08295 551.001462897049
28.10307 504.067896240409
28.12318 501.964718588928
28.1433 529
28.16341 491.008823003128
28.18352 560.043538512162
28.20364 530.85446723612
28.22375 475.99192300903
28.24386 504.983632839558
28.26398 489.987790457782
28.28409 519.00767045729
28.3042 476
28.32432 529.015143813919
28.34443 497.995912965313
28.36455 518.91515876266
28.38466 445.038886766126
28.40477 503.898974347413
28.42489 518.015979589077
28.445 486
28.46511 519.003618439148
28.48523 489.963978398938
28.50534 491.010881550323
28.52546 486.019194478538
28.54557 476.017676648544
28.56568 477.967175754637
28.5858 514
28.60591 473.990143522388
28.62602 505.058402796406
28.64614 534.936115242481
28.66625 467.10886216446
28.68636 479.915315732996
28.70648 510.994668156215
28.72659 498.004898983692
28.74671 504.00647711079
28.76682 520.023649353176
28.78693 526.941562970319
28.80705 478.016683773175
28.82716 522.999212028982
28.84727 479.008153063208
28.86739 520.99252141955
28.8875 482
28.90762 469.011556949188
28.92773 481.998819034455
28.94784 472.000903614993
28.96796 483.9902607841
28.98807 481.985250760118
29.00818 499.996534481483
29.0283 491
29.04841 511.008152870262
29.06853 504.959829442358
29.08864 477.984514954341
29.10875 483.019537560439
29.12887 473.959282917173
29.14898 519.990568377445
29.16909 490.008444261923
29.18921 499.999178672984
29.20932 469.963640991249
29.22943 464.059613550487
29.24955 519.059615168449
29.26966 485.144376574718
29.28978 425.01539538663
29.30989 451.982494753304
29.33 471
29.35012 475.98604395206
29.37023 461.019944649129
29.39034 486.987531125544
29.41046 460.976608919735
29.43057 506.971147696331
29.45069 476.021769330638
29.4708 466
29.49091 507.002786611588
29.51103 473.953321263703
29.53114 465.993395855154
29.55125 469.919432980064
29.57137 511.982777401604
29.59148 491.015213971487
29.6116 490
29.63171 462.998541847494
29.65182 488.022144669817
29.67194 493.007632378414
29.69205 497.981153163956
29.71216 476.048402469986
29.73228 465.990970131548
29.75239 483.994070298742
29.7725 477
29.79262 465.025952531515
29.81273 511.032172882713
29.83285 503.003653718131
29.85296 517.018674749501
29.87307 480.0491011481
29.89319 470.998567538937
29.9133 471
29.93341 469.006877828627
29.95353 500.055856444689
29.97364 522.996814764518
29.99376 507.01979243911
30.01387 498.049927718291
30.03398 459.000084927741
30.0541 489
30.07421 466.998952523706
30.09432 498.028840968418
30.11444 494.940313745603
30.13455 475.93787549036
30.15467 518.00133204576
30.17478 477.017976467641
30.19489 505.981599609251
30.21501 517.996565703556
30.23512 502.981709672046
30.25523 499.035058735758
30.27535 514.901518990734
30.29546 455.988064404528
30.31557 509.002969066138
30.33569 440.022614608379
30.3558 461
30.37592 479.003101994478
30.39603 481.011490670271
30.41614 498.046089550547
30.43626 505.05633327086
30.45637 472.977630374936
30.47648 526.966209176085
30.4966 512
30.51671 480.981464519519
30.53683 446.98166115386
30.55694 465.076930640025
30.57705 502.937202293914
30.59717 509.012007490772
30.61728 488.037741269941
30.63739 469.978700969389
30.65751 535.003699464866
30.67762 478.954432937098
30.69773 482.025339598317
30.71785 485.997140128707
30.73796 491.965208267171
30.75808 515.97900417308
30.77819 512.020817668114
30.7983 464
30.81842 486.002241871463
30.83853 461.991661265282
30.85864 492.076342741238
30.87876 510.008050142549
30.89887 497.011114107532
30.91899 497.002603608996
30.9391 483
30.95921 478.001345740395
30.97933 483.004177050936
30.99944 475.960262984105
31.01955 462.957521087327
31.03967 486.027325431079
31.05978 445.994586266818
31.0799 501
31.10001 493.986833884251
31.12012 483.01061970454
31.14024 491.955756367478
31.16035 461.961924114366
31.18046 503.011774911195
31.20058 446.038822734431
31.22069 457.986623423176
31.2408 471
31.26092 484.025315998811
31.28103 498.963845359005
31.30115 455.968313203393
31.32126 492.886693527452
31.34137 522.025726219072
31.36149 480.013240122985
31.3816 486
31.40171 488.99546561912
31.42183 473.97726595068
31.44194 467.008150424947
31.46206 480.960820420098
31.48217 485.043218913244
31.50228 449.99666284348
31.5224 491
31.54251 501.008176167332
31.56262 508.955175733898
31.58274 440.967442476913
31.60285 484.904750420499
31.62297 483.016245353074
31.64308 494.964908229323
31.66319 525.00212978007
31.68331 491.986556615643
31.70342 494.01938689995
31.72353 503.977715682141
31.74365 474.957956737726
31.76376 476.002596531664
31.78387 469.989222602206
31.80399 487.995873060223
31.8241 492
31.84422 515.973305784662
31.86433 461.987279643929
31.88444 506.062423318035
31.90456 495.035615863769
31.92467 488.020625195903
31.94478 470.99878326921
31.9649 497
31.98501 509.986310002135
32.00513 475.012366132638
32.02524 513.007385691357
32.04535 479.027324909998
32.06547 493.029460285891
32.08558 444.014740529662
32.10569 482.975740422881
32.12581 507.004345913983
32.14592 507.991334345055
32.16604 485.926404836578
32.18615 453.986595301779
32.20626 482.901893896347
32.22638 516.006043679737
32.24649 489.003382947673
32.2666 514
32.28672 517.984979769757
32.30683 507.018167612804
32.32694 528.999072604367
32.34706 497.079528376895
32.36717 484.957373061749
32.38729 530.986367465608
32.4074 538
32.42751 558.986629064211
32.44763 497.950121149834
32.46774 511.033747554309
32.48785 513.966484895623
32.50797 534.998617830484
32.52808 516.010960439102
32.5482 515
32.56831 491.001869314889
32.58842 527.037814614144
32.60854 536.964361756754
32.62865 519.968589659812
32.64876 550.981230318993
32.66888 541.984155820954
32.68899 570.008071909508
32.7091 529
32.72922 572.984771749565
32.74933 514.008601615851
32.76945 585.07154472983
32.78956 537.102913241328
32.80967 539.935532133689
32.82979 591.978278039873
32.8499 606
32.87001 569.984910107291
32.89013 571.054121922187
32.91024 610.010730211406
32.93036 599.942319123997
32.95047 648.011050989569
32.97058 594.016813843246
32.9907 649
33.01081 694.002944726298
33.03092 677.985621754262
33.05104 691.08561777329
33.07115 723.056597318037
33.09127 688.937584689991
33.11138 788.94736195377
33.13149 762.016961597066
33.15161 770.013178367485
33.17172 783.994098332414
33.19183 766.982323594929
33.21195 754.916162321965
33.23206 736.887609672367
33.25217 820.991287498089
33.27229 747.024406009623
33.2924 747
33.31252 689.001513353324
33.33263 747.03867210077
33.35274 711.927120840789
33.37286 707.992710836906
33.39297 697.034015463638
33.41308 668.032251210074
33.4332 640
33.45331 635.00377824657
33.47343 652.036115346798
33.49354 668.995202577774
33.51365 650.050727385885
33.53377 642.990875522575
33.55388 639.036931381531
33.57399 589.009692363014
33.59411 601.000460107688
33.61422 573.970808160827
33.63434 572.058831847262
33.65445 610.047956035386
33.67456 587.122233119959
33.69468 529.016256347295
33.71479 552.987789493885
33.7349 544
33.75502 524.035737578562
33.77513 585.024445154266
33.79524 539.892678528281
33.81536 525.955342135542
33.83547 546.026160711934
33.85559 515.991052054348
33.8757 565
33.89581 501.965209173989
33.91593 480.033436732766
33.93604 515.038808443006
33.95615 515.981515488264
33.97627 543.943999101844
33.99638 547.064161788555
34.0165 469
34.03661 532.018046372951
34.05672 497.946154105791
34.07684 477.030497697273
34.09695 497.025309644894
34.11706 473.9675753265
34.13718 523.974611331381
34.15729 504.01404160688
34.17741 506.016626667592
34.19752 541.005508015125
34.21763 509.934672474015
34.23775 496.086356144629
34.25786 536.034027877519
34.27797 481.017281029524
34.29809 515.998527969689
34.3182 479
34.33831 516.010921386189
34.35843 497.963147703692
34.37854 497.03974153246
34.39866 520.972942662363
34.41877 517.021787168362
34.43888 501.015063902031
34.459 492
34.47911 506.014704150357
34.49922 527.98966047963
34.51934 499.987885952686
34.53945 529.899359904118
34.55957 547.022286493834
34.57968 511.037282220929
34.59979 505.979221590784
34.61991 556.002598009016
34.64002 537.030094057078
34.66013 602.017954046183
34.68025 546.878406759643
34.70036 560.879783371723
34.72047 605.027899786414
34.74059 550.009004966781
34.7607 592
34.78082 604.97498618819
34.80093 580.018630232528
34.82104 625.070678531161
34.84116 631.003393642317
34.86127 628.029671348207
34.88138 622.943003965053
34.9015 715
34.92161 698.982664454055
34.94173 691.024031732469
34.96184 701.959136732048
34.98195 675.947677775314
35.00207 722.005426955468
35.02218 671.02099569125
35.04229 708.975713203503
35.06241 701.959580385285
35.08252 610.982235398892
35.10264 668.101609458612
35.12275 680.050305137484
35.14286 705.041843831018
35.16298 640.055845158685
35.18309 620.004737196799
35.2032 615
35.22332 646.010702982517
35.24343 633.991999723844
35.26354 654.069364098503
35.28366 667.069734483561
35.30377 620.990784572141
35.32389 665.996587296603
35.344 627
35.36411 656.012634508348
35.38423 659.014814038055
35.40434 664.924231093637
35.42445 626.884772952423
35.44457 725.946836476031
35.46468 680.029115195808
35.4848 715
35.50491 732.997613894183
35.52502 726.003924374026
35.54514 754.103793249175
35.56525 801.962770119603
35.58536 794.979096667901
35.60548 832.964429518609
35.62559 839.010682102214
35.64571 832.023514679167
35.66582 898.00943447072
35.68593 859.997778702586
35.70605 909.074223997409
35.72616 892.043671305968
35.74627 884.025504135084
35.76639 854.011740496115
35.7865 858
35.80661 876.979413001017
35.82673 817.013527146739
35.84684 876.005341934174
35.86696 798.151358932457
35.88707 789.934208305735
35.90718 833.992611523197
35.9273 807
35.94741 791.97850605999
35.96752 734.979418306427
35.98764 747.988280622423
36.00775 709.083122848166
36.02787 697.019692075695
36.04798 677.009755285954
36.06809 679.999330791545
36.08821 679.005194586176
36.10832 677.951108811301
36.12843 626.040323259411
36.14855 691.958799147838
36.16866 600.076674285832
36.18878 657.931269851602
36.20889 680.997431347046
36.229 688
36.24912 662.939778003118
36.26923 595.948791809303
36.28934 606.053976798519
36.30946 635.909669397088
36.32957 669.029996506164
36.34968 624.000605951098
36.3698 679
36.38991 696.003790482881
36.41003 729.100597772001
36.43014 816.165155698772
36.45025 905.67637468171
36.47037 1083.7031834529
36.49048 1244.90906905992
36.51059 1289.97314845668
36.53071 1363.02321668154
36.55082 1358.96635118715
36.57094 1278.67421209315
36.59105 1098.77153986449
36.61116 1091.0633522133
36.63128 1007.05566263342
36.65139 973.049002439999
36.6715 814
36.69162 754.960283896055
36.71173 716.996302003141
36.73184 710.836637730014
36.75196 592.085783896278
36.77207 632.967739295203
36.79219 608.99604270978
36.8123 660
36.83241 641.990485747212
36.85253 651.032900583424
36.87264 653.934037499627
36.89275 616.978371669612
36.91287 659.975415177395
36.93298 639.008317057305
36.9531 661
36.97321 644.973583718893
36.99332 601.012507953241
37.01344 648.023884306759
37.03355 623.979297339035
37.05366 661.012757321817
37.07378 605.038898266838
37.09389 600.010093391732
37.11401 561.99568522772
37.13412 599.051887609969
37.15423 625.988051467367
37.17435 602.979360576461
37.19446 618.959919279149
37.21457 618.04074431284
37.23469 589.000375492134
37.2548 595
37.27491 556.028271257126
37.29503 663.023111333834
37.31514 572.863159930008
37.33526 581.966870704207
37.35537 560.054472057258
37.37548 540.993659837843
37.3956 560
37.41571 564.009535064535
37.43582 593.01144824735
37.45594 577.953577281668
37.47605 558.056941745769
37.49617 534.025030088172
37.51628 544.949403158872
37.53639 597.997418350136
37.55651 569.000289999728
37.57662 614.040458342925
37.59673 618.980012387721
37.61685 599.927389347487
37.63696 568.044760232789
37.65708 562.991519252086
37.67719 580.986410901696
37.6973 609
37.71742 610.981978887773
37.73753 587.983893045567
37.75764 580.942959283319
37.77776 551.964988624955
37.79787 601.967934603502
37.81798 574.037025313463
37.8381 566
37.85821 594.009798089062
37.87833 581.92498261944
37.89844 536.014479900709
37.91855 574.007194416981
37.93867 535.993569751914
37.95878 591.960887917554
37.97889 593.993735446076
37.99901 611.985195766113
38.01912 544.95949643196
38.03924 557.055414547238
38.05935 573.03298685495
38.07946 586.982259730073
38.09958 592.989145812274
38.11969 604.00077867682
38.1398 591
38.15992 580.975113163953
38.18003 558.017364104375
38.20015 607.141271352209
38.22026 628.057695413665
38.24037 583.019579763071
38.26049 609.986499583297
38.2806 621
38.30071 655.016783936397
38.32083 675.012651431239
38.34094 681.020531664156
38.36105 683.063779065881
38.38117 644.027784793145
38.40128 663.957324630014
38.4214 681
38.44151 616.992218208107
38.46162 677.092378512533
38.48174 725.94244194881
38.50185 650.143204258301
38.52196 645.960790798639
38.54208 661.985474906112
38.56219 671.001530350674
38.58231 655.989921923632
38.60242 632.970253531805
38.62253 604.980352095855
38.64265 599.959277271331
38.66276 586.951072876931
38.68287 629.987966711513
38.70299 598.01168083695
38.7231 600
38.74321 586.001986483315
38.76333 607.013715435122
38.78344 594.972268991531
38.80356 581.062054798754
38.82367 553.976286478288
38.84378 592.996711329099
38.8639 560
38.88401 578.999089880876
38.90412 554.000101897685
38.92424 584.032961326278
38.94435 576.993662382801
38.96447 606.937267333347
38.98458 634.996738674296
39.00469 601.036305996152
39.02481 541.003382532817
39.04492 592.018837677949
39.06503 561.970457483491
39.08515 583.083354146817
39.10526 604.971215053878
39.12538 605.025557941767
39.14549 575.000795214349
39.1656 588
39.18572 552.008652681133
39.20583 611.079929860012
39.22594 624.991720430761
39.24606 628.966342102253
39.26617 656.951633007941
39.28628 670.023388114923
39.3064 628
39.32651 658.043912132553
39.34663 769.142023891818
39.36674 827.075249880812
39.38685 912.542648940162
39.40697 1134.77758371535
39.42708 1183.96643811287
39.44719 1249.96961075348
39.46731 1269.99001797441
39.48742 1189.83981601709
39.50754 991.661219429448
39.52765 923.104140458771
39.54776 986.029908109495
39.56788 878.11635533637
39.58799 793.04783229493
39.6081 676
39.62822 602.944282415216
39.64833 565.997806155384
39.66845 577.967738488039
39.68856 541.042684006864
39.70867 539.026760405666
39.72879 509.001327857347
39.7489 524
39.76901 483.996758063128
39.78913 518.036727688576
39.80924 508.965795716183
39.82935 503.001996130351
39.84947 509.964943889619
39.86958 527.021121041443
39.8897 488
39.90981 525.016234389579
39.92992 520.972841830783
39.95004 505.033009232531
39.97015 538.96336257588
39.99026 511.114606339783
40.01038 472.9822790261
40.03049 539.963663554474
40.05061 560.977107804528
40.07072 506.008963654345
40.09083 574.073640751636
40.11095 566.940929170345
40.13106 572.915537865473
40.15117 623.96282460299
40.17129 628.986978173093
40.1914 703
40.21152 795.042045745544
40.23163 804.03937234133
40.25174 860.094437693339
40.27186 876.000939669997
40.29197 867.037101732892
40.31208 823.058650004481
40.3322 766
40.35231 729.974676884518
40.37242 672.967035530494
40.39254 672.019086088261
40.41265 673.012980881268
40.43277 646.099476214806
40.45288 573.027788759798
40.47299 578.012881205297
40.49311 533.005796367954
40.51322 586.003441933395
40.53333 528.943534099487
40.55345 543.047800354731
40.57356 533.053594402077
40.59368 505.02531066926
40.61379 504.977794518679
40.6339 558
40.65402 523.989386673401
40.67413 561.068945128163
40.69424 581.999542970415
40.71436 562.083629321527
40.73447 536.949983453653
40.75458 592.002422129029
40.7747 536
40.79481 564.011971200389
40.81493 565.025508579471
40.83504 595.001454622451
40.85515 557.108575068969
40.87527 548.946166838104
40.89538 591.995943207577
40.91549 562.006542924856
40.93561 573.99723767634
40.95572 556.017203394532
40.97584 603.046850810868
40.99595 592.99787016324
41.01606 606.022056258135
41.03618 577.999765366529
41.05629 601.002482472237
41.0764 563
41.09652 561.988812798789
41.11663 534.979179961555
41.13675 547.055303496196
41.15686 557.017992788775
41.17697 541.006265556162
41.19709 552.993180142933
41.2172 561
41.23731 564.992486628773
41.25743 542.995616659403
41.27754 550.970124954696
41.29765 511.081143898192
41.31777 512.95262566782
41.33788 540.007488846121
41.358 518
41.37811 559.00508126804
41.39822 533.993490700862
41.41834 535.894450456739
41.43845 457.029368424694
41.45856 524.865530956407
41.47868 538.015154563662
41.49879 518.013669621295
41.51891 502.008549112508
41.53902 535.009744728105
41.55913 534.059043767259
41.57925 576.895585535407
41.59936 484.042552994623
41.61947 548.93421617793
41.63959 514.032112850309
41.6597 486
41.67982 529.008353189654
41.69993 492.94309089387
41.72004 494.078305980877
41.74016 531.010908528412
41.76027 486.062272001422
41.78038 476.989797753449
41.8005 493
41.82061 510.001124285592
41.84072 506.00828341964
41.86084 524.012908242791
41.88095 509.062479470776
41.90107 481.05201560869
41.92118 462.973623142633
41.94129 515.983295256714
41.96141 503.981214037912
41.98152 478.003512606056
42.00163 491.981686828453
42.02175 468.038421311463
42.04186 514.961560426958
42.06198 483.047706506672
42.08209 457.999231722195
42.1022 486
42.12232 521.987665564432
42.14243 482.984618941656
42.16254 513.053619380493
42.18266 511.026796112522
42.20277 502.009202542468
42.22289 506.987018353443
42.243 546
42.26311 556.994508567604
42.28323 538.984196212046
42.30334 545.034873275293
42.32345 585.799016985178
42.34357 693.842588515435
42.36368 784.906097366217
42.38379 869.977589780772
42.40391 907.045585727422
42.42402 1023.04731764058
42.44414 980.87995723505
42.46425 923.743170801295
42.48436 803.118496098904
42.50448 802.023212409994
42.52459 738.020920382124
42.5447 737
42.56482 710.975305292438
42.58493 671.862345210871
42.60505 548.769740647191
42.62516 514.021212190057
42.64527 513.953881734141
42.66539 535.024954653041
42.6855 453
42.70561 505.006199046552
42.72573 468.012175818785
42.74584 518.994768300442
42.76595 453.104909141257
42.78607 466.976809602618
42.80618 459.001960488062
42.8263 474
42.84641 475.999907586729
42.86652 471.981542901998
42.88664 450.99875016251
42.90675 475.918364565404
42.92686 485.057266076015
42.94698 442.019240183926
42.96709 465.975633400335
42.98721 495.992696222612
43.00732 463.000683972085
43.02743 504.053972982416
43.04755 490.846600227181
43.06766 429.028010252246
43.08777 448.015488489936
43.10789 415.991600156985
43.128 474
43.14812 452.008150087221
43.16823 493.005588295941
43.18834 445.917250227869
43.20846 444.962937147
43.22857 456.999624060542
43.24868 461.96873200856
43.2688 487
43.28891 417.990575234563
43.30902 464.042870382939
43.32914 471.010855885368
43.34925 477.06419737255
43.36937 439.992646336658
43.38948 473.006172032224
43.40959 445.981049064469
43.42971 524.003259735162
43.44982 449.947646316279
43.46993 458.009273603074
43.49005 445.03153463784
43.51016 484.952526187497
43.53028 470.033178993303
43.55039 451.994720135167
43.5705 477
43.59062 473.005137462071
43.61073 488.000919565247
43.63084 468.960621531452
43.65096 461.998745896731
43.67107 465.987475226476
43.69119 474.997626449064
43.7113 476
43.73141 480.000044338549
43.75153 467.959796510556
43.77164 446.011235255957
43.79175 466.996766432468
43.81187 446.016194700714
43.83198 467.955253474641
43.85209 496.009506526854
43.87221 450.990368777107
43.89232 467.009639055486
43.91244 451.967165156179
43.93255 454.043447748166
43.95266 470.992956720148
43.97278 453.03458194465
43.99289 427.996739462975
44.013 456
44.03312 457.010618610061
44.05323 478.008879363313
44.07335 458.928707663329
44.09346 437.027928559708
44.11357 445.931292927052
44.13369 499.990738812562
44.1538 466
44.17391 418.990098586004
44.19403 438.083812585511
44.21414 483.980724655796
44.23426 439.02822235809
44.25437 467.972105871379
44.27448 455.012356496151
44.2946 467
44.31471 494.008747349633
44.33482 488.967816162787
44.35494 446.941751598155
44.37505 442.971289195377
44.39516 452.997541797199
44.41528 457.971554841273
44.43539 494.99487316685
44.45551 472.987704468126
44.47562 464.998638622808
44.49573 464.004773555039
44.51585 464.971550556173
44.53596 453.975085317082
44.55607 488.950200627931
44.57619 499.005428686277
44.5963 477
44.61642 460.9995194568
44.63653 463.983003644156
44.65664 446.001891996948
44.67676 467.961405569453
44.69687 471.005509260808
44.71698 471.992639757582
44.7371 479
44.75721 456.977769715071
44.77732 427.024586023894
44.79744 472.987984513354
44.81755 428.986370763357
44.83767 480.987984201874
44.85778 443.992389976627
44.87789 504.983543627134
44.89801 472.973700394314
44.91812 453.022411848679
44.93823 479.975895812667
44.95835 435.977185043729
44.97846 475.919037782493
44.99858 482.015687002833
45.01869 464.006715172708
45.0388 464
45.05892 477.99252036046
45.07903 445.940560389869
45.09914 436.081532185493
45.11926 494.955274048668
45.13937 482.98574594429
45.15949 518.994488199697
45.1796 498
45.19971 509.998632205075
45.21983 486.980276763451
45.23994 494.015487607897
45.26005 498.955366659695
45.28017 514.029414433222
45.30028 473.01677145765
45.32039 495.983601378663
45.34051 513.002475963568
45.36062 514.001124398968
45.38074 509.963121751456
45.40085 496.047168886897
45.42096 526.018564509141
45.44108 489.002757007417
45.46119 524.99142045507
45.4813 499
45.50142 489.019339403124
45.52153 524.050015681527
45.54165 539.998519962931
45.56176 520.085345022207
45.58187 492.953245666041
45.60199 561.978567671694
45.6221 557
45.64221 566.007670545556
45.66233 580.028275010871
45.68244 625.1711031616
45.70256 715.912114088197
45.72267 711.008436362849
45.74278 760.887279029669
45.7629 868
45.78301 823.991575095367
45.80312 843.972822801872
45.82324 765.904364699688
45.84335 745.190562448132
45.86346 625.134516226623
45.88358 658.912297221678
45.90369 708.018024111774
45.92381 606.950776760541
45.94392 565.003202694173
45.96403 560.922536020447
45.98415 487.933263288627
46.00426 516.945613858401
46.02437 511.020134390982
46.04449 508.000178171203
46.0646 503
46.08472 491.988795658658
46.10483 490.02265470495
46.12494 500.955367424367
46.14506 463.01235337738
46.16517 483.00957855866
46.18528 453.994922028219
46.2054 491
46.22551 460.988452560572
46.24563 480.074950187963
46.26574 511.950849302958
46.28585 459.035200099101
46.30597 494.954526808448
46.32608 485.029468769579
46.34619 460.008418748729
46.36631 454.002131115651
46.38642 468.023692309801
46.40653 485.994719441048
46.42665 473.013042224927
46.44676 490.010751965447
46.46688 462.016564810225
46.48699 470.992571048492
46.5071 472
46.52722 460.004479151571
46.54733 479.024163135363
46.56744 477.969413292506
46.58756 457.040746189309
46.60767 456.948556367989
46.62779 493.00480129294
46.6479 454
46.66801 488.006799926341
46.68813 457.943230611051
46.70824 452.061056490434
46.72835 488.979890606007
46.74847 464.040613777816
46.76858 457.992296079683
46.78869 477.981014096993
46.80881 507.994786310416
46.82892 468.976775315822
46.84904 485.069734726004
46.86915 512.030272022158
46.88926 496.100516906235
46.90938 455.978046937719
46.92949 521.980131750136
46.9496 498
46.96972 463.006045812673
46.98983 478.961980756984
47.00995 424.954155849646
47.03006 459.916213826094
47.05017 477.986786591952
47.07029 483.00420892314
47.0904 461
47.11051 452.009649081357
47.13063 476.994601365516
47.15074 449.977768888302
47.17086 475.910480660192
47.19097 502.01933579239
47.21108 467.019766289619
47.2312 473
47.25131 468.000817322817
47.27142 475.997166411566
47.29154 466.007397108969
47.31165 480.992738458157
47.33176 474.977035795619
47.35188 489.025133782506
47.37199 445.9986672524
47.39211 496.017596834731
47.41222 486.97876201039
47.43233 484.021001201245
47.45245 490.942894679398
47.47256 458.000283213216
47.49267 494.946686490504
47.51279 499.009772805662
47.5329 475
47.55302 472.006848282992
47.57313 480.006771647902
47.59324 470.94403647324
47.61336 446.981893580146
47.63347 476.98516016211
47.65358 460.009620911499
47.6737 475
47.69381 481.9925261132
47.71393 457.979729854992
47.73404 472.078719136129
47.75415 503.02440453411
47.77427 464.036498602704
47.79438 477.967700193474
47.81449 490.013653365062
47.83461 444.98928436204
47.85472 470.053497572562
47.87483 511.006662646728
47.89495 487.955533829441
47.91506 486.01548465378
47.93518 472.995855534724
47.95529 495.989537862768
47.9754 494
47.99552 478.026026163184
48.01563 527.029592073978
48.03574 503.94466476443
48.05586 493.020756122276
48.07597 483.985450183449
48.09609 506.993398699665
48.1162 491
48.13631 458.003497436723
48.15643 497.04741013089
48.17654 496.965501065587
48.19665 482.018180406712
48.21677 482.99294850247
48.23688 490.984704365292
48.257 505
48.27711 491.994355325263
48.29722 487.994689135958
48.31734 484.017336002607
48.33745 498.00147612027
48.35756 487.00416073409
48.37768 495.001199213144
48.39779 467.026378941237
48.4179 431
48.43802 501.06917173363
48.45813 524.973596699387
48.47825 483.875577949362
48.49836 453.989894091951
48.51847 472.008796487731
48.53859 444.005605648514
48.5587 472
48.57881 503.993747230513
48.59893 469.990003923431
48.61904 489.995290418481
48.63916 465.991509554341
48.65927 498.981510003091
48.67938 475.026455584377
48.6995 472
48.71961 493.014321480719
48.73972 507.97997070425
48.75984 465.941501470191
48.77995 466.96321497994
48.80006 479.975449111098
48.82018 488.998129851791
48.84029 487.997919820828
48.86041 491.995207425287
48.88052 472.989369702216
48.90063 468.975237743497
48.92075 453.042399449399
48.94086 496.936050298536
48.96097 503.989497597363
48.98109 517.000156936269
49.0012 496
49.02132 472.987398643533
49.04143 480.048517764063
49.06154 521.053260807579
49.08166 514.074560184753
49.10177 473.031121332868
49.12188 484.966514101525
49.142 508
49.16211 491.009878030018
49.18223 535.015637529585
49.20234 507.977854668288
49.22245 521.019712759257
49.24257 493.003000428033
49.26268 533.945557508074
49.28279 550.022812004828
49.30291 496.00743834133
49.32302 558.010179951408
49.34313 513.996724104597
49.36325 561.019662325239
49.38336 516.046504902319
49.40348 547.953567436782
49.42359 568.003663416877
49.4437 556
49.46382 568.98291360384
49.48393 526.96214795147
49.50404 540.063470829688
49.52416 561.000756788451
49.54427 552.987540965263
49.56439 585.97919631398
49.5845 600
49.60461 538.978029874612
49.62473 536.028985201248
49.64484 554.022902025334
49.66495 572.887751216825
49.68507 618.000593432829
49.70518 568.057847536469
49.7253 538
49.74541 546.010107797895
49.76552 550.964915103475
49.78564 508.013299058888
49.80575 565.127262356829
49.82586 573.032882641091
49.84598 567.976484159156
49.86609 588.016482664215
49.8862 536
49.90632 622.082506481898
49.92643 649.995452773616
49.94655 668.167509441589
49.96666 745.957909811034
49.98677 725.968245419603
50.00689 835.918783589913
50.027 998
50.04711 1143.09537037864
50.06723 1380.35494285867
50.08734 1570.27409120254
50.10746 1677.79426107144
50.12757 1733.09517186339
50.14768 1558.20625047884
50.1678 1383
50.18791 1222.91555528266
50.20802 1095.97519675156
50.22814 1158.14916301244
50.24825 1176.08720889725
50.26837 1082.24291129761
50.28848 899.143725610148
50.30859 798.055577139226
50.32871 670.953909571081
50.34882 630.981558766383
50.36893 589.886129840944
50.38905 517.961889484167
50.40916 540.024031182593
50.42927 496.99895126905
50.44939 537.998594177752
50.4695 489
50.48962 499.023895761095
50.50973 507.995230036744
50.52984 491.935632745628
50.54996 467.974668236904
50.57007 514.924489013237
50.59018 538.00501271541
50.6103 529
50.63041 544.989639961521
50.65053 488.927614493545
50.67064 472.998153363743
50.69075 471.004221100915
50.71087 481.948238368228
50.73098 521.984261139392
50.75109 496.027751118826
50.77121 463.015145303725
50.79132 511.98216512203
50.81143 452.011888917803
50.83155 525.063617057517
50.85166 479.058332661848
50.87178 503.971445094385
50.89189 501.009701260742
50.912 486
50.93212 486.996105613464
50.95223 472.97200776934
50.97234 467.037800972648
50.99246 492.994813842805
51.01257 480.981592659179
51.03269 505.008041616603
51.0528 464
51.07291 505.005233108169
51.09303 464.939386789654
51.11314 467.076074480626
51.13325 497.040731367237
51.15337 464.968481181556
51.17348 521.99351149045
51.1936 476
51.21371 502.995977582556
51.23382 464.010036321376
51.25394 517.019782691073
51.27405 470.078664237631
51.29416 482.970859202951
51.31428 473.017758659796
51.33439 470.989662458725
51.3545 476
51.37462 396.982775400831
51.39473 450.071697812473
51.41485 438.877574154214
51.43496 420.877347810313
51.45507 514.954080726822
51.47519 467.022906773296
51.4953 474
51.51541 486.992075225731
51.53553 463.000360369145
51.55564 473.952477134241
51.57576 430.006809476805
51.59587 466.974803072412
51.61598 448.009829535473
51.6361 455
51.65621 432.007819134567
51.67632 478.019588814143
51.69644 452.936940497884
51.71655 454.905598952953
51.73667 486.031524521242
51.75678 431.024945360296
51.77689 452.988956531825
51.79701 450.998154434035
51.81712 456.001681784214
51.83723 451.999878147095
51.85735 452.974235777848
51.87746 433.030501713147
51.89757 436.964451227406
51.91769 472.980149492199
51.9378 488
51.95792 441.98899270098
51.97803 477.062654050404
51.99814 486.95617766879
52.01826 449.074639762277
52.03837 432.984400421589
52.05848 456.980595823806
52.0786 456
52.09871 448.015527397502
52.11883 498.03073333399
52.13894 481.97628839623
52.15905 480.066507616462
52.17917 443.992333819101
52.19928 484.979236390511
52.21939 460.020123045984
52.23951 443.007456748651
52.25962 463.992542949192
52.27974 433.97587012139
52.29985 453.058057139942
52.31996 456.030327225217
52.34008 446.980581450867
52.36019 478.996995793058
52.3803 453
52.40042 453.018280800915
52.42053 472.013607438396
52.44064 469.992167085391
52.46076 470.992829797527
52.48087 475.988780289677
52.50099 477.007801397049
52.5211 453
52.54121 459.008297921934
52.56133 467.988051835574
52.58144 456.012471257945
52.60155 473.005254347097
52.62167 443.054879507853
52.64178 424.994827929432
52.6619 442
52.68201 445.001689348236
52.70212 458.021492793593
52.72224 470.976432700242
52.74235 450.988035022309
52.76246 462.06820732625
52.78258 414.975363690776
52.80269 509.960767181688
52.8228 512
52.84292 465.985895625851
52.86303 477.001515805154
52.88315 455.950157067004
52.90326 457.955984857511
52.92337 470.039341033307
52.94349 436.989740343239
52.9636 489
52.98371 445.000205217699
53.00383 496.027910971413
53.02394 479.052557182362
53.04406 537.003404994072
53.06417 481.020811885566
53.08428 517.002899013961
53.1044 472
53.12451 523.012631766196
53.14462 497.977502685077
53.16474 500.998310910244
53.18485 494.95790197058
53.20497 529.970153688061
53.22508 532.98288204325
53.24519 559.00093932147
53.26531 522.98032106427
53.28542 501.989247983383
53.30553 491.984771058077
53.32565 489.031526603427
53.34576 514.943767598654
53.36587 531.995488221307
53.38599 525.005091152414
53.4061 518
53.42622 513.993546878422
53.44633 506.995531773303
53.46644 520.072771429888
53.48656 551.022837184564
53.50667 523.968649800833
53.52678 576.994950354704
53.5469 528
53.56701 544.005907254789
53.58713 516.922905099158
53.60724 494.08928289191
53.62735 562.975562597576
53.64747 516.027522169455
53.66758 551.969479869761
53.68769 550.999591934829
53.70781 556.990553991059
53.72792 531.015012075124
53.74804 585.085260294726
53.76815 594.005454766412
53.78826 606.971765391372
53.80838 597.049758117169
53.82849 544.999987040278
53.8486 606
53.86872 630.951080793496
53.88883 573.031003139525
53.90894 643.005183326423
53.92906 565.108621520714
53.94917 586.928092614114
53.96929 618.988177895986
53.9894 629
54.00951 599.99404248156
54.02963 617.043543122197
54.04974 638.018395564669
54.06985 640.985759005011
54.08997 646.012295595443
54.11008 641.969862754533
54.1302 689
54.15031 659.980191829339
54.17042 648.020370385783
54.19054 675.005922800517
54.21065 652.050343727381
54.23076 653.970055308966
54.25088 668.989106283173
54.27099 674.99791861357
54.29111 667.984728806273
54.31122 636.001584280246
54.33133 661.005196078573
54.35145 642.005761108795
54.37156 672.954019689381
54.39167 660.061007276359
54.41179 604.033033262628
54.4319 566
54.45201 618.005140173173
54.47213 585.991179286439
54.49224 623.05710847965
54.51236 622.995979387532
54.53247 619.072938691539
54.55258 545.040001557977
54.5727 568
54.59281 608.001669660625
54.61292 594.008052527549
54.63304 637.102394311661
54.65315 647.136388106907
54.67327 564.076157598643
54.69338 591.906918057423
54.71349 677.990769222903
54.73361 644.9957654598
54.75372 703.090302359951
54.77383 788.111222397113
54.79395 836.024766301711
54.81406 838.923997192062
54.83417 909.911991463954
54.85429 925.007890577283
54.8744 890
54.89452 811.898970293454
54.91463 733.990485846255
54.93474 768.997002513608
54.95486 722.046264200664
54.97497 745.961554128975
54.99508 740.025574923415
55.0152 711
55.03531 680.98015340273
55.05543 642.975289857871
55.07554 636.948757535728
55.09565 588.111650113713
55.11577 579.9482303291
55.13588 622.989208378196
55.15599 594.017843022969
55.17611 584.007783786905
55.19622 618.04509916085
55.21634 635.918220373276
55.23645 597.138809550794
55.25656 717.874240383646
55.27668 689.033294287308
55.29679 692.00363025249
55.3169 675
55.33702 700.951698043552
55.35713 601.931515395886
55.37724 639.093006482707
55.39736 627.130823940498
55.41747 564.013044872287
55.43759 607.978511981816
55.4577 614
55.47781 595.988621041882
55.49793 574.9829473495
55.51804 563.945486301208
55.53815 533.011823040113
55.55827 545.015500591412
55.57838 514.010485510917
55.5985 532
55.61861 517.984545820385
55.63872 490.987939953513
55.65884 492.003222767434
55.67895 498.926789604923
55.69906 525.040770827806
55.71918 467.042719091262
55.73929 463.995454960851
55.75941 469.006151126519
55.77952 495.034286449624
55.79963 512.972751753736
55.81975 486.028480547443
55.83986 518.024794654835
55.85997 466.032388307551
55.88009 501.974680135792
55.9002 522
55.92031 510.01443955152
55.94043 547.963929268318
55.96054 480.960527078297
55.98066 520.955599604104
56.00077 487.076838177272
56.02088 469.969535808067
56.041 517
56.06111 484.96982751777
56.08122 450.022807650231
56.10134 499.022115267695
56.12145 474.981275827977
56.14157 512.999098023985
56.16168 473.015570518946
56.18179 506.978206042766
56.20191 509.975803340652
56.22202 458.003721439672
56.24213 509.04622399218
56.26225 489.92048090664
56.28236 474.015674297565
56.30248 471.990296754618
56.32259 481.005065804328
56.3427 470
56.36282 514.008929545627
56.38293 477.944445674069
56.40304 475.045994334782
56.42316 498.984877421855
56.44327 486.030951912635
56.46338 486.960862310504
56.4835 527
56.50361 468.981066081134
56.52373 495.104857205451
56.54384 542.958203614576
56.56395 483.054585981392
56.58407 519.940372873178
56.60418 526.008786183856
56.62429 510.017190385662
56.64441 485.012010112663
56.66452 540.027958697095
56.68464 508.870958560343
56.70475 465.015723875964
56.72486 499.975000887116
56.74498 478.017628853311
56.76509 491.982947442978
56.7852 502
56.80532 438.996654769821
56.82543 498.073593139265
56.84554 495.953824772164
56.86566 485.985044006908
56.88577 498.001062592497
56.90589 478.014195565442
56.926 455
56.94611 456.009454666229
56.96623 488.055428796463
56.98634 510.994761117698
57.00645 492.036073513841
57.02657 481.043608320618
57.04668 444.012446295086
57.0668 459
57.08691 465.011508125719
57.10702 497.008374024053
57.12714 479.976265948623
57.14725 491.939900264146
57.16736 501.043247777563
57.18748 470.999931988843
57.20759 496.995369020358
57.22771 478.993416305041
57.24782 479.992733023454
57.26793 478.058892123805
57.28805 527.984075186009
57.30816 471.069026990112
57.32827 488.957532254378
57.34839 508.98265951807
57.3685 538
57.38861 480.982469899533
57.40873 480.98644842228
57.42884 471.082550208109
57.44896 541.949124218292
57.46907 509.045269169512
57.48918 510.000351475193
57.5093 492
57.52941 480.995149689442
57.54952 471.998224284239
57.56964 490.08756764695
57.58975 530.001297388671
57.60987 487.076277775658
57.62998 473.9632649989
57.65009 525.989957558519
57.67021 503.986293816757
57.69032 485.970228988665
57.71043 464.040666369046
57.73055 510.990395645755
57.75066 467.999756555395
57.77078 517.975683085799
57.79089 491.014301945501
57.811 486
57.83112 485.032406226588
57.85123 531.015366084696
57.87134 495.918156304616
57.89146 483.973494981323
57.91157 500.995404593413
57.93168 485.02238250549
57.9518 466
57.97191 449.994928354382
57.99203 447.002801509866
58.01214 458.053234309655
58.03225 487.965587276288
58.05237 480.024358552886
58.07248 469.005474347796
58.09259 473.989907049676
58.11271 496.002632481729
58.13282 474.961651259042
58.15294 449.015777065685
58.17305 481.06259813486
58.19316 484.007413605801
58.21328 475.028252763945
58.23339 448.993840583136
58.2535 486
58.27362 463.985672148353
58.29373 461.961111379497
58.31385 423.99631793085
58.33396 456.966273475755
58.35407 446.000695682748
58.37419 468.989666685111
58.3943 468
58.41441 445.988443218818
58.43453 451.087569028584
58.45464 503.925709659994
58.47475 408.093919174721
58.49487 453.942216146337
58.51498 443.011939839579
58.5351 456
58.55521 456.996513473533
58.57532 461.027686284222
58.59544 498.037339536868
58.61555 485.07655128349
58.63566 458.031013797427
58.65578 457.988098863944
58.67589 471.995186197667
58.69601 471.995694280885
58.71612 452.96807630384
58.73623 431.020915466185
58.75635 476.112704778018
58.77646 493.018915987353
58.79657 483.975546937609
58.81669 503.013052041659
58.8368 450
58.85691 479.003770479337
58.87703 454.996960298396
58.89714 483.025582096629
58.91726 461.0620020568
58.93737 445.003121126437
58.95748 459.963794394455
58.9776 483
58.99771 435.003462176748
59.01782 493.031734812791
59.03794 469.940701773345
59.05805 465.984108457047
59.07817 461.033662715939
59.09828 440.991117010738
59.11839 478.979765470155
59.13851 499.001179989778
59.15862 476.944060233347
59.17873 434.041065831491
59.19885 505.076049205484
59.21896 478.035770998828
59.23908 498.976884464023
59.25919 484.0283282474
59.2793 437
59.29942 492.006185835757
59.31953 453.006184836647
59.33964 502.015133638705
59.35976 456.050249664472
59.37987 493.896200070744
59.39998 523.051741975305
59.4201 432
59.44021 470.040477128966
59.46033 516.964877090088
59.48044 466.000786012441
59.50055 529.849741189454
59.52067 541.025888121832
59.54078 509.053508682194
59.56089 474.982826841292
59.58101 546.01315272669
59.60112 511.970641887691
59.62124 521.033334202863
59.64135 519.966096637563
59.66146 506.014201024192
59.68158 515.969852812865
59.70169 547.99410748853
59.7218 551
59.74192 598.028432776511
59.76203 608.043543775367
59.78215 663.124182891155
59.80226 709.848308281499
59.82237 794.939772110151
59.84249 826.943412305644
59.8626 1008
59.88271 1078.03246652266
59.90283 1193.22483799497
59.92294 1321.12162323107
59.94305 1297.20637756234
59.96317 1175.24908020268
59.98328 1007.11862010675
60.0034 927
60.02351 822.984831604034
60.04362 871.054496341615
60.06374 876.946659834671
60.08385 860.944266120342
60.10396 897.999528994835
60.12408 838.091352772662
60.14419 741.051644031146
60.16431 646.967199463452
60.18442 607.968761632157
60.20453 559.896185560784
60.22465 494.926898295895
60.24476 503.961601823245
60.26487 504.030860253545
60.28499 489.989280620614
60.3051 531
60.32522 506.968015225632
60.34533 485.967543792554
60.36544 474.040165680298
60.38556 505.998354362697
60.40567 469.057746225129
60.42578 451.011063417888
60.4459 456
60.46601 507.001248725863
60.48612 471.993738433419
60.50624 511.069414502264
60.52635 505.084994184406
60.54647 468.040572691795
60.56658 462.983298087687
60.58669 478.005001447049
60.60681 447.989313141152
60.62692 453.020973518004
60.64703 473.018188359903
60.66715 470.960353333212
60.68726 455.004656129281
60.70738 472.9687429936
60.72749 495.001678097496
60.7476 472
60.76772 467.002761873938
60.78783 457.951776004407
60.80794 442.102472291559
60.82806 516.000241035737
60.84817 440.085873066303
60.86828 450.965227828785
60.8884 473
60.90851 479.992736867628
60.92863 462.01305881869
60.94874 485.995599702908
60.96885 450.088486209101
60.98897 437.998917981415
61.00908 444.982527347342
61.02919 454.011442577395
61.04931 412.989334460533
61.06942 434.048661537231
61.08954 477.035445922887
61.10965 475.006421864953
61.12976 488.984563795926
61.14988 482.012614111723
61.16999 469.008462831907
61.1901 457
61.21022 462.976152268905
61.23033 425.995551070524
61.25045 459.060149333668
61.27056 457.001812661166
61.29067 458.035295027088
61.31079 426.99715874106
61.3309 460
61.35101 440.003188763398
61.37113 479.036880071207
61.39124 469.969091619967
61.41135 481.885305436358
61.43147 529.983766655368
61.45158 485.079845178462
61.4717 424
61.49181 464.023954313001
61.51192 488.007026237848
61.53204 483.967213369408
61.55215 474.950749858286
61.57226 505.993489033802
61.59238 482.01147328235
61.61249 498.98916144572
61.63261 506.999687911219
61.65272 499.983795123643
61.67283 492.031035994066
61.69295 530.057898152298
61.71306 527.017981314408
61.73317 517.039102794965
61.75329 493.99255992964
61.7734 535
61.79352 512.961080000417
61.81363 498.037748346685
61.83374 531.990291301991
61.85386 501.987457358846
61.87397 529.043505781566
61.89408 464.003248459016
61.9142 537
61.93431 547.996032869559
61.95442 542.984211478822
61.97454 532.046728335661
61.99465 571.978332999434
62.01477 546.024595112209
62.03488 557.984973265299
62.05499 560.00095672438
62.07511 561.000796533113
62.09522 574.0373634756
62.11533 619.033235567273
62.13545 605.923133807049
62.15556 598.917984725125
62.17568 663.960188796386
62.19579 653.019453508819
62.2159 640
62.23602 694.987104048454
62.25613 622.934256273912
62.27624 641.054940660495
62.29636 641.024566799229
62.31647 632.007952694354
62.33659 633.993720786139
62.3567 648
62.37681 650.01201763052
62.39693 661.914133656872
62.41704 586.027116503575
62.43715 680.852264464494
62.45727 652.07986691502
62.47738 618.034013127922
62.49749 592.993417486984
62.51761 632.01150099515
62.53772 610.948393950318
62.55784 566.978821005878
62.57795 581.011880262976
62.59806 571.987090107308
62.61818 591.000775095046
62.63829 557.02400759917
62.6584 537
62.67852 586.00774499317
62.69863 554.986193537425
62.71875 584.058424150545
62.73886 565.108414865408
62.75897 520.991730841681
62.77909 554.000551354801
62.7992 519
62.81931 546.002644725611
62.83943 522.996620869693
62.85954 539.97205106531
62.87965 503.003431809134
62.89977 523.046759896572
62.91988 457.010885840257
62.94 512
62.96011 513.005985659545
62.98022 543.003213896546
63.00034 504.902156768446
63.02045 496.862369792796
63.04056 567.966494710257
63.06068 520.052687930295
63.08079 498.007459368721
63.10091 490.011408505393
63.12102 526.007280031159
63.14113 492.935193660166
63.16125 472.011148170518
63.18136 504.878371743804
63.20147 544.049663741174
63.22159 475.008662704749
63.2417 517
63.26182 485.963248623725
63.28193 476.004585489105
63.30204 492.085098754143
63.32216 523.066132226468
63.34227 452.044849325272
63.36238 483.964181257877
63.3825 480
63.40261 468.017770907942
63.42272 512.986125396232
63.44284 448.92596112506
63.46295 478.849470544395
63.48307 521.979100861406
63.50318 516.005260572672
63.52329 511.012864952541
63.54341 487.010859714752
63.56352 541.028520896619
63.58363 525.970573838476
63.60375 509.89347909972
63.62386 471.942133798883
63.64398 536.992339057017
63.66409 479.019195947954
63.6842 501
63.70432 513.989251579311
63.72443 507.03376964055
63.74454 542.008879372712
63.76466 513.044319629434
63.78477 519.9719767033
63.80489 534.993478026107
63.825 533
63.84511 513.024760976227
63.86523 606.077899903867
63.88534 590.949994726344
63.90545 605.880635580902
63.92557 654.962680444987
63.94568 649.018684622402
63.96579 635.004896435821
63.98591 641.01699158942
64.00602 688.032105573614
64.02614 706.063118573694
64.04625 725.88771266494
64.06636 643.078954363144
64.08648 650.023366134856
64.10659 599.997651028496
64.1267 653
64.14682 609.97170258414
64.16693 628.038231432739
64.18705 628.957334823485
64.20716 607.039411916737
64.22727 590.030365776822
64.24739 572.001885205452
64.2675 579
64.28761 566.989510888219
64.30773 543.965467412258
64.32784 525.98141814851
64.34796 536.921811924906
64.36807 569.028249011342
64.38818 507.05288499925
64.4083 511
64.42841 569.004648369348
64.44852 545.007067799063
64.46864 578.984789456435
64.48875 522.112177953324
64.50886 518.983417732175
64.52898 514.012199299671
64.54909 507.996148615064
64.56921 505.978715645308
64.58932 448.986399820282
64.60943 486.056337264564
64.62955 487.948926558054
64.64966 470.007011565966
64.66977 483.965983244546
64.68989 500.997356009057
64.71 499
64.73012 497.981809302837
64.75023 473.995645716013
64.77034 490.012193139142
64.79046 474.042624757435
64.81057 468.975169440573
64.83068 485.012193300311
64.8508 457
64.87091 473.996529475007
64.89102 448.004261911358
64.91114 493.093636362547
64.93125 497.113043163537
64.95137 437.04960549338
64.97148 438.995871829956
64.99159 435.993213162144
65.01171 465.00956115647
65.03182 467.002403186236
65.05193 477.010680425519
65.07205 480.019738335808
65.09216 484.035475341571
65.11228 445.041345235809
65.13239 433.983074765647
65.1525 485
65.17262 468.969759785229
65.19273 457.018390852786
65.21284 474.998428785822
65.23296 459.0061504976
65.25307 463.033921019013
65.27319 419.012810528533
65.2933 436
65.31341 472.002934153288
65.33353 457.996525434005
65.35364 459.935324548466
65.37375 420.946675107853
65.39387 488.949658579952
65.41398 459.041810618439
65.43409 450.989874187017
65.45421 466.992285757916
65.47432 435.996628825302
65.49444 465.046213512459
65.51455 456.933345598186
65.53466 449.922782448562
65.55478 497.008376744405
65.57489 442.014350777843
65.595 474
65.61512 495.971986206733
65.63523 442.947337650184
65.65535 444.033714111874
65.67546 460.930768250823
65.69557 497.986565096787
65.71569 476.012697938387
65.7358 466
65.75591 460.996015458488
65.77603 459.020801411987
65.79614 478.006648441724
65.81626 453.089502548247
65.83637 422.982400837913
65.85648 463.969679093223
65.8766 459
65.89671 445.007431490479
65.91682 483.037715321626
65.93694 480.883048538627
65.95705 403.104819859535
65.97716 429.851081590182
65.99728 493.984616951476
66.01739 466.014130583956
66.03751 460.999573918219
66.05762 457.004773709873
66.07773 473.026461786858
66.09785 468.900834712223
66.11796 412.081154853293
66.13807 428.875446330908
66.15819 505.007206221502
66.1783 420
66.19842 446.046422718926
66.21853 467.009715109444
66.23864 463.962604341516
66.25876 446.982606569651
66.27887 470.992579462685
66.29898 454.007410938095
66.3191 462
66.33921 440.988790651099
66.35933 430.999145204434
66.37944 435.013670275076
66.39955 444.962829217342
66.41967 464.965406574008
66.43978 475.017548387205
66.45989 444.00770612842
66.48001 454.00822930051
66.50012 459.997285760626
66.52023 456.000524782986
66.54035 455.973437640979
66.56046 440.011029409715
66.58058 439.017916619038
66.60069 416.995703310278
66.6208 458
66.64092 474.000843931425
66.66103 458.939046686052
66.68114 421.006858814775
66.70126 461.928910528452
66.72137 465.021852574198
66.74149 445.013951049226
66.7616 428
66.78171 468.016764442424
66.80183 471.972066221634
66.82194 442.932447944994
66.84205 420.995739625067
66.86217 435.990607451232
66.88228 430.996832304682
66.90239 438.006502259524
66.92251 415.00058883757
66.94262 461.077105436541
66.96274 507.935720830702
66.98285 422.843166651804
67.00296 425.923067421076
67.02308 454.995392184113
67.04319 443.003010289613
67.0633 456
67.08342 463.978882223953
67.10353 442.030286819545
67.12365 493.067974326611
67.14376 472.078734850836
67.16387 451.988115085215
67.18399 479.98433856928
67.2041 492
67.22421 464.989640254737
67.24433 453.97495591778
67.26444 445.055637374613
67.28456 499.915625325153
67.30467 501.044854319911
67.32478 471.00895862202
67.3449 476
67.36501 447.988186363655
67.38512 455.040938548821
67.40524 491.982411295028
67.42535 464.940073075173
67.44546 532.929701433581
67.46558 502.053571972747
67.48569 485.98053018446
67.50581 549.018955870349
67.52592 535.958479399728
67.54603 516.044575994015
67.56615 575.098392538663
67.58626 589.933625052581
67.60637 660.873919425157
67.62649 723.984719982203
67.6466 747
67.66672 840.113635312072
67.68683 941.110971188959
67.70694 961.908448858739
67.72706 886.108746553212
67.74717 859.065027274085
67.76728 782.08247059434
67.7874 722
67.80751 690.976828023724
67.82763 655.031762529848
67.84774 718.085353607253
67.86785 729.921104429226
67.88797 780.972119479955
67.90808 749.048882058813
67.92819 715.010009947421
67.94831 710.00625620926
67.96842 724.999821930119
67.98853 708.977682655504
68.00865 734.217096798814
68.02876 850.819447354966
68.04888 895.965668572327
68.06899 960.949601282854
68.0891 1070
68.10922 1091.96307326761
68.12933 1049.0047438323
68.14944 1061.86983982266
68.16956 939.140095511249
68.18967 932.062368494311
68.20979 858.00252030997
68.2299 932
68.25001 969.044977990186
68.27013 1090.07533306325
68.29024 1049.9002692059
68.31035 1032.05891621942
68.33047 957.199142393371
68.35058 813.098718215658
68.3707 760
68.39081 675.966294188651
68.41092 651.005124675625
68.43104 661.004386286389
68.45115 654.994846885988
68.47126 661.98203583697
68.49138 657.027914345159
68.51149 601.039633777274
68.5316 526
68.55172 514.003532204086
68.57183 510.980579045464
68.59195 494.97875480908
68.61206 497.98368047732
68.63217 505.986956870551
68.65229 509.005051589684
68.6724 482
68.69251 451.999766627432
68.71263 483.067245125657
68.73274 498.922579687571
68.75286 442.023980409773
68.77297 478.958845914161
68.79308 466.025935666849
68.8132 463
68.83331 496.000541391473
68.85342 468.984906480081
68.87354 472.981430198639
68.89365 451.996066995784
68.91376 475.976040809337
68.93388 459.028374974459
68.95399 441.001449368959
68.97411 452.009515372531
68.99422 467.004365701475
69.01433 457.972012244728
69.03445 453.071390796896
69.05456 492.982562239751
69.07467 463.050803257895
69.09479 457.988885332047
69.1149 482
69.13502 455.965511609982
69.15513 435.998716050405
69.17524 444.004401755383
69.19536 439.992034817332
69.21547 449.004813447425
69.23558 427.029824269593
69.2557 424
69.27581 479.998159918964
69.29593 428.972473279427
69.31604 456.011745332581
69.33615 425.042185289139
69.35627 440.974710395957
69.37638 438.011737079834
69.39649 433.995389680493
69.41661 447.000833870588
69.43672 440.001983753359
69.45683 454.017039482109
69.47695 453.985732917933
69.49706 454.971254658228
69.51718 471.998094646382
69.53729 463.997528197365
69.5574 474
69.57752 434.971507632295
69.59763 446.069533435692
69.61774 480.960840367554
69.63786 429.036901825443
69.65797 451.98918686768
69.67809 432.000611116283
69.6982 452
69.71831 432.005293773896
69.73843 478.05652141561
69.75854 468.897589547702
69.77865 416.043791897187
69.79877 439.947368004515
69.81888 450.021369983511
69.839 428
69.85911 461.999094143385
69.87922 419.968498036799
69.89934 431.070982045443
69.91945 465.059833810942
69.93956 467.047620214002
69.95968 445.985463510556
69.97979 478.00083495295
69.9999 440
70.02002 450.020784608451
70.04013 453.976346002572
70.06025 439.023566420492
70.08036 459.013954884005
70.10047 431.008223271957
70.12059 454.99163857535
70.1407 456
70.16081 464.980138768478
70.18093 414.030529667037
70.20104 489.06106885513
70.22116 443.111101983092
70.24127 431.967421085993
70.26138 461.974828930221
70.2815 464
70.30161 417.975440172562
70.32172 399.029381756952
70.34184 450.054497925668
70.36195 434.084546719963
70.38207 417.981234365813
70.40218 434.016406496327
70.42229 404.992763490614
70.44241 462.020965690096
70.46252 449.951919634671
70.48263 407.983755416763
70.50275 434.109873174401
70.52286 459.025814541204
70.54297 438.96660292701
70.56309 477.011393238763
70.5832 417
70.60332 480.01828202326
70.62343 434.965242209874
70.64354 448.964308696168
70.66366 407.971680017048
70.68377 472.950455209092
70.70388 429.083174526272
70.724 372
70.74411 427.041895290178
70.76423 478.978611992619
70.78434 433.987518903998
70.80445 469.969463026609
70.82457 431.077234358249
70.84468 407.991296707113
70.86479 426.997710289835
70.88491 424.010405205956
70.90502 449.980870185808
70.92513 410.020636837383
70.94525 468.045477994889
70.96536 429.059592732913
70.98548 449.952689419591
71.00559 476.009635361234
71.0257 446
71.04582 490.992082656919
71.06593 431.957328604108
71.08604 446.981427900255
71.10616 411.987823417982
71.12627 460.959695113305
71.14639 443.010373422523
71.1665 429
71.18661 395.017461915691
71.20673 476.060045621844
71.22684 442.895232509408
71.24695 420.986241679268
71.26707 430.012159022744
71.28718 412.996843608434
71.3073 440
71.32741 442.9927855848
71.34752 423.984748336957
71.36764 425.043589743272
71.38775 451.971423941255
71.40786 433.08753858792
71.42798 408.964565640945
71.44809 469.993907039579
71.4682 425
71.48832 440.043415971604
71.50843 474.013259201927
71.52855 448.869514222654
71.54866 409.981712161383
71.56877 449.97151126671
71.58889 438.999152830141
71.609 456
71.62911 427.998461087684
71.64923 459.043816073675
71.66934 462.981044815142
71.68946 449.041969750447
71.70957 435.980518614294
71.72968 460.995334919877
71.7498 449
71.76991 469.996507519249
71.79002 441.999681123494
71.81014 475.046699297123
71.83025 458.11276592794
71.85037 424.988078753733
71.87048 458.984011223107
71.89059 450.997087473688
71.91071 466.992257083357
71.93082 431.99931841526
71.95093 475.063507721382
71.97105 481.950900006086
71.99116 459.022809997592
72.01127 463.98237240507
72.03139 472.996922199614
72.0515 474
72.07162 457.975115874026
72.09173 434.984449097392
72.11184 441.031483732039
72.13196 453.992005408072
72.15207 453.989639844507
72.17218 464.001823971062
72.1923 460
72.21241 484.995492347578
72.23253 448.977200268764
72.25264 475.08061509588
72.27275 493.036955999628
72.29287 474.97205503155
72.31298 498.045021875362
72.33309 418.004167905496
72.35321 494.033080387071
72.37332 486.949356371043
72.39344 446.992257522024
72.41355 469.031893428347
72.43366 458.028581462695
72.45378 455.994400177717
72.47389 460.001089176202
72.494 454
72.51412 456.001590477255
72.53423 451.985713339794
72.55434 437.965466186444
72.57446 424.009654204665
72.59457 431.971784613614
72.61469 450.994945406323
72.6348 455
72.65491 473.008920446605
72.67503 461.909970313468
72.69514 396.99040514364
72.71525 445.921977152248
72.73537 434.014554327851
72.75548 448.983485650514
72.7756 458
72.79571 467.989494459078
72.81582 430.988098463971
72.83594 441.982227953758
72.85605 415.993125391067
72.87616 445.980292106802
72.89628 430.000081400098
72.91639 448.001811375809
72.9365 435
72.95662 484.995725004072
72.97673 427.949419646679
72.99685 442.027811688789
73.01696 431.997786301279
73.03707 448.992066099961
73.05719 450.982717057404
73.0773 492
73.09741 437.993872245587
73.11753 467.98908144745
73.13764 416.95650865949
73.15776 451.90764352916
73.17787 471.002952058464
73.19798 464.999363590047
73.2181 467
73.23821 453.006906190351
73.25832 471.972255816493
73.27844 433.074848797486
73.29855 525.903361717347
73.31867 489.03791429051
73.33878 514.970527798857
73.35889 519.001519155184
73.37901 529.012250499484
73.39912 561.030423705719
73.41923 592.062795430335
73.43935 636.065070317444
73.45946 623.106633481322
73.47957 571.010048472659
73.49969 585.01685417204
73.5198 508
73.53992 514.007492956073
73.56003 508.024521657798
73.58014 540.009774208204
73.60026 520.000054030133
73.62037 537.020476453174
73.64048 510.972015653299
73.6606 574
73.68071 512.965346205562
73.70083 490.022255018624
73.72094 502.960367805762
73.74105 456.091579185574
73.76117 454.964934884884
73.78128 470.015227692765
73.80139 439.005034394886
73.82151 461.014282926248
73.84162 463.970327452069
73.86174 434.019033468417
73.88185 469.017289492448
73.90196 440.038389655253
73.92208 450.983783699249
73.94219 452.004938746533
73.9623 445
73.98242 457.003119468333
74.00253 450.999928163573
74.02264 448.94639532396
74.04276 418.976206056614
74.06287 458.986064220658
74.08299 435.998996882499
74.1031 462
74.12321 429.005337337361
74.14333 475.006816565632
74.16344 424.917409577894
74.18355 421.99355853813
74.20367 414.002341014687
74.22378 428.975512318936
74.2439 445
74.26401 420.983611506382
74.28412 407.021629569616
74.30424 441.012068937483
74.32435 424.980303186754
74.34446 453.997667278095
74.36458 419.030064202031
74.38469 419.991215942421
74.40481 427.99329575237
74.42492 406.997236437387
74.44503 428.036893730724
74.46515 445.044457271975
74.48526 462.982913199868
74.50537 453.042354158324
74.52549 427.001468927872
74.5456 434
74.56571 399.994752127843
74.58583 427.056969780187
74.60594 438.949680596555
74.62606 410.970056671991
74.64617 460.953336695277
74.66628 449.025734451874
74.6864 433
74.70651 430.007922096877
74.72662 439.969207988894
74.74674 395.005553320825
74.76685 440.943848615895
74.78697 420.027129932965
74.80708 424.000898861242
74.82719 412.001080054351
74.84731 427.009230151298
74.86742 431.987964916576
74.88753 416.999686370571
74.90765 426.995084743873
74.92776 414.995828973846
74.94787 433.978192780238
74.96799 434.001724200701
74.9881 441
75.00822 472.036181685735
