3.00117 20800
3.02128 20552
3.0414 19920
3.06151 19239
3.08162 18810
3.10174 18318
3.12185 17826
3.14197 17485
3.16208 16806
3.18219 16326
3.20231 15560
3.22242 15451
3.24253 14922
3.26265 14344
3.28276 14206
3.30288 13512
3.32299 13375
3.3431 12865
3.36322 12585
3.38333 11955
3.40344 11455
3.42356 11373
3.44367 10878
3.46379 10291
3.4839 10118
3.50401 9585
3.52413 9381
3.54424 9332
3.56435 8807
3.58447 8733
3.60458 8099
3.62469 8006
3.64481 7771
3.66492 7220
3.68504 7177
3.70515 6634
3.72526 6554
3.74538 6351
3.76549 6061
3.7856 5821
3.80572 5426
3.82583 5357
3.84595 5187
3.86606 4859
3.88617 4689
3.90629 4405
3.9264 4437
3.94651 4117
3.96663 3964
3.98674 3919
4.00686 3667
4.02697 3626
4.04708 3445
4.0672 3214
4.08731 3110
4.10742 2850
4.12754 2813
4.14765 2835
4.16776 2616
4.18788 2587
4.20799 2372
4.22811 2406
4.24822 2321
4.26833 2119
4.28845 2024
4.30856 2117
4.32867 1920
4.34879 2037
4.3689 1714
4.38902 1881
4.40913 1704
4.42924 1726
4.44936 1792
4.46947 1595
4.48958 1622
4.5097 1488
4.52981 1514
4.54992 1557
4.57004 1469
4.59015 1407
4.61027 1447
4.63038 1296
4.65049 1421
4.67061 1272
4.69072 1170
4.71083 1247
4.73095 1217
4.75106 1292
4.77118 1077
4.79129 1137
4.8114 1149
4.83152 1138
4.85163 1155
4.87174 1023
4.89186 1073
4.91197 1072
4.93209 992
4.9522 987
4.97231 964
4.99243 987
5.01254 915
5.03265 908
5.05277 897
5.07288 823
5.09299 836
5.11311 852
5.13322 781
5.15334 867
5.17345 733
5.19356 770
5.21368 810
5.23379 791
5.2539 735
5.27402 707
5.29413 677
5.31425 701
5.33436 713
5.35447 711
5.37459 700
5.3947 663
5.41481 626
5.43493 652
5.45504 610
5.47516 599
5.49527 626
5.51538 580
5.5355 603
5.55561 553
5.57572 550
5.59584 537
5.61595 564
5.63606 548
5.65618 544
5.67629 463
5.69641 544
5.71652 503
5.73663 500
5.75675 505
5.77686 481
5.79697 476
5.81709 512
5.8372 478
5.85732 509
5.87743 467
5.89754 463
5.91766 468
5.93777 484
5.95788 410
5.978 469
5.99811 465
6.01823 438
6.03834 450
6.05845 468
6.07857 430
6.09868 412
6.11879 455
6.13891 410
6.15902 410
6.17913 421
6.19925 472
6.21936 440
6.23948 422
6.25959 360
6.2797 402
6.29982 436
6.31993 443
6.34004 383
6.36016 395
6.38027 396
6.40039 408
6.4205 454
6.44061 424
6.46073 375
6.48084 403
6.50095 378
6.52107 437
6.54118 377
6.56129 390
6.58141 360
6.60152 416
6.62164 351
6.64175 390
6.66186 394
6.68198 397
6.70209 406
6.7222 386
6.74232 376
6.76243 404
6.78255 411
6.80266 392
6.82277 407
6.84289 396
6.863 425
6.88311 377
6.90323 424
6.92334 348
6.94346 349
6.96357 372
6.98368 366
7.0038 396
7.02391 409
7.04402 430
7.06414 379
7.08425 403
7.10436 391
7.12448 399
7.14459 391
7.16471 385
7.18482 387
7.20493 401
7.22505 390
7.24516 397
7.26527 363
7.28539 347
7.3055 407
7.32562 363
7.34573 403
7.36584 411
7.38596 399
7.40607 330
7.42618 358
7.4463 373
7.46641 341
7.48653 373
7.50664 378
7.52675 380
7.54687 397
7.56698 381
7.58709 391
7.60721 356
7.62732 350
7.64743 361
7.66755 386
7.68766 414
7.70778 376
7.72789 407
7.748 361
7.76812 363
7.78823 420
7.80834 399
7.82846 372
7.84857 390
7.86869 355
7.8888 342
7.90891 360
7.92903 366
7.94914 370
7.96925 374
7.98937 361
8.00948 381
8.0296 439
8.04971 398
8.06982 362
8.08994 378
8.11005 400
8.13016 358
8.15028 376
8.17039 366
8.1905 370
8.21062 375
8.23073 391
8.25085 388
8.27096 381
8.29107 387
8.31119 390
8.3313 361
8.35141 345
8.37153 420
8.39164 368
8.41176 343
8.43187 387
8.45198 396
8.4721 431
8.49221 360
8.51232 367
8.53244 382
8.55255 403
8.57266 391
8.59278 416
8.61289 389
8.63301 434
8.65312 374
8.67323 383
8.69335 411
8.71346 428
8.73357 388
8.75369 368
8.7738 411
8.79392 393
8.81403 375
8.83414 403
8.85426 409
8.87437 353
8.89448 361
8.9146 379
8.93471 391
8.95483 341
8.97494 356
8.99505 365
9.01517 377
9.03528 378
9.05539 388
9.07551 354
9.09562 388
9.11573 387
9.13585 358
9.15596 394
9.17608 379
9.19619 374
9.2163 384
9.23642 405
9.25653 381
9.27664 412
9.29676 367
9.31687 367
9.33699 402
9.3571 418
9.37721 399
9.39733 339
9.41744 368
9.43755 410
9.45767 414
9.47778 359
9.4979 355
9.51801 361
9.53812 334
9.55824 342
9.57835 370
9.59846 360
9.61858 376
9.63869 372
9.6588 359
9.67892 367
9.69903 348
9.71915 388
9.73926 373
9.75937 360
9.77949 370
9.7996 360
9.81971 395
9.83983 388
9.85994 351
9.88006 353
9.90017 344
9.92028 364
9.9404 377
9.96051 369
9.98062 400
10.00074 408
10.02085 345
10.04097 338
10.06108 357
10.08119 354
10.10131 370
10.12142 346
10.14153 368
10.16165 333
10.18176 379
10.20187 366
10.22199 339
10.2421 390
10.26222 385
10.28233 374
10.30244 346
10.32256 354
10.34267 390
10.36278 389
10.3829 396
10.40301 389
10.42313 370
10.44324 388
10.46335 374
10.48347 385
10.50358 333
10.52369 377
10.54381 360
10.56392 406
10.58403 403
10.60415 403
10.62426 346
10.64438 337
10.66449 376
10.6846 359
10.70472 361
10.72483 356
10.74494 351
10.76506 360
10.78517 341
10.80529 384
10.8254 392
10.84551 376
10.86563 374
10.88574 407
10.90585 394
10.92597 389
10.94608 405
10.9662 365
10.98631 375
11.00642 401
11.02654 367
11.04665 373
11.06676 382
11.08688 348
11.10699 376
11.1271 339
11.14722 360
11.16733 401
11.18745 362
11.20756 380
11.22767 353
11.24779 366
11.2679 357
11.28801 384
11.30813 373
11.32824 365
11.34836 384
11.36847 414
11.38858 416
11.4087 385
11.42881 365
11.44892 401
11.46904 409
11.48915 402
11.50927 398
11.52938 423
11.54949 420
11.56961 368
11.58972 430
11.60983 401
11.62995 413
11.65006 381
11.67017 420
11.69029 402
11.7104 393
11.73052 372
11.75063 433
11.77074 441
11.79086 409
11.81097 390
11.83108 446
11.8512 411
11.87131 407
11.89143 423
11.91154 401
11.93165 477
11.95177 416
11.97188 401
11.99199 460
12.01211 442
12.03222 413
12.05234 468
12.07245 434
12.09256 426
12.11268 474
12.13279 430
12.1529 468
12.17302 449
12.19313 419
12.21324 417
12.23336 432
12.25347 445
12.27359 375
12.2937 422
12.31381 436
12.33393 414
12.35404 441
12.37415 402
12.39427 416
12.41438 432
12.4345 412
12.45461 368
12.47472 418
12.49484 426
12.51495 391
12.53506 442
12.55518 367
12.57529 381
12.5954 381
12.61552 386
12.63563 357
12.65575 378
12.67586 370
12.69597 411
12.71609 371
12.7362 372
12.75631 367
12.77643 355
12.79654 361
12.81666 384
12.83677 381
12.85688 412
12.877 383
12.89711 383
12.91722 328
12.93734 318
12.95745 354
12.97757 346
12.99768 344
13.01779 354
13.03791 356
13.05802 361
13.07813 348
13.09825 330
13.11836 339
13.13847 374
13.15859 323
13.1787 356
13.19882 358
13.21893 344
13.23904 314
13.25916 365
13.27927 376
13.29938 345
13.3195 377
13.33961 360
13.35973 306
13.37984 349
13.39995 310
13.42007 362
13.44018 357
13.46029 328
13.48041 394
13.50052 333
13.52064 321
13.54075 342
13.56086 350
13.58098 356
13.60109 365
13.6212 377
13.64132 334
13.66143 382
13.68154 315
13.70166 328
13.72177 301
13.74189 326
13.762 348
13.78211 342
13.80223 350
13.82234 315
13.84245 329
13.86257 346
13.88268 363
13.9028 321
13.92291 310
13.94302 341
13.96314 327
13.98325 304
14.00336 307
14.02348 336
14.04359 318
14.06371 300
14.08382 347
14.10393 326
14.12405 323
14.14416 322
14.16427 379
14.18439 345
14.2045 253
14.22461 331
14.24473 322
14.26484 301
14.28496 311
14.30507 333
14.32518 325
14.3453 336
14.36541 358
14.38552 317
14.40564 334
14.42575 324
14.44587 319
14.46598 297
14.48609 318
14.50621 308
14.52632 342
14.54643 304
14.56655 307
14.58666 317
14.60677 328
14.62689 340
14.647 296
14.66712 314
14.68723 317
14.70734 343
14.72746 323
14.74757 347
14.76768 306
14.7878 343
14.80791 324
14.82803 293
14.84814 337
14.86825 332
14.88837 322
14.90848 295
14.92859 340
14.94871 326
14.96882 353
14.98894 309
15.00905 303
15.02916 308
15.04928 321
15.06939 326
15.0895 323
15.10962 335
15.12973 323
15.14984 319
15.16996 319
15.19007 328
15.21019 297
15.2303 331
15.25041 326
15.27053 319
15.29064 318
15.31075 321
15.33087 308
15.35098 317
15.3711 274
15.39121 319
15.41132 301
15.43144 320
15.45155 250
15.47166 272
15.49178 323
15.51189 335
15.53201 312
15.55212 318
15.57223 307
15.59235 320
15.61246 287
15.63257 286
15.65269 286
15.6728 296
15.69291 321
15.71303 316
15.73314 293
15.75326 328
15.77337 305
15.79348 332
15.8136 317
15.83371 339
15.85382 322
15.87394 321
15.89405 321
15.91417 303
15.93428 292
15.95439 316
15.97451 305
15.99462 272
16.01473 302
16.03485 311
16.05496 316
16.07508 308
16.09519 268
16.1153 315
16.13542 289
16.15553 354
16.17564 297
16.19576 303
16.21587 284
16.23598 281
16.2561 285
16.27621 310
16.29633 289
16.31644 300
16.33655 256
16.35667 295
16.37678 305
16.39689 313
16.41701 332
16.43712 328
16.45724 326
16.47735 302
16.49746 306
16.51758 275
16.53769 358
16.5578 285
16.57792 321
16.59803 294
16.61814 311
16.63826 337
16.65837 312
16.67849 310
16.6986 333
16.71871 310
16.73883 316
16.75894 298
16.77905 277
16.79917 294
16.81928 268
16.8394 302
16.85951 309
16.87962 305
16.89974 298
16.91985 316
16.93996 306
16.96008 277
16.98019 279
17.00031 341
17.02042 287
17.04053 292
17.06065 314
17.08076 312
17.10087 345
17.12099 301
17.1411 297
17.16121 289
17.18133 291
17.20144 304
17.22156 276
17.24167 275
17.26178 315
17.2819 290
17.30201 297
17.32212 321
17.34224 327
17.36235 320
17.38247 318
17.40258 304
17.42269 300
17.44281 343
17.46292 307
17.48303 350
17.50315 317
17.52326 300
17.54338 340
17.56349 338
17.5836 330
17.60372 327
17.62383 346
17.64394 318
17.66406 330
17.68417 325
17.70428 332
17.7244 319
17.74451 369
17.76463 323
17.78474 354
17.80485 302
17.82497 348
17.84508 341
17.86519 320
17.88531 371
17.90542 323
17.92554 349
17.94565 312
17.96576 301
17.98588 334
18.00599 339
18.0261 336
18.04622 314
18.06633 276
18.08645 330
18.10656 346
18.12667 343
18.14679 299
18.1669 350
18.18701 336
18.20713 332
18.22724 298
18.24735 326
18.26747 314
18.28758 323
18.3077 316
18.32781 329
18.34792 304
18.36804 304
18.38815 329
18.40826 359
18.42838 317
18.44849 316
18.46861 306
18.48872 284
18.50883 322
18.52895 319
18.54906 318
18.56917 334
18.58929 331
18.6094 294
18.62951 353
18.64963 327
18.66974 334
18.68986 323
18.70997 310
18.73008 332
18.7502 339
18.77031 312
18.79042 315
18.81054 316
18.83065 333
18.85077 323
18.87088 316
18.89099 359
18.91111 293
18.93122 340
18.95133 289
18.97145 324
18.99156 313
19.01168 316
19.03179 300
19.0519 320
19.07202 293
19.09213 359
19.11224 342
19.13236 301
19.15247 334
19.17258 333
19.1927 343
19.21281 358
19.23293 344
19.25304 390
19.27315 368
19.29327 374
19.31338 353
19.33349 358
19.35361 374
19.37372 378
19.39384 338
19.41395 377
19.43406 359
19.45418 363
19.47429 362
19.4944 424
19.51452 392
19.53463 397
19.55475 426
19.57486 409
19.59497 423
19.61509 443
19.6352 466
19.65531 488
19.67543 488
19.69554 492
19.71565 547
19.73577 543
19.75588 549
19.776 589
19.79611 614
19.81622 614
19.83634 596
19.85645 619
19.87656 662
19.89668 636
19.91679 653
19.93691 614
19.95702 611
19.97713 593
19.99725 618
20.01736 575
20.03747 555
20.05759 581
20.0777 608
20.09782 580
20.11793 582
20.13804 555
20.15816 623
20.17827 583
20.19838 604
20.2185 591
20.23861 549
20.25872 558
20.27884 569
20.29895 596
20.31907 528
20.33918 611
20.35929 555
20.37941 607
20.39952 593
20.41963 616
20.43975 590
20.45986 636
20.47998 618
20.50009 616
20.5202 576
20.54032 578
20.56043 681
20.58054 685
20.60066 673
20.62077 752
20.64088 777
20.661 892
20.68111 1020
20.70123 1291
20.72134 1623
20.74145 2120
20.76157 2954
20.78168 3560
20.80179 4306
20.82191 4659
20.84202 4483
20.86214 3859
20.88225 3165
20.90236 2296
20.92248 1818
20.94259 1273
20.9627 1119
20.98282 995
21.00293 879
21.02305 917
21.04316 893
21.06327 818
21.08339 800
21.1035 742
21.12361 757
21.14373 732
21.16384 687
21.18395 707
21.20407 630
21.22418 654
21.2443 692
21.26441 679
21.28452 653
21.30464 647
21.32475 623
21.34486 621
21.36498 665
21.38509 613
21.40521 628
21.42532 634
21.44543 577
21.46555 619
21.48566 547
21.50577 560
21.52589 514
21.546 543
21.56612 541
21.58623 516
21.60634 515
21.62646 504
21.64657 520
21.66668 507
21.6868 509
21.70691 456
21.72702 505
21.74714 500
21.76725 426
21.78737 436
21.80748 479
21.82759 454
21.84771 462
21.86782 416
21.88793 480
21.90805 478
21.92816 496
21.94828 512
21.96839 532
21.9885 553
22.00862 485
22.02873 483
22.04884 463
22.06896 460
22.08907 441
22.10919 458
22.1293 443
22.14941 434
22.16953 413
22.18964 465
22.20975 464
22.22987 494
22.24998 485
22.27009 471
22.29021 450
22.31032 451
22.33044 465
22.35055 477
22.37066 478
22.39078 453
22.41089 454
22.431 432
22.45112 465
22.47123 446
22.49135 466
22.51146 458
22.53157 437
22.55169 436
22.5718 426
22.59191 441
22.61203 451
22.63214 433
22.65225 421
22.67237 426
22.69248 447
22.7126 421
22.73271 377
22.75282 383
22.77294 412
22.79305 395
22.81316 402
22.83328 420
22.85339 420
22.87351 399
22.89362 396
22.91373 398
22.93385 430
22.95396 432
22.97407 444
22.99419 432
23.0143 481
23.03442 447
23.05453 401
23.07464 433
23.09476 427
23.11487 449
23.13498 467
23.1551 457
23.17521 475
23.19532 439
23.21544 510
23.23555 474
23.25567 490
23.27578 426
23.29589 442
23.31601 410
23.33612 434
23.35623 439
23.37635 403
23.39646 459
23.41658 435
23.43669 442
23.4568 484
23.47692 494
23.49703 466
23.51714 502
23.53726 507
23.55737 515
23.57749 478
23.5976 503
23.61771 437
23.63783 421
23.65794 473
23.67805 455
23.69817 483
23.71828 441
23.73839 489
23.75851 494
23.77862 462
23.79874 490
23.81885 488
23.83896 488
23.85908 505
23.87919 437
23.8993 503
23.91942 550
23.93953 532
23.95965 539
23.97976 511
23.99987 468
24.01999 503
24.0401 512
24.06021 446
24.08033 455
24.10044 443
24.12056 447
24.14067 431
24.16078 445
24.1809 455
24.20101 432
24.22112 491
24.24124 445
24.26135 477
24.28146 444
24.30158 494
24.32169 406
24.34181 430
24.36192 437
24.38203 455
24.40215 450
24.42226 420
24.44237 456
24.46249 463
24.4826 447
24.50272 409
24.52283 459
24.54294 411
24.56306 444
24.58317 423
24.60328 417
24.6234 452
24.64351 509
24.66362 487
24.68374 472
24.70385 435
24.72397 493
24.74408 436
24.76419 516
24.78431 483
24.80442 490
24.82453 467
24.84465 465
24.86476 516
24.88488 445
24.90499 478
24.9251 468
24.94522 503
24.96533 475
24.98544 496
25.00556 475
25.02567 493
25.04579 475
25.0659 507
25.08601 443
25.10613 484
25.12624 481
25.14635 498
25.16647 477
25.18658 487
25.20669 517
25.22681 534
25.24692 537
25.26704 542
25.28715 542
25.30726 562
25.32738 492
25.34749 498
25.3676 499
25.38772 529
25.40783 558
25.42795 495
25.44806 506
25.46817 510
25.48829 558
25.5084 628
25.52851 562
25.54863 588
25.56874 593
25.58886 600
25.60897 644
25.62908 678
25.6492 554
25.66931 581
25.68942 598
25.70954 587
25.72965 590
25.74976 572
25.76988 566
25.78999 513
25.81011 504
25.83022 536
25.85033 548
25.87045 594
25.89056 534
25.91067 563
25.93079 528
25.9509 560
25.97102 577
25.99113 559
26.01124 548
26.03136 608
26.05147 627
26.07158 586
26.0917 633
26.11181 639
26.13193 670
26.15204 743
26.17215 756
26.19227 798
26.21238 861
26.23249 844
26.25261 893
26.27272 973
26.29283 960
26.31295 1068
26.33306 1141
26.35318 1320
26.37329 1482
26.3934 1775
26.41352 2135
26.43363 2653
26.45374 3536
26.47386 4844
26.49397 6530
26.51409 9176
26.5342 12095
26.55431 15223
26.57443 18237
26.59454 20010
26.61465 19082
26.63477 16865
26.65488 13737
26.67499 10551
26.69511 7581
26.71522 4984
26.73534 3174
26.75545 2039
26.77556 1478
26.79568 1368
26.81579 1267
26.8359 1161
26.85602 1083
26.87613 1018
26.89625 988
26.91636 978
26.93647 871
26.95659 878
26.9767 882
26.99681 880
27.01693 800
27.03704 866
27.05716 803
27.07727 769
27.09738 737
27.1175 702
27.13761 680
27.15772 658
27.17784 628
27.19795 566
27.21806 589
27.23818 622
27.25829 647
27.27841 667
27.29852 646
27.31863 619
27.33875 755
27.35886 806
27.37897 773
27.39909 885
27.4192 901
27.43932 894
27.45943 853
27.47954 841
27.49966 824
27.51977 701
27.53988 656
27.56 550
27.58011 606
27.60023 549
27.62034 598
27.64045 539
27.66057 533
27.68068 484
27.70079 535
27.72091 518
27.74102 516
27.76113 475
27.78125 512
27.80136 523
27.82148 491
27.84159 551
27.8617 473
27.88182 542
27.90193 495
27.92204 536
27.94216 440
27.96227 436
27.98239 492
28.0025 429
28.02261 463
28.04273 426
28.06284 432
28.08295 389
28.10307 429
28.12318 416
28.1433 438
28.16341 412
28.18352 405
28.20364 429
28.22375 444
28.24386 391
28.26398 402
28.28409 370
28.3042 376
28.32432 401
28.34443 401
28.36455 419
28.38466 402
28.40477 391
28.42489 392
28.445 409
28.46511 368
28.48523 388
28.50534 366
28.52546 347
28.54557 356
28.56568 404
28.5858 388
28.60591 396
28.62602 382
28.64614 326
28.66625 385
28.68636 384
28.70648 364
28.72659 362
28.74671 345
28.76682 362
28.78693 387
28.80705 392
28.82716 377
28.84727 381
28.86739 371
28.8875 355
28.90762 356
28.92773 365
28.94784 344
28.96796 369
28.98807 339
29.00818 373
29.0283 387
29.04841 376
29.06853 323
29.08864 335
29.10875 384
29.12887 385
29.14898 374
29.16909 342
29.18921 390
29.20932 327
29.22943 352
29.24955 325
29.26966 336
29.28978 392
29.30989 396
29.33 387
29.35012 374
29.37023 399
29.39034 397
29.41046 386
29.43057 416
29.45069 412
29.4708 414
29.49091 417
29.51103 388
29.53114 403
29.55125 381
29.57137 392
29.59148 368
29.6116 387
29.63171 404
29.65182 407
29.67194 399
29.69205 423
29.71216 422
29.73228 432
29.75239 384
29.7725 391
29.79262 418
29.81273 403
29.83285 404
29.85296 438
29.87307 409
29.89319 429
29.9133 368
29.93341 383
29.95353 379
29.97364 378
29.99376 394
30.01387 419
30.03398 389
30.0541 368
30.07421 445
30.09432 391
30.11444 417
30.13455 419
30.15467 422
30.17478 396
30.19489 439
30.21501 422
30.23512 403
30.25523 371
30.27535 379
30.29546 372
30.31557 402
30.33569 359
30.3558 398
30.37592 378
30.39603 409
30.41614 360
30.43626 392
30.45637 399
30.47648 395
30.4966 378
30.51671 372
30.53683 364
30.55694 386
30.57705 393
30.59717 376
30.61728 403
30.63739 413
30.65751 384
30.67762 421
30.69773 401
30.71785 443
30.73796 458
30.75808 418
30.77819 455
30.7983 475
30.81842 441
30.83853 424
30.85864 400
30.87876 402
30.89887 339
30.91899 358
30.9391 397
30.95921 378
30.97933 380
30.99944 377
31.01955 339
31.03967 349
31.05978 350
31.0799 329
31.10001 371
31.12012 329
31.14024 366
31.16035 335
31.18046 368
31.20058 323
31.22069 346
31.2408 310
31.26092 357
31.28103 349
31.30115 337
31.32126 316
31.34137 359
31.36149 350
31.3816 327
31.40171 360
31.42183 332
31.44194 345
31.46206 323
31.48217 303
31.50228 324
31.5224 334
31.54251 346
31.56262 333
31.58274 311
31.60285 339
31.62297 329
31.64308 309
31.66319 320
31.68331 356
31.70342 305
31.72353 338
31.74365 342
31.76376 339
31.78387 321
31.80399 315
31.8241 336
31.84422 290
31.86433 356
31.88444 344
31.90456 335
31.92467 337
31.94478 338
31.9649 359
31.98501 329
32.00513 341
32.02524 340
32.04535 352
32.06547 335
32.08558 356
32.10569 362
32.12581 378
32.14592 343
32.16604 346
32.18615 354
32.20626 335
32.22638 355
32.24649 354
32.2666 356
32.28672 365
32.30683 352
32.32694 390
32.34706 340
32.36717 375
32.38729 399
32.4074 386
32.42751 403
32.44763 379
32.46774 392
32.48785 415
32.50797 375
32.52808 389
32.5482 384
32.56831 417
32.58842 364
32.60854 388
32.62865 390
32.64876 400
32.66888 338
32.68899 358
32.7091 369
32.72922 355
32.74933 351
32.76945 346
32.78956 371
32.80967 354
32.82979 345
32.8499 372
32.87001 370
32.89013 353
32.91024 380
32.93036 345
32.95047 344
32.97058 369
32.9907 369
33.01081 333
33.03092 360
33.05104 391
33.07115 365
33.09127 360
33.11138 362
33.13149 365
33.15161 361
33.17172 324
33.19183 352
33.21195 372
33.23206 381
33.25217 343
33.27229 363
33.2924 358
33.31252 348
33.33263 389
33.35274 376
33.37286 340
33.39297 348
33.41308 356
33.4332 364
33.45331 393
33.47343 336
33.49354 334
33.51365 349
33.53377 362
33.55388 393
33.57399 367
33.59411 370
33.61422 348
33.63434 357
33.65445 371
33.67456 342
33.69468 353
33.71479 320
33.7349 355
33.75502 355
33.77513 348
33.79524 367
33.81536 310
33.83547 361
33.85559 300
33.8757 343
33.89581 339
33.91593 350
33.93604 347
33.95615 380
33.97627 341
33.99638 359
34.0165 361
34.03661 341
34.05672 349
34.07684 346
34.09695 343
34.11706 380
34.13718 379
34.15729 405
34.17741 365
34.19752 350
34.21763 377
34.23775 403
34.25786 429
34.27797 394
34.29809 412
34.3182 387
34.33831 403
34.35843 383
34.37854 413
34.39866 420
34.41877 414
34.43888 370
34.459 364
34.47911 422
34.49922 372
34.51934 434
34.53945 435
34.55957 421
34.57968 412
34.59979 454
34.61991 487
34.64002 449
34.66013 520
34.68025 472
34.70036 451
34.72047 468
34.74059 510
34.7607 501
34.78082 515
34.80093 520
34.82104 531
34.84116 508
34.86127 533
34.88138 518
34.9015 507
34.92161 538
34.94173 511
34.96184 512
34.98195 564
35.00207 541
35.02218 549
35.04229 477
35.06241 503
35.08252 502
35.10264 502
35.12275 491
35.14286 492
35.16298 531
35.18309 487
35.2032 526
35.22332 501
35.24343 495
35.26354 501
35.28366 463
35.30377 480
35.32389 522
35.344 465
35.36411 463
35.38423 499
35.40434 516
35.42445 510
35.44457 495
35.46468 484
35.4848 496
35.50491 513
35.52502 480
35.54514 516
35.56525 472
35.58536 507
35.60548 466
35.62559 448
35.64571 430
35.66582 497
35.68593 427
35.70605 472
35.72616 458
35.74627 453
35.76639 459
35.7865 469
35.80661 472
35.82673 443
35.84684 421
35.86696 464
35.88707 469
35.90718 465
35.9273 471
35.94741 455
35.96752 432
35.98764 435
36.00775 400
36.02787 478
36.04798 458
36.06809 435
36.08821 417
36.10832 436
36.12843 452
36.14855 397
36.16866 453
36.18878 481
36.20889 472
36.229 459
36.24912 465
36.26923 521
36.28934 547
36.30946 556
36.32957 640
36.34968 659
36.3698 784
36.38991 918
36.41003 1061
36.43014 1288
36.45025 1454
36.47037 1669
36.49048 1634
36.51059 1490
36.53071 1435
36.55082 1320
36.57094 1222
36.59105 1017
36.61116 925
36.63128 875
36.65139 672
36.6715 597
36.69162 617
36.71173 547
36.73184 510
36.75196 519
36.77207 534
36.79219 525
36.8123 541
36.83241 491
36.85253 504
36.87264 503
36.89275 505
36.91287 517
36.93298 488
36.9531 505
36.97321 499
36.99332 468
37.01344 445
37.03355 488
37.05366 467
37.07378 460
37.09389 498
37.11401 486
37.13412 435
37.15423 444
37.17435 431
37.19446 449
37.21457 412
37.23469 433
37.2548 435
37.27491 391
37.29503 398
37.31514 415
37.33526 404
37.35537 413
37.37548 396
37.3956 403
37.41571 419
37.43582 389
37.45594 408
37.47605 421
37.49617 398
37.51628 396
37.53639 394
37.55651 391
37.57662 411
37.59673 399
37.61685 405
37.63696 441
37.65708 422
37.67719 396
37.6973 414
37.71742 424
37.73753 404
37.75764 460
37.77776 436
37.79787 387
37.81798 391
37.8381 443
37.85821 365
37.87833 423
37.89844 385
37.91855 390
37.93867 384
37.95878 411
37.97889 399
37.99901 372
38.01912 426
38.03924 391
38.05935 409
38.07946 379
38.09958 412
38.11969 399
38.1398 400
38.15992 409
38.18003 413
38.20015 372
38.22026 388
38.24037 353
38.26049 400
38.2806 374
38.30071 409
38.32083 427
38.34094 411
38.36105 431
38.38117 433
38.40128 402
38.4214 442
38.44151 444
38.46162 423
38.48174 370
38.50185 387
38.52196 434
38.54208 444
38.56219 391
38.58231 407
38.60242 386
38.62253 390
38.64265 407
38.66276 403
38.68287 385
38.70299 390
38.7231 439
38.74321 374
38.76333 410
38.78344 363
38.80356 370
38.82367 369
38.84378 376
38.8639 378
38.88401 369
38.90412 389
38.92424 395
38.94435 383
38.96447 420
38.98458 364
39.00469 423
39.02481 383
39.04492 399
39.06503 376
39.08515 411
39.10526 403
39.12538 429
39.14549 394
39.1656 470
39.18572 457
39.20583 493
39.22594 520
39.24606 555
39.26617 615
39.28628 664
39.3064 785
39.32651 921
39.34663 1082
39.36674 1248
39.38685 1496
39.40697 1480
39.42708 1421
39.44719 1406
39.46731 1173
39.48742 1069
39.50754 973
39.52765 845
39.54776 782
39.56788 671
39.58799 515
39.6081 467
39.62822 423
39.64833 401
39.66845 407
39.68856 393
39.70867 389
39.72879 380
39.7489 386
39.76901 339
39.78913 369
39.80924 361
39.82935 423
39.84947 411
39.86958 393
39.8897 402
39.90981 390
39.92992 408
39.95004 390
39.97015 371
39.99026 417
40.01038 419
40.03049 418
40.05061 412
40.07072 473
40.09083 493
40.11095 479
40.13106 617
40.15117 634
40.17129 719
40.1914 802
40.21152 867
40.23163 936
40.25174 909
40.27186 892
40.29197 780
40.31208 705
40.3322 685
40.35231 557
40.37242 587
40.39254 516
40.41265 472
40.43277 421
40.45288 348
40.47299 361
40.49311 430
40.51322 410
40.53333 394
40.55345 369
40.57356 362
40.59368 398
40.61379 390
40.6339 392
40.65402 357
40.67413 354
40.69424 338
40.71436 378
40.73447 369
40.75458 348
40.7747 350
40.79481 343
40.81493 393
40.83504 317
40.85515 389
40.87527 362
40.89538 364
40.91549 338
40.93561 364
40.95572 373
40.97584 375
40.99595 372
41.01606 358
41.03618 349
41.05629 370
41.0764 351
41.09652 380
41.11663 353
41.13675 389
41.15686 370
41.17697 352
41.19709 352
41.2172 361
41.23731 388
41.25743 367
41.27754 361
41.29765 364
41.31777 373
41.33788 366
41.358 369
41.37811 350
41.39822 364
41.41834 349
41.43845 361
41.45856 353
41.47868 402
41.49879 370
41.51891 349
41.53902 369
41.55913 375
41.57925 426
41.59936 388
41.61947 377
41.63959 406
41.6597 414
41.67982 409
41.69993 413
41.72004 435
41.74016 431
41.76027 407
41.78038 425
41.8005 414
41.82061 398
41.84072 383
41.86084 373
41.88095 383
41.90107 352
41.92118 351
41.94129 368
41.96141 357
41.98152 363
42.00163 398
42.02175 347
42.04186 357
42.06198 380
42.08209 386
42.1022 356
42.12232 362
42.14243 359
42.16254 399
42.18266 407
42.20277 446
42.22289 448
42.243 514
42.26311 536
42.28323 556
42.30334 708
42.32345 833
42.34357 986
42.36368 1020
42.38379 1132
42.40391 1075
42.42402 1010
42.44414 961
42.46425 896
42.48436 769
42.50448 728
42.52459 655
42.5447 602
42.56482 516
42.58493 478
42.60505 388
42.62516 383
42.64527 343
42.66539 394
42.6855 329
42.70561 349
42.72573 337
42.74584 325
42.76595 334
42.78607 320
42.80618 343
42.8263 346
42.84641 323
42.86652 342
42.88664 322
42.90675 314
42.92686 316
42.94698 343
42.96709 337
42.98721 284
43.00732 287
43.02743 314
43.04755 304
43.06766 318
43.08777 328
43.10789 302
43.128 345
43.14812 298
43.16823 309
43.18834 319
43.20846 330
43.22857 348
43.24868 319
43.2688 316
43.28891 306
43.30902 315
43.32914 312
43.34925 313
43.36937 351
43.38948 321
43.40959 307
43.42971 294
43.44982 326
43.46993 291
43.49005 313
43.51016 287
43.53028 292
43.55039 319
43.5705 303
43.59062 310
43.61073 278
43.63084 305
43.65096 276
43.67107 295
43.69119 291
43.7113 281
43.73141 316
43.75153 298
43.77164 304
43.79175 324
43.81187 353
43.83198 300
43.85209 295
43.87221 362
43.89232 293
43.91244 300
43.93255 336
43.95266 336
43.97278 340
43.99289 282
44.013 307
44.03312 314
44.05323 325
44.07335 300
44.09346 301
44.11357 317
44.13369 331
44.1538 304
44.17391 321
44.19403 309
44.21414 319
44.23426 323
44.25437 301
44.27448 293
44.2946 296
44.31471 306
44.33482 293
44.35494 292
44.37505 324
44.39516 310
44.41528 300
44.43539 306
44.45551 310
44.47562 278
44.49573 333
44.51585 302
44.53596 335
44.55607 319
44.57619 318
44.5963 306
44.61642 301
44.63653 311
44.65664 302
44.67676 285
44.69687 324
44.71698 298
44.7371 314
44.75721 298
44.77732 294
44.79744 296
44.81755 297
44.83767 313
44.85778 329
44.87789 326
44.89801 308
44.91812 299
44.93823 318
44.95835 297
44.97846 358
44.99858 321
45.01869 337
45.0388 343
45.05892 327
45.07903 326
45.09914 362
45.11926 347
45.13937 331
45.15949 307
45.1796 329
45.19971 328
45.21983 362
45.23994 321
45.26005 314
45.28017 319
45.30028 321
45.32039 318
45.34051 326
45.36062 347
45.38074 365
45.40085 364
45.42096 372
45.44108 380
45.46119 349
45.4813 385
45.50142 405
45.52153 393
45.54165 389
45.56176 428
45.58187 466
45.60199 513
45.6221 573
45.64221 596
45.66233 707
45.68244 687
45.70256 782
45.72267 834
45.74278 827
45.7629 819
45.78301 733
45.80312 652
45.82324 606
45.84335 631
45.86346 593
45.88358 523
45.90369 510
45.92381 455
45.94392 404
45.96403 373
45.98415 334
46.00426 376
46.02437 353
46.04449 334
46.0646 368
46.08472 309
46.10483 326
46.12494 324
46.14506 319
46.16517 313
46.18528 317
46.2054 330
46.22551 318
46.24563 335
46.26574 306
46.28585 294
46.30597 330
46.32608 332
46.34619 300
46.36631 324
46.38642 311
46.40653 307
46.42665 331
46.44676 344
46.46688 325
46.48699 319
46.5071 310
46.52722 321
46.54733 317
46.56744 285
46.58756 291
46.60767 307
46.62779 312
46.6479 291
46.66801 321
46.68813 302
46.70824 319
46.72835 324
46.74847 281
46.76858 321
46.78869 300
46.80881 305
46.82892 313
46.84904 318
46.86915 319
46.88926 295
46.90938 307
46.92949 297
46.9496 293
46.96972 338
46.98983 326
47.00995 313
47.03006 332
47.05017 348
47.07029 283
47.0904 312
47.11051 328
47.13063 305
47.15074 315
47.17086 303
47.19097 323
47.21108 312
47.2312 343
47.25131 340
47.27142 360
47.29154 301
47.31165 347
47.33176 350
47.35188 318
47.37199 330
47.39211 320
47.41222 303
47.43233 346
47.45245 333
47.47256 332
47.49267 329
47.51279 336
47.5329 313
47.55302 313
47.57313 351
47.59324 320
47.61336 308
47.63347 337
47.65358 306
47.6737 334
47.69381 299
47.71393 293
47.73404 305
47.75415 306
47.77427 322
47.79438 312
47.81449 325
47.83461 306
47.85472 334
47.87483 304
47.89495 296
47.91506 311
47.93518 318
47.95529 339
47.9754 299
47.99552 336
48.01563 295
48.03574 335
48.05586 325
48.07597 319
48.09609 292
48.1162 298
48.13631 312
48.15643 313
48.17654 277
48.19665 328
48.21677 309
48.23688 275
48.257 303
48.27711 309
48.29722 305
48.31734 334
48.33745 332
48.35756 310
48.37768 293
48.39779 310
48.4179 318
48.43802 288
48.45813 303
48.47825 292
48.49836 331
48.51847 314
48.53859 301
48.5587 294
48.57881 324
48.59893 324
48.61904 332
48.63916 334
48.65927 327
48.67938 327
48.6995 296
48.71961 337
48.73972 339
48.75984 312
48.77995 321
48.80006 325
48.82018 360
48.84029 298
48.86041 336
48.88052 350
48.90063 367
48.92075 360
48.94086 334
48.96097 280
48.98109 340
49.0012 342
49.02132 331
49.04143 311
49.06154 316
49.08166 304
49.10177 329
49.12188 330
49.142 367
49.16211 348
49.18223 316
49.20234 335
49.22245 318
49.24257 322
49.26268 328
49.28279 324
49.30291 316
49.32302 311
49.34313 316
49.36325 323
49.38336 323
49.40348 323
49.42359 305
49.4437 304
49.46382 303
49.48393 335
49.50404 352
49.52416 306
49.54427 339
49.56439 368
49.5845 326
49.60461 355
49.62473 349
49.64484 331
49.66495 341
49.68507 372
49.70518 386
49.7253 393
49.74541 377
49.76552 422
49.78564 458
49.80575 412
49.82586 503
49.84598 519
49.86609 520
49.8862 633
49.90632 672
49.92643 734
49.94655 868
49.96666 1064
49.98677 1248
50.00689 1533
50.027 1811
50.04711 2024
50.06723 2237
50.08734 2157
50.10746 2087
50.12757 1765
50.14768 1592
50.1678 1389
50.18791 1295
50.20802 1273
50.22814 1150
50.24825 979
50.26837 796
50.28848 642
50.30859 527
50.32871 469
50.34882 453
50.36893 443
50.38905 424
50.40916 437
50.42927 434
50.44939 407
50.4695 424
50.48962 412
50.50973 440
50.52984 422
50.54996 437
50.57007 418
50.59018 406
50.6103 404
50.63041 376
50.65053 424
50.67064 443
50.69075 379
50.71087 356
50.73098 358
50.75109 371
50.77121 401
50.79132 345
50.81143 328
50.83155 333
50.85166 342
50.87178 354
50.89189 336
50.912 346
50.93212 345
50.95223 335
50.97234 330
50.99246 322
51.01257 300
51.03269 325
51.0528 340
51.07291 320
51.09303 307
51.11314 312
51.13325 308
51.15337 327
51.17348 330
51.1936 303
51.21371 308
51.23382 299
51.25394 263
51.27405 292
51.29416 326
51.31428 323
51.33439 314
51.3545 320
51.37462 284
51.39473 292
51.41485 306
51.43496 276
51.45507 300
51.47519 292
51.4953 266
51.51541 288
51.53553 305
51.55564 307
51.57576 281
51.59587 289
51.61598 307
51.6361 314
51.65621 287
51.67632 294
51.69644 302
51.71655 310
51.73667 274
51.75678 291
51.77689 284
51.79701 319
51.81712 309
51.83723 302
51.85735 292
51.87746 300
51.89757 282
51.91769 269
51.9378 278
51.95792 299
51.97803 309
51.99814 293
52.01826 291
52.03837 261
52.05848 304
52.0786 309
52.09871 303
52.11883 297
52.13894 316
52.15905 289
52.17917 276
52.19928 318
52.21939 300
52.23951 284
52.25962 307
52.27974 338
52.29985 315
52.31996 296
52.34008 284
52.36019 292
52.3803 293
52.40042 294
52.42053 290
52.44064 291
52.46076 327
52.48087 303
52.50099 317
52.5211 326
52.54121 303
52.56133 287
52.58144 323
52.60155 292
52.62167 339
52.64178 314
52.6619 307
52.68201 287
52.70212 315
52.72224 288
52.74235 263
52.76246 326
52.78258 301
52.80269 324
52.8228 300
52.84292 286
52.86303 309
52.88315 293
52.90326 328
52.92337 352
52.94349 347
52.9636 312
52.98371 344
53.00383 329
53.02394 356
53.04406 338
53.06417 339
53.08428 345
53.1044 331
53.12451 340
53.14462 329
53.16474 322
53.18485 354
53.20497 353
53.22508 349
53.24519 382
53.26531 339
53.28542 383
53.30553 367
53.32565 358
53.34576 363
53.36587 319
53.38599 374
53.4061 381
53.42622 377
53.44633 386
53.46644 390
53.48656 363
53.50667 380
53.52678 378
53.5469 337
53.56701 354
53.58713 382
53.60724 343
53.62735 394
53.64747 343
53.66758 370
53.68769 365
53.70781 358
53.72792 356
53.74804 350
53.76815 401
53.78826 361
53.80838 381
53.82849 372
53.8486 336
53.86872 364
53.88883 350
53.90894 342
53.92906 344
53.94917 395
53.96929 330
53.9894 376
54.00951 371
54.02963 353
54.04974 389
54.06985 327
54.08997 394
54.11008 334
54.1302 372
54.15031 365
54.17042 333
54.19054 335
54.21065 365
54.23076 400
54.25088 347
54.27099 370
54.29111 374
54.31122 376
54.33133 393
54.35145 395
54.37156 351
54.39167 377
54.41179 380
54.4319 390
54.45201 400
54.47213 371
54.49224 412
54.51236 412
54.53247 370
54.55258 368
54.5727 393
54.59281 418
54.61292 427
54.63304 508
54.65315 448
54.67327 527
54.69338 530
54.71349 611
54.73361 658
54.75372 733
54.77383 843
54.79395 887
54.81406 848
54.83417 813
54.85429 779
54.8744 720
54.89452 658
54.91463 600
54.93474 643
54.95486 597
54.97497 635
54.99508 600
55.0152 512
55.03531 496
55.05543 451
55.07554 391
55.09565 409
55.11577 414
55.13588 417
55.15599 442
55.17611 473
55.19622 542
55.21634 499
55.23645 560
55.25656 626
55.27668 579
55.29679 589
55.3169 510
55.33702 499
55.35713 489
55.37724 472
55.39736 469
55.41747 455
55.43759 416
55.4577 411
55.47781 423
55.49793 381
55.51804 398
55.53815 304
55.55827 342
55.57838 361
55.5985 337
55.61861 318
55.63872 336
55.65884 378
55.67895 392
55.69906 351
55.71918 333
55.73929 327
55.75941 310
55.77952 354
55.79963 322
55.81975 330
55.83986 361
55.85997 298
55.88009 314
55.9002 277
55.92031 310
55.94043 318
55.96054 334
55.98066 335
56.00077 324
56.02088 318
56.041 316
56.06111 317
56.08122 323
56.10134 308
56.12145 308
56.14157 277
56.16168 326
56.18179 291
56.20191 308
56.22202 316
56.24213 324
56.26225 342
56.28236 292
56.30248 334
56.32259 320
56.3427 327
56.36282 282
56.38293 308
56.40304 284
56.42316 338
56.44327 307
56.46338 313
56.4835 319
56.50361 321
56.52373 339
56.54384 331
56.56395 281
56.58407 302
56.60418 323
56.62429 313
56.64441 307
56.66452 300
56.68464 303
56.70475 323
56.72486 332
56.74498 314
56.76509 335
56.7852 311
56.80532 294
56.82543 325
56.84554 296
56.86566 290
56.88577 330
56.90589 336
56.926 304
56.94611 288
56.96623 312
56.98634 299
57.00645 292
57.02657 348
57.04668 308
57.0668 295
57.08691 325
57.10702 353
57.12714 344
57.14725 320
57.16736 334
57.18748 300
57.20759 322
57.22771 357
57.24782 346
57.26793 346
57.28805 331
57.30816 330
57.32827 316
57.34839 303
57.3685 300
57.38861 307
57.40873 307
57.42884 324
57.44896 304
57.46907 282
57.48918 324
57.5093 328
57.52941 321
57.54952 325
57.56964 319
57.58975 312
57.60987 305
57.62998 289
57.65009 300
57.67021 311
57.69032 322
57.71043 307
57.73055 309
57.75066 300
57.77078 307
57.79089 338
57.811 315
57.83112 291
57.85123 301
57.87134 342
57.89146 303
57.91157 310
57.93168 303
57.9518 278
57.97191 293
57.99203 354
58.01214 303
58.03225 309
58.05237 287
58.07248 313
58.09259 294
58.11271 285
58.13282 291
58.15294 297
58.17305 266
58.19316 280
58.21328 326
58.23339 342
58.2535 266
58.27362 307
58.29373 326
58.31385 281
58.33396 282
58.35407 301
58.37419 317
58.3943 315
58.41441 330
58.43453 329
58.45464 262
58.47475 316
58.49487 313
58.51498 300
58.5351 326
58.55521 283
58.57532 295
58.59544 295
58.61555 340
58.63566 300
58.65578 275
58.67589 309
58.69601 312
58.71612 280
58.73623 307
58.75635 324
58.77646 320
58.79657 291
58.81669 317
58.8368 288
58.85691 323
58.87703 324
58.89714 302
58.91726 309
58.93737 318
58.95748 299
58.9776 279
58.99771 309
59.01782 294
59.03794 315
59.05805 301
59.07817 335
59.09828 338
59.11839 304
59.13851 336
59.15862 352
59.17873 323
59.19885 326
59.21896 321
59.23908 337
59.25919 331
59.2793 351
59.29942 373
59.31953 340
59.33964 337
59.35976 341
59.37987 366
59.39998 347
59.4201 363
59.44021 352
59.46033 358
59.48044 366
59.50055 370
59.52067 347
59.54078 426
59.56089 400
59.58101 392
59.60112 408
59.62124 428
59.64135 471
59.66146 479
59.68158 505
59.70169 542
59.7218 628
59.74192 681
59.76203 770
59.78215 872
59.80226 973
59.82237 1172
59.84249 1291
59.8626 1372
59.88271 1504
59.90283 1467
59.92294 1385
59.94305 1189
59.96317 980
59.98328 946
60.0034 959
60.02351 954
60.04362 948
60.06374 854
60.08385 791
60.10396 686
60.12408 563
60.14419 491
60.16431 379
60.18442 390
60.20453 362
60.22465 353
60.24476 371
60.26487 327
60.28499 323
60.3051 336
60.32522 336
60.34533 344
60.36544 330
60.38556 343
60.40567 290
60.42578 369
60.4459 307
60.46601 337
60.48612 300
60.50624 323
60.52635 332
60.54647 310
60.56658 270
60.58669 307
60.60681 309
60.62692 323
60.64703 308
60.66715 339
60.68726 327
60.70738 325
60.72749 327
60.7476 305
60.76772 306
60.78783 317
60.80794 292
60.82806 310
60.84817 306
60.86828 302
60.8884 312
60.90851 327
60.92863 309
60.94874 323
60.96885 297
60.98897 305
61.00908 308
61.02919 334
61.04931 329
61.06942 329
61.08954 310
61.10965 309
61.12976 316
61.14988 336
61.16999 319
61.1901 347
61.21022 327
61.23033 328
61.25045 338
61.27056 324
61.29067 319
61.31079 358
61.3309 322
61.35101 357
61.37113 363
61.39124 319
61.41135 363
61.43147 363
61.45158 359
61.4717 311
61.49181 340
61.51192 316
61.53204 355
61.55215 367
61.57226 347
61.59238 371
61.61249 370
61.63261 351
61.65272 383
61.67283 366
61.69295 350
61.71306 365
61.73317 361
61.75329 389
61.7734 377
61.79352 355
61.81363 370
61.83374 382
61.85386 374
61.87397 382
61.89408 413
61.9142 409
61.93431 415
61.95442 359
61.97454 395
61.99465 401
62.01477 416
62.03488 384
62.05499 341
62.07511 401
62.09522 428
62.11533 403
62.13545 405
62.15556 393
62.17568 417
62.19579 362
62.2159 403
62.23602 402
62.25613 347
62.27624 389
62.29636 350
62.31647 378
62.33659 370
62.3567 370
62.37681 333
62.39693 341
62.41704 348
62.43715 373
62.45727 355
62.47738 332
62.49749 359
62.51761 326
62.53772 323
62.55784 332
62.57795 347
62.59806 324
62.61818 322
62.63829 348
62.6584 331
62.67852 315
62.69863 309
62.71875 322
62.73886 323
62.75897 315
62.77909 367
62.7992 356
62.81931 332
62.83943 352
62.85954 315
62.87965 333
62.89977 314
62.91988 345
62.94 299
62.96011 325
62.98022 336
63.00034 338
63.02045 310
63.04056 309
63.06068 303
63.08079 323
63.10091 340
63.12102 301
63.14113 334
63.16125 338
63.18136 324
63.20147 329
63.22159 335
63.2417 306
63.26182 318
63.28193 320
63.30204 320
63.32216 320
63.34227 324
63.36238 300
63.3825 314
63.40261 323
63.42272 308
63.44284 342
63.46295 317
63.48307 316
63.50318 304
63.52329 327
63.54341 317
63.56352 344
63.58363 325
63.60375 340
63.62386 325
63.64398 316
63.66409 331
63.6842 341
63.70432 353
63.72443 366
63.74454 313
63.76466 336
63.78477 360
63.80489 365
63.825 407
63.84511 411
63.86523 415
63.88534 470
63.90545 524
63.92557 479
63.94568 506
63.96579 568
63.98591 538
64.00602 503
64.02614 464
64.04625 411
64.06636 437
64.08648 410
64.10659 445
64.1267 415
64.14682 423
64.16693 409
64.18705 425
64.20716 359
64.22727 342
64.24739 338
64.2675 365
64.28761 330
64.30773 335
64.32784 342
64.34796 275
64.36807 297
64.38818 358
64.4083 312
64.42841 318
64.44852 321
64.46864 287
64.48875 305
64.50886 288
64.52898 269
64.54909 279
64.56921 333
64.58932 304
64.60943 290
64.62955 342
64.64966 281
64.66977 291
64.68989 327
64.71 307
64.73012 292
64.75023 285
64.77034 294
64.79046 290
64.81057 275
64.83068 294
64.8508 297
64.87091 288
64.89102 313
64.91114 300
64.93125 299
64.95137 290
64.97148 300
64.99159 278
65.01171 286
65.03182 303
65.05193 301
65.07205 307
65.09216 275
65.11228 296
65.13239 308
65.1525 298
65.17262 269
65.19273 305
65.21284 303
65.23296 307
65.25307 303
65.27319 309
65.2933 277
65.31341 291
65.33353 342
65.35364 309
65.37375 305
65.39387 292
65.41398 287
65.43409 287
65.45421 321
65.47432 280
65.49444 305
65.51455 297
65.53466 276
65.55478 307
65.57489 299
65.595 302
65.61512 306
65.63523 313
65.65535 344
65.67546 354
65.69557 317
65.71569 342
65.7358 309
65.75591 341
65.77603 329
65.79614 323
65.81626 319
65.83637 296
65.85648 342
65.8766 309
65.89671 312
65.91682 334
65.93694 320
65.95705 282
65.97716 308
65.99728 288
66.01739 289
66.03751 303
66.05762 310
66.07773 266
66.09785 308
66.11796 288
66.13807 300
66.15819 321
66.1783 307
66.19842 317
66.21853 287
66.23864 278
66.25876 323
66.27887 300
66.29898 334
66.3191 294
66.33921 295
66.35933 293
66.37944 291
66.39955 309
66.41967 270
66.43978 314
66.45989 314
66.48001 297
66.50012 296
66.52023 314
66.54035 284
66.56046 295
66.58058 293
66.60069 296
66.6208 271
66.64092 272
66.66103 305
66.68114 282
66.70126 311
66.72137 282
66.74149 291
66.7616 286
66.78171 285
66.80183 307
66.82194 297
66.84205 293
66.86217 286
66.88228 290
66.90239 309
66.92251 286
66.94262 304
66.96274 306
66.98285 303
67.00296 308
67.02308 340
67.04319 300
67.0633 300
67.08342 298
67.10353 292
67.12365 280
67.14376 308
67.16387 332
67.18399 296
67.2041 302
67.22421 328
67.24433 317
67.26444 342
67.28456 307
67.30467 343
67.32478 331
67.3449 342
67.36501 365
67.38512 362
67.40524 383
67.42535 370
67.44546 390
67.46558 447
67.48569 493
67.50581 483
67.52592 501
67.54603 606
67.56615 610
67.58626 701
67.60637 851
67.62649 902
67.6466 923
67.66672 1020
67.68683 958
67.70694 899
67.72706 873
67.74717 729
67.76728 645
67.7874 740
67.80751 720
67.82763 763
67.84774 763
67.86785 792
67.88797 831
67.90808 843
67.92819 753
67.94831 788
67.96842 787
67.98853 938
68.00865 945
68.02876 1162
68.04888 1210
68.06899 1224
68.0891 1233
68.10922 1240
68.12933 1171
68.14944 1090
68.16956 1050
68.18967 1064
68.20979 1107
68.2299 1189
68.25001 1216
68.27013 1134
68.29024 1096
68.31035 912
68.33047 822
68.35058 723
68.3707 672
68.39081 596
68.41092 591
68.43104 597
68.45115 599
68.47126 528
68.49138 483
68.51149 445
68.5316 428
68.55172 366
68.57183 349
68.59195 326
68.61206 318
68.63217 345
68.65229 311
68.6724 334
68.69251 332
68.71263 322
68.73274 314
68.75286 310
68.77297 304
68.79308 276
68.8132 332
68.83331 283
68.85342 323
68.87354 311
68.89365 299
68.91376 313
68.93388 302
68.95399 305
68.97411 322
68.99422 310
69.01433 327
69.03445 289
69.05456 303
69.07467 281
69.09479 277
69.1149 307
69.13502 280
69.15513 298
69.17524 304
69.19536 256
69.21547 305
69.23558 260
69.2557 323
69.27581 266
69.29593 315
69.31604 291
69.33615 249
69.35627 312
69.37638 327
69.39649 288
69.41661 331
69.43672 307
69.45683 329
69.47695 279
69.49706 288
69.51718 313
69.53729 249
69.5574 297
69.57752 306
69.59763 297
69.61774 279
69.63786 280
69.65797 273
69.67809 303
69.6982 275
69.71831 297
69.73843 310
69.75854 300
69.77865 306
69.79877 276
69.81888 256
69.839 245
69.85911 300
69.87922 281
69.89934 277
69.91945 322
69.93956 291
69.95968 261
69.97979 295
69.9999 246
70.02002 293
70.04013 286
70.06025 303
70.08036 277
70.10047 309
70.12059 290
70.1407 298
70.16081 281
70.18093 301
70.20104 287
70.22116 308
70.24127 287
70.26138 283
70.2815 269
70.30161 286
70.32172 297
70.34184 266
70.36195 266
70.38207 276
70.40218 270
70.42229 296
70.44241 278
70.46252 279
70.48263 272
70.50275 268
70.52286 276
70.54297 253
70.56309 273
70.5832 301
70.60332 287
70.62343 276
70.64354 312
70.66366 271
70.68377 278
70.70388 296
70.724 311
70.74411 262
70.76423 271
70.78434 275
70.80445 297
70.82457 279
70.84468 289
70.86479 263
70.88491 273
70.90502 270
70.92513 276
70.94525 283
70.96536 285
70.98548 269
71.00559 248
71.0257 280
71.04582 265
71.06593 271
71.08604 258
71.10616 269
71.12627 270
71.14639 288
71.1665 265
71.18661 294
71.20673 254
71.22684 282
71.24695 276
71.26707 303
71.28718 279
71.3073 264
71.32741 269
71.34752 315
71.36764 270
71.38775 275
71.40786 274
71.42798 317
71.44809 268
71.4682 299
71.48832 248
71.50843 319
71.52855 278
71.54866 292
71.56877 273
71.58889 274
71.609 314
71.62911 290
71.64923 285
71.66934 275
71.68946 272
71.70957 295
71.72968 295
71.7498 295
71.76991 270
71.79002 296
71.81014 281
71.83025 278
71.85037 294
71.87048 278
71.89059 294
71.91071 288
71.93082 280
71.95093 281
71.97105 290
71.99116 275
72.01127 300
72.03139 278
72.0515 281
72.07162 275
72.09173 322
72.11184 256
72.13196 299
72.15207 288
72.17218 254
72.1923 275
72.21241 269
72.23253 280
72.25264 268
72.27275 306
72.29287 282
72.31298 269
72.33309 293
72.35321 289
72.37332 299
72.39344 283
72.41355 283
72.43366 299
72.45378 290
72.47389 295
72.494 284
72.51412 312
72.53423 274
72.55434 285
72.57446 286
72.59457 279
72.61469 278
72.6348 293
72.65491 291
72.67503 272
72.69514 288
72.71525 333
72.73537 318
72.75548 269
72.7756 297
72.79571 272
72.81582 298
72.83594 304
72.85605 290
72.87616 310
72.89628 295
72.91639 325
72.9365 304
72.95662 297
72.97673 281
72.99685 307
73.01696 303
73.03707 314
73.05719 281
73.0773 292
73.09741 296
73.11753 322
73.13764 348
73.15776 340
73.17787 341
73.19798 342
73.2181 346
73.23821 370
73.25832 391
73.27844 430
73.29855 415
73.31867 423
73.33878 452
73.35889 517
73.37901 543
73.39912 525
73.41923 550
73.43935 512
73.45946 479
73.47957 417
73.49969 387
73.5198 414
73.53992 384
73.56003 413
73.58014 424
73.60026 393
73.62037 439
73.64048 395
73.6606 403
73.68071 348
73.70083 332
73.72094 350
73.74105 325
73.76117 303
73.78128 328
73.80139 289
73.82151 321
73.84162 273
73.86174 307
73.88185 306
73.90196 309
73.92208 301
73.94219 280
73.9623 280
73.98242 299
74.00253 290
74.02264 305
74.04276 267
74.06287 298
74.08299 271
74.1031 258
74.12321 292
74.14333 274
74.16344 293
74.18355 301
74.20367 279
74.22378 289
74.2439 283
74.26401 275
74.28412 303
74.30424 256
74.32435 242
74.34446 266
74.36458 300
74.38469 312
74.40481 280
74.42492 282
74.44503 273
74.46515 293
74.48526 275
74.50537 306
74.52549 272
74.5456 287
74.56571 318
74.58583 284
74.60594 254
74.62606 280
74.64617 288
74.66628 279
74.6864 266
74.70651 304
74.72662 271
74.74674 282
74.76685 300
74.78697 310
74.80708 281
74.82719 290
74.84731 295
74.86742 288
74.88753 280
74.90765 288
74.92776 295
74.94787 298
74.96799 272
74.9881 295
75.00822 277
