3.00117 21024
3.02128 20759
3.0414 20523
3.06151 19389
3.08162 19551
3.10174 18515
3.12185 18132
3.14197 17729
3.16208 16923
3.18219 17046
3.20231 16124
3.22242 16014
3.24253 15505
3.26265 14817
3.28276 14738
3.30288 13766
3.32299 13511
3.3431 13180
3.36322 12625
3.38333 12393
3.40344 11856
3.42356 11613
3.44367 11100
3.46379 10605
3.4839 10546
3.50401 9941
3.52413 9712
3.54424 9448
3.56435 9104
3.58447 8738
3.60458 8412
3.62469 8219
3.64481 7734
3.66492 7596
3.68504 7477
3.70515 6839
3.72526 6709
3.74538 6454
3.76549 6195
3.7856 6094
3.80572 5907
3.82583 5554
3.84595 5300
3.86606 5142
3.88617 4967
3.90629 4552
3.9264 4536
3.94651 4385
3.96663 4281
3.98674 4106
4.00686 3729
4.02697 3589
4.04708 3481
4.0672 3276
4.08731 3246
4.10742 2899
4.12754 2921
4.14765 2874
4.16776 2821
4.18788 2699
4.20799 2520
4.22811 2471
4.24822 2285
4.26833 2282
4.28845 2287
4.30856 2012
4.32867 2023
4.34879 2006
4.3689 1925
4.38902 1952
4.40913 1834
4.42924 1833
4.44936 1802
4.46947 1731
4.48958 1733
4.5097 1634
4.52981 1650
4.54992 1559
4.57004 1533
4.59015 1545
4.61027 1478
4.63038 1390
4.65049 1447
4.67061 1370
4.69072 1365
4.71083 1387
4.73095 1274
4.75106 1332
4.77118 1260
4.79129 1174
4.8114 1152
4.83152 1121
4.85163 1117
4.87174 1075
4.89186 1130
4.91197 1034
4.93209 1048
4.9522 1057
4.97231 982
4.99243 1026
5.01254 966
5.03265 1003
5.05277 1011
5.07288 903
5.09299 914
5.11311 914
5.13322 822
5.15334 925
5.17345 845
5.19356 812
5.21368 846
5.23379 802
5.2539 798
5.27402 804
5.29413 789
5.31425 790
5.33436 714
5.35447 726
5.37459 739
5.3947 704
5.41481 760
5.43493 718
5.45504 691
5.47516 746
5.49527 659
5.51538 617
5.5355 693
5.55561 613
5.57572 619
5.59584 658
5.61595 610
5.63606 614
5.65618 604
5.67629 634
5.69641 541
5.71652 596
5.73663 563
5.75675 588
5.77686 571
5.79697 508
5.81709 567
5.8372 547
5.85732 530
5.87743 556
5.89754 505
5.91766 578
5.93777 505
5.95788 525
5.978 550
5.99811 548
6.01823 500
6.03834 509
6.05845 493
6.07857 487
6.09868 482
6.11879 537
6.13891 513
6.15902 502
6.17913 495
6.19925 505
6.21936 490
6.23948 496
6.25959 496
6.2797 484
6.29982 505
6.31993 480
6.34004 481
6.36016 507
6.38027 460
6.40039 493
6.4205 458
6.44061 468
6.46073 477
6.48084 516
6.50095 500
6.52107 449
6.54118 447
6.56129 515
6.58141 438
6.60152 438
6.62164 489
6.64175 485
6.66186 423
6.68198 466
6.70209 431
6.7222 458
6.74232 422
6.76243 435
6.78255 481
6.80266 429
6.82277 426
6.84289 440
6.863 465
6.88311 457
6.90323 485
6.92334 459
6.94346 468
6.96357 462
6.98368 428
7.0038 503
7.02391 456
7.04402 426
7.06414 457
7.08425 439
7.10436 437
7.12448 450
7.14459 457
7.16471 460
7.18482 413
7.20493 439
7.22505 425
7.24516 425
7.26527 427
7.28539 474
7.3055 454
7.32562 468
7.34573 454
7.36584 455
7.38596 428
7.40607 471
7.42618 425
7.4463 440
7.46641 428
7.48653 408
7.50664 381
7.52675 443
7.54687 479
7.56698 414
7.58709 408
7.60721 454
7.62732 414
7.64743 449
7.66755 432
7.68766 407
7.70778 412
7.72789 381
7.748 431
7.76812 405
7.78823 451
7.80834 436
7.82846 385
7.84857 412
7.86869 438
7.8888 479
7.90891 422
7.92903 443
7.94914 431
7.96925 396
7.98937 420
8.00948 494
8.0296 447
8.04971 400
8.06982 435
8.08994 432
8.11005 399
8.13016 446
8.15028 440
8.17039 422
8.1905 407
8.21062 460
8.23073 454
8.25085 435
8.27096 443
8.29107 437
8.31119 435
8.3313 363
8.35141 423
8.37153 444
8.39164 474
8.41176 422
8.43187 425
8.45198 391
8.4721 448
8.49221 379
8.51232 415
8.53244 457
8.55255 430
8.57266 422
8.59278 445
8.61289 431
8.63301 439
8.65312 431
8.67323 435
8.69335 433
8.71346 433
8.73357 451
8.75369 468
8.7738 452
8.79392 429
8.81403 427
8.83414 443
8.85426 460
8.87437 422
8.89448 406
8.9146 458
8.93471 471
8.95483 424
8.97494 449
8.99505 421
9.01517 439
9.03528 424
9.05539 430
9.07551 443
9.09562 420
9.11573 440
9.13585 436
9.15596 475
9.17608 417
9.19619 428
9.2163 389
9.23642 406
9.25653 437
9.27664 426
9.29676 401
9.31687 483
9.33699 441
9.3571 463
9.37721 474
9.39733 434
9.41744 411
9.43755 436
9.45767 443
9.47778 398
9.4979 421
9.51801 384
9.53812 408
9.55824 441
9.57835 440
9.59846 440
9.61858 435
9.63869 437
9.6588 425
9.67892 452
9.69903 451
9.71915 428
9.73926 421
9.75937 432
9.77949 415
9.7996 480
9.81971 381
9.83983 430
9.85994 419
9.88006 443
9.90017 444
9.92028 414
9.9404 416
9.96051 431
9.98062 423
10.00074 444
10.02085 403
10.04097 445
10.06108 397
10.08119 421
10.10131 421
10.12142 435
10.14153 469
10.16165 429
10.18176 418
10.20187 431
10.22199 468
10.2421 429
10.26222 453
10.28233 407
10.30244 464
10.32256 472
10.34267 433
10.36278 441
10.3829 414
10.40301 416
10.42313 421
10.44324 465
10.46335 422
10.48347 440
10.50358 396
10.52369 442
10.54381 431
10.56392 448
10.58403 379
10.60415 457
10.62426 391
10.64438 398
10.66449 426
10.6846 430
10.70472 413
10.72483 431
10.74494 444
10.76506 459
10.78517 442
10.80529 458
10.8254 421
10.84551 418
10.86563 435
10.88574 415
10.90585 443
10.92597 400
10.94608 447
10.9662 449
10.98631 426
11.00642 427
11.02654 478
11.04665 467
11.06676 426
11.08688 403
11.10699 467
11.1271 472
11.14722 449
11.16733 433
11.18745 453
11.20756 487
11.22767 476
11.24779 487
11.2679 439
11.28801 458
11.30813 438
11.32824 462
11.34836 494
11.36847 443
11.38858 476
11.4087 469
11.42881 494
11.44892 494
11.46904 484
11.48915 481
11.50927 474
11.52938 462
11.54949 469
11.56961 556
11.58972 489
11.60983 502
11.62995 499
11.65006 528
11.67017 487
11.69029 531
11.7104 537
11.73052 560
11.75063 500
11.77074 521
11.79086 513
11.81097 525
11.83108 539
11.8512 608
11.87131 578
11.89143 582
11.91154 565
11.93165 634
11.95177 641
11.97188 670
11.99199 664
12.01211 646
12.03222 727
12.05234 697
12.07245 738
12.09256 761
12.11268 810
12.13279 825
12.1529 836
12.17302 899
12.19313 929
12.21324 922
12.23336 1014
12.25347 1000
12.27359 1005
12.2937 1035
12.31381 973
12.33393 1089
12.35404 1021
12.37415 992
12.39427 989
12.41438 893
12.4345 845
12.45461 867
12.47472 883
12.49484 770
12.51495 735
12.53506 694
12.55518 678
12.57529 648
12.5954 652
12.61552 663
12.63563 631
12.65575 560
12.67586 571
12.69597 570
12.71609 516
12.7362 522
12.75631 523
12.77643 544
12.79654 525
12.81666 493
12.83677 475
12.85688 463
12.877 496
12.89711 466
12.91722 521
12.93734 447
12.95745 468
12.97757 440
12.99768 467
13.01779 458
13.03791 408
13.05802 454
13.07813 443
13.09825 400
13.11836 423
13.13847 416
13.15859 387
13.1787 386
13.19882 442
13.21893 418
13.23904 421
13.25916 439
13.27927 387
13.29938 431
13.3195 396
13.33961 412
13.35973 423
13.37984 431
13.39995 430
13.42007 430
13.44018 384
13.46029 390
13.48041 387
13.50052 406
13.52064 456
13.54075 447
13.56086 433
13.58098 389
13.60109 448
13.6212 404
13.64132 399
13.66143 355
13.68154 395
13.70166 455
13.72177 405
13.74189 417
13.762 383
13.78211 376
13.80223 400
13.82234 416
13.84245 421
13.86257 401
13.88268 408
13.9028 420
13.92291 459
13.94302 395
13.96314 409
13.98325 392
14.00336 410
14.02348 436
14.04359 407
14.06371 379
14.08382 405
14.10393 433
14.12405 423
14.14416 382
14.16427 400
14.18439 408
14.2045 435
14.22461 382
14.24473 399
14.26484 402
14.28496 405
14.30507 417
14.32518 388
14.3453 434
14.36541 390
14.38552 409
14.40564 387
14.42575 392
14.44587 396
14.46598 371
14.48609 385
14.50621 376
14.52632 464
14.54643 387
14.56655 420
14.58666 342
14.60677 393
14.62689 394
14.647 406
14.66712 422
14.68723 393
14.70734 424
14.72746 388
14.74757 397
14.76768 419
14.7878 412
14.80791 405
14.82803 358
14.84814 358
14.86825 403
14.88837 384
14.90848 388
14.92859 380
14.94871 431
14.96882 383
14.98894 417
15.00905 425
15.02916 391
15.04928 404
15.06939 399
15.0895 385
15.10962 382
15.12973 435
15.14984 400
15.16996 419
15.19007 435
15.21019 390
15.2303 404
15.25041 389
15.27053 390
15.29064 399
15.31075 376
15.33087 441
15.35098 431
15.3711 378
15.39121 398
15.41132 365
15.43144 415
15.45155 418
15.47166 417
15.49178 423
15.51189 390
15.53201 412
15.55212 387
15.57223 384
15.59235 398
15.61246 379
15.63257 417
15.65269 412
15.6728 382
15.69291 428
15.71303 418
15.73314 404
15.75326 394
15.77337 402
15.79348 386
15.8136 394
15.83371 387
15.85382 375
15.87394 347
15.89405 388
15.91417 402
15.93428 437
15.95439 442
15.97451 384
15.99462 408
16.01473 389
16.03485 413
16.05496 377
16.07508 415
16.09519 370
16.1153 412
16.13542 375
16.15553 437
16.17564 404
16.19576 384
16.21587 414
16.23598 412
16.2561 424
16.27621 401
16.29633 380
16.31644 380
16.33655 381
16.35667 365
16.37678 424
16.39689 423
16.41701 374
16.43712 396
16.45724 398
16.47735 399
16.49746 422
16.51758 392
16.53769 385
16.5578 407
16.57792 411
16.59803 407
16.61814 390
16.63826 399
16.65837 386
16.67849 367
16.6986 413
16.71871 405
16.73883 404
16.75894 409
16.77905 402
16.79917 406
16.81928 388
16.8394 418
16.85951 370
16.87962 474
16.89974 436
16.91985 376
16.93996 390
16.96008 367
16.98019 397
17.00031 433
17.02042 429
17.04053 417
17.06065 412
17.08076 385
17.10087 390
17.12099 435
17.1411 406
17.16121 399
17.18133 412
17.20144 436
17.22156 414
17.24167 417
17.26178 407
17.2819 390
17.30201 399
17.32212 370
17.34224 411
17.36235 413
17.38247 361
17.40258 418
17.42269 387
17.44281 368
17.46292 405
17.48303 435
17.50315 419
17.52326 445
17.54338 416
17.56349 409
17.5836 419
17.60372 427
17.62383 418
17.64394 440
17.66406 412
17.68417 406
17.70428 436
17.7244 416
17.74451 418
17.76463 445
17.78474 435
17.80485 393
17.82497 456
17.84508 423
17.86519 442
17.88531 417
17.90542 454
17.92554 399
17.94565 418
17.96576 469
17.98588 421
18.00599 454
18.0261 410
18.04622 429
18.06633 443
18.08645 461
18.10656 500
18.12667 533
18.14679 507
18.1669 555
18.18701 590
18.20713 641
18.22724 750
18.24735 861
18.26747 764
18.28758 819
18.3077 754
18.32781 674
18.34792 639
18.36804 559
18.38815 537
18.40826 511
18.42838 435
18.44849 449
18.46861 409
18.48872 436
18.50883 416
18.52895 413
18.54906 408
18.56917 431
18.58929 401
18.6094 411
18.62951 426
18.64963 397
18.66974 387
18.68986 396
18.70997 404
18.73008 453
18.7502 447
18.77031 432
18.79042 375
18.81054 436
18.83065 458
18.85077 423
18.87088 437
18.89099 397
18.91111 394
18.93122 428
18.95133 416
18.97145 412
18.99156 403
19.01168 424
19.03179 390
19.0519 395
19.07202 386
19.09213 412
19.11224 407
19.13236 429
19.15247 459
19.17258 443
19.1927 439
19.21281 446
19.23293 440
19.25304 448
19.27315 476
19.29327 429
19.31338 417
19.33349 472
19.35361 429
19.37372 428
19.39384 446
19.41395 427
19.43406 477
19.45418 426
19.47429 478
19.4944 473
19.51452 484
19.53463 457
19.55475 507
19.57486 510
19.59497 505
19.61509 538
19.6352 483
19.65531 531
19.67543 537
19.69554 573
19.71565 624
19.73577 669
19.75588 708
19.776 742
19.79611 754
19.81622 819
19.83634 834
19.85645 915
19.87656 844
19.89668 860
19.91679 857
19.93691 839
19.95702 821
19.97713 772
19.99725 787
20.01736 795
20.03747 756
20.05759 784
20.0777 782
20.09782 757
20.11793 807
20.13804 873
20.15816 839
20.17827 863
20.19838 807
20.2185 876
20.23861 958
20.25872 897
20.27884 924
20.29895 947
20.31907 881
20.33918 895
20.35929 949
20.37941 860
20.39952 914
20.41963 942
20.43975 945
20.45986 889
20.47998 914
20.50009 954
20.5202 955
20.54032 966
20.56043 926
20.58054 966
20.60066 1012
20.62077 1024
20.64088 1114
20.661 1223
20.68111 1304
20.70123 1470
20.72134 1762
20.74145 2047
20.76157 2441
20.78168 2747
20.80179 2986
20.82191 3217
20.84202 3149
20.86214 2900
20.88225 2598
20.90236 2023
20.92248 1677
20.94259 1431
20.9627 1175
20.98282 1058
21.00293 991
21.02305 939
21.04316 942
21.06327 986
21.08339 978
21.1035 907
21.12361 912
21.14373 932
21.16384 958
21.18395 921
21.20407 972
21.22418 943
21.2443 930
21.26441 948
21.28452 970
21.30464 973
21.32475 980
21.34486 1051
21.36498 1006
21.38509 1028
21.40521 923
21.42532 946
21.44543 968
21.46555 939
21.48566 872
21.50577 906
21.52589 784
21.546 839
21.56612 829
21.58623 798
21.60634 770
21.62646 707
21.64657 740
21.66668 781
21.6868 699
21.70691 681
21.72702 739
21.74714 667
21.76725 697
21.78737 696
21.80748 705
21.82759 734
21.84771 721
21.86782 758
21.88793 665
21.90805 655
21.92816 682
21.94828 628
21.96839 613
21.9885 631
22.00862 615
22.02873 658
22.04884 665
22.06896 633
22.08907 634
22.10919 599
22.1293 629
22.14941 607
22.16953 587
22.18964 588
22.20975 605
22.22987 651
22.24998 650
22.27009 598
22.29021 567
22.31032 628
22.33044 609
22.35055 649
22.37066 612
22.39078 573
22.41089 587
22.431 627
22.45112 584
22.47123 546
22.49135 558
22.51146 573
22.53157 593
22.55169 560
22.5718 550
22.59191 549
22.61203 570
22.63214 570
22.65225 522
22.67237 583
22.69248 548
22.7126 550
22.73271 547
22.75282 526
22.77294 574
22.79305 581
22.81316 551
22.83328 548
22.85339 547
22.87351 547
22.89362 588
22.91373 550
22.93385 557
22.95396 577
22.97407 560
22.99419 496
23.0143 535
23.03442 565
23.05453 594
23.07464 514
23.09476 499
23.11487 565
23.13498 549
23.1551 537
23.17521 549
23.19532 555
23.21544 525
23.23555 539
23.25567 533
23.27578 509
23.29589 523
23.31601 512
23.33612 498
23.35623 499
23.37635 495
23.39646 483
23.41658 554
23.43669 508
23.4568 527
23.47692 508
23.49703 515
23.51714 558
23.53726 512
23.55737 533
23.57749 528
23.5976 563
23.61771 527
23.63783 555
23.65794 513
23.67805 520
23.69817 557
23.71828 549
23.73839 565
23.75851 546
23.77862 567
23.79874 550
23.81885 562
23.83896 567
23.85908 521
23.87919 539
23.8993 575
23.91942 543
23.93953 564
23.95965 533
23.97976 552
23.99987 559
24.01999 543
24.0401 609
24.06021 519
24.08033 544
24.10044 557
24.12056 577
24.14067 512
24.16078 579
24.1809 517
24.20101 561
24.22112 602
24.24124 550
24.26135 543
24.28146 537
24.30158 590
24.32169 589
24.34181 584
24.36192 581
24.38203 619
24.40215 579
24.42226 635
24.44237 696
24.46249 648
24.4826 662
24.50272 684
24.52283 688
24.54294 740
24.56306 742
24.58317 710
24.60328 738
24.6234 726
24.64351 821
24.66362 850
24.68374 822
24.70385 845
24.72397 925
24.74408 872
24.76419 962
24.78431 971
24.80442 945
24.82453 918
24.84465 975
24.86476 930
24.88488 906
24.90499 942
24.9251 964
24.94522 915
24.96533 873
24.98544 849
25.00556 775
25.02567 813
25.04579 763
25.0659 729
25.08601 760
25.10613 764
25.12624 728
25.14635 716
25.16647 728
25.18658 696
25.20669 718
25.22681 636
25.24692 660
25.26704 634
25.28715 661
25.30726 634
25.32738 616
25.34749 593
25.3676 557
25.38772 613
25.40783 564
25.42795 591
25.44806 603
25.46817 605
25.48829 589
25.5084 551
25.52851 564
25.54863 571
25.56874 547
25.58886 568
25.60897 580
25.62908 566
25.6492 561
25.66931 579
25.68942 597
25.70954 566
25.72965 615
25.74976 574
25.76988 599
25.78999 604
25.81011 642
25.83022 627
25.85033 557
25.87045 585
25.89056 556
25.91067 621
25.93079 652
25.9509 650
25.97102 626
25.99113 603
26.01124 641
26.03136 651
26.05147 677
26.07158 673
26.0917 744
26.11181 683
26.13193 726
26.15204 716
26.17215 774
26.19227 835
26.21238 796
26.23249 888
26.25261 907
26.27272 998
26.29283 1050
26.31295 1120
26.33306 1224
26.35318 1407
26.37329 1487
26.3934 1826
26.41352 2115
26.43363 2684
26.45374 3368
26.47386 4519
26.49397 5468
26.51409 7014
26.5342 8707
26.55431 10002
26.57443 11324
26.59454 12095
26.61465 11437
26.63477 10242
26.65488 9214
26.67499 7100
26.69511 5476
26.71522 3909
26.73534 2746
26.75545 2058
26.77556 1504
26.79568 1279
26.81579 1091
26.8359 974
26.85602 934
26.87613 931
26.89625 871
26.91636 845
26.93647 759
26.95659 744
26.9767 693
26.99681 682
27.01693 674
27.03704 625
27.05716 627
27.07727 600
27.09738 629
27.1175 566
27.13761 590
27.15772 551
27.17784 522
27.19795 527
27.21806 518
27.23818 553
27.25829 513
27.27841 537
27.29852 549
27.31863 542
27.33875 538
27.35886 497
27.37897 524
27.39909 478
27.4192 499
27.43932 522
27.45943 522
27.47954 507
27.49966 528
27.51977 512
27.53988 506
27.56 532
27.58011 483
27.60023 509
27.62034 456
27.64045 489
27.66057 513
27.68068 501
27.70079 492
27.72091 534
27.74102 435
27.76113 492
27.78125 477
27.80136 471
27.82148 446
27.84159 479
27.8617 468
27.88182 499
27.90193 492
27.92204 492
27.94216 470
27.96227 467
27.98239 459
28.0025 526
28.02261 485
28.04273 524
28.06284 458
28.08295 471
28.10307 465
28.12318 495
28.1433 465
28.16341 490
28.18352 451
28.20364 472
28.22375 480
28.24386 460
28.26398 456
28.28409 473
28.3042 470
28.32432 437
28.34443 436
28.36455 477
28.38466 466
28.40477 473
28.42489 457
28.445 433
28.46511 511
28.48523 457
28.50534 436
28.52546 430
28.54557 434
28.56568 455
28.5858 462
28.60591 495
28.62602 466
28.64614 468
28.66625 401
28.68636 458
28.70648 466
28.72659 461
28.74671 445
28.76682 444
28.78693 461
28.80705 457
28.82716 449
28.84727 470
28.86739 400
28.8875 454
28.90762 445
28.92773 400
28.94784 460
28.96796 431
28.98807 453
29.00818 465
29.0283 440
29.04841 480
29.06853 454
29.08864 485
29.10875 461
29.12887 463
29.14898 418
29.16909 407
29.18921 441
29.20932 439
29.22943 429
29.24955 444
29.26966 468
29.28978 443
29.30989 441
29.33 431
29.35012 428
29.37023 445
29.39034 438
29.41046 419
29.43057 438
29.45069 399
29.4708 410
29.49091 418
29.51103 426
29.53114 429
29.55125 422
29.57137 441
29.59148 441
29.6116 412
29.63171 408
29.65182 453
29.67194 427
29.69205 443
29.71216 406
29.73228 399
29.75239 414
29.7725 439
29.79262 457
29.81273 444
29.83285 439
29.85296 455
29.87307 420
29.89319 413
29.9133 449
29.93341 414
29.95353 450
29.97364 403
29.99376 435
30.01387 413
30.03398 412
30.0541 408
30.07421 404
30.09432 426
30.11444 425
30.13455 426
30.15467 427
30.17478 447
30.19489 432
30.21501 485
30.23512 439
30.25523 441
30.27535 445
30.29546 410
30.31557 421
30.33569 415
30.3558 404
30.37592 451
30.39603 467
30.41614 422
30.43626 393
30.45637 418
30.47648 428
30.4966 422
30.51671 377
30.53683 437
30.55694 407
30.57705 422
30.59717 373
30.61728 397
30.63739 422
30.65751 415
30.67762 428
30.69773 422
30.71785 400
30.73796 469
30.75808 430
30.77819 426
30.7983 433
30.81842 411
30.83853 397
30.85864 406
30.87876 401
30.89887 421
30.91899 431
30.9391 430
30.95921 400
30.97933 411
30.99944 442
31.01955 435
31.03967 421
31.05978 412
31.0799 398
31.10001 403
31.12012 392
31.14024 455
31.16035 454
31.18046 430
31.20058 390
31.22069 438
31.2408 422
31.26092 442
31.28103 419
31.30115 443
31.32126 421
31.34137 390
31.36149 373
31.3816 421
31.40171 418
31.42183 381
31.44194 422
31.46206 390
31.48217 430
31.50228 370
31.5224 428
31.54251 421
31.56262 384
31.58274 407
31.60285 395
31.62297 453
31.64308 402
31.66319 424
31.68331 410
31.70342 391
31.72353 419
31.74365 373
31.76376 417
31.78387 401
31.80399 436
31.8241 431
31.84422 413
31.86433 394
31.88444 426
31.90456 411
31.92467 424
31.94478 455
31.9649 387
31.98501 420
32.00513 440
32.02524 418
32.04535 421
32.06547 400
32.08558 447
32.10569 396
32.12581 403
32.14592 479
32.16604 410
32.18615 433
32.20626 412
32.22638 410
32.24649 415
32.2666 502
32.28672 428
32.30683 428
32.32694 455
32.34706 453
32.36717 434
32.38729 421
32.4074 449
32.42751 458
32.44763 481
32.46774 464
32.48785 531
32.50797 475
32.52808 432
32.5482 500
32.56831 442
32.58842 498
32.60854 468
32.62865 464
32.64876 456
32.66888 427
32.68899 426
32.7091 434
32.72922 442
32.74933 446
32.76945 421
32.78956 436
32.80967 427
32.82979 445
32.8499 425
32.87001 455
32.89013 437
32.91024 438
32.93036 474
32.95047 464
32.97058 443
32.9907 467
33.01081 424
33.03092 456
33.05104 489
33.07115 423
33.09127 525
33.11138 483
33.13149 485
33.15161 423
33.17172 468
33.19183 471
33.21195 485
33.23206 445
33.25217 508
33.27229 478
33.2924 455
33.31252 500
33.33263 463
33.35274 522
33.37286 534
33.39297 500
33.41308 470
33.4332 494
33.45331 488
33.47343 520
33.49354 521
33.51365 519
33.53377 472
33.55388 486
33.57399 480
33.59411 503
33.61422 417
33.63434 493
33.65445 496
33.67456 501
33.69468 479
33.71479 530
33.7349 449
33.75502 488
33.77513 487
33.79524 449
33.81536 472
33.83547 477
33.85559 448
33.8757 470
33.89581 476
33.91593 444
33.93604 455
33.95615 418
33.97627 429
33.99638 413
34.0165 431
34.03661 421
34.05672 458
34.07684 435
34.09695 431
34.11706 410
34.13718 446
34.15729 442
34.17741 438
34.19752 467
34.21763 452
34.23775 419
34.25786 449
34.27797 418
34.29809 435
34.3182 441
34.33831 449
34.35843 442
34.37854 489
34.39866 479
34.41877 429
34.43888 427
34.459 445
34.47911 465
34.49922 464
34.51934 511
34.53945 457
34.55957 494
34.57968 471
34.59979 476
34.61991 520
34.64002 541
34.66013 507
34.68025 550
34.70036 577
34.72047 569
34.74059 579
34.7607 588
34.78082 612
34.80093 652
34.82104 645
34.84116 674
34.86127 699
34.88138 704
34.9015 642
34.92161 650
34.94173 694
34.96184 642
34.98195 671
35.00207 700
35.02218 735
35.04229 635
35.06241 628
35.08252 655
35.10264 637
35.12275 692
35.14286 614
35.16298 597
35.18309 632
35.2032 649
35.22332 650
35.24343 686
35.26354 622
35.28366 676
35.30377 643
35.32389 624
35.344 672
35.36411 645
35.38423 612
35.40434 642
35.42445 642
35.44457 618
35.46468 599
35.4848 619
35.50491 576
35.52502 631
35.54514 572
35.56525 597
35.58536 608
35.60548 563
35.62559 597
35.64571 623
35.66582 637
35.68593 628
35.70605 635
35.72616 643
35.74627 682
35.76639 636
35.7865 646
35.80661 669
35.82673 651
35.84684 638
35.86696 669
35.88707 702
35.90718 652
35.9273 720
35.94741 668
35.96752 654
35.98764 619
36.00775 600
36.02787 593
36.04798 630
36.06809 583
36.08821 603
36.10832 580
36.12843 619
36.14855 545
36.16866 611
36.18878 562
36.20889 635
36.229 630
36.24912 642
36.26923 651
36.28934 655
36.30946 723
36.32957 763
36.34968 791
36.3698 881
36.38991 960
36.41003 1055
36.43014 1114
36.45025 1212
36.47037 1218
36.49048 1208
36.51059 1254
36.53071 1287
36.55082 1079
36.57094 1067
36.59105 999
36.61116 862
36.63128 803
36.65139 784
36.6715 701
36.69162 661
36.71173 660
36.73184 608
36.75196 661
36.77207 574
36.79219 595
36.8123 602
36.83241 615
36.85253 653
36.87264 651
36.89275 616
36.91287 622
36.93298 677
36.9531 641
36.97321 664
36.99332 600
37.01344 641
37.03355 688
37.05366 607
37.07378 635
37.09389 623
37.11401 637
37.13412 613
37.15423 581
37.17435 593
37.19446 630
37.21457 528
37.23469 599
37.2548 557
37.27491 585
37.29503 564
37.31514 569
37.33526 556
37.35537 518
37.37548 584
37.3956 516
37.41571 568
37.43582 550
37.45594 479
37.47605 562
37.49617 542
37.51628 555
37.53639 607
37.55651 578
37.57662 609
37.59673 566
37.61685 588
37.63696 627
37.65708 643
37.67719 580
37.6973 588
37.71742 622
37.73753 559
37.75764 554
37.77776 599
37.79787 570
37.81798 542
37.8381 596
37.85821 580
37.87833 573
37.89844 528
37.91855 536
37.93867 561
37.95878 600
37.97889 544
37.99901 583
38.01912 568
38.03924 556
38.05935 603
38.07946 586
38.09958 638
38.11969 707
38.1398 692
38.15992 623
38.18003 662
38.20015 682
38.22026 694
38.24037 741
38.26049 739
38.2806 684
38.30071 727
38.32083 747
38.34094 724
38.36105 753
38.38117 721
38.40128 759
38.4214 751
38.44151 739
38.46162 725
38.48174 680
38.50185 694
38.52196 697
38.54208 620
38.56219 659
38.58231 601
38.60242 587
38.62253 593
38.64265 549
38.66276 619
38.68287 590
38.70299 602
38.7231 576
38.74321 570
38.76333 509
38.78344 563
38.80356 593
38.82367 556
38.84378 553
38.8639 566
38.88401 564
38.90412 558
38.92424 600
38.94435 591
38.96447 621
38.98458 624
39.00469 625
39.02481 625
39.04492 620
39.06503 596
39.08515 662
39.10526 658
39.12538 662
39.14549 654
39.1656 681
39.18572 671
39.20583 732
39.22594 713
39.24606 758
39.26617 767
39.28628 830
39.3064 916
39.32651 947
39.34663 1066
39.36674 1127
39.38685 1177
39.40697 1216
39.42708 1133
39.44719 1110
39.46731 1028
39.48742 975
39.50754 893
39.52765 840
39.54776 802
39.56788 727
39.58799 637
39.6081 581
39.62822 571
39.64833 515
39.66845 514
39.68856 536
39.70867 490
39.72879 517
39.7489 443
39.76901 477
39.78913 475
39.80924 511
39.82935 508
39.84947 496
39.86958 484
39.8897 512
39.90981 522
39.92992 522
39.95004 533
39.97015 500
39.99026 546
40.01038 526
40.03049 568
40.05061 621
40.07072 589
40.09083 640
40.11095 644
40.13106 677
40.15117 696
40.17129 757
40.1914 769
40.21152 826
40.23163 869
40.25174 798
40.27186 768
40.29197 814
40.31208 692
40.3322 705
40.35231 707
40.37242 624
40.39254 594
40.41265 570
40.43277 547
40.45288 506
40.47299 560
40.49311 506
40.51322 506
40.53333 527
40.55345 483
40.57356 488
40.59368 458
40.61379 516
40.6339 460
40.65402 484
40.67413 458
40.69424 469
40.71436 488
40.73447 490
40.75458 466
40.7747 498
40.79481 490
40.81493 465
40.83504 456
40.85515 488
40.87527 495
40.89538 487
40.91549 459
40.93561 468
40.95572 513
40.97584 496
40.99595 475
41.01606 478
41.03618 468
41.05629 486
41.0764 461
41.09652 456
41.11663 452
41.13675 480
41.15686 495
41.17697 448
41.19709 451
41.2172 478
41.23731 485
41.25743 496
41.27754 489
41.29765 448
41.31777 491
41.33788 449
41.358 460
41.37811 485
41.39822 477
41.41834 510
41.43845 503
41.45856 487
41.47868 513
41.49879 481
41.51891 459
41.53902 495
41.55913 511
41.57925 463
41.59936 462
41.61947 510
41.63959 490
41.6597 492
41.67982 491
41.69993 426
41.72004 442
41.74016 501
41.76027 460
41.78038 456
41.8005 479
41.82061 435
41.84072 460
41.86084 441
41.88095 412
41.90107 480
41.92118 439
41.94129 462
41.96141 435
41.98152 419
42.00163 486
42.02175 445
42.04186 433
42.06198 454
42.08209 436
42.1022 404
42.12232 444
42.14243 437
42.16254 476
42.18266 486
42.20277 506
42.22289 520
42.243 564
42.26311 610
42.28323 633
42.30334 726
42.32345 753
42.34357 848
42.36368 777
42.38379 849
42.40391 853
42.42402 867
42.44414 756
42.46425 760
42.48436 697
42.50448 660
42.52459 562
42.5447 554
42.56482 517
42.58493 497
42.60505 483
42.62516 456
42.64527 393
42.66539 433
42.6855 405
42.70561 452
42.72573 433
42.74584 398
42.76595 387
42.78607 428
42.80618 386
42.8263 382
42.84641 429
42.86652 384
42.88664 455
42.90675 423
42.92686 392
42.94698 418
42.96709 370
42.98721 382
43.00732 377
43.02743 399
43.04755 395
43.06766 377
43.08777 407
43.10789 427
43.128 357
43.14812 382
43.16823 407
43.18834 413
43.20846 381
43.22857 376
43.24868 395
43.2688 354
43.28891 419
43.30902 399
43.32914 425
43.34925 421
43.36937 388
43.38948 366
43.40959 408
43.42971 375
43.44982 390
43.46993 377
43.49005 386
43.51016 416
43.53028 388
43.55039 431
43.5705 400
43.59062 395
43.61073 414
43.63084 395
43.65096 437
43.67107 377
43.69119 394
43.7113 393
43.73141 387
43.75153 353
43.77164 382
43.79175 399
43.81187 412
43.83198 376
43.85209 404
43.87221 374
43.89232 379
43.91244 429
43.93255 380
43.95266 384
43.97278 420
43.99289 429
44.013 397
44.03312 426
44.05323 431
44.07335 453
44.09346 404
44.11357 389
44.13369 458
44.1538 436
44.17391 447
44.19403 380
44.21414 415
44.23426 411
44.25437 415
44.27448 401
44.2946 380
44.31471 405
44.33482 371
44.35494 418
44.37505 409
44.39516 411
44.41528 381
44.43539 387
44.45551 398
44.47562 410
44.49573 384
44.51585 405
44.53596 430
44.55607 377
44.57619 387
44.5963 382
44.61642 383
44.63653 436
44.65664 417
44.67676 390
44.69687 410
44.71698 433
44.7371 434
44.75721 400
44.77732 415
44.79744 413
44.81755 384
44.83767 399
44.85778 418
44.87789 413
44.89801 413
44.91812 421
44.93823 433
44.95835 399
44.97846 433
44.99858 398
45.01869 416
45.0388 440
45.05892 452
45.07903 423
45.09914 463
45.11926 432
45.13937 468
45.15949 466
45.1796 423
45.19971 492
45.21983 481
45.23994 486
45.26005 473
45.28017 506
45.30028 492
45.32039 495
45.34051 524
45.36062 503
45.38074 512
45.40085 537
45.42096 539
45.44108 538
45.46119 492
45.4813 525
45.50142 525
45.52153 533
45.54165 565
45.56176 570
45.58187 556
45.60199 593
45.6221 593
45.64221 670
45.66233 663
45.68244 688
45.70256 687
45.72267 781
45.74278 717
45.7629 745
45.78301 675
45.80312 640
45.82324 591
45.84335 617
45.86346 566
45.88358 545
45.90369 553
45.92381 465
45.94392 473
45.96403 472
45.98415 452
46.00426 473
46.02437 475
46.04449 410
46.0646 449
46.08472 430
46.10483 435
46.12494 413
46.14506 421
46.16517 409
46.18528 412
46.2054 403
46.22551 417
46.24563 438
46.26574 421
46.28585 410
46.30597 450
46.32608 442
46.34619 421
46.36631 440
46.38642 421
46.40653 395
46.42665 400
46.44676 410
46.46688 391
46.48699 420
46.5071 429
46.52722 422
46.54733 401
46.56744 399
46.58756 406
46.60767 420
46.62779 435
46.6479 396
46.66801 406
46.68813 449
46.70824 414
46.72835 443
46.74847 372
46.76858 413
46.78869 431
46.80881 407
46.82892 437
46.84904 450
46.86915 462
46.88926 405
46.90938 411
46.92949 417
46.9496 417
46.96972 425
46.98983 437
47.00995 399
47.03006 432
47.05017 396
47.07029 412
47.0904 436
47.11051 450
47.13063 388
47.15074 406
47.17086 406
47.19097 452
47.21108 458
47.2312 407
47.25131 423
47.27142 394
47.29154 410
47.31165 405
47.33176 457
47.35188 442
47.37199 427
47.39211 408
47.41222 455
47.43233 441
47.45245 409
47.47256 426
47.49267 432
47.51279 436
47.5329 429
47.55302 409
47.57313 401
47.59324 414
47.61336 448
47.63347 439
47.65358 428
47.6737 420
47.69381 438
47.71393 419
47.73404 423
47.75415 443
47.77427 420
47.79438 450
47.81449 418
47.83461 429
47.85472 455
47.87483 422
47.89495 410
47.91506 438
47.93518 416
47.95529 418
47.9754 402
47.99552 456
48.01563 364
48.03574 417
48.05586 447
48.07597 392
48.09609 395
48.1162 404
48.13631 411
48.15643 380
48.17654 399
48.19665 434
48.21677 408
48.23688 355
48.257 410
48.27711 421
48.29722 416
48.31734 407
48.33745 403
48.35756 384
48.37768 413
48.39779 428
48.4179 412
48.43802 375
48.45813 386
48.47825 385
48.49836 369
48.51847 380
48.53859 424
48.5587 409
48.57881 425
48.59893 433
48.61904 396
48.63916 360
48.65927 403
48.67938 388
48.6995 387
48.71961 412
48.73972 394
48.75984 418
48.77995 405
48.80006 410
48.82018 405
48.84029 408
48.86041 399
48.88052 415
48.90063 418
48.92075 423
48.94086 421
48.96097 426
48.98109 386
49.0012 416
49.02132 392
49.04143 414
49.06154 376
49.08166 402
49.10177 374
49.12188 405
49.142 413
49.16211 418
49.18223 415
49.20234 424
49.22245 403
49.24257 408
49.26268 444
49.28279 400
49.30291 391
49.32302 409
49.34313 451
49.36325 423
49.38336 388
49.40348 434
49.42359 429
49.4437 429
49.46382 408
49.48393 420
49.50404 398
49.52416 416
49.54427 423
49.56439 440
49.5845 408
49.60461 427
49.62473 463
49.64484 473
49.66495 446
49.68507 428
49.70518 445
49.7253 502
49.74541 493
49.76552 492
49.78564 504
49.80575 520
49.82586 547
49.84598 606
49.86609 654
49.8862 662
49.90632 705
49.92643 847
49.94655 853
49.96666 938
49.98677 1105
50.00689 1209
50.027 1382
50.04711 1521
50.06723 1544
50.08734 1525
50.10746 1443
50.12757 1244
50.14768 1140
50.1678 1092
50.18791 985
50.20802 1011
50.22814 941
50.24825 832
50.26837 692
50.28848 671
50.30859 587
50.32871 514
50.34882 498
50.36893 512
50.38905 475
50.40916 441
50.42927 455
50.44939 453
50.4695 479
50.48962 425
50.50973 429
50.52984 472
50.54996 483
50.57007 486
50.59018 473
50.6103 460
50.63041 468
50.65053 438
50.67064 439
50.69075 424
50.71087 466
50.73098 432
50.75109 421
50.77121 446
50.79132 436
50.81143 417
50.83155 377
50.85166 432
50.87178 454
50.89189 442
50.912 487
50.93212 452
50.95223 436
50.97234 415
50.99246 408
51.01257 428
51.03269 409
51.0528 448
51.07291 441
51.09303 435
51.11314 404
51.13325 404
51.15337 455
51.17348 416
51.1936 426
51.21371 408
51.23382 357
51.25394 396
51.27405 404
51.29416 397
51.31428 393
51.33439 370
51.3545 352
51.37462 384
51.39473 410
51.41485 403
51.43496 398
51.45507 379
51.47519 352
51.4953 390
51.51541 361
51.53553 426
51.55564 387
51.57576 379
51.59587 387
51.61598 392
51.6361 400
51.65621 421
51.67632 351
51.69644 344
51.71655 375
51.73667 386
51.75678 377
51.77689 374
51.79701 401
51.81712 406
51.83723 377
51.85735 360
51.87746 372
51.89757 390
51.91769 388
51.9378 399
51.95792 382
51.97803 406
51.99814 396
52.01826 395
52.03837 409
52.05848 418
52.0786 412
52.09871 389
52.11883 391
52.13894 397
52.15905 394
52.17917 422
52.19928 384
52.21939 432
52.23951 396
52.25962 407
52.27974 381
52.29985 395
52.31996 438
52.34008 368
52.36019 382
52.3803 412
52.40042 386
52.42053 370
52.44064 391
52.46076 395
52.48087 420
52.50099 395
52.5211 382
52.54121 391
52.56133 356
52.58144 409
52.60155 386
52.62167 424
52.64178 404
52.6619 411
52.68201 368
52.70212 358
52.72224 365
52.74235 390
52.76246 392
52.78258 391
52.80269 390
52.8228 403
52.84292 408
52.86303 396
52.88315 389
52.90326 400
52.92337 397
52.94349 416
52.9636 429
52.98371 410
53.00383 404
53.02394 399
53.04406 417
53.06417 459
53.08428 439
53.1044 463
53.12451 453
53.14462 399
53.16474 467
53.18485 444
53.20497 454
53.22508 444
53.24519 443
53.26531 431
53.28542 457
53.30553 486
53.32565 439
53.34576 449
53.36587 424
53.38599 430
53.4061 478
53.42622 465
53.44633 466
53.46644 466
53.48656 455
53.50667 472
53.52678 461
53.5469 510
53.56701 508
53.58713 481
53.60724 484
53.62735 484
53.64747 495
53.66758 474
53.68769 520
53.70781 500
53.72792 487
53.74804 465
53.76815 486
53.78826 467
53.80838 495
53.82849 522
53.8486 462
53.86872 438
53.88883 471
53.90894 497
53.92906 467
53.94917 450
53.96929 485
53.9894 448
54.00951 492
54.02963 467
54.04974 497
54.06985 485
54.08997 495
54.11008 490
54.1302 486
54.15031 462
54.17042 526
54.19054 513
54.21065 491
54.23076 513
54.25088 483
54.27099 525
54.29111 506
54.31122 500
54.33133 551
54.35145 544
54.37156 483
54.39167 535
54.41179 500
54.4319 477
54.45201 523
54.47213 559
54.49224 557
54.51236 572
54.53247 508
54.55258 502
54.5727 552
54.59281 552
54.61292 569
54.63304 621
54.65315 639
54.67327 648
54.69338 688
54.71349 706
54.73361 752
54.75372 754
54.77383 784
54.79395 808
54.81406 797
54.83417 850
54.85429 763
54.8744 739
54.89452 723
54.91463 671
54.93474 701
54.95486 641
54.97497 684
54.99508 608
55.0152 603
55.03531 580
55.05543 575
55.07554 612
55.09565 565
55.11577 598
55.13588 586
55.15599 558
55.17611 603
55.19622 594
55.21634 613
55.23645 643
55.25656 657
55.27668 635
55.29679 569
55.3169 581
55.33702 572
55.35713 529
55.37724 587
55.39736 589
55.41747 556
55.43759 524
55.4577 508
55.47781 482
55.49793 489
55.51804 453
55.53815 445
55.55827 470
55.57838 466
55.5985 464
55.61861 396
55.63872 495
55.65884 461
55.67895 434
55.69906 455
55.71918 391
55.73929 425
55.75941 424
55.77952 487
55.79963 459
55.81975 432
55.83986 446
55.85997 406
55.88009 401
55.9002 429
55.92031 414
55.94043 420
55.96054 418
55.98066 406
56.00077 442
56.02088 421
56.041 423
56.06111 415
56.08122 418
56.10134 423
56.12145 449
56.14157 415
56.16168 426
56.18179 445
56.20191 387
56.22202 450
56.24213 432
56.26225 384
56.28236 439
56.30248 444
56.32259 414
56.3427 410
56.36282 395
56.38293 415
56.40304 415
56.42316 435
56.44327 406
56.46338 405
56.4835 433
56.50361 444
56.52373 466
56.54384 396
56.56395 432
56.58407 412
56.60418 420
56.62429 437
56.64441 436
56.66452 421
56.68464 411
56.70475 404
56.72486 434
56.74498 405
56.76509 385
56.7852 421
56.80532 415
56.82543 457
56.84554 401
56.86566 425
56.88577 423
56.90589 399
56.926 387
56.94611 401
56.96623 418
56.98634 420
57.00645 417
57.02657 386
57.04668 407
57.0668 420
57.08691 439
57.10702 417
57.12714 410
57.14725 444
57.16736 385
57.18748 397
57.20759 407
57.22771 389
57.24782 381
57.26793 377
57.28805 421
57.30816 408
57.32827 375
57.34839 425
57.3685 403
57.38861 377
57.40873 403
57.42884 416
57.44896 362
57.46907 414
57.48918 359
57.5093 390
57.52941 381
57.54952 395
57.56964 410
57.58975 390
57.60987 353
57.62998 394
57.65009 383
57.67021 394
57.69032 424
57.71043 394
57.73055 381
57.75066 417
57.77078 399
57.79089 383
57.811 415
57.83112 407
57.85123 393
57.87134 401
57.89146 400
57.91157 410
57.93168 436
57.9518 411
57.97191 404
57.99203 427
58.01214 424
58.03225 370
58.05237 396
58.07248 379
58.09259 389
58.11271 420
58.13282 405
58.15294 395
58.17305 359
58.19316 430
58.21328 387
58.23339 363
58.2535 408
58.27362 411
58.29373 390
58.31385 410
58.33396 366
58.35407 402
58.37419 384
58.3943 353
58.41441 389
58.43453 393
58.45464 391
58.47475 395
58.49487 402
58.51498 382
58.5351 436
58.55521 404
58.57532 432
58.59544 375
58.61555 400
58.63566 372
58.65578 412
58.67589 420
58.69601 373
58.71612 397
58.73623 390
58.75635 423
58.77646 388
58.79657 414
58.81669 398
58.8368 374
58.85691 391
58.87703 388
58.89714 371
58.91726 423
58.93737 402
58.95748 400
58.9776 389
58.99771 390
59.01782 402
59.03794 385
59.05805 411
59.07817 420
59.09828 423
59.11839 378
59.13851 422
59.15862 388
59.17873 412
59.19885 447
59.21896 418
59.23908 422
59.25919 399
59.2793 436
59.29942 435
59.31953 435
59.33964 414
59.35976 402
59.37987 442
59.39998 430
59.4201 443
59.44021 462
59.46033 480
59.48044 479
59.50055 471
59.52067 446
59.54078 482
59.56089 508
59.58101 494
59.60112 536
59.62124 495
59.64135 547
59.66146 602
59.68158 593
59.70169 648
59.7218 656
59.74192 725
59.76203 744
59.78215 821
59.80226 946
59.82237 932
59.84249 988
59.8626 1051
59.88271 1092
59.90283 1081
59.92294 992
59.94305 926
59.96317 908
59.98328 831
60.0034 790
60.02351 753
60.04362 728
60.06374 668
60.08385 669
60.10396 617
60.12408 573
60.14419 518
60.16431 437
60.18442 468
60.20453 437
60.22465 411
60.24476 400
60.26487 416
60.28499 403
60.3051 432
60.32522 419
60.34533 438
60.36544 405
60.38556 431
60.40567 398
60.42578 416
60.4459 376
60.46601 423
60.48612 379
60.50624 397
60.52635 400
60.54647 372
60.56658 422
60.58669 378
60.60681 386
60.62692 377
60.64703 403
60.66715 384
60.68726 396
60.70738 373
60.72749 390
60.7476 402
60.76772 374
60.78783 373
60.80794 377
60.82806 398
60.84817 363
60.86828 436
60.8884 358
60.90851 377
60.92863 378
60.94874 391
60.96885 401
60.98897 393
61.00908 400
61.02919 387
61.04931 388
61.06942 346
61.08954 363
61.10965 411
61.12976 381
61.14988 409
61.16999 386
61.1901 372
61.21022 396
61.23033 383
61.25045 400
61.27056 392
61.29067 385
61.31079 393
61.3309 390
61.35101 414
61.37113 420
61.39124 392
61.41135 390
61.43147 377
61.45158 370
61.4717 376
61.49181 381
61.51192 462
61.53204 404
61.55215 417
61.57226 444
61.59238 418
61.61249 425
61.63261 435
61.65272 419
61.67283 405
61.69295 415
61.71306 447
61.73317 432
61.75329 439
61.7734 430
61.79352 405
61.81363 427
61.83374 464
61.85386 424
61.87397 481
61.89408 440
61.9142 456
61.93431 452
61.95442 512
61.97454 511
61.99465 519
62.01477 532
62.03488 559
62.05499 561
62.07511 531
62.09522 531
62.11533 591
62.13545 546
62.15556 593
62.17568 585
62.19579 567
62.2159 553
62.23602 564
62.25613 532
62.27624 593
62.29636 571
62.31647 582
62.33659 554
62.3567 492
62.37681 474
62.39693 462
62.41704 483
62.43715 485
62.45727 464
62.47738 461
62.49749 462
62.51761 448
62.53772 455
62.55784 467
62.57795 456
62.59806 400
62.61818 422
62.63829 417
62.6584 386
62.67852 426
62.69863 405
62.71875 410
62.73886 392
62.75897 390
62.77909 388
62.7992 372
62.81931 386
62.83943 383
62.85954 353
62.87965 379
62.89977 399
62.91988 383
62.94 396
62.96011 383
62.98022 435
63.00034 371
63.02045 413
63.04056 366
63.06068 389
63.08079 402
63.10091 395
63.12102 393
63.14113 388
63.16125 366
63.18136 381
63.20147 402
63.22159 420
63.2417 420
63.26182 452
63.28193 409
63.30204 405
63.32216 389
63.34227 395
63.36238 418
63.3825 399
63.40261 414
63.42272 420
63.44284 412
63.46295 409
63.48307 402
63.50318 426
63.52329 414
63.54341 419
63.56352 395
63.58363 431
63.60375 438
63.62386 414
63.64398 425
63.66409 456
63.6842 423
63.70432 474
63.72443 438
63.74454 467
63.76466 439
63.78477 435
63.80489 467
63.825 492
63.84511 517
63.86523 448
63.88534 495
63.90545 462
63.92557 523
63.94568 523
63.96579 521
63.98591 487
64.00602 478
64.02614 502
64.04625 490
64.06636 451
64.08648 462
64.10659 447
64.1267 464
64.14682 448
64.16693 428
64.18705 434
64.20716 426
64.22727 394
64.24739 393
64.2675 439
64.28761 375
64.30773 395
64.32784 437
64.34796 387
64.36807 372
64.38818 431
64.4083 396
64.42841 374
64.44852 390
64.46864 424
64.48875 385
64.50886 409
64.52898 390
64.54909 416
64.56921 377
64.58932 399
64.60943 382
64.62955 397
64.64966 375
64.66977 347
64.68989 364
64.71 404
64.73012 409
64.75023 400
64.77034 403
64.79046 374
64.81057 376
64.83068 352
64.8508 378
64.87091 382
64.89102 393
64.91114 374
64.93125 357
64.95137 382
64.97148 399
64.99159 375
65.01171 338
65.03182 347
65.05193 376
65.07205 422
65.09216 359
65.11228 374
65.13239 325
65.1525 363
65.17262 373
65.19273 360
65.21284 365
65.23296 354
65.25307 373
65.27319 370
65.2933 399
65.31341 360
65.33353 425
65.35364 377
65.37375 340
65.39387 356
65.41398 381
65.43409 348
65.45421 363
65.47432 381
65.49444 381
65.51455 360
65.53466 380
65.55478 363
65.57489 381
65.595 383
65.61512 374
65.63523 360
65.65535 404
65.67546 396
65.69557 383
65.71569 398
65.7358 437
65.75591 398
65.77603 395
65.79614 362
65.81626 355
65.83637 381
65.85648 387
65.8766 372
65.89671 383
65.91682 405
65.93694 407
65.95705 403
65.97716 383
65.99728 360
66.01739 366
66.03751 385
66.05762 400
66.07773 347
66.09785 313
66.11796 393
66.13807 371
66.15819 357
66.1783 383
66.19842 379
66.21853 387
66.23864 388
66.25876 369
66.27887 365
66.29898 359
66.3191 387
66.33921 363
66.35933 352
66.37944 360
66.39955 379
66.41967 360
66.43978 385
66.45989 371
66.48001 374
66.50012 392
66.52023 358
66.54035 383
66.56046 417
66.58058 387
66.60069 373
66.6208 415
66.64092 381
66.66103 428
66.68114 375
66.70126 388
66.72137 378
66.74149 386
66.7616 400
66.78171 388
66.80183 402
66.82194 370
66.84205 387
66.86217 368
66.88228 345
66.90239 385
66.92251 372
66.94262 410
66.96274 380
66.98285 373
67.00296 369
67.02308 387
67.04319 410
67.0633 394
67.08342 364
67.10353 401
67.12365 411
67.14376 375
67.16387 376
67.18399 381
67.2041 379
67.22421 424
67.24433 397
67.26444 389
67.28456 412
67.30467 434
67.32478 418
67.3449 412
67.36501 402
67.38512 453
67.40524 439
67.42535 459
67.44546 468
67.46558 471
67.48569 490
67.50581 534
67.52592 571
67.54603 584
67.56615 631
67.58626 707
67.60637 681
67.62649 729
67.6466 748
67.66672 774
67.68683 730
67.70694 720
67.72706 681
67.74717 669
67.76728 612
67.7874 596
67.80751 654
67.82763 638
67.84774 690
67.86785 724
67.88797 707
67.90808 690
67.92819 722
67.94831 735
67.96842 697
67.98853 778
68.00865 848
68.02876 881
68.04888 858
68.06899 902
68.0891 890
68.10922 915
68.12933 872
68.14944 835
68.16956 854
68.18967 812
68.20979 853
68.2299 819
68.25001 827
68.27013 837
68.29024 750
68.31035 716
68.33047 694
68.35058 630
68.3707 605
68.39081 575
68.41092 514
68.43104 536
68.45115 485
68.47126 503
68.49138 466
68.51149 438
68.5316 380
68.55172 433
68.57183 399
68.59195 417
68.61206 402
68.63217 413
68.65229 367
68.6724 397
68.69251 349
68.71263 383
68.73274 384
68.75286 394
68.77297 388
68.79308 386
68.8132 363
68.83331 377
68.85342 346
68.87354 353
68.89365 356
68.91376 344
68.93388 345
68.95399 401
68.97411 384
68.99422 407
69.01433 361
69.03445 365
69.05456 370
69.07467 371
69.09479 374
69.1149 337
69.13502 380
69.15513 389
69.17524 391
69.19536 361
69.21547 375
69.23558 366
69.2557 413
69.27581 371
69.29593 367
69.31604 325
69.33615 361
69.35627 333
69.37638 377
69.39649 347
69.41661 360
69.43672 353
69.45683 368
69.47695 348
69.49706 385
69.51718 352
69.53729 365
69.5574 335
69.57752 369
69.59763 370
69.61774 373
69.63786 341
69.65797 350
69.67809 366
69.6982 353
69.71831 360
69.73843 387
69.75854 380
69.77865 382
69.79877 380
69.81888 376
69.839 365
69.85911 357
69.87922 359
69.89934 371
69.91945 356
69.93956 333
69.95968 363
69.97979 361
69.9999 374
70.02002 371
70.04013 385
70.06025 363
70.08036 388
70.10047 337
70.12059 362
70.1407 366
70.16081 363
70.18093 351
70.20104 362
70.22116 374
70.24127 366
70.26138 338
70.2815 357
70.30161 319
70.32172 338
70.34184 344
70.36195 349
70.38207 349
70.40218 374
70.42229 335
70.44241 319
70.46252 372
70.48263 326
70.50275 334
70.52286 358
70.54297 354
70.56309 333
70.5832 344
70.60332 350
70.62343 354
70.64354 333
70.66366 333
70.68377 373
70.70388 332
70.724 334
70.74411 369
70.76423 370
70.78434 318
70.80445 323
70.82457 346
70.84468 315
70.86479 355
70.88491 335
70.90502 339
70.92513 364
70.94525 356
70.96536 337
70.98548 326
71.00559 332
71.0257 353
71.04582 327
71.06593 359
71.08604 343
71.10616 361
71.12627 355
71.14639 302
71.1665 350
71.18661 333
71.20673 310
71.22684 334
71.24695 361
71.26707 359
71.28718 306
71.3073 343
71.32741 381
71.34752 341
71.36764 386
71.38775 393
71.40786 341
71.42798 353
71.44809 358
71.4682 375
71.48832 344
71.50843 344
71.52855 317
71.54866 375
71.56877 341
71.58889 360
71.609 356
71.62911 354
71.64923 336
71.66934 333
71.68946 396
71.70957 356
71.72968 386
71.7498 397
71.76991 313
71.79002 360
71.81014 333
71.83025 331
71.85037 367
71.87048 338
71.89059 353
71.91071 386
71.93082 388
71.95093 368
71.97105 378
71.99116 374
72.01127 351
72.03139 376
72.0515 370
72.07162 352
72.09173 384
72.11184 365
72.13196 364
72.15207 357
72.17218 347
72.1923 342
72.21241 348
72.23253 381
72.25264 320
72.27275 322
72.29287 357
72.31298 341
72.33309 365
72.35321 354
72.37332 365
72.39344 385
72.41355 340
72.43366 360
72.45378 345
72.47389 359
72.494 362
72.51412 326
72.53423 338
72.55434 366
72.57446 358
72.59457 339
72.61469 339
72.6348 346
72.65491 352
72.67503 316
72.69514 339
72.71525 357
72.73537 338
72.75548 315
72.7756 330
72.79571 366
72.81582 368
72.83594 329
72.85605 361
72.87616 356
72.89628 340
72.91639 346
72.9365 357
72.95662 362
72.97673 381
72.99685 391
73.01696 348
73.03707 363
73.05719 366
73.0773 371
73.09741 373
73.11753 367
73.13764 385
73.15776 391
73.17787 400
73.19798 386
73.2181 409
73.23821 409
73.25832 430
73.27844 417
73.29855 457
73.31867 450
73.33878 446
73.35889 451
73.37901 453
73.39912 466
73.41923 445
73.43935 470
73.45946 426
73.47957 427
73.49969 419
73.5198 409
73.53992 416
73.56003 443
73.58014 419
73.60026 450
73.62037 423
73.64048 418
73.6606 377
73.68071 397
73.70083 408
73.72094 380
73.74105 388
73.76117 364
73.78128 360
73.80139 382
73.82151 367
73.84162 363
73.86174 359
73.88185 345
73.90196 332
73.92208 335
73.94219 333
73.9623 331
73.98242 364
74.00253 334
74.02264 392
74.04276 368
74.06287 350
74.08299 301
74.1031 365
74.12321 339
74.14333 330
74.16344 321
74.18355 332
74.20367 339
74.22378 355
74.2439 318
74.26401 375
74.28412 343
74.30424 342
74.32435 339
74.34446 360
74.36458 336
74.38469 343
74.40481 306
74.42492 341
74.44503 329
74.46515 374
74.48526 369
74.50537 339
74.52549 323
74.5456 332
74.56571 296
74.58583 350
74.60594 343
74.62606 293
74.64617 339
74.66628 345
74.6864 333
74.70651 331
74.72662 342
74.74674 333
74.76685 323
74.78697 367
74.80708 351
74.82719 345
74.84731 333
74.86742 301
74.88753 329
74.90765 339
74.92776 340
74.94787 343
74.96799 351
74.9881 356
75.00822 356
