3.00117 19481
3.02128 18747
3.0414 18462
3.06151 17872
3.08162 17626
3.10174 16976
3.12185 16287
3.14197 16168
3.16208 15236
3.18219 15140
3.20231 14695
3.22242 14094
3.24253 14011
3.26265 13264
3.28276 13048
3.30288 12705
3.32299 11888
3.3431 11980
3.36322 11304
3.38333 11104
3.40344 10738
3.42356 10278
3.44367 10154
3.46379 9568
3.4839 9352
3.50401 8864
3.52413 8481
3.54424 8328
3.56435 7810
3.58447 7968
3.60458 7283
3.62469 7076
3.64481 7081
3.66492 6508
3.68504 6445
3.70515 6284
3.72526 5765
3.74538 5875
3.76549 5527
3.7856 5189
3.80572 4926
3.82583 4745
3.84595 4601
3.86606 4272
3.88617 4272
3.90629 4161
3.9264 3607
3.94651 3669
3.96663 3345
3.98674 3406
4.00686 3143
4.02697 2844
4.04708 2817
4.0672 2732
4.08731 2661
4.10742 2626
4.12754 2318
4.14765 2225
4.16776 2152
4.18788 2087
4.20799 2082
4.22811 1976
4.24822 1836
4.26833 1763
4.28845 1726
4.30856 1695
4.32867 1482
4.34879 1486
4.3689 1516
4.38902 1483
4.40913 1489
4.42924 1351
4.44936 1329
4.46947 1284
4.48958 1332
4.5097 1306
4.52981 1103
4.54992 1118
4.57004 1166
4.59015 1125
4.61027 1119
4.63038 945
4.65049 1043
4.67061 1003
4.69072 951
4.71083 1024
4.73095 955
4.75106 858
4.77118 840
4.79129 814
4.8114 824
4.83152 763
4.85163 812
4.87174 816
4.89186 846
4.91197 725
4.93209 669
4.9522 682
4.97231 677
4.99243 639
5.01254 708
5.03265 645
5.05277 666
5.07288 611
5.09299 623
5.11311 582
5.13322 534
5.15334 518
5.17345 546
5.19356 570
5.21368 534
5.23379 504
5.2539 466
5.27402 514
5.29413 512
5.31425 458
5.33436 426
5.35447 471
5.37459 453
5.3947 411
5.41481 381
5.43493 413
5.45504 434
5.47516 384
5.49527 374
5.51538 370
5.5355 344
5.55561 363
5.57572 388
5.59584 364
5.61595 346
5.63606 396
5.65618 342
5.67629 369
5.69641 351
5.71652 308
5.73663 290
5.75675 342
5.77686 318
5.79697 265
5.81709 334
5.8372 298
5.85732 309
5.87743 276
5.89754 250
5.91766 270
5.93777 320
5.95788 266
5.978 261
5.99811 321
6.01823 243
6.03834 262
6.05845 286
6.07857 270
6.09868 263
6.11879 233
6.13891 276
6.15902 240
6.17913 262
6.19925 249
6.21936 270
6.23948 258
6.25959 260
6.2797 238
6.29982 268
6.31993 269
6.34004 239
6.36016 249
6.38027 217
6.40039 229
6.4205 223
6.44061 261
6.46073 232
6.48084 215
6.50095 223
6.52107 224
6.54118 204
6.56129 245
6.58141 269
6.60152 249
6.62164 213
6.64175 217
6.66186 239
6.68198 242
6.70209 229
6.7222 231
6.74232 214
6.76243 237
6.78255 226
6.80266 212
6.82277 241
6.84289 240
6.863 227
6.88311 187
6.90323 224
6.92334 214
6.94346 196
6.96357 233
6.98368 239
7.0038 236
7.02391 219
7.04402 225
7.06414 242
7.08425 228
7.10436 237
7.12448 193
7.14459 207
7.16471 205
7.18482 226
7.20493 218
7.22505 224
7.24516 223
7.26527 233
7.28539 254
7.3055 233
7.32562 244
7.34573 226
7.36584 233
7.38596 224
7.40607 211
7.42618 258
7.4463 237
7.46641 233
7.48653 231
7.50664 208
7.52675 206
7.54687 214
7.56698 226
7.58709 258
7.60721 230
7.62732 238
7.64743 223
7.66755 235
7.68766 232
7.70778 236
7.72789 253
7.748 236
7.76812 251
7.78823 233
7.80834 237
7.82846 219
7.84857 208
7.86869 284
7.8888 239
7.90891 246
7.92903 258
7.94914 225
7.96925 232
7.98937 237
8.00948 242
8.0296 262
8.04971 256
8.06982 245
8.08994 238
8.11005 226
8.13016 234
8.15028 255
8.17039 265
8.1905 250
8.21062 227
8.23073 236
8.25085 257
8.27096 252
8.29107 238
8.31119 242
8.3313 242
8.35141 292
8.37153 271
8.39164 251
8.41176 234
8.43187 234
8.45198 232
8.4721 242
8.49221 262
8.51232 249
8.53244 213
8.55255 245
8.57266 262
8.59278 229
8.61289 259
8.63301 246
8.65312 268
8.67323 270
8.69335 271
8.71346 302
8.73357 254
8.75369 253
8.7738 265
8.79392 236
8.81403 244
8.83414 259
8.85426 247
8.87437 275
8.89448 262
8.9146 278
8.93471 271
8.95483 231
8.97494 239
8.99505 247
9.01517 293
9.03528 249
9.05539 240
9.07551 245
9.09562 239
9.11573 248
9.13585 248
9.15596 255
9.17608 253
9.19619 242
9.2163 283
9.23642 241
9.25653 261
9.27664 261
9.29676 262
9.31687 269
9.33699 237
9.3571 271
9.37721 231
9.39733 227
9.41744 250
9.43755 274
9.45767 320
9.47778 261
9.4979 258
9.51801 277
9.53812 273
9.55824 284
9.57835 243
9.59846 291
9.61858 253
9.63869 258
9.6588 241
9.67892 226
9.69903 272
9.71915 259
9.73926 220
9.75937 235
9.77949 277
9.7996 251
9.81971 269
9.83983 250
9.85994 254
9.88006 270
9.90017 265
9.92028 234
9.9404 255
9.96051 283
9.98062 274
10.00074 251
10.02085 259
10.04097 239
10.06108 238
10.08119 274
10.10131 266
10.12142 254
10.14153 279
10.16165 248
10.18176 238
10.20187 222
10.22199 248
10.2421 248
10.26222 235
10.28233 246
10.30244 247
10.32256 261
10.34267 270
10.36278 233
10.3829 262
10.40301 262
10.42313 231
10.44324 244
10.46335 261
10.48347 263
10.50358 240
10.52369 267
10.54381 238
10.56392 255
10.58403 259
10.60415 248
10.62426 254
10.64438 265
10.66449 224
10.6846 269
10.70472 248
10.72483 256
10.74494 266
10.76506 235
10.78517 258
10.80529 270
10.8254 248
10.84551 237
10.86563 278
10.88574 268
10.90585 281
10.92597 259
10.94608 264
10.9662 245
10.98631 277
11.00642 277
11.02654 273
11.04665 246
11.06676 259
11.08688 254
11.10699 280
11.1271 256
11.14722 254
11.16733 256
11.18745 269
11.20756 260
11.22767 250
11.24779 234
11.2679 263
11.28801 262
11.30813 230
11.32824 222
11.34836 236
11.36847 230
11.38858 254
11.4087 275
11.42881 255
11.44892 267
11.46904 270
11.48915 253
11.50927 235
11.52938 223
11.54949 275
11.56961 227
11.58972 258
11.60983 248
11.62995 246
11.65006 273
11.67017 251
11.69029 252
11.7104 249
11.73052 282
11.75063 268
11.77074 266
11.79086 250
11.81097 239
11.83108 277
11.8512 264
11.87131 300
11.89143 269
11.91154 306
11.93165 289
11.95177 277
11.97188 287
11.99199 279
12.01211 287
12.03222 271
12.05234 284
12.07245 304
12.09256 312
12.11268 306
12.13279 291
12.1529 277
12.17302 300
12.19313 336
12.21324 339
12.23336 341
12.25347 366
12.27359 374
12.2937 362
12.31381 416
12.33393 390
12.35404 359
12.37415 384
12.39427 345
12.41438 386
12.4345 337
12.45461 317
12.47472 339
12.49484 344
12.51495 297
12.53506 270
12.55518 238
12.57529 261
12.5954 256
12.61552 233
12.63563 289
12.65575 275
12.67586 267
12.69597 273
12.71609 281
12.7362 282
12.75631 282
12.77643 243
12.79654 254
12.81666 212
12.83677 262
12.85688 255
12.877 245
12.89711 222
12.91722 245
12.93734 219
12.95745 237
12.97757 221
12.99768 266
13.01779 235
13.03791 245
13.05802 240
13.07813 246
13.09825 264
13.11836 236
13.13847 265
13.15859 271
13.1787 251
13.19882 261
13.21893 218
13.23904 240
13.25916 240
13.27927 212
13.29938 248
13.3195 240
13.33961 242
13.35973 231
13.37984 247
13.39995 268
13.42007 221
13.44018 219
13.46029 235
13.48041 252
13.50052 219
13.52064 218
13.54075 221
13.56086 279
13.58098 222
13.60109 231
13.6212 268
13.64132 238
13.66143 236
13.68154 240
13.70166 234
13.72177 216
13.74189 258
13.762 248
13.78211 239
13.80223 222
13.82234 249
13.84245 238
13.86257 226
13.88268 224
13.9028 233
13.92291 213
13.94302 222
13.96314 219
13.98325 220
14.00336 247
14.02348 233
14.04359 211
14.06371 212
14.08382 184
14.10393 234
14.12405 243
14.14416 214
14.16427 223
14.18439 221
14.2045 218
14.22461 219
14.24473 208
14.26484 232
14.28496 238
14.30507 227
14.32518 208
14.3453 216
14.36541 191
14.38552 226
14.40564 209
14.42575 209
14.44587 205
14.46598 210
14.48609 209
14.50621 225
14.52632 199
14.54643 198
14.56655 227
14.58666 216
14.60677 208
14.62689 215
14.647 232
14.66712 226
14.68723 239
14.70734 202
14.72746 207
14.74757 223
14.76768 195
14.7878 240
14.80791 217
14.82803 221
14.84814 225
14.86825 237
14.88837 230
14.90848 220
14.92859 238
14.94871 210
14.96882 219
14.98894 194
15.00905 233
15.02916 217
15.04928 205
15.06939 191
15.0895 213
15.10962 235
15.12973 218
15.14984 229
15.16996 253
15.19007 229
15.21019 237
15.2303 191
15.25041 241
15.27053 191
15.29064 213
15.31075 231
15.33087 221
15.35098 234
15.3711 230
15.39121 207
15.41132 220
15.43144 205
15.45155 227
15.47166 209
15.49178 218
15.51189 246
15.53201 203
15.55212 222
15.57223 213
15.59235 190
15.61246 206
15.63257 206
15.65269 207
15.6728 225
15.69291 235
15.71303 194
15.73314 198
15.75326 220
15.77337 217
15.79348 218
15.8136 194
15.83371 213
15.85382 231
15.87394 211
15.89405 205
15.91417 216
15.93428 200
15.95439 218
15.97451 210
15.99462 207
16.01473 206
16.03485 222
16.05496 217
16.07508 210
16.09519 208
16.1153 221
16.13542 181
16.15553 242
16.17564 203
16.19576 219
16.21587 202
16.23598 202
16.2561 210
16.27621 216
16.29633 188
16.31644 208
16.33655 194
16.35667 193
16.37678 203
16.39689 213
16.41701 215
16.43712 194
16.45724 201
16.47735 204
16.49746 210
16.51758 196
16.53769 216
16.5578 191
16.57792 231
16.59803 220
16.61814 223
16.63826 190
16.65837 195
16.67849 200
16.6986 211
16.71871 192
16.73883 195
16.75894 200
16.77905 224
16.79917 183
16.81928 190
16.8394 208
16.85951 198
16.87962 244
16.89974 194
16.91985 205
16.93996 212
16.96008 209
16.98019 204
17.00031 207
17.02042 186
17.04053 233
17.06065 195
17.08076 213
17.10087 207
17.12099 206
17.1411 222
17.16121 167
17.18133 207
17.20144 205
17.22156 169
17.24167 184
17.26178 223
17.2819 207
17.30201 218
17.32212 191
17.34224 223
17.36235 218
17.38247 189
17.40258 197
17.42269 202
17.44281 219
17.46292 212
17.48303 205
17.50315 209
17.52326 200
17.54338 212
17.56349 207
17.5836 185
17.60372 205
17.62383 201
17.64394 186
17.66406 204
17.68417 210
17.70428 217
17.7244 196
17.74451 222
17.76463 204
17.78474 222
17.80485 224
17.82497 252
17.84508 225
17.86519 205
17.88531 214
17.90542 221
17.92554 230
17.94565 231
17.96576 197
17.98588 201
18.00599 228
18.0261 239
18.04622 211
18.06633 240
18.08645 210
18.10656 196
18.12667 207
18.14679 196
18.1669 221
18.18701 233
18.20713 216
18.22724 190
18.24735 201
18.26747 222
18.28758 214
18.3077 236
18.32781 187
18.34792 178
18.36804 216
18.38815 235
18.40826 225
18.42838 187
18.44849 190
18.46861 215
18.48872 228
18.50883 183
18.52895 201
18.54906 211
18.56917 194
18.58929 225
18.6094 203
18.62951 217
18.64963 194
18.66974 214
18.68986 198
18.70997 216
18.73008 224
18.7502 237
18.77031 221
18.79042 240
18.81054 196
18.83065 203
18.85077 208
18.87088 188
18.89099 209
18.91111 180
18.93122 204
18.95133 208
18.97145 207
18.99156 187
19.01168 216
19.03179 187
19.0519 196
19.07202 189
19.09213 206
19.11224 202
19.13236 224
19.15247 180
19.17258 229
19.1927 226
19.21281 237
19.23293 198
19.25304 214
19.27315 219
19.29327 227
19.31338 197
19.33349 229
19.35361 222
19.37372 231
19.39384 215
19.41395 211
19.43406 209
19.45418 219
19.47429 236
19.4944 252
19.51452 218
19.53463 255
19.55475 215
19.57486 197
19.59497 218
19.61509 234
19.6352 273
19.65531 281
19.67543 244
19.69554 275
19.71565 258
19.73577 283
19.75588 296
19.776 319
19.79611 288
19.81622 326
19.83634 323
19.85645 318
19.87656 340
19.89668 325
19.91679 309
19.93691 351
19.95702 363
19.97713 340
19.99725 325
20.01736 290
20.03747 360
20.05759 350
20.0777 304
20.09782 338
20.11793 333
20.13804 332
20.15816 289
20.17827 362
20.19838 342
20.2185 318
20.23861 367
20.25872 364
20.27884 375
20.29895 348
20.31907 354
20.33918 399
20.35929 380
20.37941 419
20.39952 361
20.41963 364
20.43975 389
20.45986 426
20.47998 407
20.50009 428
20.5202 446
20.54032 458
20.56043 463
20.58054 535
20.60066 520
20.62077 593
20.64088 695
20.661 885
20.68111 1172
20.70123 1534
20.72134 1931
20.74145 2595
20.76157 3445
20.78168 4439
20.80179 5366
20.82191 6268
20.84202 6402
20.86214 6410
20.88225 5206
20.90236 4156
20.92248 2909
20.94259 1983
20.9627 1344
20.98282 877
21.00293 694
21.02305 625
21.04316 558
21.06327 528
21.08339 532
21.1035 482
21.12361 472
21.14373 450
21.16384 393
21.18395 439
21.20407 405
21.22418 395
21.2443 386
21.26441 421
21.28452 384
21.30464 416
21.32475 404
21.34486 404
21.36498 348
21.38509 383
21.40521 371
21.42532 366
21.44543 308
21.46555 384
21.48566 326
21.50577 317
21.52589 316
21.546 299
21.56612 339
21.58623 331
21.60634 340
21.62646 292
21.64657 325
21.66668 272
21.6868 302
21.70691 300
21.72702 307
21.74714 296
21.76725 272
21.78737 311
21.80748 336
21.82759 298
21.84771 268
21.86782 293
21.88793 250
21.90805 307
21.92816 272
21.94828 295
21.96839 273
21.9885 251
22.00862 295
22.02873 261
22.04884 278
22.06896 264
22.08907 288
22.10919 271
22.1293 269
22.14941 262
22.16953 279
22.18964 289
22.20975 277
22.22987 274
22.24998 285
22.27009 254
22.29021 252
22.31032 281
22.33044 277
22.35055 274
22.37066 317
22.39078 280
22.41089 249
22.431 282
22.45112 257
22.47123 263
22.49135 244
22.51146 257
22.53157 264
22.55169 272
22.5718 266
22.59191 290
22.61203 265
22.63214 257
22.65225 264
22.67237 239
22.69248 270
22.7126 243
22.73271 281
22.75282 251
22.77294 267
22.79305 264
22.81316 269
22.83328 256
22.85339 243
22.87351 292
22.89362 276
22.91373 279
22.93385 258
22.95396 278
22.97407 266
22.99419 257
23.0143 271
23.03442 232
23.05453 208
23.07464 264
23.09476 275
23.11487 299
23.13498 246
23.1551 257
23.17521 311
23.19532 295
23.21544 280
23.23555 258
23.25567 280
23.27578 270
23.29589 271
23.31601 258
23.33612 278
23.35623 264
23.37635 240
23.39646 244
23.41658 254
23.43669 270
23.4568 246
23.47692 264
23.49703 261
23.51714 265
23.53726 268
23.55737 258
23.57749 261
23.5976 259
23.61771 257
23.63783 257
23.65794 295
23.67805 239
23.69817 257
23.71828 288
23.73839 244
23.75851 282
23.77862 275
23.79874 279
23.81885 266
23.83896 305
23.85908 284
23.87919 314
23.8993 302
23.91942 302
23.93953 352
23.95965 323
23.97976 335
23.99987 346
24.01999 304
24.0401 347
24.06021 304
24.08033 302
24.10044 288
24.12056 273
24.14067 236
24.16078 240
24.1809 290
24.20101 236
24.22112 263
24.24124 286
24.26135 264
24.28146 272
24.30158 258
24.32169 270
24.34181 296
24.36192 242
24.38203 228
24.40215 279
24.42226 262
24.44237 288
24.46249 240
24.4826 279
24.50272 285
24.52283 278
24.54294 249
24.56306 276
24.58317 283
24.60328 288
24.6234 281
24.64351 269
24.66362 278
24.68374 317
24.70385 316
24.72397 274
24.74408 303
24.76419 333
24.78431 323
24.80442 345
24.82453 375
24.84465 344
24.86476 328
24.88488 361
24.90499 350
24.9251 323
24.94522 302
24.96533 314
24.98544 333
25.00556 315
25.02567 282
25.04579 283
25.0659 318
25.08601 313
25.10613 308
25.12624 299
25.14635 286
25.16647 320
25.18658 341
25.20669 325
25.22681 296
25.24692 322
25.26704 328
25.28715 295
25.30726 339
25.32738 343
25.34749 323
25.3676 335
25.38772 317
25.40783 283
25.42795 302
25.44806 311
25.46817 287
25.48829 331
25.5084 307
25.52851 312
25.54863 288
25.56874 320
25.58886 334
25.60897 354
25.62908 364
25.6492 382
25.66931 346
25.68942 387
25.70954 426
25.72965 412
25.74976 428
25.76988 444
25.78999 430
25.81011 457
25.83022 458
25.85033 444
25.87045 421
25.89056 448
25.91067 440
25.93079 449
25.9509 462
25.97102 505
25.99113 466
26.01124 505
26.03136 552
26.05147 555
26.07158 563
26.0917 596
26.11181 589
26.13193 620
26.15204 664
26.17215 703
26.19227 736
26.21238 795
26.23249 833
26.25261 918
26.27272 965
26.29283 1149
26.31295 1211
26.33306 1354
26.35318 1689
26.37329 1865
26.3934 2244
26.41352 2878
26.43363 3747
26.45374 5032
26.47386 6898
26.49397 9361
26.51409 12644
26.5342 16525
26.55431 20930
26.57443 24720
26.59454 28095
26.61465 29544
26.63477 28872
26.65488 24901
26.67499 19683
26.69511 14877
26.71522 10633
26.73534 6951
26.75545 4361
26.77556 2624
26.79568 1884
26.81579 1541
26.8359 1327
26.85602 1223
26.87613 1114
26.89625 1028
26.91636 961
26.93647 894
26.95659 767
26.9767 655
26.99681 666
27.01693 604
27.03704 593
27.05716 611
27.07727 611
27.09738 464
27.1175 499
27.13761 533
27.15772 454
27.17784 467
27.19795 444
27.21806 451
27.23818 487
27.25829 455
27.27841 457
27.29852 435
27.31863 430
27.33875 456
27.35886 508
27.37897 519
27.39909 493
27.4192 498
27.43932 496
27.45943 515
27.47954 458
27.49966 471
27.51977 417
27.53988 408
27.56 380
27.58011 392
27.60023 396
27.62034 365
27.64045 374
27.66057 367
27.68068 375
27.70079 333
27.72091 346
27.74102 378
27.76113 349
27.78125 372
27.80136 317
27.82148 346
27.84159 344
27.8617 364
27.88182 322
27.90193 302
27.92204 323
27.94216 357
27.96227 308
27.98239 330
28.0025 325
28.02261 371
28.04273 334
28.06284 303
28.08295 264
28.10307 275
28.12318 279
28.1433 280
28.16341 299
28.18352 269
28.20364 259
28.22375 313
28.24386 307
28.26398 296
28.28409 267
28.3042 278
28.32432 294
28.34443 280
28.36455 275
28.38466 304
28.40477 291
28.42489 278
28.445 303
28.46511 298
28.48523 267
28.50534 296
28.52546 241
28.54557 245
28.56568 274
28.5858 298
28.60591 262
28.62602 307
28.64614 283
28.66625 280
28.68636 281
28.70648 290
28.72659 275
28.74671 239
28.76682 259
28.78693 249
28.80705 250
28.82716 253
28.84727 259
28.86739 269
28.8875 262
28.90762 261
28.92773 252
28.94784 252
28.96796 268
28.98807 263
29.00818 294
29.0283 264
29.04841 241
29.06853 272
29.08864 245
29.10875 271
29.12887 278
29.14898 231
29.16909 240
29.18921 253
29.20932 254
29.22943 259
29.24955 248
29.26966 258
29.28978 260
29.30989 254
29.33 241
29.35012 248
29.37023 255
29.39034 285
29.41046 262
29.43057 232
29.45069 274
29.4708 275
29.49091 253
29.51103 281
29.53114 282
29.55125 236
29.57137 250
29.59148 244
29.6116 244
29.63171 256
29.65182 270
29.67194 271
29.69205 267
29.71216 238
29.73228 251
29.75239 202
29.7725 246
29.79262 253
29.81273 252
29.83285 234
29.85296 253
29.87307 254
29.89319 278
29.9133 245
29.93341 248
29.95353 242
29.97364 238
29.99376 248
30.01387 250
30.03398 280
30.0541 233
30.07421 241
30.09432 259
30.11444 255
30.13455 262
30.15467 255
30.17478 264
30.19489 249
30.21501 242
30.23512 255
30.25523 247
30.27535 267
30.29546 246
30.31557 257
30.33569 267
30.3558 258
30.37592 254
30.39603 265
30.41614 277
30.43626 243
30.45637 215
30.47648 268
30.4966 228
30.51671 231
30.53683 239
30.55694 243
30.57705 221
30.59717 241
30.61728 241
30.63739 243
30.65751 263
30.67762 242
30.69773 259
30.71785 255
30.73796 248
30.75808 247
30.77819 282
30.7983 265
30.81842 256
30.83853 254
30.85864 249
30.87876 293
30.89887 241
30.91899 257
30.9391 226
30.95921 251
30.97933 236
30.99944 247
31.01955 226
31.03967 220
31.05978 214
31.0799 234
31.10001 212
31.12012 223
31.14024 238
31.16035 229
31.18046 238
31.20058 214
31.22069 234
31.2408 241
31.26092 218
31.28103 220
31.30115 254
31.32126 229
31.34137 220
31.36149 218
31.3816 220
31.40171 210
31.42183 219
31.44194 226
31.46206 231
31.48217 252
31.50228 220
31.5224 234
31.54251 242
31.56262 236
31.58274 211
31.60285 232
31.62297 222
31.64308 239
31.66319 208
31.68331 214
31.70342 219
31.72353 204
31.74365 199
31.76376 247
31.78387 220
31.80399 231
31.8241 245
31.84422 219
31.86433 239
31.88444 239
31.90456 240
31.92467 207
31.94478 233
31.9649 192
31.98501 238
32.00513 242
32.02524 227
32.04535 212
32.06547 221
32.08558 209
32.10569 217
32.12581 204
32.14592 214
32.16604 225
32.18615 231
32.20626 249
32.22638 230
32.24649 210
32.2666 220
32.28672 229
32.30683 217
32.32694 231
32.34706 229
32.36717 221
32.38729 249
32.4074 231
32.42751 256
32.44763 250
32.46774 276
32.48785 274
32.50797 257
32.52808 260
32.5482 279
32.56831 237
32.58842 257
32.60854 272
32.62865 235
32.64876 238
32.66888 230
32.68899 217
32.7091 243
32.72922 228
32.74933 230
32.76945 236
32.78956 265
32.80967 257
32.82979 241
32.8499 260
32.87001 235
32.89013 260
32.91024 255
32.93036 270
32.95047 241
32.97058 239
32.9907 227
33.01081 252
33.03092 224
33.05104 247
33.07115 246
33.09127 239
33.11138 257
33.13149 223
33.15161 243
33.17172 212
33.19183 244
33.21195 266
33.23206 264
33.25217 235
33.27229 254
33.2924 270
33.31252 248
33.33263 230
33.35274 237
33.37286 205
33.39297 254
33.41308 231
33.4332 230
33.45331 247
33.47343 242
33.49354 240
33.51365 229
33.53377 242
33.55388 251
33.57399 252
33.59411 245
33.61422 214
33.63434 246
33.65445 219
33.67456 234
33.69468 263
33.71479 233
33.7349 214
33.75502 206
33.77513 205
33.79524 192
33.81536 217
33.83547 232
33.85559 213
33.8757 205
33.89581 231
33.91593 212
33.93604 228
33.95615 211
33.97627 198
33.99638 219
34.0165 234
34.03661 201
34.05672 223
34.07684 196
34.09695 193
34.11706 210
34.13718 202
34.15729 222
34.17741 197
34.19752 212
34.21763 232
34.23775 235
34.25786 205
34.27797 231
34.29809 236
34.3182 215
34.33831 205
34.35843 204
34.37854 175
34.39866 199
34.41877 227
34.43888 234
34.459 218
34.47911 195
34.49922 264
34.51934 223
34.53945 224
34.55957 231
34.57968 273
34.59979 200
34.61991 259
34.64002 233
34.66013 254
34.68025 255
34.70036 241
34.72047 242
34.74059 242
34.7607 274
34.78082 278
34.80093 276
34.82104 300
34.84116 288
34.86127 245
34.88138 292
34.9015 298
34.92161 260
34.94173 289
34.96184 285
34.98195 289
35.00207 282
35.02218 283
35.04229 279
35.06241 280
35.08252 286
35.10264 292
35.12275 295
35.14286 261
35.16298 270
35.18309 272
35.2032 349
35.22332 289
35.24343 278
35.26354 284
35.28366 319
35.30377 294
35.32389 268
35.344 289
35.36411 260
35.38423 300
35.40434 290
35.42445 314
35.44457 283
35.46468 306
35.4848 285
35.50491 324
35.52502 308
35.54514 344
35.56525 294
35.58536 309
35.60548 280
35.62559 301
35.64571 318
35.66582 285
35.68593 335
35.70605 310
35.72616 306
35.74627 307
35.76639 315
35.7865 299
35.80661 315
35.82673 301
35.84684 316
35.86696 277
35.88707 331
35.90718 296
35.9273 277
35.94741 306
35.96752 284
35.98764 293
36.00775 275
36.02787 311
36.04798 290
36.06809 287
36.08821 283
36.10832 290
36.12843 293
36.14855 285
36.16866 313
36.18878 324
36.20889 331
36.229 361
36.24912 377
36.26923 403
36.28934 434
36.30946 508
36.32957 544
36.34968 688
36.3698 756
36.38991 961
36.41003 1214
36.43014 1427
36.45025 1690
36.47037 1851
36.49048 2059
36.51059 2159
36.53071 1997
36.55082 1891
36.57094 1526
36.59105 1380
36.61116 1148
36.63128 891
36.65139 808
36.6715 576
36.69162 439
36.71173 406
36.73184 354
36.75196 354
36.77207 364
36.79219 288
36.8123 326
36.83241 330
36.85253 307
36.87264 281
36.89275 301
36.91287 274
36.93298 305
36.9531 274
36.97321 299
36.99332 281
37.01344 251
37.03355 291
37.05366 261
37.07378 258
37.09389 261
37.11401 244
37.13412 243
37.15423 253
37.17435 227
37.19446 236
37.21457 209
37.23469 254
37.2548 271
37.27491 251
37.29503 264
37.31514 249
37.33526 242
37.35537 252
37.37548 237
37.3956 244
37.41571 236
37.43582 238
37.45594 218
37.47605 212
37.49617 221
37.51628 222
37.53639 249
37.55651 258
37.57662 229
37.59673 224
37.61685 258
37.63696 228
37.65708 250
37.67719 223
37.6973 251
37.71742 242
37.73753 242
37.75764 210
37.77776 226
37.79787 247
37.81798 243
37.8381 275
37.85821 226
37.87833 220
37.89844 217
37.91855 212
37.93867 228
37.95878 247
37.97889 235
37.99901 196
38.01912 211
38.03924 206
38.05935 221
38.07946 257
38.09958 221
38.11969 256
38.1398 273
38.15992 241
38.18003 216
38.20015 258
38.22026 242
38.24037 238
38.26049 262
38.2806 245
38.30071 269
38.32083 293
38.34094 256
38.36105 248
38.38117 244
38.40128 279
38.4214 298
38.44151 282
38.46162 285
38.48174 284
38.50185 255
38.52196 260
38.54208 244
38.56219 231
38.58231 235
38.60242 246
38.62253 248
38.64265 255
38.66276 259
38.68287 222
38.70299 252
38.7231 261
38.74321 253
38.76333 248
38.78344 245
38.80356 260
38.82367 223
38.84378 242
38.8639 248
38.88401 244
38.90412 240
38.92424 242
38.94435 248
38.96447 246
38.98458 268
39.00469 230
39.02481 259
39.04492 256
39.06503 285
39.08515 307
39.10526 287
39.12538 319
39.14549 340
39.1656 360
39.18572 387
39.20583 430
39.22594 434
39.24606 531
39.26617 592
39.28628 761
39.3064 899
39.32651 995
39.34663 1241
39.36674 1539
39.38685 1705
39.40697 1940
39.42708 1881
39.44719 1936
39.46731 1753
39.48742 1567
39.50754 1240
39.52765 1145
39.54776 907
39.56788 816
39.58799 663
39.6081 506
39.62822 385
39.64833 309
39.66845 282
39.68856 257
39.70867 285
39.72879 238
39.7489 247
39.76901 275
39.78913 275
39.80924 252
39.82935 269
39.84947 240
39.86958 231
39.8897 277
39.90981 273
39.92992 248
39.95004 261
39.97015 303
39.99026 262
40.01038 295
40.03049 290
40.05061 339
40.07072 381
40.09083 463
40.11095 498
40.13106 570
40.15117 646
40.17129 821
40.1914 838
40.21152 888
40.23163 987
40.25174 1004
40.27186 1028
40.29197 903
40.31208 859
40.3322 731
40.35231 665
40.37242 601
40.39254 541
40.41265 416
40.43277 376
40.45288 309
40.47299 315
40.49311 266
40.51322 240
40.53333 247
40.55345 252
40.57356 261
40.59368 236
40.61379 224
40.6339 215
40.65402 239
40.67413 218
40.69424 234
40.71436 233
40.73447 211
40.75458 263
40.7747 221
40.79481 241
40.81493 241
40.83504 236
40.85515 236
40.87527 239
40.89538 221
40.91549 221
40.93561 217
40.95572 231
40.97584 220
40.99595 239
41.01606 232
41.03618 227
41.05629 245
41.0764 232
41.09652 247
41.11663 236
41.13675 233
41.15686 238
41.17697 223
41.19709 222
41.2172 249
41.23731 242
41.25743 241
41.27754 238
41.29765 245
41.31777 247
41.33788 248
41.358 248
41.37811 241
41.39822 235
41.41834 222
41.43845 213
41.45856 211
41.47868 228
41.49879 225
41.51891 263
41.53902 209
41.55913 239
41.57925 245
41.59936 229
41.61947 256
41.63959 238
41.6597 231
41.67982 223
41.69993 265
41.72004 238
41.74016 238
41.76027 260
41.78038 228
41.8005 241
41.82061 207
41.84072 254
41.86084 238
41.88095 222
41.90107 219
41.92118 231
41.94129 242
41.96141 198
41.98152 231
42.00163 238
42.02175 239
42.04186 234
42.06198 242
42.08209 276
42.1022 240
42.12232 276
42.14243 308
42.16254 322
42.18266 354
42.20277 342
42.22289 455
42.243 484
42.26311 541
42.28323 668
42.30334 815
42.32345 964
42.34357 1062
42.36368 1138
42.38379 1347
42.40391 1323
42.42402 1381
42.44414 1336
42.46425 1189
42.48436 1035
42.50448 873
42.52459 757
42.5447 683
42.56482 574
42.58493 455
42.60505 363
42.62516 300
42.64527 283
42.66539 272
42.6855 241
42.70561 235
42.72573 243
42.74584 235
42.76595 227
42.78607 207
42.80618 237
42.8263 219
42.84641 234
42.86652 231
42.88664 222
42.90675 173
42.92686 202
42.94698 203
42.96709 207
42.98721 194
43.00732 191
43.02743 189
43.04755 190
43.06766 217
43.08777 199
43.10789 215
43.128 173
43.14812 199
43.16823 220
43.18834 168
43.20846 219
43.22857 194
43.24868 209
43.2688 192
43.28891 194
43.30902 226
43.32914 209
43.34925 212
43.36937 200
43.38948 198
43.40959 192
43.42971 214
43.44982 216
43.46993 204
43.49005 205
43.51016 190
43.53028 194
43.55039 194
43.5705 199
43.59062 199
43.61073 191
43.63084 192
43.65096 201
43.67107 197
43.69119 217
43.7113 205
43.73141 203
43.75153 175
43.77164 195
43.79175 189
43.81187 191
43.83198 186
43.85209 187
43.87221 199
43.89232 200
43.91244 193
43.93255 205
43.95266 220
43.97278 218
43.99289 190
44.013 197
44.03312 190
44.05323 193
44.07335 183
44.09346 211
44.11357 190
44.13369 207
44.1538 167
44.17391 188
44.19403 216
44.21414 180
44.23426 182
44.25437 193
44.27448 184
44.2946 189
44.31471 217
44.33482 188
44.35494 205
44.37505 215
44.39516 186
44.41528 181
44.43539 189
44.45551 185
44.47562 219
44.49573 157
44.51585 195
44.53596 219
44.55607 178
44.57619 215
44.5963 190
44.61642 194
44.63653 200
44.65664 208
44.67676 196
44.69687 186
44.71698 188
44.7371 192
44.75721 182
44.77732 222
44.79744 205
44.81755 216
44.83767 187
44.85778 173
44.87789 209
44.89801 211
44.91812 193
44.93823 204
44.95835 216
44.97846 207
44.99858 221
45.01869 194
45.0388 187
45.05892 196
45.07903 203
45.09914 202
45.11926 208
45.13937 205
45.15949 196
45.1796 211
45.19971 193
45.21983 212
45.23994 209
45.26005 208
45.28017 213
45.30028 210
45.32039 223
45.34051 237
45.36062 240
45.38074 228
45.40085 226
45.42096 246
45.44108 238
45.46119 242
45.4813 267
45.50142 288
45.52153 337
45.54165 323
45.56176 378
45.58187 445
45.60199 459
45.6221 530
45.64221 613
45.66233 688
45.68244 770
45.70256 852
45.72267 914
45.74278 987
45.7629 986
45.78301 923
45.80312 783
45.82324 732
45.84335 652
45.86346 579
45.88358 519
45.90369 496
45.92381 399
45.94392 347
45.96403 249
45.98415 249
46.00426 240
46.02437 230
46.04449 224
46.0646 228
46.08472 206
46.10483 207
46.12494 205
46.14506 232
46.16517 202
46.18528 211
46.2054 202
46.22551 208
46.24563 191
46.26574 180
46.28585 179
46.30597 193
46.32608 169
46.34619 183
46.36631 206
46.38642 197
46.40653 200
46.42665 201
46.44676 183
46.46688 178
46.48699 187
46.5071 194
46.52722 194
46.54733 175
46.56744 215
46.58756 170
46.60767 202
46.62779 179
46.6479 169
46.66801 169
46.68813 182
46.70824 173
46.72835 174
46.74847 191
46.76858 179
46.78869 174
46.80881 189
46.82892 201
46.84904 175
46.86915 188
46.88926 168
46.90938 188
46.92949 149
46.9496 219
46.96972 196
46.98983 204
47.00995 178
47.03006 178
47.05017 186
47.07029 185
47.0904 198
47.11051 200
47.13063 192
47.15074 185
47.17086 222
47.19097 206
47.21108 206
47.2312 168
47.25131 215
47.27142 234
47.29154 191
47.31165 179
47.33176 203
47.35188 202
47.37199 183
47.39211 191
47.41222 168
47.43233 210
47.45245 170
47.47256 216
47.49267 191
47.51279 159
47.5329 176
47.55302 213
47.57313 180
47.59324 180
47.61336 197
47.63347 201
47.65358 190
47.6737 192
47.69381 185
47.71393 201
47.73404 203
47.75415 197
47.77427 209
47.79438 171
47.81449 204
47.83461 202
47.85472 183
47.87483 208
47.89495 194
47.91506 204
47.93518 200
47.95529 195
47.9754 203
47.99552 205
48.01563 221
48.03574 198
48.05586 195
48.07597 198
48.09609 183
48.1162 197
48.13631 166
48.15643 192
48.17654 182
48.19665 167
48.21677 185
48.23688 208
48.257 170
48.27711 219
48.29722 195
48.31734 195
48.33745 181
48.35756 205
48.37768 180
48.39779 218
48.4179 208
48.43802 196
48.45813 241
48.47825 210
48.49836 177
48.51847 208
48.53859 190
48.5587 194
48.57881 209
48.59893 206
48.61904 213
48.63916 224
48.65927 212
48.67938 220
48.6995 220
48.71961 216
48.73972 224
48.75984 211
48.77995 189
48.80006 210
48.82018 215
48.84029 183
48.86041 192
48.88052 183
48.90063 194
48.92075 198
48.94086 225
48.96097 229
48.98109 226
49.0012 199
49.02132 192
49.04143 216
49.06154 239
49.08166 191
49.10177 187
49.12188 212
49.142 213
49.16211 209
49.18223 171
49.20234 209
49.22245 177
49.24257 197
49.26268 214
49.28279 216
49.30291 189
49.32302 235
49.34313 227
49.36325 208
49.38336 205
49.40348 245
49.42359 248
49.4437 237
49.46382 217
49.48393 227
49.50404 240
49.52416 246
49.54427 233
49.56439 245
49.5845 237
49.60461 250
49.62473 294
49.64484 269
49.66495 257
49.68507 291
49.70518 286
49.7253 336
49.74541 358
49.76552 352
49.78564 391
49.80575 446
49.82586 446
49.84598 535
49.86609 594
49.8862 681
49.90632 836
49.92643 955
49.94655 1170
49.96666 1427
49.98677 1751
50.00689 1984
50.027 2348
50.04711 2601
50.06723 2851
50.08734 2924
50.10746 2905
50.12757 2781
50.14768 2281
50.1678 2034
50.18791 1791
50.20802 1650
50.22814 1522
50.24825 1354
50.26837 1133
50.28848 918
50.30859 631
50.32871 504
50.34882 389
50.36893 376
50.38905 365
50.40916 322
50.42927 320
50.44939 304
50.4695 274
50.48962 282
50.50973 318
50.52984 309
50.54996 308
50.57007 328
50.59018 281
50.6103 304
50.63041 314
50.65053 269
50.67064 258
50.69075 246
50.71087 271
50.73098 233
50.75109 261
50.77121 209
50.79132 226
50.81143 259
50.83155 230
50.85166 246
50.87178 226
50.89189 217
50.912 213
50.93212 192
50.95223 229
50.97234 210
50.99246 215
51.01257 184
51.03269 183
51.0528 245
51.07291 181
51.09303 193
51.11314 192
51.13325 176
51.15337 219
51.17348 194
51.1936 218
51.21371 158
51.23382 173
51.25394 162
51.27405 194
51.29416 179
51.31428 194
51.33439 190
51.3545 196
51.37462 199
51.39473 175
51.41485 186
51.43496 175
51.45507 172
51.47519 204
51.4953 239
51.51541 180
51.53553 204
51.55564 172
51.57576 191
51.59587 165
51.61598 197
51.6361 183
51.65621 187
51.67632 176
51.69644 185
51.71655 203
51.73667 168
51.75678 195
51.77689 185
51.79701 169
51.81712 165
51.83723 162
51.85735 173
51.87746 209
51.89757 180
51.91769 188
51.9378 173
51.95792 192
51.97803 192
51.99814 194
52.01826 211
52.03837 188
52.05848 209
52.0786 197
52.09871 166
52.11883 199
52.13894 162
52.15905 195
52.17917 181
52.19928 222
52.21939 169
52.23951 198
52.25962 193
52.27974 212
52.29985 163
52.31996 206
52.34008 191
52.36019 153
52.3803 174
52.40042 182
52.42053 160
52.44064 170
52.46076 197
52.48087 164
52.50099 203
52.5211 173
52.54121 202
52.56133 208
52.58144 195
52.60155 176
52.62167 207
52.64178 221
52.6619 189
52.68201 154
52.70212 202
52.72224 201
52.74235 180
52.76246 209
52.78258 189
52.80269 205
52.8228 169
52.84292 180
52.86303 211
52.88315 203
52.90326 199
52.92337 180
52.94349 196
52.9636 194
52.98371 209
53.00383 218
53.02394 210
53.04406 215
53.06417 208
53.08428 226
53.1044 216
53.12451 205
53.14462 212
53.16474 208
53.18485 209
53.20497 226
53.22508 233
53.24519 245
53.26531 213
53.28542 231
53.30553 232
53.32565 207
53.34576 213
53.36587 232
53.38599 227
53.4061 237
53.42622 258
53.44633 252
53.46644 215
53.48656 218
53.50667 256
53.52678 240
53.5469 222
53.56701 234
53.58713 239
53.60724 230
53.62735 221
53.64747 230
53.66758 205
53.68769 210
53.70781 228
53.72792 236
53.74804 226
53.76815 197
53.78826 239
53.80838 239
53.82849 213
53.8486 233
53.86872 217
53.88883 195
53.90894 196
53.92906 233
53.94917 233
53.96929 226
53.9894 222
54.00951 246
54.02963 238
54.04974 223
54.06985 220
54.08997 231
54.11008 212
54.1302 258
54.15031 223
54.17042 234
54.19054 257
54.21065 271
54.23076 230
54.25088 256
54.27099 268
54.29111 271
54.31122 236
54.33133 263
54.35145 252
54.37156 237
54.39167 263
54.41179 272
54.4319 275
54.45201 249
54.47213 286
54.49224 261
54.51236 254
54.53247 290
54.55258 291
54.5727 314
54.59281 332
54.61292 358
54.63304 381
54.65315 443
54.67327 509
54.69338 582
54.71349 635
54.73361 739
54.75372 842
54.77383 937
54.79395 930
54.81406 991
54.83417 984
54.85429 937
54.8744 908
54.89452 774
54.91463 713
54.93474 666
54.95486 614
54.97497 626
54.99508 566
55.0152 518
55.03531 475
55.05543 394
55.07554 365
55.09565 340
55.11577 355
55.13588 393
55.15599 392
55.17611 412
55.19622 472
55.21634 492
55.23645 532
55.25656 575
55.27668 532
55.29679 526
55.3169 474
55.33702 445
55.35713 452
55.37724 390
55.39736 406
55.41747 380
55.43759 383
55.4577 338
55.47781 307
55.49793 266
55.51804 259
55.53815 263
55.55827 237
55.57838 260
55.5985 214
55.61861 209
55.63872 235
55.65884 199
55.67895 199
55.69906 210
55.71918 215
55.73929 178
55.75941 215
55.77952 226
55.79963 201
55.81975 210
55.83986 197
55.85997 199
55.88009 199
55.9002 197
55.92031 203
55.94043 187
55.96054 205
55.98066 205
56.00077 192
56.02088 194
56.041 207
56.06111 193
56.08122 194
56.10134 209
56.12145 190
56.14157 208
56.16168 202
56.18179 198
56.20191 178
56.22202 195
56.24213 171
56.26225 185
56.28236 198
56.30248 195
56.32259 202
56.3427 184
56.36282 199
56.38293 193
56.40304 175
56.42316 198
56.44327 189
56.46338 202
56.4835 196
56.50361 195
56.52373 221
56.54384 192
56.56395 193
56.58407 177
56.60418 191
56.62429 196
56.64441 195
56.66452 198
56.68464 188
56.70475 191
56.72486 184
56.74498 185
56.76509 190
56.7852 195
56.80532 162
56.82543 189
56.84554 200
56.86566 195
56.88577 194
56.90589 174
56.926 211
56.94611 187
56.96623 162
56.98634 188
57.00645 205
57.02657 197
57.04668 196
57.0668 199
57.08691 208
57.10702 230
57.12714 195
57.14725 244
57.16736 229
57.18748 235
57.20759 216
57.22771 212
57.24782 229
57.26793 200
57.28805 203
57.30816 221
57.32827 210
57.34839 197
57.3685 201
57.38861 240
57.40873 201
57.42884 199
57.44896 198
57.46907 188
57.48918 205
57.5093 181
57.52941 212
57.54952 192
57.56964 188
57.58975 169
57.60987 209
57.62998 213
57.65009 191
57.67021 213
57.69032 203
57.71043 208
57.73055 198
57.75066 173
57.77078 203
57.79089 206
57.811 186
57.83112 198
57.85123 151
57.87134 185
57.89146 188
57.91157 180
57.93168 209
57.9518 183
57.97191 188
57.99203 191
58.01214 175
58.03225 175
58.05237 174
58.07248 170
58.09259 192
58.11271 195
58.13282 179
58.15294 199
58.17305 173
58.19316 176
58.21328 186
58.23339 178
58.2535 185
58.27362 185
58.29373 206
58.31385 164
58.33396 202
58.35407 214
58.37419 166
58.3943 182
58.41441 163
58.43453 162
58.45464 200
58.47475 177
58.49487 181
58.51498 190
58.5351 177
58.55521 191
58.57532 177
58.59544 172
58.61555 184
58.63566 184
58.65578 178
58.67589 183
58.69601 212
58.71612 185
58.73623 171
58.75635 200
58.77646 193
58.79657 165
58.81669 181
58.8368 197
58.85691 167
58.87703 204
58.89714 203
58.91726 168
58.93737 183
58.95748 175
58.9776 195
58.99771 200
59.01782 183
59.03794 190
59.05805 212
59.07817 232
59.09828 192
59.11839 204
59.13851 184
59.15862 189
59.17873 185
59.19885 210
59.21896 199
59.23908 190
59.25919 216
59.2793 196
59.29942 228
59.31953 215
59.33964 231
59.35976 215
59.37987 222
59.39998 231
59.4201 242
59.44021 250
59.46033 258
59.48044 253
59.50055 255
59.52067 304
59.54078 293
59.56089 333
59.58101 324
59.60112 333
59.62124 366
59.64135 411
59.66146 444
59.68158 478
59.70169 564
59.7218 622
59.74192 734
59.76203 902
59.78215 1066
59.80226 1179
59.82237 1484
59.84249 1680
59.8626 1863
59.88271 1853
59.90283 1976
59.92294 1804
59.94305 1767
59.96317 1422
59.98328 1307
60.0034 1161
60.02351 1101
60.04362 1065
60.06374 1029
60.08385 965
60.10396 893
60.12408 778
60.14419 575
60.16431 451
60.18442 325
60.20453 303
60.22465 278
60.24476 271
60.26487 227
60.28499 237
60.3051 240
60.32522 241
60.34533 238
60.36544 233
60.38556 220
60.40567 215
60.42578 207
60.4459 205
60.46601 225
60.48612 199
60.50624 217
60.52635 198
60.54647 198
60.56658 194
60.58669 224
60.60681 200
60.62692 166
60.64703 190
60.66715 189
60.68726 186
60.70738 188
60.72749 215
60.7476 233
60.76772 182
60.78783 189
60.80794 195
60.82806 193
60.84817 185
60.86828 187
60.8884 178
60.90851 189
60.92863 197
60.94874 179
60.96885 198
60.98897 183
61.00908 198
61.02919 178
61.04931 193
61.06942 186
61.08954 193
61.10965 177
61.12976 188
61.14988 229
61.16999 181
61.1901 171
61.21022 176
61.23033 178
61.25045 190
61.27056 212
61.29067 190
61.31079 177
61.3309 199
61.35101 191
61.37113 168
61.39124 177
61.41135 213
61.43147 193
61.45158 222
61.4717 167
61.49181 187
61.51192 208
61.53204 194
61.55215 205
61.57226 192
61.59238 193
61.61249 224
61.63261 198
61.65272 196
61.67283 196
61.69295 204
61.71306 188
61.73317 213
61.75329 226
61.7734 208
61.79352 186
61.81363 227
61.83374 195
61.85386 222
61.87397 206
61.89408 219
61.9142 185
61.93431 220
61.95442 246
61.97454 214
61.99465 209
62.01477 214
62.03488 221
62.05499 237
62.07511 218
62.09522 266
62.11533 248
62.13545 211
62.15556 230
62.17568 236
62.19579 228
62.2159 213
62.23602 213
62.25613 243
62.27624 217
62.29636 212
62.31647 246
62.33659 207
62.3567 183
62.37681 210
62.39693 191
62.41704 229
62.43715 238
62.45727 192
62.47738 206
62.49749 215
62.51761 218
62.53772 202
62.55784 229
62.57795 193
62.59806 205
62.61818 205
62.63829 193
62.6584 195
62.67852 226
62.69863 197
62.71875 187
62.73886 209
62.75897 181
62.77909 204
62.7992 180
62.81931 173
62.83943 204
62.85954 193
62.87965 192
62.89977 202
62.91988 214
62.94 195
62.96011 218
62.98022 199
63.00034 197
63.02045 190
63.04056 196
63.06068 186
63.08079 181
63.10091 191
63.12102 171
63.14113 169
63.16125 198
63.18136 200
63.20147 186
63.22159 188
63.2417 198
63.26182 195
63.28193 189
63.30204 185
63.32216 193
63.34227 210
63.36238 204
63.3825 206
63.40261 206
63.42272 190
63.44284 158
63.46295 197
63.48307 186
63.50318 196
63.52329 203
63.54341 234
63.56352 197
63.58363 208
63.60375 189
63.62386 183
63.64398 199
63.66409 212
63.6842 240
63.70432 216
63.72443 228
63.74454 217
63.76466 250
63.78477 286
63.80489 280
63.825 291
63.84511 334
63.86523 376
63.88534 365
63.90545 456
63.92557 463
63.94568 471
63.96579 490
63.98591 528
64.00602 439
64.02614 475
64.04625 396
64.06636 389
64.08648 366
64.10659 360
64.1267 325
64.14682 324
64.16693 331
64.18705 319
64.20716 260
64.22727 273
64.24739 250
64.2675 237
64.28761 190
64.30773 202
64.32784 197
64.34796 205
64.36807 203
64.38818 198
64.4083 184
64.42841 185
64.44852 199
64.46864 201
64.48875 202
64.50886 167
64.52898 209
64.54909 176
64.56921 175
64.58932 185
64.60943 181
64.62955 190
64.64966 168
64.66977 166
64.68989 183
64.71 177
64.73012 175
64.75023 179
64.77034 188
64.79046 177
64.81057 170
64.83068 137
64.8508 172
64.87091 155
64.89102 187
64.91114 188
64.93125 172
64.95137 177
64.97148 166
64.99159 169
65.01171 186
65.03182 176
65.05193 183
65.07205 184
65.09216 171
65.11228 195
65.13239 190
65.1525 183
65.17262 199
65.19273 170
65.21284 170
65.23296 187
65.25307 173
65.27319 164
65.2933 175
65.31341 186
65.33353 173
65.35364 188
65.37375 183
65.39387 188
65.41398 186
65.43409 168
65.45421 187
65.47432 179
65.49444 202
65.51455 195
65.53466 183
65.55478 196
65.57489 199
65.595 218
65.61512 225
65.63523 217
65.65535 229
65.67546 248
65.69557 239
65.71569 257
65.7358 255
65.75591 237
65.77603 241
65.79614 225
65.81626 222
65.83637 237
65.85648 246
65.8766 208
65.89671 224
65.91682 204
65.93694 214
65.95705 214
65.97716 199
65.99728 194
66.01739 170
66.03751 221
66.05762 188
66.07773 184
66.09785 159
66.11796 156
66.13807 181
66.15819 206
66.1783 201
66.19842 186
66.21853 190
66.23864 187
66.25876 193
66.27887 167
66.29898 172
66.3191 180
66.33921 186
66.35933 184
66.37944 202
66.39955 188
66.41967 186
66.43978 171
66.45989 194
66.48001 176
66.50012 181
66.52023 181
66.54035 176
66.56046 180
66.58058 190
66.60069 208
66.6208 170
66.64092 186
66.66103 180
66.68114 183
66.70126 185
66.72137 169
66.74149 182
66.7616 181
66.78171 187
66.80183 201
66.82194 188
66.84205 205
66.86217 169
66.88228 196
66.90239 200
66.92251 189
66.94262 199
66.96274 189
66.98285 212
67.00296 191
67.02308 198
67.04319 215
67.0633 195
67.08342 202
67.10353 214
67.12365 205
67.14376 200
67.16387 232
67.18399 236
67.2041 207
67.22421 233
67.24433 228
67.26444 234
67.28456 200
67.30467 213
67.32478 282
67.3449 275
67.36501 252
67.38512 291
67.40524 306
67.42535 311
67.44546 362
67.46558 393
67.48569 416
67.50581 476
67.52592 515
67.54603 581
67.56615 716
67.58626 877
67.60637 930
67.62649 1063
67.6466 1170
67.66672 1168
67.68683 1145
67.70694 1083
67.72706 1152
67.74717 1015
67.76728 907
67.7874 877
67.80751 828
67.82763 859
67.84774 903
67.86785 879
67.88797 945
67.90808 959
67.92819 981
67.94831 1024
67.96842 1053
67.98853 1152
68.00865 1259
68.02876 1397
68.04888 1402
68.06899 1527
68.0891 1579
68.10922 1616
68.12933 1561
68.14944 1435
68.16956 1377
68.18967 1354
68.20979 1428
68.2299 1457
68.25001 1454
68.27013 1440
68.29024 1363
68.31035 1197
68.33047 1032
68.35058 845
68.3707 727
68.39081 668
68.41092 641
68.43104 614
68.45115 590
68.47126 545
68.49138 448
68.51149 412
68.5316 386
68.55172 317
68.57183 256
68.59195 249
68.61206 260
68.63217 263
68.65229 244
68.6724 230
68.69251 242
68.71263 233
68.73274 226
68.75286 212
68.77297 218
68.79308 227
68.8132 179
68.83331 174
68.85342 201
68.87354 207
68.89365 196
68.91376 196
68.93388 195
68.95399 202
68.97411 185
68.99422 208
69.01433 198
69.03445 182
69.05456 163
69.07467 192
69.09479 199
69.1149 214
69.13502 170
69.15513 201
69.17524 181
69.19536 198
69.21547 214
69.23558 208
69.2557 159
69.27581 174
69.29593 193
69.31604 183
69.33615 189
69.35627 179
69.37638 172
69.39649 199
69.41661 178
69.43672 160
69.45683 194
69.47695 171
69.49706 194
69.51718 174
69.53729 175
69.5574 187
69.57752 174
69.59763 211
69.61774 168
69.63786 191
69.65797 172
69.67809 165
69.6982 178
69.71831 189
69.73843 172
69.75854 161
69.77865 178
69.79877 181
69.81888 169
69.839 152
69.85911 188
69.87922 164
69.89934 182
69.91945 172
69.93956 175
69.95968 187
69.97979 176
69.9999 179
70.02002 184
70.04013 183
70.06025 193
70.08036 186
70.10047 192
70.12059 187
70.1407 162
70.16081 197
70.18093 182
70.20104 166
70.22116 169
70.24127 184
70.26138 167
70.2815 178
70.30161 178
70.32172 169
70.34184 181
70.36195 169
70.38207 180
70.40218 174
70.42229 175
70.44241 154
70.46252 168
70.48263 170
70.50275 168
70.52286 159
70.54297 161
70.56309 163
70.5832 173
70.60332 155
70.62343 165
70.64354 164
70.66366 180
70.68377 164
70.70388 184
70.724 174
70.74411 176
70.76423 175
70.78434 179
70.80445 156
70.82457 152
70.84468 178
70.86479 166
70.88491 163
70.90502 173
70.92513 148
70.94525 180
70.96536 171
70.98548 156
71.00559 181
71.0257 163
71.04582 134
71.06593 178
71.08604 155
71.10616 177
71.12627 163
71.14639 168
71.1665 191
71.18661 159
71.20673 173
71.22684 158
71.24695 173
71.26707 160
71.28718 142
71.3073 162
71.32741 174
71.34752 173
71.36764 182
71.38775 158
71.40786 157
71.42798 177
71.44809 153
71.4682 164
71.48832 183
71.50843 169
71.52855 189
71.54866 188
71.56877 156
71.58889 188
71.609 170
71.62911 173
71.64923 167
71.66934 172
71.68946 156
71.70957 163
71.72968 162
71.7498 162
71.76991 185
71.79002 164
71.81014 181
71.83025 164
71.85037 166
71.87048 154
71.89059 163
71.91071 158
71.93082 174
71.95093 170
71.97105 163
71.99116 184
72.01127 159
72.03139 168
72.0515 187
72.07162 163
72.09173 179
72.11184 176
72.13196 178
72.15207 177
72.17218 149
72.1923 176
72.21241 169
72.23253 171
72.25264 171
72.27275 183
72.29287 155
72.31298 166
72.33309 163
72.35321 166
72.37332 186
72.39344 171
72.41355 168
72.43366 177
72.45378 182
72.47389 155
72.494 151
72.51412 163
72.53423 182
72.55434 157
72.57446 161
72.59457 170
72.61469 180
72.6348 166
72.65491 161
72.67503 162
72.69514 145
72.71525 170
72.73537 163
72.75548 162
72.7756 180
72.79571 162
72.81582 190
72.83594 190
72.85605 187
72.87616 168
72.89628 178
72.91639 161
72.9365 171
72.95662 175
72.97673 143
72.99685 176
73.01696 189
73.03707 219
73.05719 187
73.0773 170
73.09741 225
73.11753 206
73.13764 193
73.15776 226
73.17787 244
73.19798 260
73.2181 269
73.23821 271
73.25832 301
73.27844 328
73.29855 383
73.31867 392
73.33878 448
73.35889 493
73.37901 498
73.39912 520
73.41923 505
73.43935 487
73.45946 458
73.47957 433
73.49969 332
73.5198 322
73.53992 364
73.56003 333
73.58014 346
73.60026 321
73.62037 360
73.64048 339
73.6606 308
73.68071 291
73.70083 268
73.72094 226
73.74105 188
73.76117 212
73.78128 195
73.80139 196
73.82151 163
73.84162 165
73.86174 210
73.88185 186
73.90196 183
73.92208 183
73.94219 177
73.9623 142
73.98242 183
74.00253 165
74.02264 173
74.04276 148
74.06287 181
74.08299 190
74.1031 175
74.12321 161
74.14333 188
74.16344 157
74.18355 172
74.20367 162
74.22378 161
74.2439 174
74.26401 164
74.28412 178
74.30424 164
74.32435 169
74.34446 182
74.36458 169
74.38469 180
74.40481 152
74.42492 156
74.44503 146
74.46515 172
74.48526 155
74.50537 161
74.52549 176
74.5456 167
74.56571 166
74.58583 180
74.60594 181
74.62606 168
74.64617 167
74.66628 160
74.6864 164
74.70651 168
74.72662 163
74.74674 136
74.76685 136
74.78697 176
74.80708 164
74.82719 178
74.84731 182
74.86742 177
74.88753 194
74.90765 188
74.92776 165
74.94787 166
74.96799 181
74.9881 172
75.00822 208
