3.00117 21773
3.02128 21397
3.0414 20523
3.06151 20417
3.08162 19179
3.10174 19316
3.12185 18483
3.14197 17943
3.16208 17474
3.18219 16796
3.20231 16747
3.22242 16018
3.24253 15620
3.26265 15372
3.28276 14723
3.30288 14508
3.32299 13893
3.3431 13638
3.36322 13191
3.38333 12228
3.40344 12505
3.42356 11802
3.44367 11252
3.46379 11396
3.4839 10483
3.50401 10261
3.52413 10071
3.54424 9696
3.56435 9456
3.58447 8807
3.60458 8693
3.62469 8408
3.64481 7951
3.66492 7950
3.68504 7517
3.70515 7263
3.72526 7138
3.74538 6736
3.76549 6672
3.7856 6048
3.80572 6114
3.82583 5944
3.84595 5507
3.86606 5483
3.88617 5186
3.90629 5057
3.9264 4890
3.94651 4591
3.96663 4670
3.98674 4284
4.00686 4112
4.02697 3938
4.04708 3882
4.0672 3810
4.08731 3443
4.10742 3360
4.12754 3137
4.14765 3120
4.16776 3032
4.18788 2850
4.20799 2818
4.22811 2662
4.24822 2598
4.26833 2732
4.28845 2375
4.30856 2399
4.32867 2392
4.34879 2320
4.3689 2304
4.38902 2089
4.40913 2134
4.42924 2166
4.44936 2058
4.46947 2082
4.48958 1955
4.5097 1973
4.52981 1874
4.54992 2009
4.57004 1890
4.59015 1699
4.61027 1812
4.63038 1657
4.65049 1637
4.67061 1779
4.69072 1601
4.71083 1612
4.73095 1669
4.75106 1606
4.77118 1556
4.79129 1478
4.8114 1553
4.83152 1476
4.85163 1532
4.87174 1433
4.89186 1385
4.91197 1378
4.93209 1353
4.9522 1378
4.97231 1337
4.99243 1368
5.01254 1346
5.03265 1379
5.05277 1243
5.07288 1243
5.09299 1253
5.11311 1168
5.13322 1204
5.15334 1244
5.17345 1201
5.19356 1132
5.21368 1125
5.23379 1164
5.2539 1186
5.27402 1137
5.29413 1063
5.31425 1023
5.33436 1076
5.35447 1045
5.37459 1007
5.3947 1010
5.41481 1047
5.43493 970
5.45504 1009
5.47516 927
5.49527 1000
5.51538 1009
5.5355 965
5.55561 1011
5.57572 912
5.59584 939
5.61595 904
5.63606 923
5.65618 1015
5.67629 970
5.69641 942
5.71652 926
5.73663 884
5.75675 839
5.77686 851
5.79697 897
5.81709 893
5.8372 903
5.85732 890
5.87743 849
5.89754 832
5.91766 838
5.93777 799
5.95788 830
5.978 877
5.99811 860
6.01823 855
6.03834 827
6.05845 811
6.07857 831
6.09868 842
6.11879 868
6.13891 780
6.15902 838
6.17913 843
6.19925 797
6.21936 858
6.23948 818
6.25959 821
6.2797 822
6.29982 857
6.31993 752
6.34004 790
6.36016 838
6.38027 794
6.40039 766
6.4205 838
6.44061 780
6.46073 782
6.48084 728
6.50095 784
6.52107 751
6.54118 839
6.56129 789
6.58141 769
6.60152 781
6.62164 773
6.64175 804
6.66186 786
6.68198 788
6.70209 789
6.7222 785
6.74232 766
6.76243 736
6.78255 776
6.80266 815
6.82277 761
6.84289 739
6.863 744
6.88311 804
6.90323 786
6.92334 749
6.94346 756
6.96357 722
6.98368 781
7.0038 732
7.02391 759
7.04402 716
7.06414 705
7.08425 788
7.10436 767
7.12448 793
7.14459 716
7.16471 746
7.18482 778
7.20493 748
7.22505 800
7.24516 794
7.26527 766
7.28539 717
7.3055 739
7.32562 755
7.34573 724
7.36584 698
7.38596 772
7.40607 733
7.42618 734
7.4463 741
7.46641 748
7.48653 732
7.50664 696
7.52675 669
7.54687 738
7.56698 679
7.58709 652
7.60721 689
7.62732 708
7.64743 713
7.66755 663
7.68766 711
7.70778 668
7.72789 681
7.748 651
7.76812 676
7.78823 696
7.80834 633
7.82846 651
7.84857 658
7.86869 712
7.8888 682
7.90891 653
7.92903 626
7.94914 604
7.96925 714
7.98937 673
8.00948 648
8.0296 664
8.04971 682
8.06982 602
8.08994 626
8.11005 636
8.13016 680
8.15028 689
8.17039 651
8.1905 632
8.21062 638
8.23073 635
8.25085 640
8.27096 676
8.29107 629
8.31119 636
8.3313 611
8.35141 588
8.37153 602
8.39164 645
8.41176 625
8.43187 647
8.45198 699
8.4721 613
8.49221 583
8.51232 649
8.53244 627
8.55255 638
8.57266 710
8.59278 658
8.61289 710
8.63301 671
8.65312 633
8.67323 746
8.69335 667
8.71346 718
8.73357 737
8.75369 691
8.7738 726
8.79392 707
8.81403 743
8.83414 725
8.85426 691
8.87437 668
8.89448 674
8.9146 682
8.93471 587
8.95483 623
8.97494 658
8.99505 615
9.01517 580
9.03528 541
9.05539 567
9.07551 587
9.09562 598
9.11573 523
9.13585 527
9.15596 559
9.17608 535
9.19619 493
9.2163 492
9.23642 498
9.25653 534
9.27664 506
9.29676 522
9.31687 468
9.33699 509
9.3571 475
9.37721 501
9.39733 496
9.41744 547
9.43755 492
9.45767 453
9.47778 482
9.4979 483
9.51801 486
9.53812 498
9.55824 473
9.57835 473
9.59846 475
9.61858 451
9.63869 501
9.6588 474
9.67892 434
9.69903 454
9.71915 499
9.73926 461
9.75937 445
9.77949 471
9.7996 494
9.81971 463
9.83983 445
9.85994 466
9.88006 432
9.90017 509
9.92028 488
9.9404 484
9.96051 447
9.98062 491
10.00074 484
10.02085 427
10.04097 482
10.06108 444
10.08119 438
10.10131 462
10.12142 418
10.14153 471
10.16165 471
10.18176 469
10.20187 418
10.22199 450
10.2421 444
10.26222 466
10.28233 514
10.30244 436
10.32256 471
10.34267 459
10.36278 453
10.3829 441
10.40301 506
10.42313 451
10.44324 463
10.46335 466
10.48347 451
10.50358 496
10.52369 441
10.54381 482
10.56392 455
10.58403 448
10.60415 472
10.62426 473
10.64438 452
10.66449 498
10.6846 460
10.70472 442
10.72483 454
10.74494 429
10.76506 449
10.78517 446
10.80529 492
10.8254 456
10.84551 427
10.86563 448
10.88574 447
10.90585 469
10.92597 432
10.94608 433
10.9662 423
10.98631 447
11.00642 436
11.02654 470
11.04665 432
11.06676 473
11.08688 441
11.10699 436
11.1271 416
11.14722 452
11.16733 475
11.18745 457
11.20756 433
11.22767 429
11.24779 490
11.2679 462
11.28801 432
11.30813 452
11.32824 454
11.34836 434
11.36847 449
11.38858 453
11.4087 475
11.42881 480
11.44892 473
11.46904 497
11.48915 450
11.50927 472
11.52938 510
11.54949 472
11.56961 480
11.58972 453
11.60983 498
11.62995 460
11.65006 534
11.67017 420
11.69029 481
11.7104 474
11.73052 422
11.75063 506
11.77074 472
11.79086 475
11.81097 471
11.83108 490
11.8512 496
11.87131 450
11.89143 494
11.91154 496
11.93165 499
11.95177 487
11.97188 483
11.99199 480
12.01211 481
12.03222 521
12.05234 498
12.07245 513
12.09256 498
12.11268 489
12.13279 517
12.1529 583
12.17302 542
12.19313 589
12.21324 561
12.23336 518
12.25347 617
12.27359 601
12.2937 585
12.31381 574
12.33393 616
12.35404 582
12.37415 619
12.39427 542
12.41438 577
12.4345 500
12.45461 521
12.47472 506
12.49484 481
12.51495 482
12.53506 504
12.55518 514
12.57529 496
12.5954 463
12.61552 446
12.63563 465
12.65575 430
12.67586 464
12.69597 436
12.71609 433
12.7362 417
12.75631 422
12.77643 443
12.79654 419
12.81666 419
12.83677 459
12.85688 437
12.877 405
12.89711 437
12.91722 403
12.93734 406
12.95745 401
12.97757 409
12.99768 433
13.01779 438
13.03791 376
13.05802 405
13.07813 422
13.09825 427
13.11836 445
13.13847 398
13.15859 439
13.1787 418
13.19882 434
13.21893 399
13.23904 420
13.25916 412
13.27927 411
13.29938 413
13.3195 408
13.33961 374
13.35973 403
13.37984 416
13.39995 394
13.42007 402
13.44018 423
13.46029 422
13.48041 394
13.50052 404
13.52064 389
13.54075 431
13.56086 391
13.58098 388
13.60109 456
13.6212 376
13.64132 391
13.66143 439
13.68154 444
13.70166 403
13.72177 409
13.74189 413
13.762 442
13.78211 418
13.80223 378
13.82234 412
13.84245 433
13.86257 383
13.88268 417
13.9028 422
13.92291 428
13.94302 413
13.96314 434
13.98325 386
14.00336 418
14.02348 415
14.04359 414
14.06371 412
14.08382 442
14.10393 396
14.12405 400
14.14416 455
14.16427 423
14.18439 421
14.2045 422
14.22461 406
14.24473 419
14.26484 383
14.28496 412
14.30507 393
14.32518 429
14.3453 400
14.36541 394
14.38552 377
14.40564 403
14.42575 360
14.44587 389
14.46598 386
14.48609 404
14.50621 410
14.52632 437
14.54643 366
14.56655 402
14.58666 383
14.60677 392
14.62689 405
14.647 399
14.66712 370
14.68723 410
14.70734 404
14.72746 419
14.74757 403
14.76768 418
14.7878 421
14.80791 410
14.82803 401
14.84814 393
14.86825 437
14.88837 390
14.90848 397
14.92859 417
14.94871 378
14.96882 429
14.98894 417
15.00905 401
15.02916 412
15.04928 428
15.06939 398
15.0895 411
15.10962 390
15.12973 416
15.14984 389
15.16996 432
15.19007 386
15.21019 388
15.2303 393
15.25041 395
15.27053 412
15.29064 364
15.31075 397
15.33087 433
15.35098 398
15.3711 374
15.39121 354
15.41132 411
15.43144 398
15.45155 416
15.47166 388
15.49178 432
15.51189 404
15.53201 407
15.55212 410
15.57223 407
15.59235 384
15.61246 415
15.63257 383
15.65269 407
15.6728 375
15.69291 354
15.71303 388
15.73314 384
15.75326 382
15.77337 434
15.79348 421
15.8136 398
15.83371 408
15.85382 394
15.87394 426
15.89405 369
15.91417 395
15.93428 371
15.95439 427
15.97451 364
15.99462 401
16.01473 411
16.03485 360
16.05496 352
16.07508 414
16.09519 351
16.1153 394
16.13542 416
16.15553 383
16.17564 371
16.19576 401
16.21587 446
16.23598 404
16.2561 403
16.27621 405
16.29633 393
16.31644 395
16.33655 422
16.35667 400
16.37678 397
16.39689 374
16.41701 395
16.43712 387
16.45724 408
16.47735 404
16.49746 391
16.51758 395
16.53769 371
16.5578 413
16.57792 393
16.59803 418
16.61814 372
16.63826 427
16.65837 360
16.67849 363
16.6986 411
16.71871 371
16.73883 408
16.75894 386
16.77905 426
16.79917 412
16.81928 374
16.8394 421
16.85951 400
16.87962 402
16.89974 416
16.91985 385
16.93996 379
16.96008 399
16.98019 429
17.00031 353
17.02042 349
17.04053 413
17.06065 406
17.08076 389
17.10087 428
17.12099 420
17.1411 375
17.16121 394
17.18133 417
17.20144 366
17.22156 426
17.24167 404
17.26178 393
17.2819 409
17.30201 415
17.32212 422
17.34224 420
17.36235 429
17.38247 463
17.40258 468
17.42269 435
17.44281 412
17.46292 414
17.48303 394
17.50315 430
17.52326 410
17.54338 410
17.56349 454
17.5836 389
17.60372 442
17.62383 388
17.64394 434
17.66406 435
17.68417 420
17.70428 448
17.7244 435
17.74451 412
17.76463 443
17.78474 382
17.80485 415
17.82497 420
17.84508 403
17.86519 433
17.88531 436
17.90542 399
17.92554 409
17.94565 408
17.96576 416
17.98588 401
18.00599 401
18.0261 386
18.04622 434
18.06633 397
18.08645 366
18.10656 420
18.12667 357
18.14679 376
18.1669 412
18.18701 394
18.20713 415
18.22724 400
18.24735 365
18.26747 393
18.28758 389
18.3077 419
18.32781 396
18.34792 440
18.36804 412
18.38815 438
18.40826 373
18.42838 432
18.44849 403
18.46861 399
18.48872 403
18.50883 421
18.52895 384
18.54906 432
18.56917 428
18.58929 442
18.6094 425
18.62951 436
18.64963 401
18.66974 448
18.68986 441
18.70997 407
18.73008 398
18.7502 451
18.77031 391
18.79042 402
18.81054 444
18.83065 433
18.85077 417
18.87088 402
18.89099 421
18.91111 399
18.93122 376
18.95133 423
18.97145 433
18.99156 417
19.01168 433
19.03179 435
19.0519 433
19.07202 448
19.09213 476
19.11224 436
19.13236 469
19.15247 485
19.17258 509
19.1927 503
19.21281 534
19.23293 472
19.25304 483
19.27315 516
19.29327 510
19.31338 549
19.33349 571
19.35361 544
19.37372 555
19.39384 599
19.41395 646
19.43406 621
19.45418 628
19.47429 702
19.4944 678
19.51452 753
19.53463 717
19.55475 825
19.57486 812
19.59497 842
19.61509 916
19.6352 899
19.65531 957
19.67543 1041
19.69554 1036
19.71565 1084
19.73577 998
19.75588 1183
19.776 1110
19.79611 1115
19.81622 1096
19.83634 1178
19.85645 1036
19.87656 1088
19.89668 1057
19.91679 1034
19.93691 1060
19.95702 928
19.97713 949
19.99725 948
20.01736 966
20.03747 855
20.05759 917
20.0777 882
20.09782 906
20.11793 879
20.13804 835
20.15816 916
20.17827 854
20.19838 836
20.2185 809
20.23861 811
20.25872 776
20.27884 828
20.29895 789
20.31907 793
20.33918 803
20.35929 805
20.37941 833
20.39952 787
20.41963 804
20.43975 779
20.45986 827
20.47998 771
20.50009 799
20.5202 799
20.54032 747
20.56043 815
20.58054 786
20.60066 823
20.62077 873
20.64088 877
20.661 867
20.68111 913
20.70123 1005
20.72134 1084
20.74145 1239
20.76157 1327
20.78168 1346
20.80179 1447
20.82191 1424
20.84202 1492
20.86214 1411
20.88225 1305
20.90236 1203
20.92248 1092
20.94259 982
20.9627 945
20.98282 921
21.00293 866
21.02305 880
21.04316 871
21.06327 765
21.08339 799
21.1035 772
21.12361 825
21.14373 755
21.16384 789
21.18395 776
21.20407 748
21.22418 762
21.2443 713
21.26441 688
21.28452 733
21.30464 729
21.32475 709
21.34486 709
21.36498 706
21.38509 722
21.40521 666
21.42532 702
21.44543 701
21.46555 694
21.48566 673
21.50577 708
21.52589 699
21.546 649
21.56612 693
21.58623 624
21.60634 664
21.62646 640
21.64657 633
21.66668 668
21.6868 636
21.70691 625
21.72702 628
21.74714 618
21.76725 653
21.78737 627
21.80748 668
21.82759 659
21.84771 681
21.86782 685
21.88793 670
21.90805 714
21.92816 756
21.94828 764
21.96839 697
21.9885 741
22.00862 767
22.02873 688
22.04884 697
22.06896 668
22.08907 658
22.10919 648
22.1293 584
22.14941 628
22.16953 667
22.18964 589
22.20975 592
22.22987 635
22.24998 627
22.27009 642
22.29021 626
22.31032 576
22.33044 569
22.35055 641
22.37066 614
22.39078 610
22.41089 634
22.431 571
22.45112 577
22.47123 613
22.49135 580
22.51146 575
22.53157 603
22.55169 602
22.5718 584
22.59191 561
22.61203 587
22.63214 610
22.65225 551
22.67237 625
22.69248 603
22.7126 607
22.73271 580
22.75282 597
22.77294 613
22.79305 620
22.81316 585
22.83328 606
22.85339 577
22.87351 648
22.89362 631
22.91373 659
22.93385 624
22.95396 629
22.97407 638
22.99419 605
23.0143 602
23.03442 664
23.05453 675
23.07464 605
23.09476 594
23.11487 623
23.13498 644
23.1551 604
23.17521 604
23.19532 615
23.21544 583
23.23555 626
23.25567 598
23.27578 595
23.29589 620
23.31601 610
23.33612 574
23.35623 610
23.37635 591
23.39646 597
23.41658 578
23.43669 623
23.4568 643
23.47692 733
23.49703 650
23.51714 666
23.53726 692
23.55737 687
23.57749 684
23.5976 645
23.61771 637
23.63783 636
23.65794 622
23.67805 636
23.69817 672
23.71828 620
23.73839 639
23.75851 632
23.77862 643
23.79874 654
23.81885 667
23.83896 635
23.85908 578
23.87919 650
23.8993 614
23.91942 623
23.93953 626
23.95965 620
23.97976 636
23.99987 640
24.01999 653
24.0401 618
24.06021 680
24.08033 591
24.10044 651
24.12056 614
24.14067 676
24.16078 632
24.1809 677
24.20101 624
24.22112 651
24.24124 650
24.26135 672
24.28146 669
24.30158 660
24.32169 664
24.34181 635
24.36192 644
24.38203 639
24.40215 645
24.42226 657
24.44237 614
24.46249 586
24.4826 627
24.50272 619
24.52283 625
24.54294 640
24.56306 614
24.58317 607
24.60328 636
24.6234 624
24.64351 663
24.66362 656
24.68374 654
24.70385 680
24.72397 697
24.74408 661
24.76419 670
24.78431 740
24.80442 736
24.82453 709
24.84465 684
24.86476 726
24.88488 703
24.90499 678
24.9251 666
24.94522 674
24.96533 742
24.98544 663
25.00556 687
25.02567 641
25.04579 616
25.0659 668
25.08601 672
25.10613 713
25.12624 634
25.14635 745
25.16647 700
25.18658 709
25.20669 667
25.22681 736
25.24692 690
25.26704 718
25.28715 701
25.30726 692
25.32738 677
25.34749 686
25.3676 681
25.38772 682
25.40783 708
25.42795 697
25.44806 680
25.46817 758
25.48829 720
25.5084 711
25.52851 728
25.54863 744
25.56874 724
25.58886 651
25.60897 700
25.62908 702
25.6492 638
25.66931 643
25.68942 685
25.70954 641
25.72965 668
25.74976 596
25.76988 659
25.78999 625
25.81011 654
25.83022 640
25.85033 611
25.87045 641
25.89056 644
25.91067 608
25.93079 642
25.9509 675
25.97102 635
25.99113 644
26.01124 655
26.03136 648
26.05147 655
26.07158 677
26.0917 664
26.11181 700
26.13193 707
26.15204 731
26.17215 687
26.19227 716
26.21238 747
26.23249 807
26.25261 771
26.27272 897
26.29283 823
26.31295 881
26.33306 885
26.35318 1034
26.37329 1061
26.3934 1186
26.41352 1348
26.43363 1503
26.45374 1742
26.47386 2100
26.49397 2532
26.51409 2948
26.5342 3525
26.55431 3946
26.57443 4064
26.59454 4158
26.61465 4071
26.63477 3584
26.65488 3065
26.67499 2680
26.69511 2083
26.71522 1758
26.73534 1318
26.75545 1126
26.77556 1043
26.79568 915
26.81579 901
26.8359 888
26.85602 851
26.87613 803
26.89625 823
26.91636 736
26.93647 784
26.95659 773
26.9767 758
26.99681 788
27.01693 785
27.03704 809
27.05716 737
27.07727 725
27.09738 737
27.1175 724
27.13761 695
27.15772 742
27.17784 710
27.19795 681
27.21806 662
27.23818 706
27.25829 722
27.27841 717
27.29852 707
27.31863 815
27.33875 808
27.35886 784
27.37897 809
27.39909 828
27.4192 801
27.43932 844
27.45943 807
27.47954 792
27.49966 784
27.51977 762
27.53988 789
27.56 775
27.58011 743
27.60023 747
27.62034 759
27.64045 801
27.66057 785
27.68068 835
27.70079 841
27.72091 858
27.74102 812
27.76113 872
27.78125 880
27.80136 823
27.82148 931
27.84159 900
27.8617 810
27.88182 862
27.90193 886
27.92204 858
27.94216 810
27.96227 812
27.98239 796
28.0025 736
28.02261 669
28.04273 715
28.06284 662
28.08295 654
28.10307 633
28.12318 626
28.1433 662
28.16341 632
28.18352 644
28.20364 638
28.22375 638
28.24386 620
28.26398 629
28.28409 620
28.3042 621
28.32432 605
28.34443 610
28.36455 565
28.38466 535
28.40477 596
28.42489 553
28.445 604
28.46511 562
28.48523 581
28.50534 547
28.52546 569
28.54557 523
28.56568 548
28.5858 534
28.60591 560
28.62602 583
28.64614 547
28.66625 538
28.68636 530
28.70648 545
28.72659 557
28.74671 545
28.76682 561
28.78693 542
28.80705 572
28.82716 541
28.84727 562
28.86739 557
28.8875 536
28.90762 542
28.92773 555
28.94784 539
28.96796 543
28.98807 541
29.00818 488
29.0283 544
29.04841 550
29.06853 546
29.08864 530
29.10875 488
29.12887 521
29.14898 503
29.16909 532
29.18921 553
29.20932 553
29.22943 513
29.24955 503
29.26966 494
29.28978 517
29.30989 549
29.33 494
29.35012 492
29.37023 525
29.39034 563
29.41046 538
29.43057 507
29.45069 540
29.4708 530
29.49091 526
29.51103 532
29.53114 561
29.55125 520
29.57137 538
29.59148 539
29.6116 512
29.63171 550
29.65182 595
29.67194 577
29.69205 564
29.71216 593
29.73228 538
29.75239 559
29.7725 546
29.79262 530
29.81273 597
29.83285 594
29.85296 526
29.87307 547
29.89319 575
29.9133 566
29.93341 554
29.95353 570
29.97364 531
29.99376 537
30.01387 540
30.03398 514
30.0541 534
30.07421 529
30.09432 503
30.11444 553
30.13455 541
30.15467 531
30.17478 540
30.19489 567
30.21501 510
30.23512 546
30.25523 549
30.27535 529
30.29546 549
30.31557 606
30.33569 573
30.3558 598
30.37592 552
30.39603 532
30.41614 510
30.43626 577
30.45637 569
30.47648 524
30.4966 512
30.51671 519
30.53683 528
30.55694 518
30.57705 554
30.59717 499
30.61728 518
30.63739 537
30.65751 496
30.67762 458
30.69773 549
30.71785 550
30.73796 566
30.75808 531
30.77819 542
30.7983 529
30.81842 525
30.83853 585
30.85864 524
30.87876 495
30.89887 492
30.91899 492
30.9391 514
30.95921 469
30.97933 457
30.99944 498
31.01955 476
31.03967 479
31.05978 475
31.0799 497
31.10001 485
31.12012 554
31.14024 518
31.16035 533
31.18046 505
31.20058 558
31.22069 514
31.2408 489
31.26092 528
31.28103 457
31.30115 482
31.32126 523
31.34137 469
31.36149 456
31.3816 481
31.40171 514
31.42183 515
31.44194 486
31.46206 530
31.48217 536
31.50228 538
31.5224 552
31.54251 614
31.56262 642
31.58274 675
31.60285 706
31.62297 699
31.64308 741
31.66319 742
31.68331 679
31.70342 612
31.72353 577
31.74365 567
31.76376 572
31.78387 568
31.80399 496
31.8241 454
31.84422 484
31.86433 457
31.88444 499
31.90456 437
31.92467 464
31.94478 471
31.9649 494
31.98501 454
32.00513 428
32.02524 456
32.04535 461
32.06547 477
32.08558 489
32.10569 459
32.12581 454
32.14592 443
32.16604 465
32.18615 463
32.20626 514
32.22638 472
32.24649 467
32.2666 421
32.28672 475
32.30683 457
32.32694 480
32.34706 475
32.36717 449
32.38729 477
32.4074 505
32.42751 434
32.44763 482
32.46774 425
32.48785 473
32.50797 459
32.52808 438
32.5482 455
32.56831 400
32.58842 449
32.60854 431
32.62865 430
32.64876 415
32.66888 482
32.68899 459
32.7091 482
32.72922 438
32.74933 461
32.76945 485
32.78956 424
32.80967 473
32.82979 462
32.8499 439
32.87001 476
32.89013 483
32.91024 489
32.93036 461
32.95047 470
32.97058 455
32.9907 443
33.01081 446
33.03092 454
33.05104 455
33.07115 492
33.09127 456
33.11138 437
33.13149 452
33.15161 485
33.17172 448
33.19183 453
33.21195 455
33.23206 502
33.25217 458
33.27229 439
33.2924 483
33.31252 471
33.33263 462
33.35274 465
33.37286 446
33.39297 439
33.41308 454
33.4332 397
33.45331 454
33.47343 471
33.49354 456
33.51365 472
33.53377 434
33.55388 456
33.57399 457
33.59411 484
33.61422 431
33.63434 468
33.65445 443
33.67456 481
33.69468 460
33.71479 488
33.7349 458
33.75502 445
33.77513 519
33.79524 431
33.81536 443
33.83547 490
33.85559 461
33.8757 486
33.89581 496
33.91593 495
33.93604 487
33.95615 486
33.97627 463
33.99638 554
34.0165 532
34.03661 521
34.05672 539
34.07684 560
34.09695 586
34.11706 582
34.13718 533
34.15729 615
34.17741 607
34.19752 628
34.21763 651
34.23775 656
34.25786 657
34.27797 615
34.29809 627
34.3182 648
34.33831 636
34.35843 607
34.37854 720
34.39866 644
34.41877 657
34.43888 671
34.459 662
34.47911 695
34.49922 668
34.51934 685
34.53945 686
34.55957 664
34.57968 636
34.59979 744
34.61991 720
34.64002 718
34.66013 744
34.68025 747
34.70036 774
34.72047 735
34.74059 762
34.7607 784
34.78082 734
34.80093 824
34.82104 844
34.84116 834
34.86127 813
34.88138 809
34.9015 821
34.92161 792
34.94173 823
34.96184 759
34.98195 741
35.00207 780
35.02218 751
35.04229 734
35.06241 753
35.08252 738
35.10264 692
35.12275 690
35.14286 696
35.16298 709
35.18309 668
35.2032 685
35.22332 636
35.24343 652
35.26354 626
35.28366 643
35.30377 646
35.32389 631
35.344 614
35.36411 672
35.38423 620
35.40434 647
35.42445 644
35.44457 689
35.46468 616
35.4848 640
35.50491 666
35.52502 636
35.54514 672
35.56525 611
35.58536 614
35.60548 636
35.62559 646
35.64571 590
35.66582 627
35.68593 638
35.70605 636
35.72616 587
35.74627 629
35.76639 616
35.7865 598
35.80661 646
35.82673 607
35.84684 670
35.86696 655
35.88707 595
35.90718 646
35.9273 647
35.94741 613
35.96752 636
35.98764 642
36.00775 610
36.02787 654
36.04798 592
36.06809 603
36.08821 579
36.10832 592
36.12843 600
36.14855 613
36.16866 633
36.18878 638
36.20889 622
36.229 660
36.24912 632
36.26923 618
36.28934 639
36.30946 693
36.32957 728
36.34968 721
36.3698 738
36.38991 713
36.41003 776
36.43014 836
36.45025 816
36.47037 901
36.49048 856
36.51059 801
36.53071 815
36.55082 811
36.57094 772
36.59105 772
36.61116 687
36.63128 706
36.65139 710
36.6715 617
36.69162 648
36.71173 613
36.73184 739
36.75196 670
36.77207 698
36.79219 677
36.8123 690
36.83241 696
36.85253 685
36.87264 676
36.89275 630
36.91287 613
36.93298 615
36.9531 602
36.97321 644
36.99332 591
37.01344 622
37.03355 659
37.05366 675
37.07378 603
37.09389 643
37.11401 535
37.13412 587
37.15423 608
37.17435 628
37.19446 593
37.21457 606
37.23469 567
37.2548 565
37.27491 560
37.29503 529
37.31514 598
37.33526 550
37.35537 559
37.37548 569
37.3956 593
37.41571 516
37.43582 580
37.45594 544
37.47605 574
37.49617 595
37.51628 609
37.53639 596
37.55651 565
37.57662 529
37.59673 566
37.61685 577
37.63696 610
37.65708 578
37.67719 578
37.6973 607
37.71742 604
37.73753 589
37.75764 562
37.77776 537
37.79787 572
37.81798 585
37.8381 573
37.85821 536
37.87833 558
37.89844 567
37.91855 549
37.93867 512
37.95878 517
37.97889 576
37.99901 524
38.01912 526
38.03924 527
38.05935 535
38.07946 548
38.09958 577
38.11969 498
38.1398 558
38.15992 526
38.18003 602
38.20015 622
38.22026 553
38.24037 562
38.26049 556
38.2806 595
38.30071 594
38.32083 605
38.34094 554
38.36105 593
38.38117 571
38.40128 534
38.4214 574
38.44151 582
38.46162 546
38.48174 578
38.50185 545
38.52196 581
38.54208 566
38.56219 540
38.58231 529
38.60242 508
38.62253 511
38.64265 549
38.66276 499
38.68287 542
38.70299 538
38.7231 534
38.74321 537
38.76333 527
38.78344 504
38.80356 501
38.82367 518
38.84378 522
38.8639 537
38.88401 530
38.90412 498
38.92424 502
38.94435 542
38.96447 537
38.98458 521
39.00469 513
39.02481 527
39.04492 511
39.06503 556
39.08515 526
39.10526 552
39.12538 521
39.14549 553
39.1656 509
39.18572 565
39.20583 576
39.22594 589
39.24606 544
39.26617 552
39.28628 620
39.3064 603
39.32651 638
39.34663 630
39.36674 678
39.38685 679
39.40697 696
39.42708 688
39.44719 669
39.46731 652
39.48742 576
39.50754 609
39.52765 548
39.54776 561
39.56788 533
39.58799 489
39.6081 519
39.62822 489
39.64833 511
39.66845 495
39.68856 514
39.70867 497
39.72879 520
39.7489 540
39.76901 474
39.78913 532
39.80924 559
39.82935 475
39.84947 487
39.86958 471
39.8897 489
39.90981 479
39.92992 504
39.95004 545
39.97015 540
39.99026 544
40.01038 540
40.03049 494
40.05061 548
40.07072 509
40.09083 541
40.11095 564
40.13106 553
40.15117 580
40.17129 553
40.1914 537
40.21152 590
40.23163 576
40.25174 569
40.27186 550
40.29197 560
40.31208 543
40.3322 532
40.35231 532
40.37242 528
40.39254 492
40.41265 521
40.43277 490
40.45288 464
40.47299 471
40.49311 492
40.51322 504
40.53333 466
40.55345 490
40.57356 492
40.59368 437
40.61379 474
40.6339 484
40.65402 494
40.67413 484
40.69424 463
40.71436 489
40.73447 480
40.75458 443
40.7747 485
40.79481 481
40.81493 469
40.83504 449
40.85515 497
40.87527 461
40.89538 461
40.91549 457
40.93561 488
40.95572 501
40.97584 469
40.99595 497
41.01606 487
41.03618 492
41.05629 471
41.0764 514
41.09652 487
41.11663 496
41.13675 552
41.15686 482
41.17697 462
41.19709 490
41.2172 509
41.23731 511
41.25743 459
41.27754 482
41.29765 483
41.31777 461
41.33788 487
41.358 507
41.37811 509
41.39822 476
41.41834 515
41.43845 520
41.45856 519
41.47868 455
41.49879 458
41.51891 472
41.53902 518
41.55913 463
41.57925 513
41.59936 515
41.61947 532
41.63959 500
41.6597 500
41.67982 499
41.69993 519
41.72004 544
41.74016 487
41.76027 504
41.78038 516
41.8005 501
41.82061 506
41.84072 500
41.86084 500
41.88095 480
41.90107 459
41.92118 463
41.94129 480
41.96141 449
41.98152 415
42.00163 464
42.02175 503
42.04186 494
42.06198 472
42.08209 460
42.1022 502
42.12232 478
42.14243 499
42.16254 498
42.18266 497
42.20277 543
42.22289 483
42.243 513
42.26311 567
42.28323 572
42.30334 546
42.32345 576
42.34357 543
42.36368 629
42.38379 625
42.40391 652
42.42402 609
42.44414 559
42.46425 558
42.48436 513
42.50448 506
42.52459 534
42.5447 472
42.56482 493
42.58493 427
42.60505 503
42.62516 478
42.64527 464
42.66539 452
42.6855 463
42.70561 477
42.72573 439
42.74584 453
42.76595 486
42.78607 468
42.80618 431
42.8263 435
42.84641 428
42.86652 419
42.88664 400
42.90675 433
42.92686 430
42.94698 444
42.96709 428
42.98721 452
43.00732 413
43.02743 470
43.04755 427
43.06766 433
43.08777 412
43.10789 411
43.128 450
43.14812 468
43.16823 403
43.18834 446
43.20846 428
43.22857 449
43.24868 404
43.2688 404
43.28891 422
43.30902 488
43.32914 422
43.34925 440
43.36937 412
43.38948 442
43.40959 439
43.42971 442
43.44982 422
43.46993 456
43.49005 453
43.51016 455
43.53028 409
43.55039 438
43.5705 437
43.59062 423
43.61073 408
43.63084 418
43.65096 443
43.67107 409
43.69119 423
43.7113 418
43.73141 422
43.75153 421
43.77164 431
43.79175 404
43.81187 398
43.83198 383
43.85209 429
43.87221 399
43.89232 419
43.91244 484
43.93255 437
43.95266 416
43.97278 418
43.99289 440
44.013 418
44.03312 448
44.05323 387
44.07335 480
44.09346 429
44.11357 449
44.13369 420
44.1538 419
44.17391 432
44.19403 393
44.21414 423
44.23426 449
44.25437 437
44.27448 383
44.2946 404
44.31471 422
44.33482 428
44.35494 425
44.37505 424
44.39516 439
44.41528 429
44.43539 448
44.45551 411
44.47562 397
44.49573 396
44.51585 418
44.53596 415
44.55607 424
44.57619 411
44.5963 398
44.61642 415
44.63653 438
44.65664 416
44.67676 448
44.69687 378
44.71698 458
44.7371 422
44.75721 426
44.77732 431
44.79744 434
44.81755 451
44.83767 417
44.85778 417
44.87789 446
44.89801 476
44.91812 449
44.93823 445
44.95835 443
44.97846 439
44.99858 477
45.01869 414
45.0388 445
45.05892 458
45.07903 440
45.09914 511
45.11926 483
45.13937 449
45.15949 504
45.1796 528
45.19971 471
45.21983 515
45.23994 508
45.26005 522
45.28017 513
45.30028 553
45.32039 598
45.34051 575
45.36062 651
45.38074 621
45.40085 586
45.42096 551
45.44108 591
45.46119 539
45.4813 558
45.50142 551
45.52153 543
45.54165 453
45.56176 508
45.58187 469
45.60199 481
45.6221 538
45.64221 536
45.66233 531
45.68244 547
45.70256 531
45.72267 563
45.74278 563
45.7629 584
45.78301 544
45.80312 515
45.82324 499
45.84335 512
45.86346 497
45.88358 481
45.90369 487
45.92381 468
45.94392 415
45.96403 454
45.98415 443
46.00426 429
46.02437 446
46.04449 429
46.0646 446
46.08472 480
46.10483 470
46.12494 426
46.14506 453
46.16517 424
46.18528 395
46.2054 439
46.22551 398
46.24563 444
46.26574 450
46.28585 416
46.30597 396
46.32608 453
46.34619 440
46.36631 419
46.38642 427
46.40653 440
46.42665 429
46.44676 409
46.46688 414
46.48699 429
46.5071 397
46.52722 403
46.54733 409
46.56744 409
46.58756 421
46.60767 394
46.62779 367
46.6479 442
46.66801 405
46.68813 460
46.70824 429
46.72835 411
46.74847 413
46.76858 429
46.78869 436
46.80881 437
46.82892 421
46.84904 409
46.86915 424
46.88926 427
46.90938 432
46.92949 421
46.9496 411
46.96972 417
46.98983 448
47.00995 431
47.03006 412
47.05017 438
47.07029 425
47.0904 418
47.11051 420
47.13063 417
47.15074 430
47.17086 407
47.19097 433
47.21108 395
47.2312 434
47.25131 447
47.27142 419
47.29154 418
47.31165 403
47.33176 421
47.35188 461
47.37199 412
47.39211 450
47.41222 410
47.43233 391
47.45245 404
47.47256 419
47.49267 398
47.51279 429
47.5329 428
47.55302 422
47.57313 411
47.59324 432
47.61336 402
47.63347 394
47.65358 419
47.6737 407
47.69381 408
47.71393 433
47.73404 413
47.75415 427
47.77427 438
47.79438 439
47.81449 415
47.83461 428
47.85472 447
47.87483 416
47.89495 418
47.91506 399
47.93518 426
47.95529 398
47.9754 415
47.99552 430
48.01563 438
48.03574 459
48.05586 442
48.07597 408
48.09609 398
48.1162 392
48.13631 416
48.15643 387
48.17654 388
48.19665 429
48.21677 405
48.23688 395
48.257 426
48.27711 385
48.29722 383
48.31734 442
48.33745 400
48.35756 379
48.37768 373
48.39779 388
48.4179 375
48.43802 380
48.45813 382
48.47825 413
48.49836 390
48.51847 423
48.53859 389
48.5587 408
48.57881 377
48.59893 406
48.61904 393
48.63916 414
48.65927 385
48.67938 413
48.6995 393
48.71961 389
48.73972 384
48.75984 390
48.77995 403
48.80006 403
48.82018 373
48.84029 404
48.86041 381
48.88052 420
48.90063 373
48.92075 417
48.94086 455
48.96097 423
48.98109 381
49.0012 377
49.02132 426
49.04143 424
49.06154 415
49.08166 447
49.10177 440
49.12188 450
49.142 400
49.16211 429
49.18223 375
49.20234 378
49.22245 423
49.24257 387
49.26268 389
49.28279 404
49.30291 419
49.32302 436
49.34313 390
49.36325 355
49.38336 409
49.40348 373
49.42359 409
49.4437 378
49.46382 385
49.48393 358
49.50404 377
49.52416 409
49.54427 417
49.56439 432
49.5845 402
49.60461 407
49.62473 433
49.64484 422
49.66495 403
49.68507 478
49.70518 427
49.7253 437
49.74541 423
49.76552 451
49.78564 442
49.80575 445
49.82586 476
49.84598 510
49.86609 510
49.8862 515
49.90632 528
49.92643 507
49.94655 563
49.96666 609
49.98677 663
50.00689 663
50.027 708
50.04711 776
50.06723 790
50.08734 655
50.10746 690
50.12757 637
50.14768 644
50.1678 574
50.18791 577
50.20802 524
50.22814 549
50.24825 494
50.26837 454
50.28848 451
50.30859 440
50.32871 405
50.34882 461
50.36893 428
50.38905 454
50.40916 415
50.42927 414
50.44939 437
50.4695 434
50.48962 448
50.50973 425
50.52984 436
50.54996 447
50.57007 459
50.59018 433
50.6103 431
50.63041 432
50.65053 442
50.67064 455
50.69075 415
50.71087 387
50.73098 421
50.75109 439
50.77121 432
50.79132 418
50.81143 390
50.83155 432
50.85166 385
50.87178 417
50.89189 402
50.912 394
50.93212 388
50.95223 355
50.97234 396
50.99246 391
51.01257 410
51.03269 389
51.0528 393
51.07291 420
51.09303 384
51.11314 420
51.13325 432
51.15337 392
51.17348 460
51.1936 396
51.21371 397
51.23382 375
51.25394 383
51.27405 431
51.29416 395
51.31428 416
51.33439 372
51.3545 375
51.37462 368
51.39473 389
51.41485 400
51.43496 376
51.45507 400
51.47519 375
51.4953 371
51.51541 375
51.53553 373
51.55564 362
51.57576 380
51.59587 383
51.61598 392
51.6361 346
51.65621 356
51.67632 398
51.69644 349
51.71655 373
51.73667 388
51.75678 409
51.77689 361
51.79701 384
51.81712 390
51.83723 378
51.85735 358
51.87746 364
51.89757 395
51.91769 400
51.9378 382
51.95792 394
51.97803 384
51.99814 359
52.01826 341
52.03837 361
52.05848 422
52.0786 384
52.09871 365
52.11883 381
52.13894 400
52.15905 400
52.17917 333
52.19928 405
52.21939 380
52.23951 354
52.25962 426
52.27974 393
52.29985 404
52.31996 398
52.34008 371
52.36019 379
52.3803 383
52.40042 414
52.42053 410
52.44064 373
52.46076 376
52.48087 409
52.50099 373
52.5211 372
52.54121 403
52.56133 404
52.58144 434
52.60155 403
52.62167 393
52.64178 404
52.6619 395
52.68201 449
52.70212 398
52.72224 405
52.74235 401
52.76246 416
52.78258 405
52.80269 396
52.8228 456
52.84292 423
52.86303 389
52.88315 439
52.90326 415
52.92337 429
52.94349 435
52.9636 445
52.98371 416
53.00383 471
53.02394 417
53.04406 459
53.06417 458
53.08428 440
53.1044 441
53.12451 403
53.14462 438
53.16474 478
53.18485 429
53.20497 456
53.22508 427
53.24519 438
53.26531 436
53.28542 464
53.30553 411
53.32565 410
53.34576 471
53.36587 420
53.38599 452
53.4061 415
53.42622 408
53.44633 459
53.46644 447
53.48656 446
53.50667 411
53.52678 402
53.5469 434
53.56701 412
53.58713 441
53.60724 481
53.62735 432
53.64747 422
53.66758 412
53.68769 456
53.70781 495
53.72792 464
53.74804 460
53.76815 434
53.78826 456
53.80838 491
53.82849 451
53.8486 461
53.86872 428
53.88883 444
53.90894 454
53.92906 436
53.94917 480
53.96929 514
53.9894 451
54.00951 517
54.02963 441
54.04974 493
54.06985 448
54.08997 456
54.11008 452
54.1302 468
54.15031 472
54.17042 445
54.19054 457
54.21065 488
54.23076 488
54.25088 484
54.27099 479
54.29111 490
54.31122 460
54.33133 483
54.35145 495
54.37156 484
54.39167 524
54.41179 502
54.4319 518
54.45201 468
54.47213 435
54.49224 489
54.51236 502
54.53247 465
54.55258 487
54.5727 519
54.59281 479
54.61292 497
54.63304 536
54.65315 523
54.67327 534
54.69338 541
54.71349 598
54.73361 506
54.75372 576
54.77383 572
54.79395 607
54.81406 514
54.83417 571
54.85429 576
54.8744 543
54.89452 530
54.91463 480
54.93474 528
54.95486 538
54.97497 522
54.99508 550
55.0152 524
55.03531 514
55.05543 499
55.07554 462
55.09565 521
55.11577 486
55.13588 505
55.15599 516
55.17611 530
55.19622 464
55.21634 527
55.23645 484
55.25656 538
55.27668 532
55.29679 494
55.3169 511
55.33702 508
55.35713 482
55.37724 492
55.39736 515
55.41747 457
55.43759 499
55.4577 500
55.47781 496
55.49793 503
55.51804 458
55.53815 483
55.55827 448
55.57838 429
55.5985 471
55.61861 431
55.63872 447
55.65884 436
55.67895 448
55.69906 447
55.71918 454
55.73929 446
55.75941 420
55.77952 456
55.79963 465
55.81975 455
55.83986 472
55.85997 431
55.88009 444
55.9002 448
55.92031 411
55.94043 428
55.96054 453
55.98066 424
56.00077 461
56.02088 428
56.041 428
56.06111 441
56.08122 437
56.10134 420
56.12145 415
56.14157 420
56.16168 421
56.18179 471
56.20191 434
56.22202 442
56.24213 450
56.26225 445
56.28236 449
56.30248 488
56.32259 462
56.3427 451
56.36282 450
56.38293 461
56.40304 464
56.42316 405
56.44327 388
56.46338 451
56.4835 464
56.50361 418
56.52373 445
56.54384 449
56.56395 430
56.58407 438
56.60418 432
56.62429 448
56.64441 448
56.66452 452
56.68464 397
56.70475 386
56.72486 450
56.74498 438
56.76509 428
56.7852 421
56.80532 426
56.82543 425
56.84554 414
56.86566 392
56.88577 396
56.90589 419
56.926 417
56.94611 429
56.96623 375
56.98634 432
57.00645 413
57.02657 367
57.04668 437
57.0668 404
57.08691 430
57.10702 402
57.12714 415
57.14725 445
57.16736 400
57.18748 423
57.20759 397
57.22771 411
57.24782 397
57.26793 441
57.28805 415
57.30816 432
57.32827 392
57.34839 404
57.3685 419
57.38861 377
57.40873 397
57.42884 392
57.44896 432
57.46907 393
57.48918 415
57.5093 429
57.52941 386
57.54952 405
57.56964 378
57.58975 398
57.60987 397
57.62998 419
57.65009 399
57.67021 357
57.69032 399
57.71043 410
57.73055 389
57.75066 396
57.77078 378
57.79089 374
57.811 403
57.83112 401
57.85123 382
57.87134 405
57.89146 381
57.91157 404
57.93168 395
57.9518 398
57.97191 376
57.99203 394
58.01214 377
58.03225 397
58.05237 378
58.07248 378
58.09259 397
58.11271 373
58.13282 411
58.15294 397
58.17305 391
58.19316 378
58.21328 398
58.23339 387
58.2535 403
58.27362 393
58.29373 394
58.31385 376
58.33396 410
58.35407 407
58.37419 430
58.3943 394
58.41441 421
58.43453 414
58.45464 376
58.47475 395
58.49487 425
58.51498 397
58.5351 394
58.55521 410
58.57532 384
58.59544 427
58.61555 423
58.63566 404
58.65578 404
58.67589 408
58.69601 410
58.71612 426
58.73623 398
58.75635 398
58.77646 399
58.79657 381
58.81669 419
58.8368 386
58.85691 437
58.87703 386
58.89714 403
58.91726 422
58.93737 394
58.95748 424
58.9776 422
58.99771 420
59.01782 385
59.03794 423
59.05805 386
59.07817 403
59.09828 363
59.11839 393
59.13851 400
59.15862 411
59.17873 437
59.19885 393
59.21896 430
59.23908 401
59.25919 446
59.2793 409
59.29942 422
59.31953 430
59.33964 373
59.35976 409
59.37987 408
59.39998 388
59.4201 407
59.44021 426
59.46033 418
59.48044 396
59.50055 403
59.52067 390
59.54078 443
59.56089 422
59.58101 420
59.60112 413
59.62124 426
59.64135 480
59.66146 465
59.68158 451
59.70169 497
59.7218 462
59.74192 509
59.76203 529
59.78215 529
59.80226 585
59.82237 617
59.84249 529
59.8626 598
59.88271 625
59.90283 633
59.92294 590
59.94305 585
59.96317 550
59.98328 521
60.0034 498
60.02351 512
60.04362 559
60.06374 513
60.08385 558
60.10396 491
60.12408 448
60.14419 501
60.16431 439
60.18442 471
60.20453 457
60.22465 445
60.24476 430
60.26487 439
60.28499 469
60.3051 412
60.32522 446
60.34533 438
60.36544 433
60.38556 446
60.40567 407
60.42578 450
60.4459 420
60.46601 433
60.48612 438
60.50624 390
60.52635 419
60.54647 388
60.56658 405
60.58669 425
60.60681 425
60.62692 424
60.64703 421
60.66715 404
60.68726 444
60.70738 411
60.72749 478
60.7476 421
60.76772 383
60.78783 436
60.80794 426
60.82806 415
60.84817 428
60.86828 416
60.8884 450
60.90851 444
60.92863 435
60.94874 449
60.96885 458
60.98897 432
61.00908 457
61.02919 461
61.04931 453
61.06942 426
61.08954 457
61.10965 445
61.12976 466
61.14988 478
61.16999 481
61.1901 475
61.21022 491
61.23033 453
61.25045 496
61.27056 468
61.29067 493
61.31079 524
61.3309 510
61.35101 466
61.37113 518
61.39124 500
61.41135 505
61.43147 492
61.45158 502
61.4717 538
61.49181 529
61.51192 544
61.53204 493
61.55215 521
61.57226 470
61.59238 504
61.61249 534
61.63261 520
61.65272 512
61.67283 553
61.69295 517
61.71306 491
61.73317 531
61.75329 534
61.7734 492
61.79352 520
61.81363 557
61.83374 515
61.85386 498
61.87397 529
61.89408 503
61.9142 515
61.93431 484
61.95442 497
61.97454 497
61.99465 521
62.01477 535
62.03488 513
62.05499 526
62.07511 508
62.09522 517
62.11533 471
62.13545 535
62.15556 507
62.17568 513
62.19579 477
62.2159 451
62.23602 457
62.25613 491
62.27624 482
62.29636 463
62.31647 450
62.33659 445
62.3567 481
62.37681 469
62.39693 467
62.41704 428
62.43715 400
62.45727 456
62.47738 449
62.49749 451
62.51761 417
62.53772 427
62.55784 451
62.57795 438
62.59806 408
62.61818 414
62.63829 407
62.6584 431
62.67852 415
62.69863 409
62.71875 409
62.73886 397
62.75897 401
62.77909 448
62.7992 398
62.81931 426
62.83943 379
62.85954 381
62.87965 385
62.89977 398
62.91988 392
62.94 392
62.96011 362
62.98022 409
63.00034 404
63.02045 442
63.04056 383
63.06068 431
63.08079 378
63.10091 372
63.12102 388
63.14113 383
63.16125 419
63.18136 397
63.20147 391
63.22159 411
63.2417 390
63.26182 402
63.28193 393
63.30204 385
63.32216 382
63.34227 407
63.36238 380
63.3825 404
63.40261 401
63.42272 404
63.44284 410
63.46295 373
63.48307 418
63.50318 427
63.52329 399
63.54341 422
63.56352 403
63.58363 398
63.60375 397
63.62386 398
63.64398 418
63.66409 399
63.6842 379
63.70432 404
63.72443 422
63.74454 401
63.76466 392
63.78477 391
63.80489 380
63.825 448
63.84511 416
63.86523 440
63.88534 429
63.90545 447
63.92557 462
63.94568 401
63.96579 445
63.98591 428
64.00602 417
64.02614 418
64.04625 393
64.06636 408
64.08648 360
64.10659 415
64.1267 388
64.14682 374
64.16693 416
64.18705 382
64.20716 381
64.22727 351
64.24739 383
64.2675 368
64.28761 367
64.30773 378
64.32784 377
64.34796 394
64.36807 335
64.38818 399
64.4083 410
64.42841 341
64.44852 389
64.46864 361
64.48875 340
64.50886 390
64.52898 376
64.54909 385
64.56921 381
64.58932 400
64.60943 375
64.62955 386
64.64966 363
64.66977 377
64.68989 374
64.71 343
64.73012 384
64.75023 374
64.77034 369
64.79046 352
64.81057 394
64.83068 371
64.8508 349
64.87091 373
64.89102 379
64.91114 365
64.93125 357
64.95137 335
64.97148 348
64.99159 380
65.01171 389
65.03182 384
65.05193 367
65.07205 354
65.09216 380
65.11228 387
65.13239 382
65.1525 370
65.17262 364
65.19273 385
65.21284 340
65.23296 392
65.25307 387
65.27319 351
65.2933 359
65.31341 393
65.33353 352
65.35364 382
65.37375 364
65.39387 364
65.41398 357
65.43409 378
65.45421 382
65.47432 372
65.49444 407
65.51455 382
65.53466 373
65.55478 383
65.57489 380
65.595 371
65.61512 340
65.63523 421
65.65535 364
65.67546 349
65.69557 362
65.71569 388
65.7358 360
65.75591 390
65.77603 362
65.79614 342
65.81626 385
65.83637 340
65.85648 390
65.8766 345
65.89671 335
65.91682 340
65.93694 358
65.95705 384
65.97716 370
65.99728 343
66.01739 359
66.03751 372
66.05762 337
66.07773 339
66.09785 334
66.11796 378
66.13807 347
66.15819 375
66.1783 351
66.19842 367
66.21853 389
66.23864 394
66.25876 349
66.27887 380
66.29898 363
66.3191 357
66.33921 385
66.35933 355
66.37944 364
66.39955 333
66.41967 330
66.43978 370
66.45989 368
66.48001 350
66.50012 361
66.52023 371
66.54035 361
66.56046 359
66.58058 390
66.60069 337
66.6208 360
66.64092 362
66.66103 357
66.68114 340
66.70126 372
66.72137 360
66.74149 381
66.7616 360
66.78171 322
66.80183 375
66.82194 364
66.84205 340
66.86217 384
66.88228 359
66.90239 355
66.92251 388
66.94262 349
66.96274 331
66.98285 380
67.00296 344
67.02308 367
67.04319 352
67.0633 353
67.08342 387
67.10353 370
67.12365 370
67.14376 375
67.16387 367
67.18399 374
67.2041 393
67.22421 355
67.24433 378
67.26444 387
67.28456 371
67.30467 350
67.32478 392
67.3449 403
67.36501 377
67.38512 407
67.40524 395
67.42535 388
67.44546 376
67.46558 371
67.48569 408
67.50581 424
67.52592 410
67.54603 443
67.56615 427
67.58626 427
67.60637 497
67.62649 471
67.6466 488
67.66672 486
67.68683 489
67.70694 479
67.72706 428
67.74717 473
67.76728 449
67.7874 466
67.80751 446
67.82763 434
67.84774 417
67.86785 492
67.88797 457
67.90808 446
67.92819 484
67.94831 490
67.96842 461
67.98853 504
68.00865 519
68.02876 578
68.04888 569
68.06899 548
68.0891 504
68.10922 530
68.12933 517
68.14944 548
68.16956 516
68.18967 523
68.20979 504
68.2299 561
68.25001 547
68.27013 490
68.29024 473
68.31035 483
68.33047 468
68.35058 443
68.3707 464
68.39081 423
68.41092 396
68.43104 401
68.45115 421
68.47126 377
68.49138 385
68.51149 387
68.5316 385
68.55172 378
68.57183 372
68.59195 368
68.61206 368
68.63217 361
68.65229 359
68.6724 385
68.69251 389
68.71263 386
68.73274 380
68.75286 343
68.77297 404
68.79308 360
68.8132 398
68.83331 364
68.85342 378
68.87354 379
68.89365 374
68.91376 375
68.93388 363
68.95399 385
68.97411 369
68.99422 388
69.01433 355
69.03445 350
69.05456 334
69.07467 331
69.09479 381
69.1149 370
69.13502 335
69.15513 354
69.17524 377
69.19536 344
69.21547 360
69.23558 378
69.2557 344
69.27581 363
69.29593 414
69.31604 427
69.33615 387
69.35627 367
69.37638 381
69.39649 365
69.41661 346
69.43672 349
69.45683 381
69.47695 332
69.49706 389
69.51718 391
69.53729 342
69.5574 384
69.57752 341
69.59763 366
69.61774 321
69.63786 361
69.65797 350
69.67809 377
69.6982 382
69.71831 350
69.73843 360
69.75854 353
69.77865 377
69.79877 355
69.81888 360
69.839 383
69.85911 370
69.87922 364
69.89934 360
69.91945 402
69.93956 327
69.95968 339
69.97979 358
69.9999 353
70.02002 355
70.04013 361
70.06025 390
70.08036 367
70.10047 378
70.12059 364
70.1407 394
70.16081 360
70.18093 335
70.20104 364
70.22116 363
70.24127 343
70.26138 339
70.2815 342
70.30161 328
70.32172 345
70.34184 316
70.36195 369
70.38207 353
70.40218 366
70.42229 330
70.44241 347
70.46252 319
70.48263 345
70.50275 333
70.52286 362
70.54297 338
70.56309 346
70.5832 364
70.60332 360
70.62343 346
70.64354 345
70.66366 360
70.68377 351
70.70388 361
70.724 341
70.74411 352
70.76423 345
70.78434 335
70.80445 342
70.82457 348
70.84468 322
70.86479 365
70.88491 334
70.90502 347
70.92513 346
70.94525 382
70.96536 370
70.98548 331
71.00559 348
71.0257 338
71.04582 399
71.06593 342
71.08604 329
71.10616 369
71.12627 370
71.14639 356
71.1665 357
71.18661 340
71.20673 372
71.22684 377
71.24695 341
71.26707 363
71.28718 353
71.3073 359
71.32741 376
71.34752 394
71.36764 380
71.38775 346
71.40786 370
71.42798 371
71.44809 344
71.4682 346
71.48832 318
71.50843 338
71.52855 350
71.54866 380
71.56877 365
71.58889 359
71.609 376
71.62911 371
71.64923 370
71.66934 391
71.68946 357
71.70957 348
71.72968 330
71.7498 344
71.76991 371
71.79002 343
71.81014 359
71.83025 362
71.85037 333
71.87048 354
71.89059 367
71.91071 372
71.93082 361
71.95093 365
71.97105 372
71.99116 376
72.01127 378
72.03139 358
72.0515 346
72.07162 358
72.09173 347
72.11184 378
72.13196 344
72.15207 341
72.17218 378
72.1923 371
72.21241 366
72.23253 381
72.25264 371
72.27275 407
72.29287 401
72.31298 383
72.33309 397
72.35321 388
72.37332 388
72.39344 359
72.41355 396
72.43366 374
72.45378 361
72.47389 363
72.494 351
72.51412 377
72.53423 337
72.55434 376
72.57446 360
72.59457 394
72.61469 378
72.6348 348
72.65491 376
72.67503 341
72.69514 336
72.71525 402
72.73537 361
72.75548 397
72.7756 369
72.79571 361
72.81582 405
72.83594 378
72.85605 374
72.87616 368
72.89628 384
72.91639 371
72.9365 355
72.95662 388
72.97673 354
72.99685 390
73.01696 381
73.03707 398
73.05719 377
73.0773 353
73.09741 397
73.11753 385
73.13764 369
73.15776 383
73.17787 402
73.19798 395
73.2181 389
73.23821 383
73.25832 396
73.27844 404
73.29855 426
73.31867 446
73.33878 428
73.35889 437
73.37901 401
73.39912 401
73.41923 421
73.43935 424
73.45946 396
73.47957 375
73.49969 399
73.5198 356
73.53992 388
73.56003 391
73.58014 428
73.60026 385
73.62037 405
73.64048 398
73.6606 396
73.68071 391
73.70083 382
73.72094 344
73.74105 383
73.76117 350
73.78128 384
73.80139 350
73.82151 372
73.84162 383
73.86174 362
73.88185 386
73.90196 364
73.92208 340
73.94219 347
73.9623 370
73.98242 364
74.00253 377
74.02264 343
74.04276 405
74.06287 356
74.08299 344
74.1031 341
74.12321 358
74.14333 352
74.16344 349
74.18355 364
74.20367 318
74.22378 373
74.2439 352
74.26401 349
74.28412 340
74.30424 355
74.32435 367
74.34446 371
74.36458 358
74.38469 352
74.40481 375
74.42492 362
74.44503 331
74.46515 371
74.48526 345
74.50537 328
74.52549 355
74.5456 359
74.56571 361
74.58583 362
74.60594 351
74.62606 334
74.64617 372
74.66628 349
74.6864 334
74.70651 339
74.72662 333
74.74674 351
74.76685 393
74.78697 378
74.80708 352
74.82719 371
74.84731 391
74.86742 352
74.88753 359
74.90765 358
74.92776 361
74.94787 380
74.96799 354
74.9881 368
75.00822 365
