3.00117 20234
3.02128 19960
3.0414 19318
3.06151 18467
3.08162 18170
3.10174 17565
3.12185 17520
3.14197 16788
3.16208 15911
3.18219 15977
3.20231 15277
3.22242 14860
3.24253 14276
3.26265 13952
3.28276 13607
3.30288 13032
3.32299 12720
3.3431 12234
3.36322 11898
3.38333 11476
3.40344 10769
3.42356 10886
3.44367 10377
3.46379 9836
3.4839 9819
3.50401 9108
3.52413 9073
3.54424 8766
3.56435 8048
3.58447 7987
3.60458 7536
3.62469 7437
3.64481 7245
3.66492 6876
3.68504 6594
3.70515 6127
3.72526 6116
3.74538 5742
3.76549 5357
3.7856 5363
3.80572 5060
3.82583 4874
3.84595 4798
3.86606 4381
3.88617 4286
3.90629 4095
3.9264 4121
3.94651 3824
3.96663 3608
3.98674 3577
4.00686 3317
4.02697 3033
4.04708 3094
4.0672 2809
4.08731 2774
4.10742 2525
4.12754 2478
4.14765 2542
4.16776 2224
4.18788 2224
4.20799 2129
4.22811 2023
4.24822 2063
4.26833 1977
4.28845 1885
4.30856 1774
4.32867 1758
4.34879 1773
4.3689 1535
4.38902 1605
4.40913 1536
4.42924 1577
4.44936 1590
4.46947 1405
4.48958 1431
4.5097 1353
4.52981 1264
4.54992 1410
4.57004 1272
4.59015 1203
4.61027 1192
4.63038 1237
4.65049 1202
4.67061 1088
4.69072 1059
4.71083 1104
4.73095 1088
4.75106 1055
4.77118 947
4.79129 1015
4.8114 938
4.83152 990
4.85163 953
4.87174 877
4.89186 861
4.91197 863
4.93209 862
4.9522 872
4.97231 827
4.99243 847
5.01254 733
5.03265 809
5.05277 739
5.07288 759
5.09299 723
5.11311 756
5.13322 650
5.15334 670
5.17345 617
5.19356 618
5.21368 612
5.23379 612
5.2539 569
5.27402 526
5.29413 603
5.31425 588
5.33436 550
5.35447 543
5.37459 512
5.3947 485
5.41481 495
5.43493 477
5.45504 499
5.47516 502
5.49527 467
5.51538 482
5.5355 415
5.55561 437
5.57572 452
5.59584 395
5.61595 444
5.63606 409
5.65618 400
5.67629 370
5.69641 396
5.71652 405
5.73663 404
5.75675 398
5.77686 344
5.79697 380
5.81709 351
5.8372 384
5.85732 374
5.87743 363
5.89754 335
5.91766 326
5.93777 363
5.95788 322
5.978 336
5.99811 364
6.01823 311
6.03834 365
6.05845 324
6.07857 326
6.09868 327
6.11879 299
6.13891 287
6.15902 341
6.17913 320
6.19925 305
6.21936 298
6.23948 336
6.25959 282
6.2797 301
6.29982 284
6.31993 270
6.34004 311
6.36016 301
6.38027 277
6.40039 297
6.4205 320
6.44061 322
6.46073 289
6.48084 293
6.50095 273
6.52107 285
6.54118 283
6.56129 298
6.58141 245
6.60152 285
6.62164 290
6.64175 258
6.66186 283
6.68198 287
6.70209 281
6.7222 261
6.74232 283
6.76243 291
6.78255 287
6.80266 236
6.82277 300
6.84289 254
6.863 260
6.88311 277
6.90323 244
6.92334 285
6.94346 263
6.96357 281
6.98368 289
7.0038 272
7.02391 262
7.04402 269
7.06414 281
7.08425 288
7.10436 234
7.12448 268
7.14459 296
7.16471 264
7.18482 306
7.20493 286
7.22505 302
7.24516 286
7.26527 293
7.28539 282
7.3055 284
7.32562 284
7.34573 303
7.36584 289
7.38596 289
7.40607 261
7.42618 295
7.4463 257
7.46641 281
7.48653 283
7.50664 297
7.52675 297
7.54687 316
7.56698 262
7.58709 291
7.60721 282
7.62732 285
7.64743 291
7.66755 298
7.68766 292
7.70778 310
7.72789 264
7.748 294
7.76812 273
7.78823 292
7.80834 293
7.82846 306
7.84857 272
7.86869 291
7.8888 264
7.90891 301
7.92903 317
7.94914 321
7.96925 273
7.98937 324
8.00948 295
8.0296 301
8.04971 337
8.06982 301
8.08994 315
8.11005 314
8.13016 296
8.15028 307
8.17039 297
8.1905 312
8.21062 318
8.23073 305
8.25085 313
8.27096 278
8.29107 324
8.31119 319
8.3313 313
8.35141 297
8.37153 320
8.39164 345
8.41176 342
8.43187 313
8.45198 341
8.4721 311
8.49221 329
8.51232 346
8.53244 376
8.55255 354
8.57266 362
8.59278 356
8.61289 344
8.63301 357
8.65312 367
8.67323 408
8.69335 421
8.71346 420
8.73357 450
8.75369 475
8.7738 438
8.79392 484
8.81403 495
8.83414 509
8.85426 529
8.87437 490
8.89448 474
8.9146 443
8.93471 428
8.95483 429
8.97494 399
8.99505 348
9.01517 345
9.03528 312
9.05539 324
9.07551 340
9.09562 340
9.11573 335
9.13585 335
9.15596 341
9.17608 329
9.19619 322
9.2163 307
9.23642 336
9.25653 327
9.27664 327
9.29676 285
9.31687 304
9.33699 286
9.3571 297
9.37721 325
9.39733 329
9.41744 302
9.43755 273
9.45767 299
9.47778 308
9.4979 327
9.51801 306
9.53812 284
9.55824 306
9.57835 289
9.59846 308
9.61858 301
9.63869 314
9.6588 328
9.67892 289
9.69903 303
9.71915 301
9.73926 311
9.75937 307
9.77949 317
9.7996 308
9.81971 247
9.83983 305
9.85994 299
9.88006 276
9.90017 282
9.92028 264
9.9404 288
9.96051 271
9.98062 312
10.00074 300
10.02085 294
10.04097 287
10.06108 298
10.08119 258
10.10131 299
10.12142 256
10.14153 307
10.16165 284
10.18176 316
10.20187 309
10.22199 309
10.2421 282
10.26222 312
10.28233 323
10.30244 321
10.32256 272
10.34267 289
10.36278 308
10.3829 287
10.40301 316
10.42313 251
10.44324 272
10.46335 301
10.48347 284
10.50358 285
10.52369 311
10.54381 267
10.56392 286
10.58403 287
10.60415 318
10.62426 317
10.64438 286
10.66449 296
10.6846 317
10.70472 294
10.72483 325
10.74494 288
10.76506 288
10.78517 302
10.80529 285
10.8254 269
10.84551 296
10.86563 303
10.88574 305
10.90585 323
10.92597 311
10.94608 303
10.9662 324
10.98631 318
11.00642 295
11.02654 266
11.04665 287
11.06676 269
11.08688 266
11.10699 277
11.1271 289
11.14722 306
11.16733 284
11.18745 276
11.20756 290
11.22767 297
11.24779 298
11.2679 305
11.28801 312
11.30813 301
11.32824 311
11.34836 308
11.36847 318
11.38858 286
11.4087 283
11.42881 286
11.44892 282
11.46904 306
11.48915 316
11.50927 313
11.52938 313
11.54949 267
11.56961 289
11.58972 276
11.60983 339
11.62995 297
11.65006 294
11.67017 315
11.69029 320
11.7104 326
11.73052 304
11.75063 287
11.77074 323
11.79086 343
11.81097 331
11.83108 336
11.8512 285
11.87131 318
11.89143 339
11.91154 323
11.93165 355
11.95177 311
11.97188 316
11.99199 336
12.01211 326
12.03222 330
12.05234 380
12.07245 334
12.09256 332
12.11268 328
12.13279 367
12.1529 338
12.17302 376
12.19313 363
12.21324 425
12.23336 366
12.25347 383
12.27359 446
12.2937 455
12.31381 444
12.33393 452
12.35404 435
12.37415 426
12.39427 430
12.41438 458
12.4345 390
12.45461 439
12.47472 407
12.49484 393
12.51495 350
12.53506 364
12.55518 331
12.57529 340
12.5954 339
12.61552 362
12.63563 343
12.65575 247
12.67586 337
12.69597 266
12.71609 294
12.7362 306
12.75631 292
12.77643 274
12.79654 293
12.81666 273
12.83677 303
12.85688 273
12.877 290
12.89711 280
12.91722 292
12.93734 325
12.95745 278
12.97757 276
12.99768 293
13.01779 288
13.03791 289
13.05802 302
13.07813 311
13.09825 271
13.11836 273
13.13847 266
13.15859 279
13.1787 296
13.19882 297
13.21893 264
13.23904 288
13.25916 261
13.27927 282
13.29938 249
13.3195 295
13.33961 335
13.35973 267
13.37984 262
13.39995 284
13.42007 272
13.44018 271
13.46029 316
13.48041 265
13.50052 286
13.52064 260
13.54075 282
13.56086 238
13.58098 309
13.60109 265
13.6212 256
13.64132 286
13.66143 254
13.68154 290
13.70166 256
13.72177 267
13.74189 270
13.762 288
13.78211 260
13.80223 299
13.82234 258
13.84245 282
13.86257 295
13.88268 275
13.9028 255
13.92291 285
13.94302 281
13.96314 260
13.98325 262
14.00336 243
14.02348 267
14.04359 280
14.06371 246
14.08382 255
14.10393 285
14.12405 272
14.14416 244
14.16427 205
14.18439 263
14.2045 260
14.22461 274
14.24473 237
14.26484 272
14.28496 236
14.30507 291
14.32518 263
14.3453 257
14.36541 303
14.38552 245
14.40564 249
14.42575 253
14.44587 270
14.46598 241
14.48609 246
14.50621 220
14.52632 264
14.54643 220
14.56655 217
14.58666 255
14.60677 204
14.62689 251
14.647 293
14.66712 241
14.68723 249
14.70734 263
14.72746 248
14.74757 242
14.76768 263
14.7878 249
14.80791 276
14.82803 276
14.84814 270
14.86825 262
14.88837 267
14.90848 276
14.92859 264
14.94871 270
14.96882 243
14.98894 264
15.00905 264
15.02916 260
15.04928 270
15.06939 276
15.0895 253
15.10962 296
15.12973 233
15.14984 246
15.16996 247
15.19007 268
15.21019 263
15.2303 265
15.25041 263
15.27053 246
15.29064 255
15.31075 265
15.33087 249
15.35098 264
15.3711 251
15.39121 299
15.41132 279
15.43144 263
15.45155 266
15.47166 254
15.49178 258
15.51189 283
15.53201 255
15.55212 223
15.57223 244
15.59235 260
15.61246 244
15.63257 284
15.65269 217
15.6728 245
15.69291 259
15.71303 234
15.73314 251
15.75326 244
15.77337 241
15.79348 251
15.8136 255
15.83371 249
15.85382 271
15.87394 282
15.89405 256
15.91417 261
15.93428 252
15.95439 265
15.97451 271
15.99462 244
16.01473 264
16.03485 236
16.05496 248
16.07508 246
16.09519 253
16.1153 237
16.13542 232
16.15553 266
16.17564 241
16.19576 225
16.21587 231
16.23598 271
16.2561 247
16.27621 242
16.29633 264
16.31644 242
16.33655 246
16.35667 297
16.37678 261
16.39689 263
16.41701 242
16.43712 247
16.45724 231
16.47735 252
16.49746 265
16.51758 271
16.53769 263
16.5578 278
16.57792 246
16.59803 261
16.61814 288
16.63826 247
16.65837 252
16.67849 269
16.6986 237
16.71871 268
16.73883 242
16.75894 251
16.77905 250
16.79917 268
16.81928 245
16.8394 252
16.85951 263
16.87962 207
16.89974 279
16.91985 243
16.93996 255
16.96008 241
16.98019 242
17.00031 251
17.02042 272
17.04053 240
17.06065 234
17.08076 276
17.10087 258
17.12099 242
17.1411 235
17.16121 262
17.18133 234
17.20144 253
17.22156 234
17.24167 248
17.26178 228
17.2819 266
17.30201 266
17.32212 241
17.34224 248
17.36235 228
17.38247 267
17.40258 285
17.42269 297
17.44281 265
17.46292 285
17.48303 250
17.50315 280
17.52326 259
17.54338 278
17.56349 288
17.5836 330
17.60372 287
17.62383 297
17.64394 326
17.66406 297
17.68417 334
17.70428 267
17.7244 309
17.74451 326
17.76463 339
17.78474 355
17.80485 323
17.82497 327
17.84508 282
17.86519 300
17.88531 324
17.90542 307
17.92554 285
17.94565 296
17.96576 287
17.98588 273
18.00599 297
18.0261 273
18.04622 285
18.06633 280
18.08645 246
18.10656 267
18.12667 274
18.14679 292
18.1669 272
18.18701 272
18.20713 266
18.22724 255
18.24735 267
18.26747 249
18.28758 255
18.3077 260
18.32781 268
18.34792 284
18.36804 274
18.38815 245
18.40826 258
18.42838 225
18.44849 303
18.46861 243
18.48872 248
18.50883 273
18.52895 271
18.54906 266
18.56917 219
18.58929 254
18.6094 265
18.62951 311
18.64963 244
18.66974 262
18.68986 227
18.70997 282
18.73008 302
18.7502 258
18.77031 250
18.79042 280
18.81054 270
18.83065 275
18.85077 256
18.87088 281
18.89099 274
18.91111 274
18.93122 262
18.95133 264
18.97145 250
18.99156 251
19.01168 246
19.03179 236
19.0519 248
19.07202 272
19.09213 260
19.11224 220
19.13236 271
19.15247 254
19.17258 262
19.1927 289
19.21281 290
19.23293 245
19.25304 288
19.27315 267
19.29327 258
19.31338 286
19.33349 288
19.35361 262
19.37372 271
19.39384 263
19.41395 296
19.43406 279
19.45418 266
19.47429 314
19.4944 271
19.51452 277
19.53463 342
19.55475 321
19.57486 346
19.59497 367
19.61509 328
19.6352 417
19.65531 429
19.67543 448
19.69554 479
19.71565 511
19.73577 588
19.75588 654
19.776 622
19.79611 701
19.81622 795
19.83634 777
19.85645 780
19.87656 783
19.89668 752
19.91679 725
19.93691 668
19.95702 613
19.97713 581
19.99725 504
20.01736 485
20.03747 504
20.05759 470
20.0777 471
20.09782 486
20.11793 518
20.13804 464
20.15816 464
20.17827 468
20.19838 471
20.2185 444
20.23861 473
20.25872 437
20.27884 435
20.29895 478
20.31907 466
20.33918 461
20.35929 442
20.37941 471
20.39952 412
20.41963 472
20.43975 499
20.45986 471
20.47998 465
20.50009 479
20.5202 545
20.54032 526
20.56043 516
20.58054 598
20.60066 591
20.62077 625
20.64088 634
20.661 699
20.68111 792
20.70123 943
20.72134 1237
20.74145 1625
20.76157 2252
20.78168 3019
20.80179 3969
20.82191 4987
20.84202 5952
20.86214 6034
20.88225 5345
20.90236 4174
20.92248 3016
20.94259 1948
20.9627 1192
20.98282 787
21.00293 701
21.02305 655
21.04316 546
21.06327 523
21.08339 586
21.1035 547
21.12361 549
21.14373 484
21.16384 520
21.18395 477
21.20407 471
21.22418 491
21.2443 485
21.26441 503
21.28452 535
21.30464 499
21.32475 507
21.34486 495
21.36498 556
21.38509 538
21.40521 522
21.42532 536
21.44543 465
21.46555 506
21.48566 464
21.50577 492
21.52589 472
21.546 433
21.56612 467
21.58623 477
21.60634 437
21.62646 458
21.64657 419
21.66668 397
21.6868 404
21.70691 408
21.72702 418
21.74714 416
21.76725 392
21.78737 393
21.80748 403
21.82759 409
21.84771 357
21.86782 337
21.88793 363
21.90805 359
21.92816 334
21.94828 383
21.96839 334
21.9885 340
22.00862 365
22.02873 370
22.04884 374
22.06896 366
22.08907 385
22.10919 385
22.1293 334
22.14941 327
22.16953 339
22.18964 351
22.20975 348
22.22987 377
22.24998 356
22.27009 370
22.29021 361
22.31032 333
22.33044 364
22.35055 351
22.37066 367
22.39078 382
22.41089 334
22.431 362
22.45112 356
22.47123 334
22.49135 363
22.51146 340
22.53157 344
22.55169 319
22.5718 356
22.59191 329
22.61203 294
22.63214 299
22.65225 341
22.67237 358
22.69248 363
22.7126 361
22.73271 338
22.75282 394
22.77294 373
22.79305 406
22.81316 421
22.83328 424
22.85339 415
22.87351 393
22.89362 432
22.91373 431
22.93385 415
22.95396 411
22.97407 340
22.99419 400
23.0143 396
23.03442 419
23.05453 379
23.07464 354
23.09476 298
23.11487 315
23.13498 331
23.1551 307
23.17521 355
23.19532 320
23.21544 350
23.23555 349
23.25567 343
23.27578 310
23.29589 363
23.31601 330
23.33612 292
23.35623 327
23.37635 310
23.39646 330
23.41658 313
23.43669 332
23.4568 368
23.47692 324
23.49703 281
23.51714 340
23.53726 339
23.55737 381
23.57749 353
23.5976 371
23.61771 378
23.63783 358
23.65794 336
23.67805 359
23.69817 344
23.71828 402
23.73839 394
23.75851 409
23.77862 408
23.79874 438
23.81885 438
23.83896 422
23.85908 428
23.87919 404
23.8993 413
23.91942 368
23.93953 410
23.95965 413
23.97976 397
23.99987 397
24.01999 400
24.0401 407
24.06021 391
24.08033 353
24.10044 364
24.12056 365
24.14067 317
24.16078 359
24.1809 320
24.20101 386
24.22112 309
24.24124 341
24.26135 370
24.28146 323
24.30158 389
24.32169 327
24.34181 344
24.36192 337
24.38203 304
24.40215 353
24.42226 365
24.44237 348
24.46249 316
24.4826 364
24.50272 356
24.52283 309
24.54294 350
24.56306 320
24.58317 358
24.60328 303
24.6234 353
24.64351 347
24.66362 390
24.68374 361
24.70385 401
24.72397 443
24.74408 411
24.76419 380
24.78431 433
24.80442 463
24.82453 394
24.84465 459
24.86476 413
24.88488 443
24.90499 431
24.9251 440
24.94522 447
24.96533 405
24.98544 438
25.00556 391
25.02567 425
25.04579 379
25.0659 409
25.08601 387
25.10613 373
25.12624 356
25.14635 374
25.16647 379
25.18658 360
25.20669 416
25.22681 389
25.24692 385
25.26704 426
25.28715 412
25.30726 429
25.32738 396
25.34749 431
25.3676 412
25.38772 446
25.40783 436
25.42795 498
25.44806 478
25.46817 495
25.48829 489
25.5084 497
25.52851 468
25.54863 452
25.56874 421
25.58886 419
25.60897 409
25.62908 435
25.6492 397
25.66931 426
25.68942 462
25.70954 431
25.72965 450
25.74976 481
25.76988 483
25.78999 468
25.81011 501
25.83022 485
25.85033 468
25.87045 456
25.89056 506
25.91067 487
25.93079 505
25.9509 515
25.97102 523
25.99113 470
26.01124 490
26.03136 490
26.05147 552
26.07158 522
26.0917 555
26.11181 570
26.13193 629
26.15204 644
26.17215 652
26.19227 707
26.21238 722
26.23249 736
26.25261 772
26.27272 797
26.29283 883
26.31295 921
26.33306 958
26.35318 1060
26.37329 1202
26.3934 1451
26.41352 1697
26.43363 2111
26.45374 2669
26.47386 3517
26.49397 4866
26.51409 6593
26.5342 9431
26.55431 12978
26.57443 17420
26.59454 22197
26.61465 25844
26.63477 26762
26.65488 24615
26.67499 19362
26.69511 14949
26.71522 10993
26.73534 7366
26.75545 4183
26.77556 2501
26.79568 1755
26.81579 1487
26.8359 1290
26.85602 1184
26.87613 1078
26.89625 1109
26.91636 937
26.93647 909
26.95659 799
26.9767 752
26.99681 651
27.01693 647
27.03704 573
27.05716 588
27.07727 583
27.09738 533
27.1175 500
27.13761 512
27.15772 496
27.17784 518
27.19795 483
27.21806 443
27.23818 459
27.25829 462
27.27841 478
27.29852 511
27.31863 475
27.33875 524
27.35886 542
27.37897 501
27.39909 560
27.4192 589
27.43932 591
27.45943 568
27.47954 507
27.49966 506
27.51977 492
27.53988 462
27.56 454
27.58011 409
27.60023 405
27.62034 410
27.64045 405
27.66057 430
27.68068 458
27.70079 423
27.72091 481
27.74102 451
27.76113 503
27.78125 509
27.80136 508
27.82148 532
27.84159 489
27.8617 470
27.88182 481
27.90193 458
27.92204 461
27.94216 444
27.96227 415
27.98239 398
28.0025 373
28.02261 381
28.04273 389
28.06284 393
28.08295 309
28.10307 349
28.12318 327
28.1433 363
28.16341 327
28.18352 338
28.20364 337
28.22375 373
28.24386 314
28.26398 319
28.28409 347
28.3042 333
28.32432 330
28.34443 340
28.36455 357
28.38466 307
28.40477 345
28.42489 351
28.445 317
28.46511 327
28.48523 383
28.50534 343
28.52546 319
28.54557 309
28.56568 318
28.5858 391
28.60591 339
28.62602 337
28.64614 314
28.66625 329
28.68636 309
28.70648 318
28.72659 338
28.74671 321
28.76682 313
28.78693 308
28.80705 307
28.82716 324
28.84727 299
28.86739 281
28.8875 316
28.90762 297
28.92773 302
28.94784 292
28.96796 278
28.98807 300
29.00818 326
29.0283 323
29.04841 318
29.06853 315
29.08864 313
29.10875 343
29.12887 344
29.14898 309
29.16909 311
29.18921 319
29.20932 327
29.22943 326
29.24955 332
29.26966 325
29.28978 301
29.30989 323
29.33 302
29.35012 307
29.37023 296
29.39034 312
29.41046 352
29.43057 308
29.45069 318
29.4708 326
29.49091 316
29.51103 333
29.53114 307
29.55125 321
29.57137 328
29.59148 306
29.6116 357
29.63171 365
29.65182 343
29.67194 372
29.69205 362
29.71216 404
29.73228 372
29.75239 399
29.7725 433
29.79262 462
29.81273 403
29.83285 417
29.85296 416
29.87307 425
29.89319 458
29.9133 408
29.93341 360
29.95353 416
29.97364 357
29.99376 330
30.01387 339
30.03398 354
30.0541 330
30.07421 300
30.09432 327
30.11444 334
30.13455 333
30.15467 322
30.17478 267
30.19489 329
30.21501 323
30.23512 354
30.25523 321
30.27535 316
30.29546 317
30.31557 296
30.33569 312
30.3558 286
30.37592 305
30.39603 283
30.41614 317
30.43626 288
30.45637 318
30.47648 305
30.4966 298
30.51671 296
30.53683 287
30.55694 305
30.57705 279
30.59717 311
30.61728 283
30.63739 281
30.65751 290
30.67762 311
30.69773 320
30.71785 306
30.73796 303
30.75808 273
30.77819 321
30.7983 315
30.81842 294
30.83853 284
30.85864 301
30.87876 306
30.89887 317
30.91899 347
30.9391 279
30.95921 319
30.97933 301
30.99944 319
31.01955 325
31.03967 319
31.05978 340
31.0799 350
31.10001 281
31.12012 338
31.14024 365
31.16035 388
31.18046 336
31.20058 370
31.22069 382
31.2408 380
31.26092 358
31.28103 357
31.30115 350
31.32126 359
31.34137 337
31.36149 313
31.3816 311
31.40171 324
31.42183 295
31.44194 290
31.46206 265
31.48217 293
31.50228 281
31.5224 301
31.54251 284
31.56262 306
31.58274 283
31.60285 299
31.62297 286
31.64308 307
31.66319 289
31.68331 293
31.70342 266
31.72353 348
31.74365 270
31.76376 305
31.78387 289
31.80399 268
31.8241 296
31.84422 300
31.86433 302
31.88444 319
31.90456 360
31.92467 338
31.94478 316
31.9649 304
31.98501 337
32.00513 341
32.02524 348
32.04535 330
32.06547 345
32.08558 285
32.10569 306
32.12581 327
32.14592 299
32.16604 261
32.18615 276
32.20626 279
32.22638 308
32.24649 278
32.2666 302
32.28672 269
32.30683 268
32.32694 278
32.34706 280
32.36717 283
32.38729 299
32.4074 299
32.42751 255
32.44763 265
32.46774 291
32.48785 291
32.50797 295
32.52808 300
32.5482 287
32.56831 288
32.58842 287
32.60854 285
32.62865 285
32.64876 276
32.66888 268
32.68899 298
32.7091 293
32.72922 258
32.74933 278
32.76945 273
32.78956 290
32.80967 301
32.82979 301
32.8499 280
32.87001 284
32.89013 289
32.91024 303
32.93036 268
32.95047 305
32.97058 287
32.9907 312
33.01081 291
33.03092 318
33.05104 286
33.07115 299
33.09127 268
33.11138 313
33.13149 316
33.15161 326
33.17172 303
33.19183 332
33.21195 318
33.23206 298
33.25217 328
33.27229 329
33.2924 291
33.31252 323
33.33263 317
33.35274 307
33.37286 326
33.39297 327
33.41308 327
33.4332 309
33.45331 303
33.47343 319
33.49354 278
33.51365 262
33.53377 322
33.55388 313
33.57399 324
33.59411 309
33.61422 297
33.63434 333
33.65445 298
33.67456 297
33.69468 266
33.71479 300
33.7349 287
33.75502 298
33.77513 266
33.79524 280
33.81536 300
33.83547 276
33.85559 265
33.8757 268
33.89581 273
33.91593 270
33.93604 277
33.95615 292
33.97627 251
33.99638 267
34.0165 260
34.03661 254
34.05672 255
34.07684 299
34.09695 252
34.11706 285
34.13718 286
34.15729 278
34.17741 305
34.19752 273
34.21763 277
34.23775 276
34.25786 282
34.27797 309
34.29809 292
34.3182 276
34.33831 299
34.35843 303
34.37854 344
34.39866 327
34.41877 391
34.43888 375
34.459 387
34.47911 393
34.49922 399
34.51934 444
34.53945 437
34.55957 474
34.57968 478
34.59979 451
34.61991 439
34.64002 449
34.66013 419
34.68025 455
34.70036 451
34.72047 466
34.74059 455
34.7607 433
34.78082 487
34.80093 553
34.82104 536
34.84116 563
34.86127 595
34.88138 632
34.9015 650
34.92161 695
34.94173 726
34.96184 689
34.98195 718
35.00207 656
35.02218 570
35.04229 643
35.06241 599
35.08252 521
35.10264 475
35.12275 476
35.14286 440
35.16298 436
35.18309 414
35.2032 408
35.22332 386
35.24343 373
35.26354 400
35.28366 351
35.30377 345
35.32389 350
35.344 364
35.36411 344
35.38423 361
35.40434 366
35.42445 389
35.44457 314
35.46468 373
35.4848 352
35.50491 367
35.52502 374
35.54514 351
35.56525 357
35.58536 363
35.60548 348
35.62559 340
35.64571 362
35.66582 352
35.68593 353
35.70605 370
35.72616 379
35.74627 373
35.76639 375
35.7865 394
35.80661 391
35.82673 376
35.84684 392
35.86696 380
35.88707 404
35.90718 415
35.9273 419
35.94741 416
35.96752 407
35.98764 416
36.00775 383
36.02787 413
36.04798 431
36.06809 408
36.08821 387
36.10832 428
36.12843 403
36.14855 410
36.16866 396
36.18878 365
36.20889 391
36.229 377
36.24912 388
36.26923 442
36.28934 409
36.30946 462
36.32957 507
36.34968 547
36.3698 604
36.38991 741
36.41003 857
36.43014 1078
36.45025 1232
36.47037 1535
36.49048 1739
36.51059 1954
36.53071 2101
36.55082 1860
36.57094 1587
36.59105 1337
36.61116 1211
36.63128 1095
36.65139 963
36.6715 733
36.69162 528
36.71173 455
36.73184 439
36.75196 424
36.77207 413
36.79219 426
36.8123 419
36.83241 384
36.85253 418
36.87264 395
36.89275 390
36.91287 413
36.93298 426
36.9531 426
36.97321 393
36.99332 397
37.01344 363
37.03355 405
37.05366 393
37.07378 360
37.09389 364
37.11401 360
37.13412 366
37.15423 315
37.17435 348
37.19446 332
37.21457 332
37.23469 338
37.2548 311
37.27491 334
37.29503 317
37.31514 321
37.33526 354
37.35537 311
37.37548 317
37.3956 311
37.41571 374
37.43582 343
37.45594 331
37.47605 372
37.49617 348
37.51628 346
37.53639 345
37.55651 332
37.57662 336
37.59673 367
37.61685 373
37.63696 407
37.65708 363
37.67719 362
37.6973 378
37.71742 410
37.73753 382
37.75764 371
37.77776 373
37.79787 361
37.81798 352
37.8381 338
37.85821 364
37.87833 334
37.89844 338
37.91855 334
37.93867 316
37.95878 298
37.97889 314
37.99901 337
38.01912 310
38.03924 308
38.05935 310
38.07946 351
38.09958 314
38.11969 303
38.1398 315
38.15992 331
38.18003 315
38.20015 318
38.22026 345
38.24037 325
38.26049 308
38.2806 310
38.30071 320
38.32083 349
38.34094 366
38.36105 341
38.38117 348
38.40128 325
38.4214 323
38.44151 329
38.46162 315
38.48174 339
38.50185 334
38.52196 329
38.54208 335
38.56219 332
38.58231 314
38.60242 309
38.62253 332
38.64265 298
38.66276 305
38.68287 297
38.70299 302
38.7231 289
38.74321 303
38.76333 292
38.78344 265
38.80356 305
38.82367 274
38.84378 312
38.8639 306
38.88401 263
38.90412 308
38.92424 305
38.94435 283
38.96447 268
38.98458 298
39.00469 278
39.02481 328
39.04492 323
39.06503 348
39.08515 337
39.10526 349
39.12538 355
39.14549 343
39.1656 345
39.18572 351
39.20583 380
39.22594 420
39.24606 453
39.26617 478
39.28628 499
39.3064 600
39.32651 691
39.34663 905
39.36674 1050
39.38685 1256
39.40697 1476
39.42708 1684
39.44719 1788
39.46731 1725
39.48742 1422
39.50754 1192
39.52765 1058
39.54776 1067
39.56788 929
39.58799 745
39.6081 519
39.62822 422
39.64833 351
39.66845 347
39.68856 366
39.70867 313
39.72879 350
39.7489 339
39.76901 296
39.78913 332
39.80924 308
39.82935 343
39.84947 324
39.86958 326
39.8897 300
39.90981 334
39.92992 371
39.95004 365
39.97015 323
39.99026 355
40.01038 347
40.03049 385
40.05061 393
40.07072 397
40.09083 439
40.11095 428
40.13106 488
40.15117 522
40.17129 649
40.1914 695
40.21152 771
40.23163 979
40.25174 977
40.27186 1092
40.29197 966
40.31208 930
40.3322 719
40.35231 723
40.37242 642
40.39254 608
40.41265 523
40.43277 424
40.45288 386
40.47299 358
40.49311 354
40.51322 303
40.53333 309
40.55345 306
40.57356 313
40.59368 296
40.61379 312
40.6339 320
40.65402 309
40.67413 309
40.69424 297
40.71436 295
40.73447 331
40.75458 311
40.7747 321
40.79481 322
40.81493 332
40.83504 327
40.85515 327
40.87527 298
40.89538 308
40.91549 291
40.93561 330
40.95572 312
40.97584 343
40.99595 308
41.01606 311
41.03618 322
41.05629 305
41.0764 296
41.09652 299
41.11663 332
41.13675 300
41.15686 333
41.17697 341
41.19709 334
41.2172 322
41.23731 304
41.25743 334
41.27754 322
41.29765 301
41.31777 317
41.33788 286
41.358 314
41.37811 314
41.39822 290
41.41834 300
41.43845 305
41.45856 297
41.47868 268
41.49879 284
41.51891 296
41.53902 268
41.55913 318
41.57925 298
41.59936 266
41.61947 287
41.63959 309
41.6597 284
41.67982 272
41.69993 307
41.72004 281
41.74016 275
41.76027 269
41.78038 308
41.8005 269
41.82061 292
41.84072 301
41.86084 309
41.88095 274
41.90107 312
41.92118 313
41.94129 288
41.96141 333
41.98152 322
42.00163 309
42.02175 348
42.04186 337
42.06198 289
42.08209 312
42.1022 332
42.12232 340
42.14243 355
42.16254 366
42.18266 361
42.20277 404
42.22289 434
42.243 440
42.26311 491
42.28323 560
42.30334 633
42.32345 732
42.34357 916
42.36368 975
42.38379 1248
42.40391 1363
42.42402 1441
42.44414 1301
42.46425 1190
42.48436 947
42.50448 923
42.52459 812
42.5447 799
42.56482 696
42.58493 527
42.60505 458
42.62516 304
42.64527 326
42.66539 323
42.6855 333
42.70561 280
42.72573 288
42.74584 263
42.76595 258
42.78607 271
42.80618 261
42.8263 282
42.84641 258
42.86652 269
42.88664 271
42.90675 271
42.92686 242
42.94698 269
42.96709 252
42.98721 263
43.00732 240
43.02743 269
43.04755 267
43.06766 261
43.08777 240
43.10789 218
43.128 250
43.14812 251
43.16823 263
43.18834 252
43.20846 253
43.22857 230
43.24868 256
43.2688 250
43.28891 245
43.30902 251
43.32914 244
43.34925 261
43.36937 234
43.38948 221
43.40959 251
43.42971 236
43.44982 271
43.46993 261
43.49005 248
43.51016 262
43.53028 256
43.55039 251
43.5705 264
43.59062 272
43.61073 264
43.63084 262
43.65096 261
43.67107 238
43.69119 255
43.7113 236
43.73141 253
43.75153 267
43.77164 258
43.79175 253
43.81187 240
43.83198 261
43.85209 239
43.87221 247
43.89232 241
43.91244 243
43.93255 248
43.95266 252
43.97278 233
43.99289 259
44.013 283
44.03312 236
44.05323 280
44.07335 261
44.09346 263
44.11357 278
44.13369 258
44.1538 248
44.17391 248
44.19403 262
44.21414 273
44.23426 233
44.25437 236
44.27448 249
44.2946 229
44.31471 247
44.33482 284
44.35494 251
44.37505 235
44.39516 244
44.41528 243
44.43539 233
44.45551 236
44.47562 226
44.49573 255
44.51585 255
44.53596 271
44.55607 246
44.57619 239
44.5963 237
44.61642 236
44.63653 247
44.65664 233
44.67676 238
44.69687 231
44.71698 244
44.7371 245
44.75721 253
44.77732 245
44.79744 247
44.81755 246
44.83767 217
44.85778 261
44.87789 250
44.89801 269
44.91812 243
44.93823 253
44.95835 243
44.97846 260
44.99858 248
45.01869 266
45.0388 278
45.05892 271
45.07903 293
45.09914 275
45.11926 251
45.13937 289
45.15949 256
45.1796 267
45.19971 277
45.21983 270
45.23994 268
45.26005 294
45.28017 304
45.30028 339
45.32039 301
45.34051 311
45.36062 327
45.38074 318
45.40085 331
45.42096 317
45.44108 310
45.46119 333
45.4813 313
45.50142 345
45.52153 362
45.54165 352
45.56176 343
45.58187 355
45.60199 408
45.6221 446
45.64221 469
45.66233 564
45.68244 642
45.70256 691
45.72267 808
45.74278 889
45.7629 948
45.78301 898
45.80312 881
45.82324 747
45.84335 648
45.86346 615
45.88358 640
45.90369 578
45.92381 536
45.94392 394
45.96403 368
45.98415 321
46.00426 307
46.02437 309
46.04449 280
46.0646 287
46.08472 275
46.10483 284
46.12494 279
46.14506 289
46.16517 273
46.18528 301
46.2054 271
46.22551 250
46.24563 261
46.26574 276
46.28585 254
46.30597 259
46.32608 269
46.34619 269
46.36631 269
46.38642 258
46.40653 251
46.42665 255
46.44676 244
46.46688 248
46.48699 242
46.5071 242
46.52722 268
46.54733 265
46.56744 261
46.58756 258
46.60767 278
46.62779 231
46.6479 237
46.66801 216
46.68813 231
46.70824 252
46.72835 267
46.74847 237
46.76858 242
46.78869 243
46.80881 256
46.82892 235
46.84904 247
46.86915 283
46.88926 244
46.90938 215
46.92949 236
46.9496 243
46.96972 221
46.98983 267
47.00995 232
47.03006 242
47.05017 229
47.07029 226
47.0904 236
47.11051 240
47.13063 232
47.15074 250
47.17086 254
47.19097 231
47.21108 240
47.2312 242
47.25131 226
47.27142 201
47.29154 235
47.31165 229
47.33176 255
47.35188 240
47.37199 249
47.39211 205
47.41222 270
47.43233 223
47.45245 250
47.47256 223
47.49267 203
47.51279 232
47.5329 240
47.55302 245
47.57313 253
47.59324 211
47.61336 244
47.63347 247
47.65358 265
47.6737 240
47.69381 220
47.71393 234
47.73404 205
47.75415 236
47.77427 230
47.79438 242
47.81449 227
47.83461 231
47.85472 240
47.87483 228
47.89495 247
47.91506 234
47.93518 246
47.95529 237
47.9754 222
47.99552 231
48.01563 245
48.03574 246
48.05586 239
48.07597 221
48.09609 255
48.1162 232
48.13631 229
48.15643 243
48.17654 258
48.19665 220
48.21677 222
48.23688 236
48.257 219
48.27711 240
48.29722 209
48.31734 232
48.33745 238
48.35756 241
48.37768 246
48.39779 256
48.4179 255
48.43802 250
48.45813 224
48.47825 227
48.49836 226
48.51847 234
48.53859 240
48.5587 267
48.57881 207
48.59893 252
48.61904 234
48.63916 238
48.65927 245
48.67938 263
48.6995 275
48.71961 255
48.73972 268
48.75984 238
48.77995 260
48.80006 242
48.82018 239
48.84029 222
48.86041 233
48.88052 237
48.90063 263
48.92075 256
48.94086 229
48.96097 239
48.98109 252
49.0012 251
49.02132 243
49.04143 266
49.06154 284
49.08166 236
49.10177 229
49.12188 254
49.142 247
49.16211 222
49.18223 235
49.20234 261
49.22245 255
49.24257 264
49.26268 243
49.28279 243
49.30291 219
49.32302 218
49.34313 263
49.36325 284
49.38336 254
49.40348 265
49.42359 280
49.4437 283
49.46382 260
49.48393 246
49.50404 234
49.52416 269
49.54427 266
49.56439 233
49.5845 275
49.60461 275
49.62473 280
49.64484 283
49.66495 271
49.68507 260
49.70518 284
49.7253 335
49.74541 325
49.76552 343
49.78564 353
49.80575 354
49.82586 361
49.84598 418
49.86609 415
49.8862 469
49.90632 560
49.92643 616
49.94655 721
49.96666 870
49.98677 1024
50.00689 1241
50.027 1527
50.04711 1821
50.06723 2174
50.08734 2472
50.10746 2549
50.12757 2575
50.14768 2347
50.1678 1790
50.18791 1566
50.20802 1426
50.22814 1371
50.24825 1373
50.26837 1218
50.28848 1001
50.30859 712
50.32871 512
50.34882 441
50.36893 380
50.38905 336
50.40916 314
50.42927 315
50.44939 315
50.4695 320
50.48962 342
50.50973 324
50.52984 315
50.54996 297
50.57007 307
50.59018 318
50.6103 315
50.63041 299
50.65053 297
50.67064 286
50.69075 298
50.71087 255
50.73098 294
50.75109 274
50.77121 246
50.79132 269
50.81143 262
50.83155 274
50.85166 235
50.87178 248
50.89189 231
50.912 262
50.93212 202
50.95223 257
50.97234 248
50.99246 248
51.01257 260
51.03269 221
51.0528 235
51.07291 255
51.09303 220
51.11314 253
51.13325 243
51.15337 237
51.17348 250
51.1936 268
51.21371 263
51.23382 251
51.25394 221
51.27405 231
51.29416 230
51.31428 213
51.33439 220
51.3545 224
51.37462 246
51.39473 232
51.41485 221
51.43496 246
51.45507 226
51.47519 253
51.4953 227
51.51541 227
51.53553 205
51.55564 208
51.57576 207
51.59587 245
51.61598 203
51.6361 232
51.65621 217
51.67632 235
51.69644 206
51.71655 234
51.73667 228
51.75678 237
51.77689 251
51.79701 240
51.81712 234
51.83723 226
51.85735 208
51.87746 223
51.89757 222
51.91769 236
51.9378 218
51.95792 238
51.97803 225
51.99814 213
52.01826 226
52.03837 200
52.05848 231
52.0786 228
52.09871 208
52.11883 200
52.13894 241
52.15905 204
52.17917 220
52.19928 232
52.21939 222
52.23951 237
52.25962 222
52.27974 240
52.29985 242
52.31996 211
52.34008 213
52.36019 231
52.3803 241
52.40042 239
52.42053 240
52.44064 220
52.46076 245
52.48087 256
52.50099 223
52.5211 209
52.54121 249
52.56133 210
52.58144 233
52.60155 230
52.62167 258
52.64178 210
52.6619 207
52.68201 252
52.70212 245
52.72224 262
52.74235 235
52.76246 250
52.78258 261
52.80269 257
52.8228 241
52.84292 245
52.86303 233
52.88315 229
52.90326 242
52.92337 265
52.94349 246
52.9636 214
52.98371 233
53.00383 228
53.02394 237
53.04406 253
53.06417 247
53.08428 262
53.1044 253
53.12451 219
53.14462 245
53.16474 253
53.18485 252
53.20497 276
53.22508 245
53.24519 249
53.26531 231
53.28542 222
53.30553 233
53.32565 266
53.34576 262
53.36587 260
53.38599 274
53.4061 271
53.42622 285
53.44633 245
53.46644 283
53.48656 269
53.50667 237
53.52678 266
53.5469 261
53.56701 254
53.58713 301
53.60724 286
53.62735 282
53.64747 290
53.66758 259
53.68769 270
53.70781 298
53.72792 255
53.74804 271
53.76815 270
53.78826 284
53.80838 286
53.82849 290
53.8486 292
53.86872 297
53.88883 277
53.90894 287
53.92906 294
53.94917 280
53.96929 302
53.9894 323
54.00951 307
54.02963 298
54.04974 329
54.06985 291
54.08997 300
54.11008 303
54.1302 295
54.15031 272
54.17042 285
54.19054 311
54.21065 308
54.23076 305
54.25088 326
54.27099 308
54.29111 337
54.31122 314
54.33133 315
54.35145 305
54.37156 300
54.39167 288
54.41179 304
54.4319 265
54.45201 332
54.47213 315
54.49224 262
54.51236 309
54.53247 311
54.55258 318
54.5727 315
54.59281 328
54.61292 363
54.63304 385
54.65315 378
54.67327 423
54.69338 462
54.71349 518
54.73361 557
54.75372 629
54.77383 722
54.79395 803
54.81406 838
54.83417 938
54.85429 902
54.8744 856
54.89452 755
54.91463 627
54.93474 605
54.95486 633
54.97497 605
54.99508 616
55.0152 573
55.03531 503
55.05543 492
55.07554 416
55.09565 380
55.11577 424
55.13588 374
55.15599 380
55.17611 418
55.19622 470
55.21634 473
55.23645 515
55.25656 498
55.27668 554
55.29679 543
55.3169 534
55.33702 500
55.35713 490
55.37724 447
55.39736 448
55.41747 391
55.43759 409
55.4577 399
55.47781 395
55.49793 379
55.51804 338
55.53815 316
55.55827 323
55.57838 303
55.5985 320
55.61861 331
55.63872 314
55.65884 299
55.67895 299
55.69906 293
55.71918 269
55.73929 255
55.75941 296
55.77952 292
55.79963 310
55.81975 272
55.83986 277
55.85997 326
55.88009 271
55.9002 298
55.92031 279
55.94043 278
55.96054 276
55.98066 271
56.00077 269
56.02088 307
56.041 242
56.06111 269
56.08122 261
56.10134 252
56.12145 256
56.14157 225
56.16168 257
56.18179 265
56.20191 237
56.22202 223
56.24213 241
56.26225 250
56.28236 252
56.30248 257
56.32259 255
56.3427 266
56.36282 262
56.38293 240
56.40304 250
56.42316 269
56.44327 272
56.46338 248
56.4835 231
56.50361 258
56.52373 254
56.54384 291
56.56395 255
56.58407 268
56.60418 253
56.62429 269
56.64441 239
56.66452 250
56.68464 272
56.70475 256
56.72486 264
56.74498 273
56.76509 265
56.7852 234
56.80532 255
56.82543 262
56.84554 236
56.86566 265
56.88577 250
56.90589 246
56.926 232
56.94611 232
56.96623 245
56.98634 260
57.00645 239
57.02657 233
57.04668 259
57.0668 256
57.08691 235
57.10702 254
57.12714 265
57.14725 283
57.16736 278
57.18748 266
57.20759 260
57.22771 268
57.24782 266
57.26793 249
57.28805 267
57.30816 254
57.32827 238
57.34839 265
57.3685 278
57.38861 263
57.40873 221
57.42884 241
57.44896 237
57.46907 260
57.48918 269
57.5093 242
57.52941 237
57.54952 236
57.56964 261
57.58975 246
57.60987 228
57.62998 209
57.65009 224
57.67021 227
57.69032 244
57.71043 213
57.73055 241
57.75066 240
57.77078 241
57.79089 232
57.811 256
57.83112 217
57.85123 256
57.87134 220
57.89146 209
57.91157 223
57.93168 219
57.9518 248
57.97191 214
57.99203 201
58.01214 248
58.03225 241
58.05237 243
58.07248 234
58.09259 224
58.11271 228
58.13282 223
58.15294 214
58.17305 222
58.19316 207
58.21328 244
58.23339 209
58.2535 224
58.27362 235
58.29373 204
58.31385 229
58.33396 232
58.35407 214
58.37419 219
58.3943 222
58.41441 220
58.43453 225
58.45464 251
58.47475 225
58.49487 221
58.51498 240
58.5351 193
58.55521 217
58.57532 234
58.59544 212
58.61555 218
58.63566 237
58.65578 217
58.67589 212
58.69601 208
58.71612 229
58.73623 213
58.75635 227
58.77646 221
58.79657 207
58.81669 192
58.8368 210
58.85691 223
58.87703 227
58.89714 226
58.91726 219
58.93737 212
58.95748 225
58.9776 238
58.99771 265
59.01782 248
59.03794 246
59.05805 260
59.07817 257
59.09828 248
59.11839 263
59.13851 242
59.15862 257
59.17873 266
59.19885 232
59.21896 247
59.23908 258
59.25919 254
59.2793 253
59.29942 274
59.31953 283
59.33964 262
59.35976 263
59.37987 250
59.39998 239
59.4201 261
59.44021 265
59.46033 264
59.48044 280
59.50055 275
59.52067 281
59.54078 310
59.56089 317
59.58101 316
59.60112 334
59.62124 325
59.64135 390
59.66146 380
59.68158 424
59.70169 446
59.7218 502
59.74192 562
59.76203 601
59.78215 698
59.80226 810
59.82237 979
59.84249 1102
59.8626 1280
59.88271 1504
59.90283 1557
59.92294 1573
59.94305 1526
59.96317 1332
59.98328 1166
60.0034 964
60.02351 918
60.04362 889
60.06374 932
60.08385 924
60.10396 869
60.12408 718
60.14419 618
60.16431 488
60.18442 380
60.20453 364
60.22465 324
60.24476 286
60.26487 315
60.28499 268
60.3051 251
60.32522 271
60.34533 241
60.36544 260
60.38556 242
60.40567 269
60.42578 249
60.4459 256
60.46601 240
60.48612 214
60.50624 241
60.52635 257
60.54647 239
60.56658 222
60.58669 259
60.60681 214
60.62692 236
60.64703 247
60.66715 255
60.68726 239
60.70738 251
60.72749 231
60.7476 248
60.76772 255
60.78783 237
60.80794 220
60.82806 244
60.84817 226
60.86828 250
60.8884 242
60.90851 232
60.92863 249
60.94874 232
60.96885 226
60.98897 230
61.00908 230
61.02919 214
61.04931 232
61.06942 225
61.08954 234
61.10965 217
61.12976 209
61.14988 214
61.16999 244
61.1901 224
61.21022 228
61.23033 243
61.25045 250
61.27056 242
61.29067 243
61.31079 240
61.3309 199
61.35101 271
61.37113 240
61.39124 261
61.41135 243
61.43147 267
61.45158 254
61.4717 278
61.49181 294
61.51192 285
61.53204 278
61.55215 294
61.57226 329
61.59238 323
61.61249 313
61.63261 335
61.65272 329
61.67283 322
61.69295 333
61.71306 357
61.73317 351
61.75329 331
61.7734 331
61.79352 355
61.81363 323
61.83374 322
61.85386 313
61.87397 299
61.89408 291
61.9142 289
61.93431 292
61.95442 310
61.97454 293
61.99465 284
62.01477 252
62.03488 295
62.05499 250
62.07511 284
62.09522 312
62.11533 300
62.13545 293
62.15556 281
62.17568 274
62.19579 284
62.2159 294
62.23602 287
62.25613 281
62.27624 273
62.29636 259
62.31647 264
62.33659 276
62.3567 297
62.37681 255
62.39693 249
62.41704 248
62.43715 260
62.45727 252
62.47738 246
62.49749 253
62.51761 257
62.53772 252
62.55784 240
62.57795 231
62.59806 264
62.61818 217
62.63829 232
62.6584 233
62.67852 235
62.69863 224
62.71875 219
62.73886 219
62.75897 227
62.77909 208
62.7992 220
62.81931 241
62.83943 231
62.85954 248
62.87965 235
62.89977 238
62.91988 217
62.94 199
62.96011 209
62.98022 207
63.00034 237
63.02045 225
63.04056 232
63.06068 223
63.08079 212
63.10091 223
63.12102 230
63.14113 236
63.16125 232
63.18136 214
63.20147 234
63.22159 204
63.2417 213
63.26182 203
63.28193 230
63.30204 221
63.32216 223
63.34227 213
63.36238 207
63.3825 205
63.40261 248
63.42272 236
63.44284 215
63.46295 206
63.48307 217
63.50318 236
63.52329 201
63.54341 229
63.56352 234
63.58363 208
63.60375 208
63.62386 212
63.64398 261
63.66409 239
63.6842 233
63.70432 243
63.72443 215
63.74454 239
63.76466 234
63.78477 285
63.80489 269
63.825 265
63.84511 302
63.86523 316
63.88534 353
63.90545 361
63.92557 356
63.94568 409
63.96579 455
63.98591 448
64.00602 458
64.02614 430
64.04625 405
64.06636 368
64.08648 330
64.10659 365
64.1267 342
64.14682 342
64.16693 341
64.18705 351
64.20716 308
64.22727 304
64.24739 257
64.2675 244
64.28761 247
64.30773 226
64.32784 231
64.34796 237
64.36807 221
64.38818 223
64.4083 210
64.42841 236
64.44852 230
64.46864 207
64.48875 226
64.50886 222
64.52898 252
64.54909 215
64.56921 189
64.58932 191
64.60943 219
64.62955 197
64.64966 212
64.66977 198
64.68989 218
64.71 211
64.73012 191
64.75023 178
64.77034 208
64.79046 221
64.81057 219
64.83068 229
64.8508 201
64.87091 199
64.89102 189
64.91114 218
64.93125 193
64.95137 197
64.97148 171
64.99159 188
65.01171 211
65.03182 211
65.05193 198
65.07205 209
65.09216 207
65.11228 193
65.13239 200
65.1525 196
65.17262 217
65.19273 185
65.21284 217
65.23296 196
65.25307 224
65.27319 209
65.2933 210
65.31341 207
65.33353 196
65.35364 210
65.37375 200
65.39387 213
65.41398 197
65.43409 227
65.45421 206
65.47432 207
65.49444 223
65.51455 202
65.53466 193
65.55478 213
65.57489 236
65.595 210
65.61512 216
65.63523 233
65.65535 190
65.67546 243
65.69557 249
65.71569 269
65.7358 278
65.75591 261
65.77603 243
65.79614 267
65.81626 248
65.83637 224
65.85648 230
65.8766 234
65.89671 249
65.91682 229
65.93694 201
65.95705 226
65.97716 228
65.99728 216
66.01739 214
66.03751 210
66.05762 214
66.07773 222
66.09785 178
66.11796 205
66.13807 213
66.15819 198
66.1783 231
66.19842 216
66.21853 188
66.23864 189
66.25876 222
66.27887 209
66.29898 208
66.3191 225
66.33921 180
66.35933 177
66.37944 203
66.39955 203
66.41967 216
66.43978 200
66.45989 207
66.48001 216
66.50012 188
66.52023 212
66.54035 213
66.56046 184
66.58058 213
66.60069 199
66.6208 218
66.64092 204
66.66103 213
66.68114 213
66.70126 192
66.72137 215
66.74149 186
66.7616 172
66.78171 204
66.80183 203
66.82194 224
66.84205 189
66.86217 205
66.88228 183
66.90239 212
66.92251 216
66.94262 179
66.96274 217
66.98285 207
67.00296 214
67.02308 222
67.04319 217
67.0633 213
67.08342 208
67.10353 192
67.12365 218
67.14376 198
67.16387 216
67.18399 200
67.2041 236
67.22421 230
67.24433 209
67.26444 190
67.28456 219
67.30467 243
67.32478 246
67.3449 267
67.36501 231
67.38512 292
67.40524 278
67.42535 267
67.44546 297
67.46558 275
67.48569 311
67.50581 356
67.52592 377
67.54603 405
67.56615 471
67.58626 594
67.60637 671
67.62649 715
67.6466 772
67.66672 913
67.68683 951
67.70694 981
67.72706 910
67.74717 832
67.76728 703
67.7874 655
67.80751 629
67.82763 653
67.84774 660
67.86785 712
67.88797 730
67.90808 758
67.92819 772
67.94831 700
67.96842 785
67.98853 781
68.00865 830
68.02876 878
68.04888 1070
68.06899 1168
68.0891 1225
68.10922 1195
68.12933 1285
68.14944 1202
68.16956 1069
68.18967 994
68.20979 1035
68.2299 1035
68.25001 1097
68.27013 1173
68.29024 1163
68.31035 1103
68.33047 969
68.35058 774
68.3707 664
68.39081 588
68.41092 552
68.43104 506
68.45115 499
68.47126 508
68.49138 489
68.51149 430
68.5316 368
68.55172 345
68.57183 285
68.59195 238
68.61206 251
68.63217 258
68.65229 228
68.6724 222
68.69251 238
68.71263 256
68.73274 195
68.75286 246
68.77297 210
68.79308 237
68.8132 233
68.83331 249
68.85342 230
68.87354 211
68.89365 209
68.91376 230
68.93388 198
68.95399 202
68.97411 235
68.99422 218
69.01433 239
69.03445 200
69.05456 235
69.07467 222
69.09479 253
69.1149 228
69.13502 237
69.15513 213
69.17524 214
69.19536 200
69.21547 230
69.23558 228
69.2557 201
69.27581 239
69.29593 210
69.31604 234
69.33615 190
69.35627 211
69.37638 207
69.39649 214
69.41661 210
69.43672 214
69.45683 211
69.47695 213
69.49706 239
69.51718 206
69.53729 215
69.5574 224
69.57752 220
69.59763 236
69.61774 228
69.63786 198
69.65797 196
69.67809 233
69.6982 198
69.71831 220
69.73843 196
69.75854 229
69.77865 219
69.79877 216
69.81888 213
69.839 225
69.85911 232
69.87922 211
69.89934 189
69.91945 232
69.93956 214
69.95968 206
69.97979 196
69.9999 240
70.02002 200
70.04013 226
70.06025 203
70.08036 223
70.10047 196
70.12059 226
70.1407 215
70.16081 196
70.18093 210
70.20104 207
70.22116 240
70.24127 222
70.26138 192
70.2815 204
70.30161 207
70.32172 195
70.34184 199
70.36195 215
70.38207 199
70.40218 201
70.42229 206
70.44241 178
70.46252 181
70.48263 184
70.50275 203
70.52286 193
70.54297 171
70.56309 174
70.5832 232
70.60332 194
70.62343 159
70.64354 209
70.66366 185
70.68377 213
70.70388 183
70.724 168
70.74411 200
70.76423 176
70.78434 195
70.80445 182
70.82457 214
70.84468 181
70.86479 181
70.88491 218
70.90502 187
70.92513 176
70.94525 189
70.96536 175
70.98548 204
71.00559 205
71.0257 196
71.04582 169
71.06593 212
71.08604 177
71.10616 183
71.12627 174
71.14639 196
71.1665 175
71.18661 189
71.20673 186
71.22684 190
71.24695 187
71.26707 181
71.28718 184
71.3073 201
71.32741 188
71.34752 197
71.36764 167
71.38775 198
71.40786 205
71.42798 169
71.44809 198
71.4682 167
71.48832 180
71.50843 186
71.52855 183
71.54866 212
71.56877 196
71.58889 182
71.609 173
71.62911 171
71.64923 183
71.66934 193
71.68946 182
71.70957 180
71.72968 208
71.7498 194
71.76991 174
71.79002 202
71.81014 217
71.83025 186
71.85037 184
71.87048 194
71.89059 188
71.91071 205
71.93082 209
71.95093 213
71.97105 194
71.99116 182
72.01127 186
72.03139 201
72.0515 204
72.07162 183
72.09173 162
72.11184 195
72.13196 198
72.15207 184
72.17218 194
72.1923 171
72.21241 193
72.23253 194
72.25264 210
72.27275 199
72.29287 225
72.31298 229
72.33309 207
72.35321 188
72.37332 185
72.39344 212
72.41355 198
72.43366 182
72.45378 202
72.47389 225
72.494 204
72.51412 213
72.53423 228
72.55434 202
72.57446 189
72.59457 191
72.61469 216
72.6348 204
72.65491 224
72.67503 207
72.69514 202
72.71525 215
72.73537 223
72.75548 217
72.7756 210
72.79571 226
72.81582 202
72.83594 225
72.85605 222
72.87616 218
72.89628 197
72.91639 194
72.9365 202
72.95662 203
72.97673 205
72.99685 214
73.01696 220
73.03707 243
73.05719 230
73.0773 220
73.09741 236
73.11753 245
73.13764 221
73.15776 231
73.17787 237
73.19798 239
73.2181 257
73.23821 277
73.25832 284
73.27844 239
73.29855 303
73.31867 346
73.33878 350
73.35889 394
73.37901 431
73.39912 396
73.41923 475
73.43935 439
73.45946 419
73.47957 381
73.49969 342
73.5198 282
73.53992 282
73.56003 322
73.58014 313
73.60026 316
73.62037 287
73.64048 338
73.6606 337
73.68071 280
73.70083 284
73.72094 247
73.74105 244
73.76117 207
73.78128 194
73.80139 203
73.82151 196
73.84162 212
73.86174 208
73.88185 194
73.90196 159
73.92208 211
73.94219 178
73.9623 209
73.98242 194
74.00253 188
74.02264 211
74.04276 197
74.06287 189
74.08299 167
74.1031 200
74.12321 190
74.14333 185
74.16344 181
74.18355 186
74.20367 197
74.22378 172
74.2439 171
74.26401 162
74.28412 189
74.30424 176
74.32435 180
74.34446 181
74.36458 171
74.38469 189
74.40481 194
74.42492 177
74.44503 194
74.46515 201
74.48526 189
74.50537 177
74.52549 174
74.5456 198
74.56571 177
74.58583 175
74.60594 170
74.62606 190
74.64617 173
74.66628 186
74.6864 166
74.70651 192
74.72662 184
74.74674 175
74.76685 165
74.78697 195
74.80708 178
74.82719 174
74.84731 180
74.86742 201
74.88753 173
74.90765 183
74.92776 186
74.94787 172
74.96799 189
74.9881 192
75.00822 177
