3.00117 20768
3.02128 20393
3.0414 20081
3.06151 19126
3.08162 18655
3.10174 18273
3.12185 17922
3.14197 17096
3.16208 16777
3.18219 16335
3.20231 15487
3.22242 15446
3.24253 15128
3.26265 13996
3.28276 14045
3.30288 13249
3.32299 13192
3.3431 12635
3.36322 12098
3.38333 12000
3.40344 11294
3.42356 11363
3.44367 10864
3.46379 10660
3.4839 10064
3.50401 9785
3.52413 9490
3.54424 9028
3.56435 8795
3.58447 8512
3.60458 8085
3.62469 8097
3.64481 7526
3.66492 7260
3.68504 7056
3.70515 6766
3.72526 6655
3.74538 6365
3.76549 5959
3.7856 5607
3.80572 5311
3.82583 5399
3.84595 5231
3.86606 4945
3.88617 4699
3.90629 4395
3.9264 4305
3.94651 4106
3.96663 4008
3.98674 3728
4.00686 3521
4.02697 3434
4.04708 3381
4.0672 3131
4.08731 3045
4.10742 2935
4.12754 2878
4.14765 2892
4.16776 2628
4.18788 2493
4.20799 2327
4.22811 2449
4.24822 2412
4.26833 2151
4.28845 2056
4.30856 2042
4.32867 2052
4.34879 2010
4.3689 1942
4.38902 1767
4.40913 1785
4.42924 1739
4.44936 1836
4.46947 1674
4.48958 1612
4.5097 1534
4.52981 1559
4.54992 1551
4.57004 1454
4.59015 1508
4.61027 1479
4.63038 1432
4.65049 1433
4.67061 1348
4.69072 1313
4.71083 1274
4.73095 1344
4.75106 1303
4.77118 1218
4.79129 1289
4.8114 1129
4.83152 1168
4.85163 1170
4.87174 1074
4.89186 1125
4.91197 1069
4.93209 1083
4.9522 1086
4.97231 1026
4.99243 1049
5.01254 996
5.03265 989
5.05277 1005
5.07288 863
5.09299 908
5.11311 917
5.13322 936
5.15334 962
5.17345 826
5.19356 845
5.21368 942
5.23379 807
5.2539 792
5.27402 789
5.29413 738
5.31425 816
5.33436 759
5.35447 758
5.37459 758
5.3947 717
5.41481 735
5.43493 707
5.45504 660
5.47516 649
5.49527 653
5.51538 624
5.5355 674
5.55561 652
5.57572 640
5.59584 602
5.61595 651
5.63606 624
5.65618 612
5.67629 607
5.69641 610
5.71652 608
5.73663 605
5.75675 556
5.77686 570
5.79697 606
5.81709 540
5.8372 555
5.85732 546
5.87743 565
5.89754 590
5.91766 558
5.93777 559
5.95788 574
5.978 538
5.99811 530
6.01823 559
6.03834 518
6.05845 544
6.07857 548
6.09868 569
6.11879 533
6.13891 520
6.15902 533
6.17913 516
6.19925 498
6.21936 519
6.23948 547
6.25959 499
6.2797 523
6.29982 491
6.31993 502
6.34004 495
6.36016 524
6.38027 534
6.40039 462
6.4205 505
6.44061 490
6.46073 530
6.48084 464
6.50095 489
6.52107 497
6.54118 477
6.56129 456
6.58141 482
6.60152 498
6.62164 500
6.64175 496
6.66186 449
6.68198 483
6.70209 490
6.7222 548
6.74232 522
6.76243 489
6.78255 484
6.80266 437
6.82277 475
6.84289 485
6.863 464
6.88311 512
6.90323 445
6.92334 450
6.94346 436
6.96357 461
6.98368 470
7.0038 479
7.02391 458
7.04402 428
7.06414 493
7.08425 467
7.10436 447
7.12448 424
7.14459 450
7.16471 509
7.18482 466
7.20493 466
7.22505 468
7.24516 497
7.26527 473
7.28539 464
7.3055 481
7.32562 470
7.34573 477
7.36584 503
7.38596 452
7.40607 436
7.42618 517
7.4463 437
7.46641 482
7.48653 454
7.50664 477
7.52675 431
7.54687 439
7.56698 423
7.58709 467
7.60721 440
7.62732 486
7.64743 448
7.66755 390
7.68766 476
7.70778 485
7.72789 416
7.748 458
7.76812 503
7.78823 472
7.80834 489
7.82846 482
7.84857 436
7.86869 469
7.8888 487
7.90891 456
7.92903 440
7.94914 447
7.96925 471
7.98937 418
8.00948 409
8.0296 507
8.04971 491
8.06982 483
8.08994 398
8.11005 432
8.13016 442
8.15028 491
8.17039 446
8.1905 438
8.21062 503
8.23073 478
8.25085 458
8.27096 453
8.29107 457
8.31119 418
8.3313 436
8.35141 445
8.37153 507
8.39164 440
8.41176 472
8.43187 472
8.45198 437
8.4721 474
8.49221 442
8.51232 451
8.53244 485
8.55255 457
8.57266 477
8.59278 489
8.61289 403
8.63301 486
8.65312 467
8.67323 488
8.69335 443
8.71346 484
8.73357 448
8.75369 488
8.7738 482
8.79392 511
8.81403 420
8.83414 482
8.85426 431
8.87437 460
8.89448 474
8.9146 480
8.93471 473
8.95483 448
8.97494 482
8.99505 452
9.01517 467
9.03528 439
9.05539 435
9.07551 453
9.09562 430
9.11573 491
9.13585 436
9.15596 450
9.17608 460
9.19619 407
9.2163 443
9.23642 428
9.25653 420
9.27664 444
9.29676 482
9.31687 442
9.33699 443
9.3571 464
9.37721 468
9.39733 444
9.41744 406
9.43755 467
9.45767 461
9.47778 460
9.4979 432
9.51801 502
9.53812 485
9.55824 445
9.57835 469
9.59846 415
9.61858 453
9.63869 437
9.6588 424
9.67892 449
9.69903 483
9.71915 439
9.73926 514
9.75937 437
9.77949 412
9.7996 452
9.81971 468
9.83983 452
9.85994 443
9.88006 456
9.90017 417
9.92028 419
9.9404 409
9.96051 481
9.98062 448
10.00074 478
10.02085 400
10.04097 453
10.06108 398
10.08119 460
10.10131 467
10.12142 458
10.14153 441
10.16165 447
10.18176 450
10.20187 425
10.22199 413
10.2421 416
10.26222 414
10.28233 390
10.30244 401
10.32256 420
10.34267 433
10.36278 426
10.3829 479
10.40301 456
10.42313 481
10.44324 443
10.46335 403
10.48347 488
10.50358 444
10.52369 387
10.54381 457
10.56392 445
10.58403 461
10.60415 485
10.62426 415
10.64438 460
10.66449 411
10.6846 462
10.70472 410
10.72483 455
10.74494 475
10.76506 441
10.78517 453
10.80529 439
10.8254 461
10.84551 414
10.86563 440
10.88574 406
10.90585 425
10.92597 428
10.94608 427
10.9662 461
10.98631 468
11.00642 521
11.02654 465
11.04665 497
11.06676 407
11.08688 465
11.10699 488
11.1271 474
11.14722 470
11.16733 448
11.18745 426
11.20756 437
11.22767 438
11.24779 461
11.2679 473
11.28801 442
11.30813 452
11.32824 457
11.34836 449
11.36847 474
11.38858 455
11.4087 483
11.42881 471
11.44892 476
11.46904 481
11.48915 492
11.50927 449
11.52938 528
11.54949 479
11.56961 481
11.58972 486
11.60983 451
11.62995 525
11.65006 482
11.67017 497
11.69029 500
11.7104 485
11.73052 498
11.75063 464
11.77074 483
11.79086 484
11.81097 458
11.83108 516
11.8512 534
11.87131 497
11.89143 587
11.91154 532
11.93165 531
11.95177 547
11.97188 576
11.99199 561
12.01211 537
12.03222 635
12.05234 590
12.07245 603
12.09256 629
12.11268 600
12.13279 634
12.1529 631
12.17302 646
12.19313 644
12.21324 647
12.23336 725
12.25347 617
12.27359 666
12.2937 656
12.31381 708
12.33393 677
12.35404 650
12.37415 653
12.39427 658
12.41438 615
12.4345 590
12.45461 600
12.47472 606
12.49484 569
12.51495 598
12.53506 549
12.55518 500
12.57529 557
12.5954 487
12.61552 522
12.63563 534
12.65575 480
12.67586 461
12.69597 497
12.71609 454
12.7362 513
12.75631 442
12.77643 479
12.79654 457
12.81666 443
12.83677 468
12.85688 406
12.877 475
12.89711 425
12.91722 419
12.93734 410
12.95745 443
12.97757 398
12.99768 441
13.01779 437
13.03791 375
13.05802 432
13.07813 390
13.09825 459
13.11836 432
13.13847 389
13.15859 424
13.1787 433
13.19882 407
13.21893 431
13.23904 423
13.25916 411
13.27927 379
13.29938 366
13.3195 438
13.33961 414
13.35973 436
13.37984 402
13.39995 436
13.42007 422
13.44018 433
13.46029 413
13.48041 386
13.50052 415
13.52064 410
13.54075 418
13.56086 431
13.58098 415
13.60109 424
13.6212 404
13.64132 432
13.66143 419
13.68154 415
13.70166 448
13.72177 415
13.74189 395
13.762 385
13.78211 460
13.80223 405
13.82234 389
13.84245 389
13.86257 442
13.88268 374
13.9028 385
13.92291 415
13.94302 403
13.96314 372
13.98325 416
14.00336 408
14.02348 395
14.04359 406
14.06371 398
14.08382 407
14.10393 418
14.12405 392
14.14416 435
14.16427 421
14.18439 399
14.2045 396
14.22461 418
14.24473 415
14.26484 420
14.28496 402
14.30507 365
14.32518 397
14.3453 373
14.36541 424
14.38552 402
14.40564 381
14.42575 400
14.44587 388
14.46598 399
14.48609 381
14.50621 458
14.52632 401
14.54643 411
14.56655 428
14.58666 401
14.60677 416
14.62689 426
14.647 427
14.66712 410
14.68723 440
14.70734 415
14.72746 390
14.74757 410
14.76768 388
14.7878 384
14.80791 441
14.82803 399
14.84814 390
14.86825 386
14.88837 374
14.90848 410
14.92859 404
14.94871 392
14.96882 396
14.98894 412
15.00905 363
15.02916 408
15.04928 414
15.06939 384
15.0895 415
15.10962 373
15.12973 386
15.14984 387
15.16996 381
15.19007 401
15.21019 403
15.2303 436
15.25041 397
15.27053 410
15.29064 383
15.31075 429
15.33087 391
15.35098 388
15.3711 408
15.39121 418
15.41132 437
15.43144 402
15.45155 390
15.47166 373
15.49178 389
15.51189 390
15.53201 385
15.55212 387
15.57223 384
15.59235 395
15.61246 404
15.63257 406
15.65269 388
15.6728 373
15.69291 382
15.71303 399
15.73314 408
15.75326 391
15.77337 392
15.79348 385
15.8136 383
15.83371 434
15.85382 400
15.87394 417
15.89405 402
15.91417 381
15.93428 372
15.95439 399
15.97451 397
15.99462 393
16.01473 420
16.03485 417
16.05496 367
16.07508 372
16.09519 409
16.1153 411
16.13542 427
16.15553 422
16.17564 425
16.19576 405
16.21587 378
16.23598 392
16.2561 366
16.27621 405
16.29633 396
16.31644 368
16.33655 415
16.35667 418
16.37678 386
16.39689 399
16.41701 389
16.43712 394
16.45724 399
16.47735 419
16.49746 412
16.51758 423
16.53769 392
16.5578 384
16.57792 400
16.59803 382
16.61814 414
16.63826 424
16.65837 406
16.67849 390
16.6986 411
16.71871 374
16.73883 388
16.75894 411
16.77905 410
16.79917 358
16.81928 389
16.8394 423
16.85951 436
16.87962 396
16.89974 407
16.91985 387
16.93996 447
16.96008 400
16.98019 406
17.00031 414
17.02042 447
17.04053 434
17.06065 420
17.08076 373
17.10087 389
17.12099 424
17.1411 392
17.16121 417
17.18133 366
17.20144 409
17.22156 405
17.24167 396
17.26178 411
17.2819 394
17.30201 422
17.32212 421
17.34224 392
17.36235 404
17.38247 447
17.40258 398
17.42269 406
17.44281 424
17.46292 394
17.48303 391
17.50315 387
17.52326 433
17.54338 405
17.56349 432
17.5836 417
17.60372 373
17.62383 408
17.64394 419
17.66406 428
17.68417 442
17.70428 415
17.7244 419
17.74451 443
17.76463 434
17.78474 453
17.80485 443
17.82497 443
17.84508 407
17.86519 459
17.88531 409
17.90542 402
17.92554 419
17.94565 440
17.96576 405
17.98588 437
18.00599 439
18.0261 397
18.04622 414
18.06633 447
18.08645 425
18.10656 424
18.12667 402
18.14679 474
18.1669 442
18.18701 417
18.20713 434
18.22724 437
18.24735 408
18.26747 364
18.28758 431
18.3077 399
18.32781 406
18.34792 445
18.36804 382
18.38815 392
18.40826 409
18.42838 383
18.44849 423
18.46861 428
18.48872 429
18.50883 421
18.52895 417
18.54906 400
18.56917 399
18.58929 387
18.6094 424
18.62951 434
18.64963 401
18.66974 425
18.68986 390
18.70997 411
18.73008 399
18.7502 433
18.77031 450
18.79042 439
18.81054 407
18.83065 444
18.85077 412
18.87088 412
18.89099 440
18.91111 400
18.93122 413
18.95133 439
18.97145 387
18.99156 401
19.01168 406
19.03179 415
19.0519 411
19.07202 390
19.09213 406
19.11224 421
19.13236 421
19.15247 423
19.17258 425
19.1927 417
19.21281 414
19.23293 414
19.25304 465
19.27315 432
19.29327 475
19.31338 456
19.33349 455
19.35361 478
19.37372 425
19.39384 439
19.41395 452
19.43406 453
19.45418 456
19.47429 480
19.4944 465
19.51452 507
19.53463 490
19.55475 556
19.57486 555
19.59497 548
19.61509 598
19.6352 577
19.65531 607
19.67543 698
19.69554 682
19.71565 647
19.73577 686
19.75588 752
19.776 791
19.79611 768
19.81622 753
19.83634 833
19.85645 823
19.87656 807
19.89668 763
19.91679 831
19.93691 757
19.95702 728
19.97713 748
19.99725 746
20.01736 781
20.03747 783
20.05759 756
20.0777 695
20.09782 728
20.11793 693
20.13804 698
20.15816 725
20.17827 705
20.19838 685
20.2185 716
20.23861 750
20.25872 683
20.27884 667
20.29895 723
20.31907 749
20.33918 740
20.35929 744
20.37941 752
20.39952 711
20.41963 738
20.43975 753
20.45986 739
20.47998 790
20.50009 764
20.5202 738
20.54032 752
20.56043 723
20.58054 830
20.60066 804
20.62077 887
20.64088 963
20.661 1027
20.68111 1224
20.70123 1461
20.72134 1824
20.74145 2140
20.76157 2661
20.78168 3120
20.80179 3417
20.82191 3544
20.84202 3497
20.86214 2942
20.88225 2336
20.90236 1839
20.92248 1396
20.94259 1141
20.9627 958
20.98282 810
21.00293 830
21.02305 810
21.04316 792
21.06327 714
21.08339 677
21.1035 745
21.12361 721
21.14373 770
21.16384 778
21.18395 726
21.20407 751
21.22418 772
21.2443 794
21.26441 746
21.28452 782
21.30464 779
21.32475 746
21.34486 753
21.36498 705
21.38509 796
21.40521 784
21.42532 762
21.44543 728
21.46555 747
21.48566 762
21.50577 728
21.52589 698
21.546 749
21.56612 736
21.58623 699
21.60634 718
21.62646 668
21.64657 699
21.66668 654
21.6868 625
21.70691 666
21.72702 644
21.74714 651
21.76725 623
21.78737 629
21.80748 576
21.82759 620
21.84771 585
21.86782 632
21.88793 636
21.90805 598
21.92816 608
21.94828 590
21.96839 618
21.9885 585
22.00862 603
22.02873 531
22.04884 561
22.06896 640
22.08907 618
22.10919 557
22.1293 584
22.14941 554
22.16953 573
22.18964 567
22.20975 573
22.22987 536
22.24998 571
22.27009 515
22.29021 545
22.31032 561
22.33044 573
22.35055 543
22.37066 571
22.39078 546
22.41089 543
22.431 521
22.45112 560
22.47123 566
22.49135 540
22.51146 545
22.53157 563
22.55169 557
22.5718 539
22.59191 495
22.61203 514
22.63214 541
22.65225 561
22.67237 525
22.69248 533
22.7126 533
22.73271 566
22.75282 553
22.77294 502
22.79305 576
22.81316 538
22.83328 521
22.85339 522
22.87351 516
22.89362 476
22.91373 542
22.93385 538
22.95396 541
22.97407 549
22.99419 544
23.0143 513
23.03442 522
23.05453 533
23.07464 519
23.09476 496
23.11487 536
23.13498 487
23.1551 491
23.17521 491
23.19532 512
23.21544 514
23.23555 539
23.25567 530
23.27578 535
23.29589 540
23.31601 498
23.33612 530
23.35623 521
23.37635 508
23.39646 515
23.41658 501
23.43669 558
23.4568 549
23.47692 512
23.49703 562
23.51714 543
23.53726 535
23.55737 516
23.57749 550
23.5976 560
23.61771 487
23.63783 511
23.65794 571
23.67805 535
23.69817 552
23.71828 549
23.73839 546
23.75851 533
23.77862 599
23.79874 542
23.81885 540
23.83896 570
23.85908 552
23.87919 564
23.8993 595
23.91942 544
23.93953 572
23.95965 564
23.97976 532
23.99987 563
24.01999 560
24.0401 547
24.06021 580
24.08033 528
24.10044 631
24.12056 573
24.14067 526
24.16078 538
24.1809 557
24.20101 573
24.22112 627
24.24124 532
24.26135 562
24.28146 581
24.30158 596
24.32169 573
24.34181 596
24.36192 609
24.38203 561
24.40215 606
24.42226 575
24.44237 603
24.46249 579
24.4826 594
24.50272 606
24.52283 634
24.54294 591
24.56306 597
24.58317 637
24.60328 646
24.6234 627
24.64351 584
24.66362 635
24.68374 652
24.70385 607
24.72397 622
24.74408 666
24.76419 665
24.78431 666
24.80442 684
24.82453 719
24.84465 669
24.86476 656
24.88488 673
24.90499 680
24.9251 702
24.94522 648
24.96533 681
24.98544 681
25.00556 686
25.02567 658
25.04579 646
25.0659 615
25.08601 655
25.10613 690
25.12624 635
25.14635 638
25.16647 645
25.18658 633
25.20669 656
25.22681 609
25.24692 607
25.26704 632
25.28715 641
25.30726 584
25.32738 588
25.34749 612
25.3676 591
25.38772 570
25.40783 573
25.42795 547
25.44806 605
25.46817 576
25.48829 562
25.5084 616
25.52851 575
25.54863 531
25.56874 582
25.58886 544
25.60897 559
25.62908 620
25.6492 610
25.66931 585
25.68942 628
25.70954 641
25.72965 626
25.74976 583
25.76988 602
25.78999 635
25.81011 652
25.83022 597
25.85033 626
25.87045 572
25.89056 611
25.91067 596
25.93079 582
25.9509 678
25.97102 622
25.99113 641
26.01124 708
26.03136 649
26.05147 673
26.07158 653
26.0917 700
26.11181 721
26.13193 744
26.15204 801
26.17215 814
26.19227 810
26.21238 820
26.23249 896
26.25261 944
26.27272 962
26.29283 929
26.31295 1139
26.33306 1154
26.35318 1355
26.37329 1478
26.3934 1785
26.41352 2189
26.43363 2938
26.45374 3602
26.47386 4793
26.49397 6286
26.51409 8030
26.5342 10342
26.55431 12264
26.57443 13833
26.59454 14366
26.61465 13417
26.63477 11702
26.65488 9446
26.67499 7171
26.69511 5168
26.71522 3666
26.73534 2361
26.75545 1723
26.77556 1390
26.79568 1189
26.81579 1073
26.8359 982
26.85602 977
26.87613 879
26.89625 834
26.91636 810
26.93647 853
26.95659 787
26.9767 687
26.99681 677
27.01693 651
27.03704 690
27.05716 633
27.07727 644
27.09738 639
27.1175 538
27.13761 618
27.15772 635
27.17784 591
27.19795 584
27.21806 595
27.23818 565
27.25829 628
27.27841 594
27.29852 596
27.31863 635
27.33875 664
27.35886 636
27.37897 647
27.39909 627
27.4192 670
27.43932 668
27.45943 582
27.47954 584
27.49966 525
27.51977 562
27.53988 525
27.56 541
27.58011 519
27.60023 535
27.62034 524
27.64045 563
27.66057 526
27.68068 516
27.70079 514
27.72091 515
27.74102 555
27.76113 543
27.78125 549
27.80136 499
27.82148 540
27.84159 511
27.8617 523
27.88182 518
27.90193 566
27.92204 520
27.94216 484
27.96227 516
27.98239 477
28.0025 463
28.02261 494
28.04273 490
28.06284 506
28.08295 489
28.10307 450
28.12318 463
28.1433 431
28.16341 490
28.18352 472
28.20364 516
28.22375 494
28.24386 483
28.26398 487
28.28409 463
28.3042 451
28.32432 472
28.34443 478
28.36455 472
28.38466 491
28.40477 489
28.42489 486
28.445 430
28.46511 458
28.48523 473
28.50534 461
28.52546 430
28.54557 467
28.56568 489
28.5858 469
28.60591 434
28.62602 513
28.64614 475
28.66625 512
28.68636 460
28.70648 439
28.72659 435
28.74671 485
28.76682 469
28.78693 459
28.80705 467
28.82716 481
28.84727 475
28.86739 447
28.8875 473
28.90762 469
28.92773 462
28.94784 479
28.96796 459
28.98807 473
29.00818 483
29.0283 478
29.04841 438
29.06853 461
29.08864 434
29.10875 449
29.12887 417
29.14898 453
29.16909 486
29.18921 443
29.20932 426
29.22943 446
29.24955 450
29.26966 432
29.28978 468
29.30989 451
29.33 442
29.35012 439
29.37023 460
29.39034 430
29.41046 458
29.43057 459
29.45069 447
29.4708 457
29.49091 445
29.51103 439
29.53114 479
29.55125 449
29.57137 467
29.59148 409
29.6116 433
29.63171 437
29.65182 468
29.67194 453
29.69205 446
29.71216 462
29.73228 478
29.75239 453
29.7725 448
29.79262 420
29.81273 429
29.83285 433
29.85296 449
29.87307 481
29.89319 451
29.9133 448
29.93341 462
29.95353 442
29.97364 454
29.99376 494
30.01387 471
30.03398 474
30.0541 464
30.07421 490
30.09432 471
30.11444 493
30.13455 458
30.15467 445
30.17478 438
30.19489 466
30.21501 472
30.23512 451
30.25523 453
30.27535 474
30.29546 450
30.31557 474
30.33569 431
30.3558 447
30.37592 417
30.39603 459
30.41614 467
30.43626 444
30.45637 424
30.47648 450
30.4966 442
30.51671 478
30.53683 442
30.55694 463
30.57705 448
30.59717 449
30.61728 448
30.63739 440
30.65751 482
30.67762 482
30.69773 476
30.71785 477
30.73796 475
30.75808 405
30.77819 445
30.7983 453
30.81842 397
30.83853 418
30.85864 438
30.87876 449
30.89887 464
30.91899 426
30.9391 423
30.95921 423
30.97933 442
30.99944 466
31.01955 411
31.03967 441
31.05978 431
31.0799 439
31.10001 413
31.12012 403
31.14024 405
31.16035 419
31.18046 413
31.20058 415
31.22069 423
31.2408 428
31.26092 427
31.28103 414
31.30115 447
31.32126 400
31.34137 434
31.36149 404
31.3816 432
31.40171 417
31.42183 417
31.44194 440
31.46206 415
31.48217 423
31.50228 438
31.5224 414
31.54251 426
31.56262 416
31.58274 434
31.60285 459
31.62297 418
31.64308 438
31.66319 406
31.68331 417
31.70342 420
31.72353 436
31.74365 441
31.76376 412
31.78387 428
31.80399 440
31.8241 425
31.84422 405
31.86433 421
31.88444 439
31.90456 426
31.92467 422
31.94478 400
31.9649 452
31.98501 407
32.00513 456
32.02524 423
32.04535 413
32.06547 436
32.08558 435
32.10569 480
32.12581 424
32.14592 435
32.16604 395
32.18615 449
32.20626 438
32.22638 431
32.24649 458
32.2666 391
32.28672 438
32.30683 452
32.32694 423
32.34706 419
32.36717 450
32.38729 449
32.4074 442
32.42751 440
32.44763 430
32.46774 468
32.48785 450
32.50797 462
32.52808 440
32.5482 463
32.56831 488
32.58842 491
32.60854 442
32.62865 466
32.64876 446
32.66888 464
32.68899 505
32.7091 462
32.72922 439
32.74933 437
32.76945 440
32.78956 503
32.80967 504
32.82979 491
32.8499 500
32.87001 453
32.89013 470
32.91024 498
32.93036 509
32.95047 473
32.97058 507
32.9907 540
33.01081 537
33.03092 512
33.05104 503
33.07115 515
33.09127 544
33.11138 536
33.13149 561
33.15161 539
33.17172 557
33.19183 523
33.21195 530
33.23206 539
33.25217 513
33.27229 517
33.2924 516
33.31252 517
33.33263 515
33.35274 494
33.37286 499
33.39297 499
33.41308 503
33.4332 536
33.45331 520
33.47343 502
33.49354 524
33.51365 495
33.53377 502
33.55388 452
33.57399 519
33.59411 494
33.61422 526
33.63434 491
33.65445 521
33.67456 487
33.69468 502
33.71479 479
33.7349 501
33.75502 500
33.77513 461
33.79524 484
33.81536 499
33.83547 475
33.85559 470
33.8757 456
33.89581 491
33.91593 456
33.93604 452
33.95615 447
33.97627 448
33.99638 444
34.0165 466
34.03661 454
34.05672 441
34.07684 416
34.09695 462
34.11706 472
34.13718 457
34.15729 447
34.17741 492
34.19752 455
34.21763 489
34.23775 485
34.25786 461
34.27797 485
34.29809 462
34.3182 479
34.33831 506
34.35843 477
34.37854 484
34.39866 530
34.41877 511
34.43888 460
34.459 490
34.47911 468
34.49922 530
34.51934 505
34.53945 519
34.55957 506
34.57968 529
34.59979 540
34.61991 565
34.64002 537
34.66013 541
34.68025 547
34.70036 541
34.72047 608
34.74059 555
34.7607 616
34.78082 600
34.80093 601
34.82104 595
34.84116 599
34.86127 606
34.88138 595
34.9015 655
34.92161 636
34.94173 647
34.96184 612
34.98195 627
35.00207 579
35.02218 606
35.04229 552
35.06241 615
35.08252 599
35.10264 579
35.12275 564
35.14286 612
35.16298 596
35.18309 616
35.2032 560
35.22332 585
35.24343 580
35.26354 579
35.28366 615
35.30377 573
35.32389 624
35.344 557
35.36411 587
35.38423 620
35.40434 619
35.42445 633
35.44457 615
35.46468 617
35.4848 640
35.50491 602
35.52502 628
35.54514 624
35.56525 653
35.58536 644
35.60548 601
35.62559 646
35.64571 658
35.66582 692
35.68593 710
35.70605 666
35.72616 630
35.74627 634
35.76639 690
35.7865 653
35.80661 646
35.82673 698
35.84684 681
35.86696 627
35.88707 656
35.90718 635
35.9273 615
35.94741 628
35.96752 664
35.98764 655
36.00775 648
36.02787 662
36.04798 618
36.06809 687
36.08821 670
36.10832 547
36.12843 618
36.14855 628
36.16866 599
36.18878 529
36.20889 631
36.229 591
36.24912 607
36.26923 613
36.28934 628
36.30946 711
36.32957 725
36.34968 760
36.3698 811
36.38991 1015
36.41003 1097
36.43014 1200
36.45025 1312
36.47037 1413
36.49048 1382
36.51059 1378
36.53071 1221
36.55082 1176
36.57094 1072
36.59105 949
36.61116 837
36.63128 836
36.65139 700
36.6715 652
36.69162 628
36.71173 571
36.73184 590
36.75196 584
36.77207 584
36.79219 586
36.8123 598
36.83241 561
36.85253 609
36.87264 601
36.89275 574
36.91287 562
36.93298 594
36.9531 584
36.97321 572
36.99332 566
37.01344 621
37.03355 558
37.05366 574
37.07378 600
37.09389 571
37.11401 552
37.13412 571
37.15423 621
37.17435 567
37.19446 575
37.21457 545
37.23469 573
37.2548 564
37.27491 538
37.29503 523
37.31514 596
37.33526 579
37.35537 560
37.37548 526
37.3956 570
37.41571 544
37.43582 543
37.45594 550
37.47605 539
37.49617 536
37.51628 539
37.53639 539
37.55651 518
37.57662 525
37.59673 507
37.61685 545
37.63696 508
37.65708 532
37.67719 475
37.6973 476
37.71742 541
37.73753 550
37.75764 520
37.77776 540
37.79787 491
37.81798 489
37.8381 480
37.85821 550
37.87833 506
37.89844 508
37.91855 527
37.93867 493
37.95878 562
37.97889 535
37.99901 510
38.01912 508
38.03924 491
38.05935 514
38.07946 509
38.09958 530
38.11969 481
38.1398 537
38.15992 523
38.18003 516
38.20015 561
38.22026 581
38.24037 553
38.26049 564
38.2806 585
38.30071 591
38.32083 509
38.34094 532
38.36105 551
38.38117 507
38.40128 573
38.4214 565
38.44151 541
38.46162 607
38.48174 550
38.50185 570
38.52196 527
38.54208 517
38.56219 563
38.58231 512
38.60242 477
38.62253 543
38.64265 502
38.66276 495
38.68287 522
38.70299 502
38.7231 492
38.74321 474
38.76333 498
38.78344 481
38.80356 522
38.82367 508
38.84378 485
38.8639 480
38.88401 475
38.90412 456
38.92424 512
38.94435 481
38.96447 497
38.98458 492
39.00469 519
39.02481 488
39.04492 542
39.06503 527
39.08515 552
39.10526 492
39.12538 514
39.14549 511
39.1656 563
39.18572 552
39.20583 580
39.22594 576
39.24606 589
39.26617 692
39.28628 695
39.3064 812
39.32651 927
39.34663 1036
39.36674 1209
39.38685 1236
39.40697 1339
39.42708 1229
39.44719 1115
39.46731 1058
39.48742 960
39.50754 915
39.52765 848
39.54776 718
39.56788 614
39.58799 596
39.6081 542
39.62822 530
39.64833 478
39.66845 483
39.68856 446
39.70867 493
39.72879 456
39.7489 436
39.76901 464
39.78913 464
39.80924 447
39.82935 474
39.84947 446
39.86958 477
39.8897 459
39.90981 468
39.92992 431
39.95004 467
39.97015 523
39.99026 477
40.01038 522
40.03049 533
40.05061 506
40.07072 489
40.09083 611
40.11095 600
40.13106 649
40.15117 656
40.17129 716
40.1914 777
40.21152 833
40.23163 867
40.25174 879
40.27186 803
40.29197 743
40.31208 725
40.3322 662
40.35231 678
40.37242 610
40.39254 583
40.41265 535
40.43277 508
40.45288 509
40.47299 520
40.49311 465
40.51322 449
40.53333 470
40.55345 495
40.57356 428
40.59368 501
40.61379 463
40.6339 478
40.65402 488
40.67413 450
40.69424 487
40.71436 524
40.73447 480
40.75458 485
40.7747 509
40.79481 482
40.81493 488
40.83504 486
40.85515 502
40.87527 490
40.89538 463
40.91549 482
40.93561 491
40.95572 486
40.97584 442
40.99595 476
41.01606 480
41.03618 496
41.05629 469
41.0764 437
41.09652 456
41.11663 495
41.13675 533
41.15686 495
41.17697 472
41.19709 516
41.2172 498
41.23731 481
41.25743 466
41.27754 446
41.29765 509
41.31777 450
41.33788 454
41.358 471
41.37811 425
41.39822 484
41.41834 471
41.43845 467
41.45856 485
41.47868 411
41.49879 497
41.51891 428
41.53902 458
41.55913 458
41.57925 444
41.59936 457
41.61947 458
41.63959 444
41.6597 471
41.67982 443
41.69993 443
41.72004 420
41.74016 441
41.76027 433
41.78038 425
41.8005 426
41.82061 440
41.84072 457
41.86084 424
41.88095 460
41.90107 462
41.92118 432
41.94129 424
41.96141 411
41.98152 421
42.00163 442
42.02175 410
42.04186 483
42.06198 431
42.08209 390
42.1022 470
42.12232 481
42.14243 491
42.16254 501
42.18266 475
42.20277 501
42.22289 576
42.243 569
42.26311 635
42.28323 680
42.30334 776
42.32345 847
42.34357 848
42.36368 948
42.38379 927
42.40391 936
42.42402 933
42.44414 818
42.46425 736
42.48436 669
42.50448 678
42.52459 629
42.5447 584
42.56482 539
42.58493 468
42.60505 415
42.62516 439
42.64527 424
42.66539 443
42.6855 416
42.70561 408
42.72573 443
42.74584 382
42.76595 391
42.78607 397
42.80618 429
42.8263 381
42.84641 421
42.86652 407
42.88664 415
42.90675 368
42.92686 376
42.94698 372
42.96709 400
42.98721 387
43.00732 366
43.02743 384
43.04755 366
43.06766 368
43.08777 402
43.10789 395
43.128 391
43.14812 410
43.16823 420
43.18834 408
43.20846 377
43.22857 365
43.24868 411
43.2688 407
43.28891 371
43.30902 439
43.32914 452
43.34925 400
43.36937 340
43.38948 378
43.40959 405
43.42971 408
43.44982 420
43.46993 398
43.49005 427
43.51016 376
43.53028 429
43.55039 358
43.5705 401
43.59062 412
43.61073 417
43.63084 403
43.65096 403
43.67107 381
43.69119 418
43.7113 391
43.73141 398
43.75153 395
43.77164 399
43.79175 393
43.81187 407
43.83198 399
43.85209 364
43.87221 410
43.89232 396
43.91244 396
43.93255 382
43.95266 418
43.97278 430
43.99289 394
44.013 399
44.03312 416
44.05323 393
44.07335 397
44.09346 412
44.11357 394
44.13369 396
44.1538 390
44.17391 358
44.19403 380
44.21414 372
44.23426 398
44.25437 372
44.27448 417
44.2946 350
44.31471 396
44.33482 394
44.35494 422
44.37505 383
44.39516 429
44.41528 408
44.43539 370
44.45551 414
44.47562 418
44.49573 399
44.51585 390
44.53596 415
44.55607 397
44.57619 384
44.5963 367
44.61642 378
44.63653 416
44.65664 370
44.67676 379
44.69687 370
44.71698 431
44.7371 426
44.75721 429
44.77732 392
44.79744 370
44.81755 411
44.83767 389
44.85778 344
44.87789 419
44.89801 376
44.91812 407
44.93823 384
44.95835 421
44.97846 410
44.99858 397
45.01869 346
45.0388 441
45.05892 365
45.07903 419
45.09914 395
45.11926 432
45.13937 395
45.15949 405
45.1796 402
45.19971 448
45.21983 413
45.23994 391
45.26005 406
45.28017 436
45.30028 422
45.32039 428
45.34051 480
45.36062 409
45.38074 438
45.40085 388
45.42096 455
45.44108 412
45.46119 465
45.4813 467
45.50142 480
45.52153 466
45.54165 479
45.56176 482
45.58187 493
45.60199 517
45.6221 574
45.64221 617
45.66233 679
45.68244 699
45.70256 746
45.72267 764
45.74278 841
45.7629 741
45.78301 705
45.80312 664
45.82324 621
45.84335 618
45.86346 569
45.88358 555
45.90369 512
45.92381 495
45.94392 459
45.96403 467
45.98415 430
46.00426 400
46.02437 385
46.04449 411
46.0646 385
46.08472 422
46.10483 439
46.12494 434
46.14506 419
46.16517 408
46.18528 410
46.2054 383
46.22551 421
46.24563 401
46.26574 403
46.28585 391
46.30597 400
46.32608 405
46.34619 408
46.36631 422
46.38642 412
46.40653 398
46.42665 393
46.44676 377
46.46688 404
46.48699 390
46.5071 430
46.52722 383
46.54733 381
46.56744 374
46.58756 374
46.60767 390
46.62779 394
46.6479 385
46.66801 398
46.68813 438
46.70824 370
46.72835 369
46.74847 407
46.76858 395
46.78869 398
46.80881 409
46.82892 413
46.84904 411
46.86915 424
46.88926 402
46.90938 424
46.92949 420
46.9496 384
46.96972 393
46.98983 342
47.00995 406
47.03006 408
47.05017 396
47.07029 387
47.0904 390
47.11051 380
47.13063 367
47.15074 376
47.17086 402
47.19097 393
47.21108 386
47.2312 355
47.25131 358
47.27142 388
47.29154 393
47.31165 410
47.33176 392
47.35188 380
47.37199 405
47.39211 374
47.41222 389
47.43233 401
47.45245 432
47.47256 403
47.49267 383
47.51279 405
47.5329 403
47.55302 374
47.57313 418
47.59324 367
47.61336 380
47.63347 398
47.65358 412
47.6737 423
47.69381 370
47.71393 400
47.73404 404
47.75415 389
47.77427 392
47.79438 385
47.81449 402
47.83461 383
47.85472 376
47.87483 418
47.89495 394
47.91506 401
47.93518 373
47.95529 414
47.9754 403
47.99552 394
48.01563 392
48.03574 413
48.05586 397
48.07597 383
48.09609 361
48.1162 375
48.13631 385
48.15643 434
48.17654 399
48.19665 365
48.21677 361
48.23688 378
48.257 405
48.27711 432
48.29722 391
48.31734 413
48.33745 393
48.35756 375
48.37768 392
48.39779 388
48.4179 420
48.43802 363
48.45813 407
48.47825 412
48.49836 377
48.51847 414
48.53859 392
48.5587 397
48.57881 382
48.59893 397
48.61904 410
48.63916 396
48.65927 412
48.67938 396
48.6995 404
48.71961 392
48.73972 415
48.75984 400
48.77995 412
48.80006 403
48.82018 364
48.84029 366
48.86041 388
48.88052 423
48.90063 399
48.92075 411
48.94086 408
48.96097 385
48.98109 357
49.0012 362
49.02132 388
49.04143 384
49.06154 413
49.08166 407
49.10177 429
49.12188 437
49.142 389
49.16211 427
49.18223 404
49.20234 414
49.22245 394
49.24257 403
49.26268 417
49.28279 429
49.30291 413
49.32302 471
49.34313 455
49.36325 446
49.38336 436
49.40348 410
49.42359 389
49.4437 418
49.46382 421
49.48393 441
49.50404 443
49.52416 391
49.54427 416
49.56439 398
49.5845 423
49.60461 407
49.62473 463
49.64484 460
49.66495 448
49.68507 454
49.70518 482
49.7253 453
49.74541 449
49.76552 487
49.78564 517
49.80575 541
49.82586 538
49.84598 607
49.86609 614
49.8862 631
49.90632 755
49.92643 791
49.94655 881
49.96666 1096
49.98677 1215
50.00689 1377
50.027 1530
50.04711 1654
50.06723 1723
50.08734 1654
50.10746 1534
50.12757 1382
50.14768 1263
50.1678 1187
50.18791 1136
50.20802 1057
50.22814 923
50.24825 843
50.26837 683
50.28848 580
50.30859 518
50.32871 485
50.34882 515
50.36893 457
50.38905 467
50.40916 440
50.42927 446
50.44939 408
50.4695 426
50.48962 433
50.50973 374
50.52984 415
50.54996 414
50.57007 420
50.59018 405
50.6103 431
50.63041 420
50.65053 394
50.67064 412
50.69075 410
50.71087 387
50.73098 402
50.75109 433
50.77121 414
50.79132 403
50.81143 402
50.83155 404
50.85166 426
50.87178 413
50.89189 375
50.912 386
50.93212 399
50.95223 406
50.97234 358
50.99246 378
51.01257 423
51.03269 383
51.0528 376
51.07291 403
51.09303 416
51.11314 390
51.13325 387
51.15337 398
51.17348 375
51.1936 387
51.21371 391
51.23382 364
51.25394 419
51.27405 337
51.29416 398
51.31428 380
51.33439 378
51.3545 384
51.37462 371
51.39473 377
51.41485 392
51.43496 403
51.45507 369
51.47519 369
51.4953 361
51.51541 362
51.53553 373
51.55564 400
51.57576 335
51.59587 358
51.61598 393
51.6361 372
51.65621 386
51.67632 399
51.69644 349
51.71655 377
51.73667 403
51.75678 334
51.77689 364
51.79701 334
51.81712 336
51.83723 340
51.85735 397
51.87746 367
51.89757 364
51.91769 384
51.9378 360
51.95792 367
51.97803 400
51.99814 368
52.01826 377
52.03837 396
52.05848 352
52.0786 398
52.09871 343
52.11883 369
52.13894 344
52.15905 362
52.17917 370
52.19928 399
52.21939 364
52.23951 377
52.25962 357
52.27974 392
52.29985 358
52.31996 417
52.34008 362
52.36019 382
52.3803 398
52.40042 358
52.42053 379
52.44064 401
52.46076 363
52.48087 358
52.50099 337
52.5211 348
52.54121 371
52.56133 370
52.58144 398
52.60155 350
52.62167 404
52.64178 355
52.6619 364
52.68201 386
52.70212 368
52.72224 373
52.74235 374
52.76246 373
52.78258 401
52.80269 361
52.8228 367
52.84292 355
52.86303 354
52.88315 394
52.90326 392
52.92337 368
52.94349 390
52.9636 338
52.98371 384
53.00383 364
53.02394 361
53.04406 390
53.06417 387
53.08428 388
53.1044 413
53.12451 374
53.14462 401
53.16474 391
53.18485 386
53.20497 378
53.22508 396
53.24519 407
53.26531 408
53.28542 387
53.30553 427
53.32565 410
53.34576 420
53.36587 401
53.38599 391
53.4061 422
53.42622 453
53.44633 405
53.46644 395
53.48656 408
53.50667 408
53.52678 437
53.5469 436
53.56701 424
53.58713 402
53.60724 466
53.62735 434
53.64747 412
53.66758 440
53.68769 465
53.70781 475
53.72792 444
53.74804 452
53.76815 461
53.78826 504
53.80838 463
53.82849 455
53.8486 444
53.86872 495
53.88883 475
53.90894 492
53.92906 498
53.94917 475
53.96929 504
53.9894 535
54.00951 542
54.02963 518
54.04974 492
54.06985 542
54.08997 522
54.11008 525
54.1302 481
54.15031 516
54.17042 526
54.19054 539
54.21065 540
54.23076 541
54.25088 491
54.27099 566
54.29111 514
54.31122 530
54.33133 521
54.35145 497
54.37156 496
54.39167 481
54.41179 528
54.4319 497
54.45201 503
54.47213 492
54.49224 499
54.51236 479
54.53247 485
54.55258 512
54.5727 509
54.59281 514
54.61292 557
54.63304 571
54.65315 576
54.67327 663
54.69338 652
54.71349 684
54.73361 749
54.75372 761
54.77383 813
54.79395 793
54.81406 817
54.83417 749
54.85429 746
54.8744 727
54.89452 688
54.91463 680
54.93474 682
54.95486 631
54.97497 634
54.99508 607
55.0152 570
55.03531 507
55.05543 522
55.07554 552
55.09565 500
55.11577 521
55.13588 543
55.15599 500
55.17611 563
55.19622 573
55.21634 614
55.23645 625
55.25656 607
55.27668 568
55.29679 573
55.3169 525
55.33702 500
55.35713 531
55.37724 564
55.39736 521
55.41747 478
55.43759 466
55.4577 460
55.47781 443
55.49793 402
55.51804 490
55.53815 409
55.55827 434
55.57838 431
55.5985 444
55.61861 437
55.63872 425
55.65884 415
55.67895 415
55.69906 393
55.71918 419
55.73929 391
55.75941 401
55.77952 399
55.79963 389
55.81975 410
55.83986 432
55.85997 402
55.88009 373
55.9002 416
55.92031 410
55.94043 448
55.96054 408
55.98066 424
56.00077 409
56.02088 391
56.041 408
56.06111 418
56.08122 437
56.10134 427
56.12145 398
56.14157 404
56.16168 427
56.18179 400
56.20191 410
56.22202 406
56.24213 391
56.26225 378
56.28236 428
56.30248 396
56.32259 382
56.3427 392
56.36282 392
56.38293 412
56.40304 391
56.42316 406
56.44327 371
56.46338 399
56.4835 403
56.50361 400
56.52373 398
56.54384 407
56.56395 364
56.58407 398
56.60418 392
56.62429 394
56.64441 440
56.66452 422
56.68464 430
56.70475 409
56.72486 413
56.74498 440
56.76509 389
56.7852 385
56.80532 388
56.82543 421
56.84554 408
56.86566 383
56.88577 352
56.90589 384
56.926 394
56.94611 383
56.96623 376
56.98634 424
57.00645 392
57.02657 383
57.04668 391
57.0668 381
57.08691 406
57.10702 416
57.12714 384
57.14725 379
57.16736 422
57.18748 415
57.20759 375
57.22771 359
57.24782 405
57.26793 378
57.28805 391
57.30816 378
57.32827 407
57.34839 354
57.3685 383
57.38861 364
57.40873 386
57.42884 378
57.44896 394
57.46907 390
57.48918 375
57.5093 364
57.52941 393
57.54952 403
57.56964 394
57.58975 374
57.60987 369
57.62998 405
57.65009 385
57.67021 369
57.69032 385
57.71043 350
57.73055 393
57.75066 392
57.77078 363
57.79089 395
57.811 377
57.83112 376
57.85123 382
57.87134 404
57.89146 382
57.91157 356
57.93168 406
57.9518 407
57.97191 399
57.99203 367
58.01214 414
58.03225 358
58.05237 388
58.07248 376
58.09259 420
58.11271 354
58.13282 362
58.15294 408
58.17305 351
58.19316 375
58.21328 375
58.23339 375
58.2535 373
58.27362 383
58.29373 381
58.31385 369
58.33396 345
58.35407 355
58.37419 406
58.3943 383
58.41441 403
58.43453 346
58.45464 381
58.47475 374
58.49487 389
58.51498 374
58.5351 389
58.55521 399
58.57532 357
58.59544 386
58.61555 342
58.63566 377
58.65578 378
58.67589 343
58.69601 376
58.71612 389
58.73623 320
58.75635 370
58.77646 357
58.79657 365
58.81669 379
58.8368 358
58.85691 369
58.87703 387
58.89714 372
58.91726 383
58.93737 409
58.95748 385
58.9776 379
58.99771 377
59.01782 349
59.03794 327
59.05805 361
59.07817 361
59.09828 370
59.11839 350
59.13851 358
59.15862 399
59.17873 346
59.19885 374
59.21896 404
59.23908 397
59.25919 403
59.2793 341
59.29942 391
59.31953 388
59.33964 404
59.35976 403
59.37987 400
59.39998 428
59.4201 418
59.44021 408
59.46033 401
59.48044 439
59.50055 413
59.52067 385
59.54078 474
59.56089 459
59.58101 442
59.60112 448
59.62124 468
59.64135 506
59.66146 540
59.68158 563
59.70169 615
59.7218 630
59.74192 616
59.76203 748
59.78215 829
59.80226 886
59.82237 987
59.84249 1078
59.8626 1227
59.88271 1175
59.90283 1170
59.92294 1052
59.94305 977
59.96317 891
59.98328 855
60.0034 847
60.02351 832
60.04362 762
60.06374 760
60.08385 731
60.10396 597
60.12408 608
60.14419 504
60.16431 481
60.18442 444
60.20453 395
60.22465 426
60.24476 413
60.26487 395
60.28499 436
60.3051 438
60.32522 406
60.34533 373
60.36544 403
60.38556 378
60.40567 408
60.42578 409
60.4459 390
60.46601 356
60.48612 386
60.50624 394
60.52635 375
60.54647 387
60.56658 367
60.58669 398
60.60681 368
60.62692 353
60.64703 380
60.66715 379
60.68726 383
60.70738 332
60.72749 342
60.7476 392
60.76772 351
60.78783 376
60.80794 355
60.82806 377
60.84817 358
60.86828 364
60.8884 383
60.90851 363
60.92863 390
60.94874 384
60.96885 370
60.98897 371
61.00908 393
61.02919 369
61.04931 379
61.06942 375
61.08954 395
61.10965 360
61.12976 383
61.14988 370
61.16999 395
61.1901 375
61.21022 357
61.23033 407
61.25045 395
61.27056 355
61.29067 369
61.31079 390
61.3309 357
61.35101 396
61.37113 418
61.39124 406
61.41135 410
61.43147 405
61.45158 414
61.4717 388
61.49181 381
61.51192 424
61.53204 395
61.55215 433
61.57226 388
61.59238 419
61.61249 418
61.63261 419
61.65272 403
61.67283 425
61.69295 401
61.71306 430
61.73317 431
61.75329 419
61.7734 439
61.79352 397
61.81363 454
61.83374 412
61.85386 403
61.87397 397
61.89408 419
61.9142 450
61.93431 425
61.95442 464
61.97454 443
61.99465 413
62.01477 489
62.03488 468
62.05499 468
62.07511 484
62.09522 474
62.11533 472
62.13545 470
62.15556 484
62.17568 473
62.19579 517
62.2159 547
62.23602 492
62.25613 494
62.27624 507
62.29636 444
62.31647 461
62.33659 490
62.3567 499
62.37681 475
62.39693 449
62.41704 422
62.43715 496
62.45727 484
62.47738 429
62.49749 441
62.51761 403
62.53772 424
62.55784 417
62.57795 417
62.59806 444
62.61818 408
62.63829 436
62.6584 417
62.67852 422
62.69863 426
62.71875 410
62.73886 414
62.75897 408
62.77909 412
62.7992 413
62.81931 378
62.83943 396
62.85954 385
62.87965 383
62.89977 401
62.91988 397
62.94 393
62.96011 402
62.98022 400
63.00034 400
63.02045 386
63.04056 386
63.06068 397
63.08079 404
63.10091 390
63.12102 399
63.14113 418
63.16125 419
63.18136 413
63.20147 374
63.22159 384
63.2417 356
63.26182 389
63.28193 386
63.30204 411
63.32216 399
63.34227 404
63.36238 414
63.3825 394
63.40261 415
63.42272 373
63.44284 399
63.46295 394
63.48307 394
63.50318 368
63.52329 360
63.54341 395
63.56352 408
63.58363 394
63.60375 405
63.62386 395
63.64398 384
63.66409 385
63.6842 397
63.70432 399
63.72443 374
63.74454 422
63.76466 415
63.78477 409
63.80489 454
63.825 426
63.84511 490
63.86523 466
63.88534 496
63.90545 494
63.92557 564
63.94568 529
63.96579 573
63.98591 524
64.00602 519
64.02614 515
64.04625 487
64.06636 487
64.08648 452
64.10659 448
64.1267 488
64.14682 478
64.16693 457
64.18705 448
64.20716 413
64.22727 422
64.24739 403
64.2675 375
64.28761 384
64.30773 379
64.32784 372
64.34796 383
64.36807 398
64.38818 374
64.4083 343
64.42841 390
64.44852 363
64.46864 379
64.48875 379
64.50886 404
64.52898 388
64.54909 370
64.56921 359
64.58932 351
64.60943 356
64.62955 360
64.64966 337
64.66977 353
64.68989 401
64.71 384
64.73012 315
64.75023 366
64.77034 367
64.79046 391
64.81057 364
64.83068 355
64.8508 353
64.87091 370
64.89102 332
64.91114 346
64.93125 381
64.95137 324
64.97148 379
64.99159 385
65.01171 369
65.03182 351
65.05193 362
65.07205 339
65.09216 346
65.11228 347
65.13239 365
65.1525 371
65.17262 362
65.19273 348
65.21284 370
65.23296 362
65.25307 347
65.27319 359
65.2933 354
65.31341 318
65.33353 348
65.35364 330
65.37375 374
65.39387 327
65.41398 350
65.43409 348
65.45421 305
65.47432 356
65.49444 358
65.51455 344
65.53466 380
65.55478 346
65.57489 375
65.595 387
65.61512 350
65.63523 347
65.65535 370
65.67546 394
65.69557 372
65.71569 351
65.7358 369
65.75591 372
65.77603 377
65.79614 351
65.81626 378
65.83637 362
65.85648 334
65.8766 357
65.89671 355
65.91682 356
65.93694 359
65.95705 357
65.97716 341
65.99728 377
66.01739 353
66.03751 312
66.05762 334
66.07773 324
66.09785 369
66.11796 325
66.13807 380
66.15819 365
66.1783 349
66.19842 350
66.21853 328
66.23864 358
66.25876 386
66.27887 325
66.29898 346
66.3191 374
66.33921 332
66.35933 349
66.37944 337
66.39955 360
66.41967 361
66.43978 353
66.45989 365
66.48001 354
66.50012 336
66.52023 327
66.54035 337
66.56046 326
66.58058 342
66.60069 358
66.6208 342
66.64092 357
66.66103 322
66.68114 333
66.70126 340
66.72137 367
66.74149 336
66.7616 330
66.78171 314
66.80183 319
66.82194 331
66.84205 362
66.86217 335
66.88228 362
66.90239 339
66.92251 318
66.94262 316
66.96274 364
66.98285 363
67.00296 356
67.02308 360
67.04319 338
67.0633 341
67.08342 351
67.10353 395
67.12365 338
67.14376 316
67.16387 371
67.18399 372
67.2041 335
67.22421 369
67.24433 342
67.26444 375
67.28456 381
67.30467 390
67.32478 388
67.3449 375
67.36501 430
67.38512 391
67.40524 413
67.42535 426
67.44546 413
67.46558 470
67.48569 480
67.50581 468
67.52592 497
67.54603 569
67.56615 600
67.58626 665
67.60637 721
67.62649 802
67.6466 809
67.66672 819
67.68683 812
67.70694 751
67.72706 699
67.74717 656
67.76728 582
67.7874 634
67.80751 599
67.82763 679
67.84774 681
67.86785 677
67.88797 660
67.90808 705
67.92819 677
67.94831 766
67.96842 775
67.98853 816
68.00865 867
68.02876 917
68.04888 940
68.06899 998
68.0891 1019
68.10922 980
68.12933 894
68.14944 947
68.16956 843
68.18967 917
68.20979 896
68.2299 956
68.25001 996
68.27013 897
68.29024 778
68.31035 716
68.33047 607
68.35058 624
68.3707 558
68.39081 541
68.41092 538
68.43104 535
68.45115 503
68.47126 470
68.49138 463
68.51149 415
68.5316 437
68.55172 375
68.57183 395
68.59195 406
68.61206 380
68.63217 369
68.65229 374
68.6724 369
68.69251 339
68.71263 386
68.73274 348
68.75286 349
68.77297 394
68.79308 368
68.8132 342
68.83331 351
68.85342 351
68.87354 345
68.89365 349
68.91376 364
68.93388 374
68.95399 329
68.97411 342
68.99422 327
69.01433 320
69.03445 358
69.05456 345
69.07467 350
69.09479 348
69.1149 351
69.13502 366
69.15513 329
69.17524 344
69.19536 362
69.21547 327
69.23558 363
69.2557 348
69.27581 343
69.29593 313
69.31604 360
69.33615 355
69.35627 309
69.37638 335
69.39649 347
69.41661 374
69.43672 338
69.45683 337
69.47695 316
69.49706 336
69.51718 356
69.53729 352
69.5574 330
69.57752 320
69.59763 343
69.61774 383
69.63786 318
69.65797 326
69.67809 333
69.6982 337
69.71831 330
69.73843 326
69.75854 321
69.77865 379
69.79877 357
69.81888 343
69.839 328
69.85911 354
69.87922 359
69.89934 314
69.91945 306
69.93956 342
69.95968 321
69.97979 337
69.9999 348
70.02002 319
70.04013 329
70.06025 380
70.08036 333
70.10047 316
70.12059 307
70.1407 349
70.16081 318
70.18093 337
70.20104 319
70.22116 308
70.24127 335
70.26138 348
70.2815 352
70.30161 344
70.32172 352
70.34184 345
70.36195 350
70.38207 307
70.40218 332
70.42229 332
70.44241 313
70.46252 318
70.48263 330
70.50275 331
70.52286 314
70.54297 332
70.56309 331
70.5832 336
70.60332 337
70.62343 330
70.64354 341
70.66366 317
70.68377 344
70.70388 355
70.724 320
70.74411 317
70.76423 325
70.78434 312
70.80445 325
70.82457 336
70.84468 323
70.86479 308
70.88491 324
70.90502 295
70.92513 315
70.94525 336
70.96536 347
70.98548 324
71.00559 334
71.0257 306
71.04582 310
71.06593 301
71.08604 357
71.10616 333
71.12627 331
71.14639 321
71.1665 300
71.18661 341
71.20673 308
71.22684 347
71.24695 372
71.26707 329
71.28718 306
71.3073 310
71.32741 331
71.34752 312
71.36764 318
71.38775 343
71.40786 332
71.42798 325
71.44809 285
71.4682 338
71.48832 330
71.50843 312
71.52855 302
71.54866 321
71.56877 343
71.58889 314
71.609 320
71.62911 338
71.64923 337
71.66934 332
71.68946 313
71.70957 293
71.72968 324
71.7498 336
71.76991 289
71.79002 348
71.81014 313
71.83025 306
71.85037 335
71.87048 322
71.89059 328
71.91071 314
71.93082 317
71.95093 350
71.97105 340
71.99116 328
72.01127 332
72.03139 341
72.0515 320
72.07162 328
72.09173 371
72.11184 343
72.13196 309
72.15207 309
72.17218 314
72.1923 329
72.21241 328
72.23253 359
72.25264 283
72.27275 335
72.29287 329
72.31298 368
72.33309 305
72.35321 328
72.37332 348
72.39344 344
72.41355 361
72.43366 345
72.45378 317
72.47389 338
72.494 366
72.51412 307
72.53423 357
72.55434 329
72.57446 325
72.59457 315
72.61469 338
72.6348 328
72.65491 340
72.67503 328
72.69514 318
72.71525 307
72.73537 330
72.75548 336
72.7756 343
72.79571 336
72.81582 339
72.83594 320
72.85605 326
72.87616 317
72.89628 301
72.91639 327
72.9365 322
72.95662 312
72.97673 342
72.99685 339
73.01696 360
73.03707 344
73.05719 365
73.0773 340
73.09741 380
73.11753 337
73.13764 336
73.15776 363
73.17787 377
73.19798 374
73.2181 367
73.23821 411
73.25832 416
73.27844 425
73.29855 433
73.31867 452
73.33878 470
73.35889 503
73.37901 492
73.39912 463
73.41923 475
73.43935 454
73.45946 430
73.47957 428
73.49969 412
73.5198 400
73.53992 409
73.56003 416
73.58014 374
73.60026 428
73.62037 388
73.64048 410
73.6606 370
73.68071 387
73.70083 357
73.72094 367
73.74105 323
73.76117 361
73.78128 346
73.80139 328
73.82151 310
73.84162 297
73.86174 295
73.88185 339
73.90196 311
73.92208 293
73.94219 318
73.9623 328
73.98242 326
74.00253 306
74.02264 355
74.04276 299
74.06287 337
74.08299 336
74.1031 322
74.12321 334
74.14333 332
74.16344 284
74.18355 290
74.20367 324
74.22378 322
74.2439 308
74.26401 326
74.28412 289
74.30424 320
74.32435 314
74.34446 320
74.36458 297
74.38469 334
74.40481 306
74.42492 325
74.44503 309
74.46515 329
74.48526 314
74.50537 312
74.52549 299
74.5456 325
74.56571 321
74.58583 313
74.60594 303
74.62606 345
74.64617 317
74.66628 302
74.6864 338
74.70651 318
74.72662 312
74.74674 341
74.76685 332
74.78697 321
74.80708 316
74.82719 328
74.84731 353
74.86742 323
74.88753 323
74.90765 321
74.92776 311
74.94787 336
74.96799 298
74.9881 318
75.00822 323
