3.00117 19005
3.02128 18136
3.0414 17826
3.06151 17260
3.08162 16666
3.10174 16459
3.12185 15870
3.14197 15207
3.16208 14873
3.18219 14649
3.20231 14178
3.22242 13465
3.24253 13621
3.26265 12766
3.28276 12476
3.30288 12265
3.32299 11950
3.3431 11318
3.36322 11061
3.38333 10596
3.40344 10260
3.42356 9852
3.44367 9828
3.46379 9204
3.4839 8705
3.50401 8726
3.52413 8226
3.54424 8174
3.56435 7693
3.58447 7538
3.60458 7307
3.62469 6805
3.64481 6723
3.66492 6352
3.68504 6097
3.70515 5992
3.72526 5668
3.74538 5594
3.76549 5165
3.7856 4897
3.80572 4948
3.82583 4487
3.84595 4382
3.86606 4092
3.88617 3934
3.90629 3985
3.9264 3591
3.94651 3506
3.96663 3299
3.98674 3180
4.00686 3098
4.02697 2941
4.04708 2872
4.0672 2621
4.08731 2491
4.10742 2486
4.12754 2377
4.14765 2270
4.16776 2031
4.18788 1932
4.20799 1938
4.22811 1943
4.24822 1898
4.26833 1643
4.28845 1674
4.30856 1638
4.32867 1563
4.34879 1548
4.3689 1384
4.38902 1385
4.40913 1481
4.42924 1337
4.44936 1228
4.46947 1219
4.48958 1217
4.5097 1239
4.52981 1246
4.54992 1132
4.57004 1076
4.59015 1064
4.61027 1079
4.63038 1066
4.65049 1016
4.67061 961
4.69072 907
4.71083 950
4.73095 937
4.75106 920
4.77118 907
4.79129 851
4.8114 831
4.83152 838
4.85163 780
4.87174 748
4.89186 783
4.91197 765
4.93209 709
4.9522 688
4.97231 679
4.99243 768
5.01254 701
5.03265 637
5.05277 615
5.07288 609
5.09299 556
5.11311 575
5.13322 612
5.15334 549
5.17345 585
5.19356 522
5.21368 487
5.23379 527
5.2539 501
5.27402 455
5.29413 461
5.31425 483
5.33436 472
5.35447 408
5.37459 427
5.3947 440
5.41481 425
5.43493 430
5.45504 422
5.47516 382
5.49527 401
5.51538 384
5.5355 404
5.55561 340
5.57572 393
5.59584 373
5.61595 320
5.63606 345
5.65618 306
5.67629 348
5.69641 327
5.71652 325
5.73663 283
5.75675 293
5.77686 280
5.79697 296
5.81709 299
5.8372 309
5.85732 294
5.87743 256
5.89754 320
5.91766 278
5.93777 255
5.95788 259
5.978 270
5.99811 238
6.01823 269
6.03834 281
6.05845 271
6.07857 260
6.09868 267
6.11879 230
6.13891 225
6.15902 259
6.17913 250
6.19925 239
6.21936 259
6.23948 252
6.25959 235
6.2797 236
6.29982 265
6.31993 252
6.34004 244
6.36016 280
6.38027 236
6.40039 226
6.4205 256
6.44061 215
6.46073 236
6.48084 220
6.50095 226
6.52107 197
6.54118 198
6.56129 218
6.58141 190
6.60152 214
6.62164 229
6.64175 197
6.66186 210
6.68198 216
6.70209 233
6.7222 235
6.74232 207
6.76243 213
6.78255 204
6.80266 196
6.82277 221
6.84289 202
6.863 199
6.88311 212
6.90323 205
6.92334 221
6.94346 206
6.96357 207
6.98368 234
7.0038 189
7.02391 192
7.04402 201
7.06414 200
7.08425 240
7.10436 204
7.12448 196
7.14459 191
7.16471 203
7.18482 215
7.20493 205
7.22505 202
7.24516 195
7.26527 197
7.28539 203
7.3055 225
7.32562 195
7.34573 201
7.36584 231
7.38596 222
7.40607 223
7.42618 223
7.4463 219
7.46641 184
7.48653 213
7.50664 209
7.52675 208
7.54687 202
7.56698 227
7.58709 215
7.60721 238
7.62732 235
7.64743 213
7.66755 209
7.68766 229
7.70778 205
7.72789 198
7.748 237
7.76812 217
7.78823 205
7.80834 228
7.82846 203
7.84857 237
7.86869 219
7.8888 205
7.90891 223
7.92903 226
7.94914 248
7.96925 185
7.98937 211
8.00948 197
8.0296 196
8.04971 198
8.06982 223
8.08994 207
8.11005 203
8.13016 197
8.15028 198
8.17039 190
8.1905 239
8.21062 224
8.23073 246
8.25085 230
8.27096 214
8.29107 218
8.31119 225
8.3313 244
8.35141 229
8.37153 214
8.39164 229
8.41176 218
8.43187 226
8.45198 207
8.4721 211
8.49221 218
8.51232 191
8.53244 205
8.55255 218
8.57266 220
8.59278 206
8.61289 238
8.63301 236
8.65312 234
8.67323 235
8.69335 230
8.71346 223
8.73357 221
8.75369 206
8.7738 236
8.79392 226
8.81403 210
8.83414 228
8.85426 226
8.87437 256
8.89448 220
8.9146 223
8.93471 245
8.95483 201
8.97494 219
8.99505 214
9.01517 236
9.03528 234
9.05539 229
9.07551 198
9.09562 231
9.11573 233
9.13585 251
9.15596 212
9.17608 227
9.19619 210
9.2163 209
9.23642 215
9.25653 206
9.27664 199
9.29676 215
9.31687 215
9.33699 219
9.3571 233
9.37721 194
9.39733 187
9.41744 204
9.43755 225
9.45767 224
9.47778 251
9.4979 232
9.51801 217
9.53812 208
9.55824 191
9.57835 236
9.59846 199
9.61858 229
9.63869 227
9.6588 228
9.67892 217
9.69903 221
9.71915 224
9.73926 254
9.75937 235
9.77949 220
9.7996 247
9.81971 230
9.83983 224
9.85994 243
9.88006 248
9.90017 182
9.92028 231
9.9404 241
9.96051 273
9.98062 233
10.00074 240
10.02085 228
10.04097 216
10.06108 246
10.08119 195
10.10131 225
10.12142 220
10.14153 212
10.16165 233
10.18176 221
10.20187 219
10.22199 214
10.2421 200
10.26222 213
10.28233 222
10.30244 276
10.32256 244
10.34267 237
10.36278 254
10.3829 215
10.40301 204
10.42313 192
10.44324 202
10.46335 241
10.48347 224
10.50358 218
10.52369 201
10.54381 213
10.56392 225
10.58403 218
10.60415 210
10.62426 225
10.64438 206
10.66449 217
10.6846 221
10.70472 230
10.72483 226
10.74494 211
10.76506 202
10.78517 224
10.80529 237
10.8254 215
10.84551 238
10.86563 216
10.88574 209
10.90585 215
10.92597 213
10.94608 247
10.9662 254
10.98631 221
11.00642 209
11.02654 237
11.04665 241
11.06676 250
11.08688 248
11.10699 215
11.1271 223
11.14722 225
11.16733 237
11.18745 227
11.20756 226
11.22767 208
11.24779 191
11.2679 211
11.28801 215
11.30813 239
11.32824 220
11.34836 207
11.36847 210
11.38858 236
11.4087 214
11.42881 233
11.44892 210
11.46904 235
11.48915 229
11.50927 243
11.52938 222
11.54949 236
11.56961 252
11.58972 211
11.60983 261
11.62995 238
11.65006 240
11.67017 250
11.69029 239
11.7104 251
11.73052 237
11.75063 213
11.77074 245
11.79086 248
11.81097 249
11.83108 231
11.8512 265
11.87131 252
11.89143 268
11.91154 267
11.93165 272
11.95177 291
11.97188 260
11.99199 316
12.01211 287
12.03222 308
12.05234 301
12.07245 309
12.09256 331
12.11268 347
12.13279 399
12.1529 380
12.17302 418
12.19313 419
12.21324 469
12.23336 516
12.25347 569
12.27359 546
12.2937 572
12.31381 609
12.33393 623
12.35404 614
12.37415 570
12.39427 566
12.41438 505
12.4345 481
12.45461 429
12.47472 419
12.49484 355
12.51495 360
12.53506 345
12.55518 322
12.57529 298
12.5954 320
12.61552 262
12.63563 258
12.65575 267
12.67586 285
12.69597 248
12.71609 224
12.7362 248
12.75631 227
12.77643 215
12.79654 238
12.81666 190
12.83677 216
12.85688 217
12.877 251
12.89711 234
12.91722 183
12.93734 209
12.95745 231
12.97757 205
12.99768 236
13.01779 228
13.03791 201
13.05802 203
13.07813 187
13.09825 213
13.11836 211
13.13847 213
13.15859 209
13.1787 196
13.19882 207
13.21893 194
13.23904 183
13.25916 203
13.27927 217
13.29938 223
13.3195 209
13.33961 228
13.35973 190
13.37984 204
13.39995 190
13.42007 201
13.44018 207
13.46029 227
13.48041 213
13.50052 214
13.52064 191
13.54075 191
13.56086 234
13.58098 206
13.60109 176
13.6212 194
13.64132 193
13.66143 180
13.68154 215
13.70166 224
13.72177 206
13.74189 197
13.762 200
13.78211 196
13.80223 188
13.82234 195
13.84245 197
13.86257 199
13.88268 177
13.9028 208
13.92291 203
13.94302 199
13.96314 191
13.98325 185
14.00336 189
14.02348 218
14.04359 178
14.06371 201
14.08382 197
14.10393 207
14.12405 196
14.14416 194
14.16427 189
14.18439 160
14.2045 194
14.22461 196
14.24473 206
14.26484 182
14.28496 179
14.30507 195
14.32518 206
14.3453 188
14.36541 216
14.38552 200
14.40564 189
14.42575 180
14.44587 174
14.46598 198
14.48609 174
14.50621 167
14.52632 171
14.54643 191
14.56655 186
14.58666 179
14.60677 194
14.62689 189
14.647 164
14.66712 172
14.68723 194
14.70734 197
14.72746 176
14.74757 202
14.76768 182
14.7878 223
14.80791 172
14.82803 194
14.84814 198
14.86825 157
14.88837 176
14.90848 198
14.92859 214
14.94871 173
14.96882 197
14.98894 149
15.00905 153
15.02916 162
15.04928 164
15.06939 188
15.0895 194
15.10962 172
15.12973 186
15.14984 180
15.16996 200
15.19007 183
15.21019 205
15.2303 195
15.25041 186
15.27053 195
15.29064 170
15.31075 167
15.33087 168
15.35098 171
15.3711 156
15.39121 204
15.41132 201
15.43144 170
15.45155 176
15.47166 186
15.49178 171
15.51189 170
15.53201 184
15.55212 177
15.57223 187
15.59235 186
15.61246 157
15.63257 181
15.65269 196
15.6728 192
15.69291 159
15.71303 182
15.73314 174
15.75326 185
15.77337 183
15.79348 187
15.8136 196
15.83371 144
15.85382 202
15.87394 180
15.89405 180
15.91417 172
15.93428 168
15.95439 182
15.97451 177
15.99462 174
16.01473 175
16.03485 174
16.05496 175
16.07508 189
16.09519 173
16.1153 167
16.13542 167
16.15553 163
16.17564 161
16.19576 146
16.21587 177
16.23598 198
16.2561 169
16.27621 173
16.29633 187
16.31644 185
16.33655 143
16.35667 160
16.37678 162
16.39689 174
16.41701 190
16.43712 178
16.45724 147
16.47735 186
16.49746 181
16.51758 186
16.53769 166
16.5578 173
16.57792 173
16.59803 190
16.61814 164
16.63826 158
16.65837 163
16.67849 178
16.6986 216
16.71871 170
16.73883 182
16.75894 165
16.77905 164
16.79917 160
16.81928 161
16.8394 170
16.85951 159
16.87962 199
16.89974 166
16.91985 202
16.93996 170
16.96008 156
16.98019 176
17.00031 193
17.02042 178
17.04053 173
17.06065 174
17.08076 170
17.10087 162
17.12099 167
17.1411 185
17.16121 155
17.18133 171
17.20144 161
17.22156 173
17.24167 154
17.26178 152
17.2819 165
17.30201 180
17.32212 179
17.34224 171
17.36235 159
17.38247 149
17.40258 176
17.42269 177
17.44281 183
17.46292 156
17.48303 209
17.50315 180
17.52326 172
17.54338 184
17.56349 170
17.5836 162
17.60372 149
17.62383 152
17.64394 154
17.66406 182
17.68417 163
17.70428 186
17.7244 174
17.74451 183
17.76463 163
17.78474 161
17.80485 187
17.82497 205
17.84508 206
17.86519 174
17.88531 189
17.90542 153
17.92554 189
17.94565 195
17.96576 156
17.98588 172
18.00599 177
18.0261 193
18.04622 185
18.06633 163
18.08645 182
18.10656 153
18.12667 162
18.14679 168
18.1669 197
18.18701 166
18.20713 182
18.22724 174
18.24735 167
18.26747 189
18.28758 192
18.3077 182
18.32781 155
18.34792 167
18.36804 159
18.38815 178
18.40826 168
18.42838 162
18.44849 178
18.46861 194
18.48872 189
18.50883 191
18.52895 157
18.54906 171
18.56917 167
18.58929 172
18.6094 175
18.62951 177
18.64963 159
18.66974 168
18.68986 187
18.70997 160
18.73008 155
18.7502 190
18.77031 179
18.79042 184
18.81054 186
18.83065 170
18.85077 169
18.87088 169
18.89099 188
18.91111 182
18.93122 180
18.95133 190
18.97145 173
18.99156 175
19.01168 163
19.03179 160
19.0519 153
19.07202 183
19.09213 159
19.11224 180
19.13236 154
19.15247 157
19.17258 160
19.1927 187
19.21281 206
19.23293 165
19.25304 185
19.27315 193
19.29327 206
19.31338 170
19.33349 203
19.35361 179
19.37372 178
19.39384 197
19.41395 187
19.43406 187
19.45418 198
19.47429 205
19.4944 204
19.51452 187
19.53463 180
19.55475 227
19.57486 183
19.59497 173
19.61509 169
19.6352 206
19.65531 212
19.67543 243
19.69554 259
19.71565 264
19.73577 257
19.75588 283
19.776 281
19.79611 308
19.81622 337
19.83634 375
19.85645 382
19.87656 435
19.89668 411
19.91679 432
19.93691 425
19.95702 414
19.97713 390
19.99725 406
20.01736 350
20.03747 394
20.05759 387
20.0777 385
20.09782 389
20.11793 393
20.13804 398
20.15816 380
20.17827 393
20.19838 387
20.2185 410
20.23861 414
20.25872 397
20.27884 390
20.29895 368
20.31907 398
20.33918 392
20.35929 434
20.37941 391
20.39952 370
20.41963 439
20.43975 404
20.45986 442
20.47998 410
20.50009 465
20.5202 449
20.54032 451
20.56043 500
20.58054 515
20.60066 459
20.62077 488
20.64088 505
20.661 621
20.68111 683
20.70123 891
20.72134 1158
20.74145 1637
20.76157 2453
20.78168 3394
20.80179 4979
20.82191 6659
20.84202 7875
20.86214 8156
20.88225 7295
20.90236 5446
20.92248 3793
20.94259 2423
20.9627 1426
20.98282 908
21.00293 610
21.02305 574
21.04316 547
21.06327 527
21.08339 510
21.1035 462
21.12361 471
21.14373 413
21.16384 432
21.18395 401
21.20407 418
21.22418 438
21.2443 388
21.26441 380
21.28452 381
21.30464 379
21.32475 350
21.34486 377
21.36498 352
21.38509 388
21.40521 340
21.42532 383
21.44543 321
21.46555 367
21.48566 328
21.50577 314
21.52589 348
21.546 307
21.56612 328
21.58623 310
21.60634 282
21.62646 305
21.64657 340
21.66668 279
21.6868 307
21.70691 271
21.72702 303
21.74714 289
21.76725 272
21.78737 288
21.80748 293
21.82759 302
21.84771 302
21.86782 270
21.88793 258
21.90805 258
21.92816 277
21.94828 283
21.96839 292
21.9885 260
22.00862 281
22.02873 277
22.04884 252
22.06896 272
22.08907 248
22.10919 290
22.1293 239
22.14941 268
22.16953 241
22.18964 252
22.20975 281
22.22987 269
22.24998 238
22.27009 277
22.29021 235
22.31032 279
22.33044 291
22.35055 265
22.37066 241
22.39078 238
22.41089 253
22.431 241
22.45112 242
22.47123 253
22.49135 248
22.51146 238
22.53157 263
22.55169 239
22.5718 244
22.59191 234
22.61203 242
22.63214 252
22.65225 234
22.67237 225
22.69248 229
22.7126 266
22.73271 214
22.75282 235
22.77294 263
22.79305 257
22.81316 215
22.83328 241
22.85339 250
22.87351 240
22.89362 256
22.91373 241
22.93385 257
22.95396 241
22.97407 233
22.99419 221
23.0143 256
23.03442 267
23.05453 233
23.07464 205
23.09476 257
23.11487 225
23.13498 251
23.1551 247
23.17521 257
23.19532 203
23.21544 247
23.23555 222
23.25567 261
23.27578 230
23.29589 225
23.31601 209
23.33612 218
23.35623 235
23.37635 246
23.39646 228
23.41658 248
23.43669 217
23.4568 245
23.47692 235
23.49703 232
23.51714 222
23.53726 224
23.55737 244
23.57749 251
23.5976 249
23.61771 243
23.63783 246
23.65794 205
23.67805 208
23.69817 234
23.71828 234
23.73839 215
23.75851 244
23.77862 222
23.79874 202
23.81885 225
23.83896 244
23.85908 262
23.87919 261
23.8993 246
23.91942 267
23.93953 261
23.95965 284
23.97976 297
23.99987 286
24.01999 322
24.0401 306
24.06021 306
24.08033 259
24.10044 251
24.12056 241
24.14067 247
24.16078 257
24.1809 262
24.20101 226
24.22112 263
24.24124 238
24.26135 232
24.28146 245
24.30158 266
24.32169 252
24.34181 243
24.36192 249
24.38203 263
24.40215 256
24.42226 245
24.44237 248
24.46249 279
24.4826 269
24.50272 261
24.52283 283
24.54294 250
24.56306 275
24.58317 283
24.60328 327
24.6234 308
24.64351 332
24.66362 362
24.68374 320
24.70385 404
24.72397 418
24.74408 443
24.76419 477
24.78431 468
24.80442 472
24.82453 461
24.84465 523
24.86476 519
24.88488 491
24.90499 478
24.9251 391
24.94522 416
24.96533 386
24.98544 358
25.00556 376
25.02567 323
25.04579 346
25.0659 345
25.08601 265
25.10613 289
25.12624 287
25.14635 298
25.16647 320
25.18658 342
25.20669 288
25.22681 342
25.24692 353
25.26704 353
25.28715 371
25.30726 329
25.32738 336
25.34749 301
25.3676 288
25.38772 263
25.40783 274
25.42795 271
25.44806 232
25.46817 291
25.48829 226
25.5084 293
25.52851 261
25.54863 250
25.56874 239
25.58886 264
25.60897 290
25.62908 277
25.6492 289
25.66931 338
25.68942 369
25.70954 360
25.72965 397
25.74976 372
25.76988 433
25.78999 419
25.81011 385
25.83022 431
25.85033 402
25.87045 437
25.89056 424
25.91067 435
25.93079 418
25.9509 454
25.97102 446
25.99113 421
26.01124 456
26.03136 476
26.05147 459
26.07158 498
26.0917 498
26.11181 531
26.13193 543
26.15204 580
26.17215 648
26.19227 633
26.21238 687
26.23249 717
26.25261 780
26.27272 850
26.29283 846
26.31295 939
26.33306 974
26.35318 1095
26.37329 1183
26.3934 1326
26.41352 1565
26.43363 2024
26.45374 2700
26.47386 3646
26.49397 4947
26.51409 7114
26.5342 10422
26.55431 15004
26.57443 21567
26.59454 28602
26.61465 34330
26.63477 36642
26.65488 32824
26.67499 25654
26.69511 20085
26.71522 14950
26.73534 9397
26.75545 5026
26.77556 2711
26.79568 1874
26.81579 1522
26.8359 1332
26.85602 1144
26.87613 1086
26.89625 1019
26.91636 900
26.93647 828
26.95659 793
26.9767 728
26.99681 640
27.01693 610
27.03704 554
27.05716 499
27.07727 502
27.09738 472
27.1175 436
27.13761 377
27.15772 409
27.17784 420
27.19795 366
27.21806 370
27.23818 399
27.25829 376
27.27841 364
27.29852 366
27.31863 374
27.33875 335
27.35886 360
27.37897 358
27.39909 378
27.4192 333
27.43932 343
27.45943 322
27.47954 350
27.49966 349
27.51977 347
27.53988 343
27.56 320
27.58011 313
27.60023 299
27.62034 317
27.64045 293
27.66057 281
27.68068 316
27.70079 315
27.72091 284
27.74102 298
27.76113 284
27.78125 293
27.80136 297
27.82148 281
27.84159 272
27.8617 305
27.88182 311
27.90193 289
27.92204 289
27.94216 252
27.96227 277
27.98239 240
28.0025 290
28.02261 288
28.04273 256
28.06284 266
28.08295 260
28.10307 285
28.12318 282
28.1433 267
28.16341 309
28.18352 270
28.20364 275
28.22375 243
28.24386 248
28.26398 260
28.28409 264
28.3042 245
28.32432 275
28.34443 235
28.36455 255
28.38466 244
28.40477 264
28.42489 213
28.445 268
28.46511 237
28.48523 245
28.50534 237
28.52546 254
28.54557 251
28.56568 236
28.5858 257
28.60591 250
28.62602 275
28.64614 232
28.66625 249
28.68636 226
28.70648 244
28.72659 259
28.74671 226
28.76682 249
28.78693 246
28.80705 223
28.82716 234
28.84727 257
28.86739 233
28.8875 238
28.90762 231
28.92773 218
28.94784 224
28.96796 243
28.98807 222
29.00818 242
29.0283 225
29.04841 219
29.06853 223
29.08864 223
29.10875 232
29.12887 234
29.14898 232
29.16909 224
29.18921 209
29.20932 224
29.22943 200
29.24955 236
29.26966 225
29.28978 234
29.30989 213
29.33 239
29.35012 233
29.37023 222
29.39034 195
29.41046 224
29.43057 226
29.45069 220
29.4708 242
29.49091 227
29.51103 238
29.53114 245
29.55125 230
29.57137 220
29.59148 214
29.6116 213
29.63171 217
29.65182 213
29.67194 239
29.69205 206
29.71216 201
29.73228 211
29.75239 213
29.7725 222
29.79262 211
29.81273 223
29.83285 219
29.85296 193
29.87307 217
29.89319 186
29.9133 200
29.93341 229
29.95353 193
29.97364 207
29.99376 215
30.01387 197
30.03398 201
30.0541 208
30.07421 233
30.09432 201
30.11444 222
30.13455 232
30.15467 216
30.17478 220
30.19489 210
30.21501 239
30.23512 239
30.25523 202
30.27535 189
30.29546 200
30.31557 194
30.33569 215
30.3558 190
30.37592 216
30.39603 217
30.41614 223
30.43626 229
30.45637 207
30.47648 200
30.4966 228
30.51671 178
30.53683 218
30.55694 184
30.57705 200
30.59717 185
30.61728 186
30.63739 218
30.65751 232
30.67762 222
30.69773 199
30.71785 210
30.73796 181
30.75808 203
30.77819 204
30.7983 189
30.81842 201
30.83853 215
30.85864 205
30.87876 216
30.89887 199
30.91899 165
30.9391 209
30.95921 188
30.97933 175
30.99944 214
31.01955 190
31.03967 180
31.05978 185
31.0799 179
31.10001 197
31.12012 182
31.14024 193
31.16035 192
31.18046 192
31.20058 180
31.22069 200
31.2408 200
31.26092 199
31.28103 168
31.30115 206
31.32126 148
31.34137 188
31.36149 192
31.3816 189
31.40171 189
31.42183 168
31.44194 214
31.46206 172
31.48217 177
31.50228 207
31.5224 173
31.54251 179
31.56262 164
31.58274 175
31.60285 199
31.62297 181
31.64308 170
31.66319 170
31.68331 197
31.70342 175
31.72353 206
31.74365 202
31.76376 214
31.78387 206
31.80399 178
31.8241 186
31.84422 184
31.86433 182
31.88444 163
31.90456 197
31.92467 158
31.94478 192
31.9649 187
31.98501 193
32.00513 192
32.02524 172
32.04535 208
32.06547 181
32.08558 170
32.10569 182
32.12581 187
32.14592 182
32.16604 147
32.18615 167
32.20626 158
32.22638 193
32.24649 168
32.2666 190
32.28672 173
32.30683 156
32.32694 201
32.34706 145
32.36717 197
32.38729 159
32.4074 152
32.42751 195
32.44763 177
32.46774 181
32.48785 189
32.50797 186
32.52808 181
32.5482 168
32.56831 166
32.58842 181
32.60854 173
32.62865 182
32.64876 166
32.66888 168
32.68899 180
32.7091 174
32.72922 158
32.74933 151
32.76945 163
32.78956 170
32.80967 203
32.82979 193
32.8499 183
32.87001 167
32.89013 195
32.91024 172
32.93036 158
32.95047 205
32.97058 192
32.9907 182
33.01081 187
33.03092 190
33.05104 222
33.07115 208
33.09127 216
33.11138 189
33.13149 190
33.15161 217
33.17172 192
33.19183 225
33.21195 205
33.23206 195
33.25217 216
33.27229 193
33.2924 198
33.31252 201
33.33263 202
33.35274 182
33.37286 192
33.39297 202
33.41308 197
33.4332 184
33.45331 192
33.47343 193
33.49354 160
33.51365 197
33.53377 165
33.55388 204
33.57399 172
33.59411 172
33.61422 180
33.63434 189
33.65445 174
33.67456 157
33.69468 185
33.71479 190
33.7349 196
33.75502 188
33.77513 168
33.79524 184
33.81536 197
33.83547 150
33.85559 173
33.8757 167
33.89581 183
33.91593 176
33.93604 149
33.95615 168
33.97627 172
33.99638 172
34.0165 133
34.03661 164
34.05672 163
34.07684 157
34.09695 158
34.11706 157
34.13718 149
34.15729 180
34.17741 172
34.19752 169
34.21763 160
34.23775 165
34.25786 173
34.27797 168
34.29809 170
34.3182 172
34.33831 156
34.35843 155
34.37854 160
34.39866 178
34.41877 163
34.43888 166
34.459 162
34.47911 206
34.49922 172
34.51934 157
34.53945 181
34.55957 177
34.57968 192
34.59979 200
34.61991 188
34.64002 213
34.66013 183
34.68025 226
34.70036 210
34.72047 239
34.74059 209
34.7607 226
34.78082 231
34.80093 227
34.82104 261
34.84116 241
34.86127 225
34.88138 287
34.9015 267
34.92161 250
34.94173 272
34.96184 304
34.98195 261
35.00207 274
35.02218 256
35.04229 277
35.06241 235
35.08252 245
35.10264 262
35.12275 256
35.14286 238
35.16298 223
35.18309 217
35.2032 225
35.22332 247
35.24343 234
35.26354 249
35.28366 216
35.30377 238
35.32389 217
35.344 227
35.36411 268
35.38423 245
35.40434 239
35.42445 251
35.44457 256
35.46468 304
35.4848 248
35.50491 264
35.52502 266
35.54514 272
35.56525 271
35.58536 308
35.60548 274
35.62559 291
35.64571 281
35.66582 286
35.68593 273
35.70605 294
35.72616 273
35.74627 288
35.76639 276
35.7865 294
35.80661 302
35.82673 290
35.84684 257
35.86696 301
35.88707 251
35.90718 259
35.9273 276
35.94741 295
35.96752 260
35.98764 263
36.00775 281
36.02787 266
36.04798 284
36.06809 240
36.08821 262
36.10832 244
36.12843 274
36.14855 274
36.16866 282
36.18878 291
36.20889 272
36.229 306
36.24912 330
36.26923 299
36.28934 353
36.30946 334
36.32957 365
36.34968 417
36.3698 560
36.38991 642
36.41003 778
36.43014 1087
36.45025 1247
36.47037 1583
36.49048 1965
36.51059 2499
36.53071 2560
36.55082 2318
36.57094 1845
36.59105 1589
36.61116 1450
36.63128 1273
36.65139 988
36.6715 725
36.69162 438
36.71173 377
36.73184 309
36.75196 321
36.77207 299
36.79219 276
36.8123 274
36.83241 259
36.85253 264
36.87264 284
36.89275 231
36.91287 249
36.93298 275
36.9531 228
36.97321 222
36.99332 229
37.01344 218
37.03355 257
37.05366 235
37.07378 225
37.09389 231
37.11401 220
37.13412 224
37.15423 204
37.17435 183
37.19446 207
37.21457 222
37.23469 218
37.2548 214
37.27491 205
37.29503 200
37.31514 193
37.33526 227
37.35537 209
37.37548 211
37.3956 204
37.41571 204
37.43582 215
37.45594 211
37.47605 238
37.49617 228
37.51628 222
37.53639 233
37.55651 218
37.57662 221
37.59673 227
37.61685 226
37.63696 224
37.65708 218
37.67719 224
37.6973 261
37.71742 225
37.73753 221
37.75764 261
37.77776 190
37.79787 231
37.81798 229
37.8381 236
37.85821 212
37.87833 234
37.89844 249
37.91855 243
37.93867 227
37.95878 198
37.97889 219
37.99901 195
38.01912 246
38.03924 249
38.05935 224
38.07946 230
38.09958 228
38.11969 241
38.1398 268
38.15992 234
38.18003 256
38.20015 249
38.22026 243
38.24037 276
38.26049 259
38.2806 280
38.30071 282
38.32083 271
38.34094 284
38.36105 271
38.38117 321
38.40128 256
38.4214 310
38.44151 308
38.46162 284
38.48174 272
38.50185 276
38.52196 289
38.54208 261
38.56219 293
38.58231 285
38.60242 280
38.62253 251
38.64265 288
38.66276 260
38.68287 273
38.70299 257
38.7231 245
38.74321 257
38.76333 292
38.78344 240
38.80356 271
38.82367 259
38.84378 252
38.8639 251
38.88401 241
38.90412 255
38.92424 228
38.94435 279
38.96447 230
38.98458 259
39.00469 229
39.02481 258
39.04492 257
39.06503 253
39.08515 252
39.10526 294
39.12538 294
39.14549 294
39.1656 313
39.18572 322
39.20583 341
39.22594 353
39.24606 359
39.26617 435
39.28628 504
39.3064 554
39.32651 676
39.34663 928
39.36674 1088
39.38685 1451
39.40697 1820
39.42708 2219
39.44719 2368
39.46731 2199
39.48742 1836
39.50754 1460
39.52765 1282
39.54776 1246
39.56788 1191
39.58799 831
39.6081 562
39.62822 387
39.64833 302
39.66845 308
39.68856 250
39.70867 247
39.72879 241
39.7489 251
39.76901 264
39.78913 261
39.80924 218
39.82935 214
39.84947 216
39.86958 222
39.8897 244
39.90981 249
39.92992 219
39.95004 222
39.97015 225
39.99026 229
40.01038 256
40.03049 248
40.05061 253
40.07072 276
40.09083 297
40.11095 359
40.13106 371
40.15117 465
40.17129 570
40.1914 683
40.21152 877
40.23163 995
40.25174 1105
40.27186 1193
40.29197 1162
40.31208 894
40.3322 761
40.35231 703
40.37242 675
40.39254 616
40.41265 530
40.43277 340
40.45288 274
40.47299 260
40.49311 234
40.51322 226
40.53333 206
40.55345 224
40.57356 230
40.59368 187
40.61379 231
40.6339 210
40.65402 205
40.67413 198
40.69424 204
40.71436 212
40.73447 201
40.75458 208
40.7747 182
40.79481 219
40.81493 189
40.83504 191
40.85515 210
40.87527 198
40.89538 194
40.91549 196
40.93561 193
40.95572 190
40.97584 209
40.99595 204
41.01606 212
41.03618 171
41.05629 217
41.0764 210
41.09652 211
41.11663 173
41.13675 211
41.15686 193
41.17697 199
41.19709 213
41.2172 188
41.23731 222
41.25743 210
41.27754 188
41.29765 202
41.31777 191
41.33788 201
41.358 178
41.37811 205
41.39822 192
41.41834 222
41.43845 155
41.45856 177
41.47868 160
41.49879 193
41.51891 196
41.53902 196
41.55913 179
41.57925 193
41.59936 178
41.61947 169
41.63959 186
41.6597 205
41.67982 195
41.69993 206
41.72004 189
41.74016 176
41.76027 187
41.78038 188
41.8005 179
41.82061 165
41.84072 202
41.86084 187
41.88095 192
41.90107 169
41.92118 165
41.94129 162
41.96141 177
41.98152 187
42.00163 178
42.02175 194
42.04186 196
42.06198 186
42.08209 255
42.1022 206
42.12232 208
42.14243 232
42.16254 239
42.18266 256
42.20277 282
42.22289 264
42.243 328
42.26311 369
42.28323 393
42.30334 534
42.32345 630
42.34357 790
42.36368 1088
42.38379 1325
42.40391 1521
42.42402 1671
42.44414 1628
42.46425 1284
42.48436 1068
42.50448 978
42.52459 894
42.5447 868
42.56482 726
42.58493 543
42.60505 401
42.62516 289
42.64527 259
42.66539 256
42.6855 217
42.70561 231
42.72573 213
42.74584 194
42.76595 202
42.78607 183
42.80618 187
42.8263 186
42.84641 186
42.86652 179
42.88664 176
42.90675 160
42.92686 190
42.94698 160
42.96709 191
42.98721 170
43.00732 187
43.02743 171
43.04755 144
43.06766 168
43.08777 168
43.10789 187
43.128 179
43.14812 194
43.16823 188
43.18834 161
43.20846 151
43.22857 191
43.24868 154
43.2688 176
43.28891 148
43.30902 162
43.32914 174
43.34925 166
43.36937 149
43.38948 171
43.40959 161
43.42971 170
43.44982 144
43.46993 141
43.49005 158
43.51016 184
43.53028 132
43.55039 180
43.5705 155
43.59062 152
43.61073 174
43.63084 148
43.65096 166
43.67107 148
43.69119 174
43.7113 163
43.73141 173
43.75153 163
43.77164 178
43.79175 165
43.81187 170
43.83198 163
43.85209 166
43.87221 176
43.89232 165
43.91244 194
43.93255 178
43.95266 170
43.97278 174
43.99289 185
44.013 151
44.03312 165
44.05323 143
44.07335 140
44.09346 155
44.11357 165
44.13369 153
44.1538 176
44.17391 168
44.19403 152
44.21414 155
44.23426 150
44.25437 169
44.27448 165
44.2946 174
44.31471 168
44.33482 126
44.35494 145
44.37505 177
44.39516 161
44.41528 183
44.43539 152
44.45551 171
44.47562 174
44.49573 157
44.51585 145
44.53596 161
44.55607 149
44.57619 157
44.5963 154
44.61642 175
44.63653 167
44.65664 173
44.67676 193
44.69687 189
44.71698 156
44.7371 177
44.75721 152
44.77732 158
44.79744 164
44.81755 181
44.83767 164
44.85778 177
44.87789 165
44.89801 185
44.91812 182
44.93823 177
44.95835 150
44.97846 168
44.99858 172
45.01869 160
45.0388 182
45.05892 168
45.07903 164
45.09914 147
45.11926 159
45.13937 139
45.15949 174
45.1796 176
45.19971 175
45.21983 193
45.23994 184
45.26005 165
45.28017 183
45.30028 182
45.32039 191
45.34051 172
45.36062 195
45.38074 197
45.40085 195
45.42096 214
45.44108 193
45.46119 220
45.4813 223
45.50142 239
45.52153 238
45.54165 236
45.56176 243
45.58187 300
45.60199 325
45.6221 379
45.64221 397
45.66233 488
45.68244 624
45.70256 738
45.72267 856
45.74278 1017
45.7629 1097
45.78301 1121
45.80312 977
45.82324 801
45.84335 666
45.86346 662
45.88358 624
45.90369 574
45.92381 524
45.94392 385
45.96403 278
45.98415 236
46.00426 201
46.02437 206
46.04449 218
46.0646 202
46.08472 176
46.10483 186
46.12494 182
46.14506 166
46.16517 171
46.18528 182
46.2054 175
46.22551 158
46.24563 174
46.26574 160
46.28585 169
46.30597 173
46.32608 166
46.34619 180
46.36631 151
46.38642 172
46.40653 165
46.42665 170
46.44676 168
46.46688 159
46.48699 179
46.5071 179
46.52722 154
46.54733 161
46.56744 143
46.58756 182
46.60767 169
46.62779 168
46.6479 148
46.66801 181
46.68813 175
46.70824 173
46.72835 151
46.74847 171
46.76858 174
46.78869 164
46.80881 184
46.82892 166
46.84904 157
46.86915 170
46.88926 155
46.90938 142
46.92949 167
46.9496 156
46.96972 159
46.98983 166
47.00995 155
47.03006 162
47.05017 157
47.07029 152
47.0904 160
47.11051 148
47.13063 157
47.15074 156
47.17086 153
47.19097 161
47.21108 182
47.2312 160
47.25131 153
47.27142 173
47.29154 157
47.31165 168
47.33176 131
47.35188 144
47.37199 171
47.39211 155
47.41222 153
47.43233 177
47.45245 136
47.47256 153
47.49267 161
47.51279 168
47.5329 160
47.55302 155
47.57313 184
47.59324 169
47.61336 163
47.63347 171
47.65358 162
47.6737 154
47.69381 165
47.71393 172
47.73404 154
47.75415 155
47.77427 180
47.79438 140
47.81449 177
47.83461 166
47.85472 160
47.87483 146
47.89495 163
47.91506 166
47.93518 170
47.95529 164
47.9754 159
47.99552 167
48.01563 189
48.03574 202
48.05586 176
48.07597 161
48.09609 178
48.1162 149
48.13631 161
48.15643 164
48.17654 171
48.19665 154
48.21677 136
48.23688 171
48.257 164
48.27711 155
48.29722 165
48.31734 166
48.33745 183
48.35756 158
48.37768 160
48.39779 178
48.4179 172
48.43802 137
48.45813 150
48.47825 165
48.49836 152
48.51847 178
48.53859 149
48.5587 175
48.57881 162
48.59893 159
48.61904 183
48.63916 146
48.65927 158
48.67938 153
48.6995 158
48.71961 169
48.73972 162
48.75984 146
48.77995 157
48.80006 176
48.82018 141
48.84029 176
48.86041 163
48.88052 157
48.90063 154
48.92075 126
48.94086 164
48.96097 155
48.98109 179
49.0012 166
49.02132 163
49.04143 156
49.06154 169
49.08166 192
49.10177 163
49.12188 155
49.142 162
49.16211 161
49.18223 181
49.20234 153
49.22245 186
49.24257 159
49.26268 160
49.28279 178
49.30291 181
49.32302 163
49.34313 176
49.36325 183
49.38336 178
49.40348 180
49.42359 175
49.4437 194
49.46382 189
49.48393 204
49.50404 193
49.52416 189
49.54427 166
49.56439 194
49.5845 183
49.60461 199
49.62473 216
49.64484 197
49.66495 232
49.68507 220
49.70518 203
49.7253 254
49.74541 246
49.76552 262
49.78564 271
49.80575 279
49.82586 310
49.84598 341
49.86609 373
49.8862 424
49.90632 467
49.92643 537
49.94655 657
49.96666 837
49.98677 1106
50.00689 1399
50.027 1702
50.04711 2163
50.06723 2697
50.08734 3191
50.10746 3459
50.12757 3487
50.14768 2913
50.1678 2209
50.18791 1837
50.20802 1767
50.22814 1865
50.24825 1813
50.26837 1560
50.28848 1198
50.30859 799
50.32871 526
50.34882 395
50.36893 327
50.38905 284
50.40916 288
50.42927 257
50.44939 246
50.4695 268
50.48962 246
50.50973 248
50.52984 289
50.54996 212
50.57007 243
50.59018 259
50.6103 259
50.63041 231
50.65053 245
50.67064 218
50.69075 201
50.71087 228
50.73098 218
50.75109 210
50.77121 206
50.79132 202
50.81143 195
50.83155 166
50.85166 163
50.87178 158
50.89189 173
50.912 192
50.93212 176
50.95223 169
50.97234 179
50.99246 182
51.01257 156
51.03269 162
51.0528 184
51.07291 147
51.09303 162
51.11314 158
51.13325 134
51.15337 151
51.17348 177
51.1936 159
51.21371 156
51.23382 139
51.25394 147
51.27405 152
51.29416 160
51.31428 156
51.33439 135
51.3545 135
51.37462 150
51.39473 167
51.41485 129
51.43496 139
51.45507 154
51.47519 152
51.4953 149
51.51541 137
51.53553 142
51.55564 132
51.57576 142
51.59587 145
51.61598 156
51.6361 142
51.65621 165
51.67632 124
51.69644 149
51.71655 152
51.73667 150
51.75678 152
51.77689 143
51.79701 144
51.81712 145
51.83723 141
51.85735 155
51.87746 145
51.89757 156
51.91769 122
51.9378 127
51.95792 147
51.97803 139
51.99814 145
52.01826 141
52.03837 148
52.05848 138
52.0786 149
52.09871 154
52.11883 150
52.13894 148
52.15905 150
52.17917 142
52.19928 118
52.21939 148
52.23951 148
52.25962 145
52.27974 141
52.29985 143
52.31996 145
52.34008 141
52.36019 146
52.3803 137
52.40042 139
52.42053 148
52.44064 144
52.46076 113
52.48087 156
52.50099 161
52.5211 133
52.54121 139
52.56133 156
52.58144 143
52.60155 154
52.62167 169
52.64178 141
52.6619 132
52.68201 146
52.70212 124
52.72224 149
52.74235 152
52.76246 150
52.78258 116
52.80269 139
52.8228 141
52.84292 154
52.86303 151
52.88315 169
52.90326 157
52.92337 154
52.94349 151
52.9636 137
52.98371 142
53.00383 146
53.02394 115
53.04406 152
53.06417 129
53.08428 151
53.1044 154
53.12451 159
53.14462 173
53.16474 142
53.18485 165
53.20497 156
53.22508 156
53.24519 163
53.26531 167
53.28542 167
53.30553 161
53.32565 179
53.34576 174
53.36587 168
53.38599 176
53.4061 177
53.42622 184
53.44633 163
53.46644 163
53.48656 164
53.50667 169
53.52678 173
53.5469 209
53.56701 191
53.58713 193
53.60724 173
53.62735 179
53.64747 164
53.66758 190
53.68769 166
53.70781 159
53.72792 182
53.74804 163
53.76815 166
53.78826 177
53.80838 175
53.82849 165
53.8486 179
53.86872 202
53.88883 165
53.90894 185
53.92906 148
53.94917 181
53.96929 192
53.9894 161
54.00951 208
54.02963 171
54.04974 194
54.06985 189
54.08997 203
54.11008 173
54.1302 190
54.15031 179
54.17042 180
54.19054 210
54.21065 195
54.23076 172
54.25088 193
54.27099 231
54.29111 245
54.31122 208
54.33133 206
54.35145 191
54.37156 204
54.39167 206
54.41179 229
54.4319 233
54.45201 219
54.47213 208
54.49224 196
54.51236 217
54.53247 237
54.55258 216
54.5727 236
54.59281 252
54.61292 274
54.63304 286
54.65315 336
54.67327 300
54.69338 387
54.71349 457
54.73361 499
54.75372 660
54.77383 724
54.79395 927
54.81406 998
54.83417 1118
54.85429 1060
54.8744 1011
54.89452 792
54.91463 659
54.93474 624
54.95486 649
54.97497 679
54.99508 652
55.0152 624
55.03531 477
55.05543 409
55.07554 343
55.09565 277
55.11577 293
55.13588 321
55.15599 315
55.17611 336
55.19622 356
55.21634 419
55.23645 443
55.25656 492
55.27668 551
55.29679 542
55.3169 531
55.33702 517
55.35713 377
55.37724 378
55.39736 361
55.41747 360
55.43759 376
55.4577 384
55.47781 339
55.49793 284
55.51804 232
55.53815 223
55.55827 212
55.57838 204
55.5985 194
55.61861 190
55.63872 176
55.65884 179
55.67895 187
55.69906 165
55.71918 156
55.73929 198
55.75941 179
55.77952 150
55.79963 163
55.81975 163
55.83986 172
55.85997 184
55.88009 174
55.9002 176
55.92031 151
55.94043 159
55.96054 189
55.98066 179
56.00077 161
56.02088 172
56.041 182
56.06111 175
56.08122 185
56.10134 178
56.12145 161
56.14157 160
56.16168 160
56.18179 154
56.20191 156
56.22202 167
56.24213 172
56.26225 163
56.28236 183
56.30248 159
56.32259 150
56.3427 161
56.36282 146
56.38293 152
56.40304 171
56.42316 148
56.44327 149
56.46338 144
56.4835 183
56.50361 174
56.52373 169
56.54384 149
56.56395 149
56.58407 155
56.60418 178
56.62429 160
56.64441 166
56.66452 133
56.68464 193
56.70475 169
56.72486 168
56.74498 170
56.76509 152
56.7852 148
56.80532 154
56.82543 134
56.84554 146
56.86566 167
56.88577 157
56.90589 177
56.926 153
56.94611 153
56.96623 147
56.98634 165
57.00645 165
57.02657 155
57.04668 152
57.0668 157
57.08691 176
57.10702 176
57.12714 193
57.14725 206
57.16736 193
57.18748 186
57.20759 171
57.22771 202
57.24782 178
57.26793 199
57.28805 160
57.30816 189
57.32827 172
57.34839 186
57.3685 171
57.38861 167
57.40873 151
57.42884 169
57.44896 179
57.46907 141
57.48918 153
57.5093 152
57.52941 158
57.54952 160
57.56964 132
57.58975 140
57.60987 130
57.62998 149
57.65009 150
57.67021 134
57.69032 148
57.71043 174
57.73055 165
57.75066 161
57.77078 169
57.79089 151
57.811 164
57.83112 138
57.85123 149
57.87134 150
57.89146 155
57.91157 137
57.93168 163
57.9518 154
57.97191 163
57.99203 152
58.01214 147
58.03225 139
58.05237 129
58.07248 152
58.09259 160
58.11271 119
58.13282 130
58.15294 174
58.17305 137
58.19316 137
58.21328 142
58.23339 147
58.2535 167
58.27362 123
58.29373 141
58.31385 170
58.33396 155
58.35407 134
58.37419 148
58.3943 128
58.41441 164
58.43453 164
58.45464 145
58.47475 144
58.49487 145
58.51498 135
58.5351 150
58.55521 131
58.57532 140
58.59544 152
58.61555 158
58.63566 133
58.65578 111
58.67589 147
58.69601 135
58.71612 156
58.73623 164
58.75635 149
58.77646 165
58.79657 161
58.81669 138
58.8368 136
58.85691 149
58.87703 126
58.89714 137
58.91726 152
58.93737 128
58.95748 148
58.9776 151
58.99771 167
59.01782 149
59.03794 140
59.05805 160
59.07817 146
59.09828 153
59.11839 148
59.13851 157
59.15862 165
59.17873 159
59.19885 154
59.21896 170
59.23908 171
59.25919 150
59.2793 155
59.29942 172
59.31953 166
59.33964 188
59.35976 169
59.37987 183
59.39998 182
59.4201 194
59.44021 183
59.46033 199
59.48044 230
59.50055 169
59.52067 180
59.54078 225
59.56089 226
59.58101 241
59.60112 241
59.62124 242
59.64135 285
59.66146 302
59.68158 343
59.70169 352
59.7218 405
59.74192 453
59.76203 585
59.78215 635
59.80226 833
59.82237 1030
59.84249 1288
59.8626 1581
59.88271 1766
59.90283 2014
59.92294 2119
59.94305 1983
59.96317 1844
59.98328 1358
60.0034 1071
60.02351 1005
60.04362 1124
60.06374 1046
60.08385 1124
60.10396 1020
60.12408 917
60.14419 669
60.16431 439
60.18442 366
60.20453 304
60.22465 220
60.24476 217
60.26487 209
60.28499 212
60.3051 218
60.32522 200
60.34533 185
60.36544 174
60.38556 178
60.40567 148
60.42578 188
60.4459 162
60.46601 186
60.48612 167
60.50624 190
60.52635 151
60.54647 151
60.56658 147
60.58669 164
60.60681 138
60.62692 169
60.64703 156
60.66715 158
60.68726 140
60.70738 161
60.72749 129
60.7476 147
60.76772 131
60.78783 154
60.80794 158
60.82806 158
60.84817 159
60.86828 140
60.8884 148
60.90851 151
60.92863 146
60.94874 131
60.96885 155
60.98897 138
61.00908 140
61.02919 132
61.04931 162
61.06942 122
61.08954 150
61.10965 134
61.12976 146
61.14988 132
61.16999 143
61.1901 135
61.21022 143
61.23033 152
61.25045 146
61.27056 146
61.29067 148
61.31079 163
61.3309 147
61.35101 152
61.37113 148
61.39124 123
61.41135 126
61.43147 138
61.45158 147
61.4717 124
61.49181 144
61.51192 155
61.53204 155
61.55215 159
61.57226 135
61.59238 150
61.61249 141
61.63261 141
61.65272 181
61.67283 159
61.69295 151
61.71306 145
61.73317 146
61.75329 143
61.7734 185
61.79352 138
61.81363 149
61.83374 150
61.85386 197
61.87397 146
61.89408 148
61.9142 169
61.93431 143
61.95442 161
61.97454 186
61.99465 156
62.01477 190
62.03488 155
62.05499 174
62.07511 185
62.09522 198
62.11533 213
62.13545 229
62.15556 206
62.17568 238
62.19579 228
62.2159 220
62.23602 219
62.25613 231
62.27624 234
62.29636 235
62.31647 229
62.33659 227
62.3567 240
62.37681 207
62.39693 221
62.41704 206
62.43715 195
62.45727 201
62.47738 187
62.49749 183
62.51761 176
62.53772 173
62.55784 166
62.57795 172
62.59806 165
62.61818 155
62.63829 162
62.6584 167
62.67852 173
62.69863 145
62.71875 158
62.73886 146
62.75897 150
62.77909 135
62.7992 130
62.81931 165
62.83943 146
62.85954 158
62.87965 140
62.89977 154
62.91988 173
62.94 146
62.96011 137
62.98022 150
63.00034 169
63.02045 116
63.04056 147
63.06068 178
63.08079 132
63.10091 138
63.12102 149
63.14113 150
63.16125 126
63.18136 151
63.20147 135
63.22159 122
63.2417 146
63.26182 165
63.28193 129
63.30204 137
63.32216 146
63.34227 139
63.36238 141
63.3825 155
63.40261 133
63.42272 139
63.44284 138
63.46295 156
63.48307 138
63.50318 160
63.52329 130
63.54341 150
63.56352 156
63.58363 147
63.60375 161
63.62386 153
63.64398 167
63.66409 168
63.6842 168
63.70432 177
63.72443 177
63.74454 164
63.76466 170
63.78477 213
63.80489 209
63.825 192
63.84511 198
63.86523 259
63.88534 265
63.90545 325
63.92557 332
63.94568 383
63.96579 449
63.98591 451
64.00602 532
64.02614 477
64.04625 385
64.06636 326
64.08648 306
64.10659 299
64.1267 311
64.14682 308
64.16693 299
64.18705 320
64.20716 287
64.22727 230
64.24739 208
64.2675 191
64.28761 173
64.30773 149
64.32784 161
64.34796 142
64.36807 152
64.38818 150
64.4083 138
64.42841 147
64.44852 150
64.46864 155
64.48875 163
64.50886 162
64.52898 144
64.54909 133
64.56921 149
64.58932 154
64.60943 134
64.62955 136
64.64966 124
64.66977 119
64.68989 115
64.71 154
64.73012 133
64.75023 140
64.77034 119
64.79046 148
64.81057 127
64.83068 133
64.8508 122
64.87091 132
64.89102 120
64.91114 125
64.93125 140
64.95137 128
64.97148 140
64.99159 142
65.01171 135
65.03182 139
65.05193 123
65.07205 137
65.09216 141
65.11228 127
65.13239 126
65.1525 138
65.17262 144
65.19273 140
65.21284 132
65.23296 136
65.25307 129
65.27319 139
65.2933 128
65.31341 137
65.33353 143
65.35364 130
65.37375 159
65.39387 128
65.41398 140
65.43409 140
65.45421 121
65.47432 144
65.49444 142
65.51455 157
65.53466 146
65.55478 137
65.57489 138
65.595 162
65.61512 141
65.63523 181
65.65535 190
65.67546 172
65.69557 215
65.71569 192
65.7358 207
65.75591 227
65.77603 217
65.79614 192
65.81626 185
65.83637 183
65.85648 156
65.8766 179
65.89671 168
65.91682 180
65.93694 185
65.95705 164
65.97716 166
65.99728 159
66.01739 118
66.03751 147
66.05762 146
66.07773 138
66.09785 142
66.11796 155
66.13807 134
66.15819 154
66.1783 132
66.19842 155
66.21853 121
66.23864 156
66.25876 129
66.27887 134
66.29898 140
66.3191 132
66.33921 116
66.35933 145
66.37944 121
66.39955 134
66.41967 132
66.43978 129
66.45989 148
66.48001 135
66.50012 136
66.52023 132
66.54035 133
66.56046 115
66.58058 132
66.60069 127
66.6208 146
66.64092 132
66.66103 143
66.68114 155
66.70126 144
66.72137 126
66.74149 142
66.7616 139
66.78171 134
66.80183 127
66.82194 132
66.84205 132
66.86217 153
66.88228 153
66.90239 150
66.92251 173
66.94262 154
66.96274 170
66.98285 142
67.00296 135
67.02308 169
67.04319 141
67.0633 148
67.08342 160
67.10353 143
67.12365 147
67.14376 148
67.16387 161
67.18399 163
67.2041 163
67.22421 165
67.24433 149
67.26444 172
67.28456 175
67.30467 155
67.32478 217
67.3449 186
67.36501 214
67.38512 213
67.40524 203
67.42535 227
67.44546 218
67.46558 275
67.48569 278
67.50581 367
67.52592 389
67.54603 435
67.56615 463
67.58626 575
67.60637 625
67.62649 756
67.6466 924
67.66672 1079
67.68683 1157
67.70694 1094
67.72706 1164
67.74717 1028
67.76728 812
67.7874 713
67.80751 666
67.82763 661
67.84774 749
67.86785 848
67.88797 828
67.90808 821
67.92819 852
67.94831 849
67.96842 765
67.98853 834
68.00865 903
68.02876 993
68.04888 1144
68.06899 1352
68.0891 1445
68.10922 1541
68.12933 1591
68.14944 1363
68.16956 1281
68.18967 1124
68.20979 1210
68.2299 1280
68.25001 1304
68.27013 1512
68.29024 1473
68.31035 1403
68.33047 1182
68.35058 962
68.3707 720
68.39081 601
68.41092 535
68.43104 530
68.45115 570
68.47126 562
68.49138 503
68.51149 463
68.5316 385
68.55172 285
68.57183 230
68.59195 221
68.61206 216
68.63217 184
68.65229 176
68.6724 172
68.69251 154
68.71263 156
68.73274 183
68.75286 171
68.77297 165
68.79308 148
68.8132 161
68.83331 151
68.85342 164
68.87354 143
68.89365 147
68.91376 149
68.93388 166
68.95399 157
68.97411 154
68.99422 147
69.01433 132
69.03445 132
69.05456 151
69.07467 152
69.09479 127
69.1149 158
69.13502 147
69.15513 135
69.17524 159
69.19536 134
69.21547 150
69.23558 113
69.2557 128
69.27581 125
69.29593 151
69.31604 137
69.33615 154
69.35627 146
69.37638 137
69.39649 132
69.41661 131
69.43672 124
69.45683 146
69.47695 147
69.49706 138
69.51718 133
69.53729 131
69.5574 150
69.57752 115
69.59763 141
69.61774 124
69.63786 146
69.65797 136
69.67809 122
69.6982 131
69.71831 141
69.73843 127
69.75854 139
69.77865 132
69.79877 136
69.81888 132
69.839 148
69.85911 147
69.87922 106
69.89934 138
69.91945 139
69.93956 122
69.95968 115
69.97979 130
69.9999 130
70.02002 126
70.04013 129
70.06025 125
70.08036 127
70.10047 116
70.12059 131
70.1407 138
70.16081 119
70.18093 140
70.20104 145
70.22116 138
70.24127 137
70.26138 139
70.2815 129
70.30161 138
70.32172 130
70.34184 132
70.36195 135
70.38207 128
70.40218 144
70.42229 128
70.44241 101
70.46252 96
70.48263 133
70.50275 113
70.52286 118
70.54297 139
70.56309 120
70.5832 130
70.60332 99
70.62343 117
70.64354 100
70.66366 125
70.68377 141
70.70388 116
70.724 126
70.74411 119
70.76423 136
70.78434 115
70.80445 106
70.82457 104
70.84468 121
70.86479 130
70.88491 127
70.90502 127
70.92513 136
70.94525 113
70.96536 126
70.98548 112
71.00559 119
71.0257 134
71.04582 130
71.06593 128
71.08604 130
71.10616 143
71.12627 116
71.14639 131
71.1665 115
71.18661 127
71.20673 128
71.22684 132
71.24695 99
71.26707 99
71.28718 138
71.3073 107
71.32741 125
71.34752 133
71.36764 132
71.38775 120
71.40786 134
71.42798 139
71.44809 128
71.4682 120
71.48832 126
71.50843 141
71.52855 105
71.54866 108
71.56877 123
71.58889 128
71.609 108
71.62911 125
71.64923 121
71.66934 112
71.68946 123
71.70957 150
71.72968 127
71.7498 125
71.76991 156
71.79002 115
71.81014 113
71.83025 118
71.85037 101
71.87048 125
71.89059 128
71.91071 126
71.93082 123
71.95093 131
71.97105 117
71.99116 112
72.01127 124
72.03139 138
72.0515 134
72.07162 127
72.09173 139
72.11184 148
72.13196 114
72.15207 121
72.17218 121
72.1923 137
72.21241 109
72.23253 135
72.25264 139
72.27275 128
72.29287 119
72.31298 116
72.33309 131
72.35321 134
72.37332 116
72.39344 127
72.41355 131
72.43366 144
72.45378 147
72.47389 127
72.494 125
72.51412 110
72.53423 115
72.55434 117
72.57446 126
72.59457 98
72.61469 118
72.6348 131
72.65491 125
72.67503 119
72.69514 128
72.71525 116
72.73537 134
72.75548 120
72.7756 137
72.79571 134
72.81582 121
72.83594 125
72.85605 110
72.87616 124
72.89628 134
72.91639 138
72.9365 100
72.95662 124
72.97673 131
72.99685 142
73.01696 135
73.03707 133
73.05719 124
73.0773 122
73.09741 145
73.11753 162
73.13764 155
73.15776 160
73.17787 156
73.19798 178
73.2181 190
73.23821 212
73.25832 222
73.27844 191
73.29855 249
73.31867 277
73.33878 304
73.35889 345
73.37901 411
73.39912 445
73.41923 446
73.43935 495
73.45946 412
73.47957 398
73.49969 314
73.5198 251
73.53992 239
73.56003 259
73.58014 257
73.60026 279
73.62037 306
73.64048 307
73.6606 289
73.68071 255
73.70083 246
73.72094 208
73.74105 174
73.76117 165
73.78128 153
73.80139 157
73.82151 147
73.84162 131
73.86174 139
73.88185 156
73.90196 115
73.92208 133
73.94219 121
73.9623 137
73.98242 124
74.00253 107
74.02264 130
74.04276 132
74.06287 101
74.08299 121
74.1031 129
74.12321 120
74.14333 117
74.16344 132
74.18355 115
74.20367 115
74.22378 126
74.2439 119
74.26401 127
74.28412 125
74.30424 114
74.32435 151
74.34446 112
74.36458 111
74.38469 116
74.40481 103
74.42492 111
74.44503 107
74.46515 116
74.48526 89
74.50537 110
74.52549 112
74.5456 113
74.56571 129
74.58583 109
74.60594 133
74.62606 123
74.64617 104
74.66628 120
74.6864 119
74.70651 131
74.72662 108
74.74674 118
74.76685 125
74.78697 132
74.80708 144
74.82719 105
74.84731 122
74.86742 134
74.88753 120
74.90765 116
74.92776 115
74.94787 136
74.96799 127
74.9881 125
75.00822 117
