3.00117 23905
3.02128 22955
3.0414 22500
3.06151 21817
3.08162 21521
3.10174 20694
3.12185 20085
3.14197 19540
3.16208 18645
3.18219 18512
3.20231 17848
3.22242 17468
3.24253 16999
3.26265 16239
3.28276 15834
3.30288 15467
3.32299 14961
3.3431 14457
3.36322 13797
3.38333 13850
3.40344 13226
3.42356 12468
3.44367 12168
3.46379 11673
3.4839 11446
3.50401 11037
3.52413 10659
3.54424 10367
3.56435 9712
3.58447 9646
3.60458 9105
3.62469 8966
3.64481 8585
3.66492 7966
3.68504 8134
3.70515 7813
3.72526 7418
3.74538 7285
3.76549 6664
3.7856 6656
3.80572 6395
3.82583 6074
3.84595 5667
3.86606 5449
3.88617 5432
3.90629 5171
3.9264 4955
3.94651 4588
3.96663 4524
3.98674 4627
4.00686 4265
4.02697 3957
4.04708 3830
4.0672 3509
4.08731 3596
4.10742 3482
4.12754 3124
4.14765 3029
4.16776 2723
4.18788 2911
4.20799 2774
4.22811 2464
4.24822 2519
4.26833 2362
4.28845 2428
4.30856 2302
4.32867 2053
4.34879 2070
4.3689 1979
4.38902 2024
4.40913 1978
4.42924 1826
4.44936 1720
4.46947 1734
4.48958 1754
4.5097 1756
4.52981 1506
4.54992 1690
4.57004 1525
4.59015 1570
4.61027 1517
4.63038 1404
4.65049 1463
4.67061 1378
4.69072 1422
4.71083 1452
4.73095 1253
4.75106 1333
4.77118 1290
4.79129 1194
4.8114 1267
4.83152 1150
4.85163 1185
4.87174 1210
4.89186 1214
4.91197 1110
4.93209 1050
4.9522 1045
4.97231 1040
4.99243 1019
5.01254 981
5.03265 925
5.05277 923
5.07288 900
5.09299 914
5.11311 933
5.13322 859
5.15334 861
5.17345 871
5.19356 911
5.21368 808
5.23379 782
5.2539 824
5.27402 860
5.29413 763
5.31425 797
5.33436 732
5.35447 715
5.37459 712
5.3947 715
5.41481 754
5.43493 660
5.45504 645
5.47516 689
5.49527 619
5.51538 720
5.5355 645
5.55561 582
5.57572 598
5.59584 632
5.61595 618
5.63606 623
5.65618 568
5.67629 575
5.69641 547
5.71652 590
5.73663 566
5.75675 575
5.77686 589
5.79697 553
5.81709 556
5.8372 545
5.85732 487
5.87743 531
5.89754 575
5.91766 548
5.93777 486
5.95788 514
5.978 549
5.99811 542
6.01823 521
6.03834 509
6.05845 491
6.07857 496
6.09868 500
6.11879 471
6.13891 461
6.15902 483
6.17913 448
6.19925 511
6.21936 462
6.23948 440
6.25959 468
6.2797 477
6.29982 479
6.31993 453
6.34004 511
6.36016 480
6.38027 490
6.40039 442
6.4205 464
6.44061 470
6.46073 444
6.48084 466
6.50095 457
6.52107 430
6.54118 413
6.56129 419
6.58141 422
6.60152 452
6.62164 407
6.64175 427
6.66186 423
6.68198 451
6.70209 421
6.7222 405
6.74232 384
6.76243 412
6.78255 396
6.80266 421
6.82277 396
6.84289 384
6.863 374
6.88311 417
6.90323 396
6.92334 404
6.94346 397
6.96357 409
6.98368 387
7.0038 391
7.02391 380
7.04402 404
7.06414 390
7.08425 392
7.10436 384
7.12448 437
7.14459 391
7.16471 398
7.18482 409
7.20493 366
7.22505 403
7.24516 368
7.26527 355
7.28539 406
7.3055 383
7.32562 386
7.34573 431
7.36584 416
7.38596 414
7.40607 367
7.42618 417
7.4463 418
7.46641 429
7.48653 413
7.50664 381
7.52675 377
7.54687 380
7.56698 368
7.58709 398
7.60721 355
7.62732 432
7.64743 396
7.66755 395
7.68766 377
7.70778 365
7.72789 372
7.748 414
7.76812 388
7.78823 395
7.80834 403
7.82846 356
7.84857 386
7.86869 412
7.8888 400
7.90891 382
7.92903 452
7.94914 403
7.96925 415
7.98937 401
8.00948 395
8.0296 360
8.04971 409
8.06982 366
8.08994 388
8.11005 402
8.13016 400
8.15028 390
8.17039 402
8.1905 381
8.21062 379
8.23073 424
8.25085 377
8.27096 393
8.29107 386
8.31119 403
8.3313 420
8.35141 438
8.37153 404
8.39164 409
8.41176 377
8.43187 445
8.45198 396
8.4721 447
8.49221 399
8.51232 405
8.53244 447
8.55255 424
8.57266 439
8.59278 444
8.61289 440
8.63301 487
8.65312 500
8.67323 509
8.69335 513
8.71346 480
8.73357 536
8.75369 581
8.7738 564
8.79392 576
8.81403 597
8.83414 664
8.85426 644
8.87437 652
8.89448 597
8.9146 602
8.93471 572
8.95483 513
8.97494 465
8.99505 449
9.01517 423
9.03528 414
9.05539 409
9.07551 399
9.09562 430
9.11573 409
9.13585 425
9.15596 460
9.17608 408
9.19619 417
9.2163 387
9.23642 360
9.25653 370
9.27664 401
9.29676 374
9.31687 407
9.33699 436
9.3571 413
9.37721 402
9.39733 389
9.41744 404
9.43755 364
9.45767 394
9.47778 404
9.4979 384
9.51801 321
9.53812 394
9.55824 386
9.57835 396
9.59846 355
9.61858 376
9.63869 386
9.6588 335
9.67892 339
9.69903 350
9.71915 357
9.73926 368
9.75937 379
9.77949 406
9.7996 389
9.81971 338
9.83983 348
9.85994 358
9.88006 348
9.90017 336
9.92028 373
9.9404 363
9.96051 374
9.98062 345
10.00074 349
10.02085 328
10.04097 361
10.06108 360
10.08119 357
10.10131 372
10.12142 349
10.14153 359
10.16165 412
10.18176 359
10.20187 397
10.22199 341
10.2421 348
10.26222 374
10.28233 340
10.30244 335
10.32256 330
10.34267 385
10.36278 334
10.3829 365
10.40301 386
10.42313 368
10.44324 388
10.46335 342
10.48347 358
10.50358 373
10.52369 366
10.54381 362
10.56392 385
10.58403 356
10.60415 345
10.62426 391
10.64438 393
10.66449 348
10.6846 378
10.70472 357
10.72483 359
10.74494 372
10.76506 376
10.78517 358
10.80529 357
10.8254 359
10.84551 384
10.86563 357
10.88574 368
10.90585 363
10.92597 355
10.94608 366
10.9662 378
10.98631 372
11.00642 372
11.02654 370
11.04665 400
11.06676 389
11.08688 405
11.10699 396
11.1271 389
11.14722 352
11.16733 347
11.18745 344
11.20756 358
11.22767 335
11.24779 384
11.2679 366
11.28801 364
11.30813 383
11.32824 372
11.34836 361
11.36847 354
11.38858 342
11.4087 395
11.42881 340
11.44892 367
11.46904 341
11.48915 380
11.50927 411
11.52938 359
11.54949 395
11.56961 369
11.58972 396
11.60983 340
11.62995 363
11.65006 360
11.67017 350
11.69029 348
11.7104 360
11.73052 376
11.75063 394
11.77074 398
11.79086 363
11.81097 366
11.83108 367
11.8512 355
11.87131 352
11.89143 375
11.91154 396
11.93165 403
11.95177 362
11.97188 370
11.99199 390
12.01211 360
12.03222 363
12.05234 340
12.07245 409
12.09256 364
12.11268 379
12.13279 405
12.1529 406
12.17302 383
12.19313 415
12.21324 394
12.23336 417
12.25347 446
12.27359 447
12.2937 404
12.31381 426
12.33393 374
12.35404 402
12.37415 416
12.39427 426
12.41438 403
12.4345 389
12.45461 386
12.47472 432
12.49484 409
12.51495 340
12.53506 358
12.55518 389
12.57529 412
12.5954 346
12.61552 341
12.63563 379
12.65575 365
12.67586 355
12.69597 367
12.71609 356
12.7362 331
12.75631 371
12.77643 355
12.79654 350
12.81666 326
12.83677 355
12.85688 332
12.877 363
12.89711 348
12.91722 319
12.93734 375
12.95745 352
12.97757 365
12.99768 375
13.01779 301
13.03791 350
13.05802 325
13.07813 348
13.09825 349
13.11836 323
13.13847 323
13.15859 339
13.1787 327
13.19882 374
13.21893 314
13.23904 327
13.25916 351
13.27927 350
13.29938 371
13.3195 354
13.33961 353
13.35973 368
13.37984 334
13.39995 293
13.42007 351
13.44018 322
13.46029 308
13.48041 395
13.50052 334
13.52064 326
13.54075 329
13.56086 336
13.58098 316
13.60109 327
13.6212 299
13.64132 336
13.66143 324
13.68154 339
13.70166 333
13.72177 349
13.74189 317
13.762 333
13.78211 327
13.80223 325
13.82234 317
13.84245 340
13.86257 313
13.88268 346
13.9028 343
13.92291 368
13.94302 357
13.96314 332
13.98325 342
14.00336 275
14.02348 325
14.04359 357
14.06371 338
14.08382 367
14.10393 344
14.12405 293
14.14416 340
14.16427 331
14.18439 307
14.2045 326
14.22461 326
14.24473 304
14.26484 339
14.28496 339
14.30507 324
14.32518 326
14.3453 292
14.36541 318
14.38552 305
14.40564 330
14.42575 334
14.44587 334
14.46598 290
14.48609 350
14.50621 315
14.52632 333
14.54643 298
14.56655 355
14.58666 323
14.60677 326
14.62689 318
14.647 317
14.66712 307
14.68723 304
14.70734 349
14.72746 354
14.74757 332
14.76768 343
14.7878 325
14.80791 338
14.82803 295
14.84814 337
14.86825 321
14.88837 324
14.90848 315
14.92859 324
14.94871 318
14.96882 302
14.98894 361
15.00905 316
15.02916 326
15.04928 318
15.06939 323
15.0895 317
15.10962 310
15.12973 315
15.14984 330
15.16996 272
15.19007 320
15.21019 286
15.2303 308
15.25041 297
15.27053 326
15.29064 325
15.31075 297
15.33087 355
15.35098 293
15.3711 310
15.39121 316
15.41132 332
15.43144 339
15.45155 359
15.47166 297
15.49178 290
15.51189 299
15.53201 313
15.55212 370
15.57223 306
15.59235 318
15.61246 280
15.63257 298
15.65269 287
15.6728 317
15.69291 314
15.71303 329
15.73314 325
15.75326 286
15.77337 336
15.79348 319
15.8136 313
15.83371 330
15.85382 308
15.87394 287
15.89405 314
15.91417 341
15.93428 291
15.95439 324
15.97451 326
15.99462 286
16.01473 311
16.03485 302
16.05496 295
16.07508 345
16.09519 335
16.1153 319
16.13542 340
16.15553 313
16.17564 342
16.19576 310
16.21587 375
16.23598 309
16.2561 382
16.27621 325
16.29633 314
16.31644 286
16.33655 314
16.35667 301
16.37678 289
16.39689 274
16.41701 330
16.43712 300
16.45724 340
16.47735 329
16.49746 347
16.51758 310
16.53769 299
16.5578 321
16.57792 330
16.59803 324
16.61814 330
16.63826 346
16.65837 307
16.67849 336
16.6986 307
16.71871 377
16.73883 324
16.75894 323
16.77905 325
16.79917 324
16.81928 324
16.8394 298
16.85951 345
16.87962 320
16.89974 299
16.91985 329
16.93996 308
16.96008 313
16.98019 316
17.00031 304
17.02042 314
17.04053 328
17.06065 296
17.08076 320
17.10087 328
17.12099 305
17.1411 328
17.16121 357
17.18133 311
17.20144 314
17.22156 326
17.24167 335
17.26178 322
17.2819 315
17.30201 290
17.32212 310
17.34224 327
17.36235 302
17.38247 318
17.40258 327
17.42269 308
17.44281 359
17.46292 330
17.48303 358
17.50315 354
17.52326 352
17.54338 345
17.56349 351
17.5836 344
17.60372 338
17.62383 379
17.64394 372
17.66406 386
17.68417 463
17.70428 430
17.7244 455
17.74451 442
17.76463 447
17.78474 462
17.80485 426
17.82497 415
17.84508 436
17.86519 375
17.88531 375
17.90542 376
17.92554 355
17.94565 388
17.96576 402
17.98588 363
18.00599 348
18.0261 356
18.04622 332
18.06633 319
18.08645 349
18.10656 339
18.12667 317
18.14679 337
18.1669 313
18.18701 338
18.20713 359
18.22724 344
18.24735 311
18.26747 308
18.28758 329
18.3077 361
18.32781 329
18.34792 365
18.36804 361
18.38815 316
18.40826 348
18.42838 341
18.44849 368
18.46861 330
18.48872 331
18.50883 346
18.52895 334
18.54906 311
18.56917 325
18.58929 343
18.6094 310
18.62951 341
18.64963 373
18.66974 372
18.68986 299
18.70997 314
18.73008 367
18.7502 363
18.77031 353
18.79042 379
18.81054 320
18.83065 347
18.85077 362
18.87088 316
18.89099 334
18.91111 342
18.93122 354
18.95133 349
18.97145 309
18.99156 343
19.01168 381
19.03179 301
19.0519 365
19.07202 288
19.09213 328
19.11224 330
19.13236 340
19.15247 354
19.17258 340
19.1927 306
19.21281 358
19.23293 348
19.25304 366
19.27315 380
19.29327 399
19.31338 357
19.33349 380
19.35361 349
19.37372 353
19.39384 395
19.41395 361
19.43406 380
19.45418 355
19.47429 358
19.4944 362
19.51452 383
19.53463 391
19.55475 448
19.57486 460
19.59497 475
19.61509 543
19.6352 541
19.65531 592
19.67543 677
19.69554 740
19.71565 807
19.73577 801
19.75588 849
19.776 973
19.79611 1019
19.81622 1054
19.83634 988
19.85645 1018
19.87656 1021
19.89668 909
19.91679 848
19.93691 810
19.95702 686
19.97713 721
19.99725 646
20.01736 612
20.03747 606
20.05759 583
20.0777 599
20.09782 579
20.11793 577
20.13804 584
20.15816 585
20.17827 547
20.19838 584
20.2185 549
20.23861 575
20.25872 546
20.27884 497
20.29895 610
20.31907 584
20.33918 505
20.35929 519
20.37941 586
20.39952 568
20.41963 551
20.43975 572
20.45986 535
20.47998 608
20.50009 606
20.5202 633
20.54032 604
20.56043 600
20.58054 668
20.60066 699
20.62077 761
20.64088 780
20.661 849
20.68111 954
20.70123 1122
20.72134 1410
20.74145 1805
20.76157 2332
20.78168 2965
20.80179 3569
20.82191 4055
20.84202 4307
20.86214 4096
20.88225 3780
20.90236 3001
20.92248 2150
20.94259 1542
20.9627 1156
20.98282 926
21.00293 762
21.02305 704
21.04316 713
21.06327 677
21.08339 633
21.1035 666
21.12361 626
21.14373 621
21.16384 662
21.18395 589
21.20407 580
21.22418 633
21.2443 639
21.26441 605
21.28452 602
21.30464 607
21.32475 668
21.34486 592
21.36498 628
21.38509 604
21.40521 592
21.42532 569
21.44543 594
21.46555 541
21.48566 584
21.50577 586
21.52589 577
21.546 548
21.56612 557
21.58623 563
21.60634 528
21.62646 537
21.64657 503
21.66668 549
21.6868 531
21.70691 508
21.72702 493
21.74714 520
21.76725 460
21.78737 478
21.80748 499
21.82759 462
21.84771 449
21.86782 478
21.88793 442
21.90805 472
21.92816 445
21.94828 432
21.96839 443
21.9885 448
22.00862 461
22.02873 426
22.04884 457
22.06896 455
22.08907 437
22.10919 399
22.1293 449
22.14941 437
22.16953 399
22.18964 492
22.20975 451
22.22987 460
22.24998 437
22.27009 426
22.29021 462
22.31032 455
22.33044 452
22.35055 436
22.37066 431
22.39078 460
22.41089 461
22.431 408
22.45112 440
22.47123 410
22.49135 395
22.51146 468
22.53157 452
22.55169 417
22.5718 466
22.59191 432
22.61203 450
22.63214 460
22.65225 445
22.67237 472
22.69248 435
22.7126 552
22.73271 467
22.75282 501
22.77294 489
22.79305 511
22.81316 571
22.83328 515
22.85339 584
22.87351 573
22.89362 541
22.91373 520
22.93385 551
22.95396 522
22.97407 473
22.99419 480
23.0143 439
23.03442 480
23.05453 459
23.07464 477
23.09476 430
23.11487 419
23.13498 412
23.1551 425
23.17521 453
23.19532 449
23.21544 458
23.23555 392
23.25567 433
23.27578 438
23.29589 430
23.31601 415
23.33612 441
23.35623 424
23.37635 429
23.39646 415
23.41658 409
23.43669 408
23.4568 473
23.47692 435
23.49703 400
23.51714 437
23.53726 454
23.55737 421
23.57749 428
23.5976 484
23.61771 441
23.63783 477
23.65794 462
23.67805 491
23.69817 500
23.71828 528
23.73839 552
23.75851 567
23.77862 553
23.79874 567
23.81885 564
23.83896 526
23.85908 569
23.87919 481
23.8993 451
23.91942 488
23.93953 502
23.95965 513
23.97976 514
23.99987 514
24.01999 470
24.0401 475
24.06021 384
24.08033 423
24.10044 440
24.12056 443
24.14067 444
24.16078 477
24.1809 447
24.20101 450
24.22112 402
24.24124 432
24.26135 461
24.28146 402
24.30158 399
24.32169 426
24.34181 423
24.36192 472
24.38203 418
24.40215 481
24.42226 419
24.44237 436
24.46249 431
24.4826 436
24.50272 397
24.52283 418
24.54294 448
24.56306 423
24.58317 455
24.60328 443
24.6234 436
24.64351 383
24.66362 427
24.68374 432
24.70385 438
24.72397 395
24.74408 416
24.76419 413
24.78431 437
24.80442 430
24.82453 464
24.84465 520
24.86476 442
24.88488 468
24.90499 477
24.9251 506
24.94522 489
24.96533 479
24.98544 438
25.00556 488
25.02567 436
25.04579 488
25.0659 481
25.08601 476
25.10613 448
25.12624 443
25.14635 514
25.16647 527
25.18658 448
25.20669 462
25.22681 496
25.24692 556
25.26704 528
25.28715 524
25.30726 532
25.32738 538
25.34749 556
25.3676 612
25.38772 621
25.40783 647
25.42795 628
25.44806 646
25.46817 623
25.48829 669
25.5084 676
25.52851 591
25.54863 556
25.56874 570
25.58886 573
25.60897 545
25.62908 561
25.6492 561
25.66931 544
25.68942 533
25.70954 537
25.72965 582
25.74976 564
25.76988 601
25.78999 553
25.81011 548
25.83022 557
25.85033 594
25.87045 580
25.89056 606
25.91067 570
25.93079 589
25.9509 664
25.97102 591
25.99113 554
26.01124 605
26.03136 628
26.05147 615
26.07158 587
26.0917 643
26.11181 746
26.13193 714
26.15204 739
26.17215 806
26.19227 797
26.21238 824
26.23249 878
26.25261 859
26.27272 947
26.29283 1060
26.31295 1130
26.33306 1130
26.35318 1346
26.37329 1480
26.3934 1800
26.41352 2068
26.43363 2613
26.45374 3259
26.47386 4323
26.49397 5759
26.51409 7947
26.5342 10341
26.55431 13053
26.57443 15817
26.59454 17768
26.61465 19081
26.63477 18186
26.65488 16264
26.67499 12998
26.69511 10105
26.71522 7533
26.73534 5253
26.75545 3416
26.77556 2387
26.79568 1734
26.81579 1417
26.8359 1336
26.85602 1163
26.87613 1048
26.89625 1031
26.91636 917
26.93647 914
26.95659 807
26.9767 826
26.99681 713
27.01693 631
27.03704 669
27.05716 632
27.07727 643
27.09738 622
27.1175 615
27.13761 588
27.15772 626
27.17784 532
27.19795 555
27.21806 605
27.23818 542
27.25829 527
27.27841 577
27.29852 562
27.31863 659
27.33875 591
27.35886 674
27.37897 667
27.39909 650
27.4192 631
27.43932 680
27.45943 606
27.47954 583
27.49966 604
27.51977 587
27.53988 598
27.56 467
27.58011 481
27.60023 525
27.62034 522
27.64045 531
27.66057 525
27.68068 621
27.70079 581
27.72091 531
27.74102 630
27.76113 638
27.78125 627
27.80136 690
27.82148 631
27.84159 669
27.8617 610
27.88182 681
27.90193 589
27.92204 601
27.94216 551
27.96227 498
27.98239 478
28.0025 508
28.02261 483
28.04273 459
28.06284 505
28.08295 466
28.10307 441
28.12318 447
28.1433 462
28.16341 425
28.18352 462
28.20364 448
28.22375 438
28.24386 424
28.26398 445
28.28409 405
28.3042 417
28.32432 443
28.34443 413
28.36455 418
28.38466 427
28.40477 404
28.42489 410
28.445 403
28.46511 428
28.48523 406
28.50534 442
28.52546 442
28.54557 412
28.56568 438
28.5858 437
28.60591 387
28.62602 424
28.64614 392
28.66625 407
28.68636 425
28.70648 394
28.72659 405
28.74671 426
28.76682 409
28.78693 437
28.80705 409
28.82716 445
28.84727 405
28.86739 375
28.8875 405
28.90762 401
28.92773 398
28.94784 418
28.96796 419
28.98807 401
29.00818 446
29.0283 429
29.04841 377
29.06853 429
29.08864 401
29.10875 411
29.12887 415
29.14898 402
29.16909 424
29.18921 405
29.20932 418
29.22943 435
29.24955 362
29.26966 443
29.28978 428
29.30989 443
29.33 417
29.35012 384
29.37023 412
29.39034 393
29.41046 431
29.43057 427
29.45069 425
29.4708 407
29.49091 427
29.51103 392
29.53114 405
29.55125 422
29.57137 419
29.59148 415
29.6116 467
29.63171 456
29.65182 452
29.67194 442
29.69205 490
29.71216 487
29.73228 546
29.75239 566
29.7725 521
29.79262 539
29.81273 623
29.83285 555
29.85296 547
29.87307 544
29.89319 549
29.9133 538
29.93341 497
29.95353 508
29.97364 490
29.99376 474
30.01387 449
30.03398 454
30.0541 420
30.07421 414
30.09432 380
30.11444 429
30.13455 387
30.15467 432
30.17478 370
30.19489 416
30.21501 413
30.23512 391
30.25523 390
30.27535 428
30.29546 404
30.31557 406
30.33569 405
30.3558 392
30.37592 379
30.39603 413
30.41614 370
30.43626 335
30.45637 385
30.47648 381
30.4966 427
30.51671 401
30.53683 401
30.55694 389
30.57705 372
30.59717 411
30.61728 387
30.63739 407
30.65751 403
30.67762 403
30.69773 406
30.71785 380
30.73796 375
30.75808 388
30.77819 411
30.7983 357
30.81842 389
30.83853 418
30.85864 394
30.87876 405
30.89887 413
30.91899 407
30.9391 409
30.95921 409
30.97933 431
30.99944 437
31.01955 448
31.03967 461
31.05978 441
31.0799 467
31.10001 424
31.12012 492
31.14024 492
31.16035 529
31.18046 483
31.20058 518
31.22069 498
31.2408 491
31.26092 422
31.28103 486
31.30115 463
31.32126 459
31.34137 419
31.36149 409
31.3816 408
31.40171 419
31.42183 393
31.44194 392
31.46206 399
31.48217 394
31.50228 402
31.5224 369
31.54251 395
31.56262 390
31.58274 335
31.60285 345
31.62297 350
31.64308 379
31.66319 387
31.68331 385
31.70342 422
31.72353 396
31.74365 390
31.76376 381
31.78387 376
31.80399 422
31.8241 418
31.84422 430
31.86433 418
31.88444 435
31.90456 440
31.92467 439
31.94478 427
31.9649 489
31.98501 454
32.00513 430
32.02524 410
32.04535 407
32.06547 467
32.08558 464
32.10569 456
32.12581 418
32.14592 367
32.16604 405
32.18615 397
32.20626 463
32.22638 365
32.24649 378
32.2666 382
32.28672 379
32.30683 344
32.32694 377
32.34706 365
32.36717 333
32.38729 375
32.4074 383
32.42751 366
32.44763 371
32.46774 348
32.48785 377
32.50797 370
32.52808 415
32.5482 365
32.56831 363
32.58842 332
32.60854 377
32.62865 413
32.64876 385
32.66888 384
32.68899 372
32.7091 350
32.72922 377
32.74933 370
32.76945 364
32.78956 377
32.80967 375
32.82979 374
32.8499 369
32.87001 377
32.89013 415
32.91024 366
32.93036 408
32.95047 376
32.97058 414
32.9907 421
33.01081 365
33.03092 396
33.05104 412
33.07115 394
33.09127 393
33.11138 396
33.13149 392
33.15161 420
33.17172 414
33.19183 429
33.21195 399
33.23206 429
33.25217 445
33.27229 422
33.2924 424
33.31252 435
33.33263 386
33.35274 414
33.37286 405
33.39297 369
33.41308 414
33.4332 396
33.45331 413
33.47343 395
33.49354 422
33.51365 372
33.53377 379
33.55388 391
33.57399 398
33.59411 344
33.61422 395
33.63434 415
33.65445 388
33.67456 385
33.69468 378
33.71479 367
33.7349 385
33.75502 389
33.77513 361
33.79524 379
33.81536 371
33.83547 413
33.85559 390
33.8757 394
33.89581 399
33.91593 374
33.93604 374
33.95615 362
33.97627 395
33.99638 398
34.0165 394
34.03661 357
34.05672 309
34.07684 373
34.09695 375
34.11706 350
34.13718 371
34.15729 396
34.17741 412
34.19752 398
34.21763 390
34.23775 401
34.25786 450
34.27797 386
34.29809 433
34.3182 405
34.33831 487
34.35843 449
34.37854 468
34.39866 502
34.41877 529
34.43888 539
34.459 601
34.47911 607
34.49922 628
34.51934 655
34.53945 604
34.55957 622
34.57968 638
34.59979 693
34.61991 603
34.64002 587
34.66013 618
34.68025 624
34.70036 622
34.72047 664
34.74059 669
34.7607 740
34.78082 702
34.80093 776
34.82104 767
34.84116 858
34.86127 882
34.88138 959
34.9015 928
34.92161 958
34.94173 942
34.96184 931
34.98195 1045
35.00207 901
35.02218 815
35.04229 748
35.06241 745
35.08252 692
35.10264 662
35.12275 590
35.14286 610
35.16298 515
35.18309 547
35.2032 496
35.22332 511
35.24343 520
35.26354 475
35.28366 494
35.30377 459
35.32389 486
35.344 486
35.36411 476
35.38423 485
35.40434 498
35.42445 471
35.44457 467
35.46468 488
35.4848 479
35.50491 447
35.52502 470
35.54514 470
35.56525 524
35.58536 484
35.60548 493
35.62559 489
35.64571 480
35.66582 501
35.68593 496
35.70605 516
35.72616 520
35.74627 515
35.76639 534
35.7865 484
35.80661 505
35.82673 557
35.84684 483
35.86696 499
35.88707 519
35.90718 496
35.9273 514
35.94741 520
35.96752 508
35.98764 506
36.00775 527
36.02787 507
36.04798 505
36.06809 508
36.08821 505
36.10832 509
36.12843 496
36.14855 467
36.16866 534
36.18878 504
36.20889 522
36.229 540
36.24912 522
36.26923 587
36.28934 587
36.30946 641
36.32957 727
36.34968 730
36.3698 828
36.38991 924
36.41003 1068
36.43014 1197
36.45025 1445
36.47037 1561
36.49048 1662
36.51059 1660
36.53071 1590
36.55082 1486
36.57094 1331
36.59105 1196
36.61116 1030
36.63128 963
36.65139 845
36.6715 710
36.69162 642
36.71173 593
36.73184 570
36.75196 569
36.77207 563
36.79219 539
36.8123 544
36.83241 503
36.85253 497
36.87264 517
36.89275 462
36.91287 482
36.93298 507
36.9531 517
36.97321 488
36.99332 489
37.01344 479
37.03355 443
37.05366 459
37.07378 486
37.09389 464
37.11401 483
37.13412 498
37.15423 454
37.17435 462
37.19446 497
37.21457 492
37.23469 442
37.2548 489
37.27491 473
37.29503 484
37.31514 435
37.33526 442
37.35537 471
37.37548 464
37.3956 484
37.41571 472
37.43582 465
37.45594 487
37.47605 500
37.49617 491
37.51628 433
37.53639 481
37.55651 514
37.57662 506
37.59673 480
37.61685 507
37.63696 483
37.65708 545
37.67719 538
37.6973 499
37.71742 509
37.73753 535
37.75764 487
37.77776 481
37.79787 493
37.81798 504
37.8381 490
37.85821 406
37.87833 421
37.89844 453
37.91855 428
37.93867 415
37.95878 400
37.97889 424
37.99901 407
38.01912 428
38.03924 408
38.05935 396
38.07946 417
38.09958 402
38.11969 399
38.1398 441
38.15992 430
38.18003 391
38.20015 416
38.22026 434
38.24037 372
38.26049 404
38.2806 401
38.30071 440
38.32083 398
38.34094 425
38.36105 393
38.38117 441
38.40128 414
38.4214 443
38.44151 431
38.46162 423
38.48174 390
38.50185 355
38.52196 388
38.54208 416
38.56219 432
38.58231 372
38.60242 373
38.62253 414
38.64265 393
38.66276 396
38.68287 381
38.70299 399
38.7231 355
38.74321 380
38.76333 359
38.78344 364
38.80356 355
38.82367 351
38.84378 400
38.8639 414
38.88401 388
38.90412 388
38.92424 388
38.94435 410
38.96447 344
38.98458 405
39.00469 372
39.02481 409
39.04492 402
39.06503 398
39.08515 443
39.10526 416
39.12538 429
39.14549 456
39.1656 433
39.18572 462
39.20583 484
39.22594 559
39.24606 524
39.26617 625
39.28628 641
39.3064 738
39.32651 825
39.34663 945
39.36674 1053
39.38685 1299
39.40697 1409
39.42708 1459
39.44719 1429
39.46731 1300
39.48742 1228
39.50754 1073
39.52765 897
39.54776 875
39.56788 710
39.58799 639
39.6081 583
39.62822 473
39.64833 466
39.66845 421
39.68856 414
39.70867 409
39.72879 369
39.7489 413
39.76901 338
39.78913 408
39.80924 428
39.82935 399
39.84947 431
39.86958 427
39.8897 499
39.90981 443
39.92992 439
39.95004 491
39.97015 487
39.99026 461
40.01038 462
40.03049 493
40.05061 535
40.07072 532
40.09083 577
40.11095 603
40.13106 635
40.15117 702
40.17129 738
40.1914 829
40.21152 856
40.23163 900
40.25174 934
40.27186 992
40.29197 901
40.31208 823
40.3322 727
40.35231 690
40.37242 621
40.39254 564
40.41265 548
40.43277 492
40.45288 500
40.47299 436
40.49311 443
40.51322 434
40.53333 420
40.55345 399
40.57356 426
40.59368 400
40.61379 433
40.6339 443
40.65402 408
40.67413 421
40.69424 399
40.71436 389
40.73447 414
40.75458 448
40.7747 407
40.79481 442
40.81493 439
40.83504 437
40.85515 442
40.87527 425
40.89538 459
40.91549 422
40.93561 421
40.95572 430
40.97584 440
40.99595 391
41.01606 357
41.03618 433
41.05629 415
41.0764 423
41.09652 393
41.11663 437
41.13675 429
41.15686 440
41.17697 428
41.19709 451
41.2172 422
41.23731 411
41.25743 426
41.27754 438
41.29765 448
41.31777 420
41.33788 407
41.358 401
41.37811 429
41.39822 386
41.41834 399
41.43845 415
41.45856 380
41.47868 364
41.49879 381
41.51891 434
41.53902 412
41.55913 398
41.57925 406
41.59936 391
41.61947 389
41.63959 381
41.6597 395
41.67982 407
41.69993 425
41.72004 392
41.74016 392
41.76027 381
41.78038 399
41.8005 405
41.82061 394
41.84072 387
41.86084 367
41.88095 426
41.90107 407
41.92118 432
41.94129 439
41.96141 404
41.98152 413
42.00163 439
42.02175 407
42.04186 440
42.06198 434
42.08209 442
42.1022 471
42.12232 471
42.14243 462
42.16254 512
42.18266 522
42.20277 524
42.22289 524
42.243 606
42.26311 678
42.28323 789
42.30334 827
42.32345 919
42.34357 994
42.36368 1037
42.38379 1185
42.40391 1192
42.42402 1196
42.44414 1108
42.46425 1022
42.48436 886
42.50448 786
42.52459 785
42.5447 754
42.56482 650
42.58493 579
42.60505 486
42.62516 442
42.64527 391
42.66539 388
42.6855 376
42.70561 387
42.72573 367
42.74584 399
42.76595 340
42.78607 394
42.80618 322
42.8263 370
42.84641 352
42.86652 330
42.88664 325
42.90675 336
42.92686 363
42.94698 349
42.96709 357
42.98721 329
43.00732 365
43.02743 345
43.04755 314
43.06766 317
43.08777 328
43.10789 301
43.128 335
43.14812 327
43.16823 329
43.18834 336
43.20846 337
43.22857 344
43.24868 320
43.2688 315
43.28891 334
43.30902 301
43.32914 340
43.34925 355
43.36937 321
43.38948 324
43.40959 347
43.42971 352
43.44982 341
43.46993 333
43.49005 341
43.51016 351
43.53028 307
43.55039 336
43.5705 332
43.59062 344
43.61073 370
43.63084 372
43.65096 360
43.67107 342
43.69119 337
43.7113 335
43.73141 321
43.75153 340
43.77164 344
43.79175 320
43.81187 348
43.83198 339
43.85209 361
43.87221 344
43.89232 360
43.91244 353
43.93255 336
43.95266 348
43.97278 350
43.99289 370
44.013 357
44.03312 359
44.05323 309
44.07335 337
44.09346 333
44.11357 350
44.13369 386
44.1538 315
44.17391 353
44.19403 324
44.21414 351
44.23426 341
44.25437 345
44.27448 354
44.2946 362
44.31471 333
44.33482 357
44.35494 332
44.37505 318
44.39516 339
44.41528 312
44.43539 341
44.45551 332
44.47562 352
44.49573 306
44.51585 369
44.53596 354
44.55607 318
44.57619 379
44.5963 311
44.61642 315
44.63653 325
44.65664 347
44.67676 348
44.69687 309
44.71698 341
44.7371 331
44.75721 338
44.77732 356
44.79744 343
44.81755 320
44.83767 334
44.85778 299
44.87789 346
44.89801 333
44.91812 341
44.93823 389
44.95835 353
44.97846 373
44.99858 339
45.01869 370
45.0388 392
45.05892 367
45.07903 387
45.09914 364
45.11926 376
45.13937 392
45.15949 425
45.1796 413
45.19971 411
45.21983 416
45.23994 436
45.26005 442
45.28017 452
45.30028 453
45.32039 445
45.34051 499
45.36062 420
45.38074 428
45.40085 479
45.42096 442
45.44108 475
45.46119 442
45.4813 469
45.50142 461
45.52153 479
45.54165 458
45.56176 471
45.58187 493
45.60199 546
45.6221 558
45.64221 630
45.66233 645
45.68244 712
45.70256 759
45.72267 824
45.74278 854
45.7629 839
45.78301 830
45.80312 751
45.82324 707
45.84335 647
45.86346 631
45.88358 658
45.90369 582
45.92381 509
45.94392 500
45.96403 453
45.98415 437
46.00426 422
46.02437 427
46.04449 385
46.0646 382
46.08472 388
46.10483 376
46.12494 400
46.14506 357
46.16517 344
46.18528 368
46.2054 380
46.22551 344
46.24563 333
46.26574 324
46.28585 380
46.30597 314
46.32608 396
46.34619 341
46.36631 357
46.38642 381
46.40653 352
46.42665 338
46.44676 356
46.46688 375
46.48699 335
46.5071 348
46.52722 344
46.54733 328
46.56744 332
46.58756 345
46.60767 397
46.62779 370
46.6479 369
46.66801 336
46.68813 350
46.70824 321
46.72835 366
46.74847 348
46.76858 336
46.78869 346
46.80881 350
46.82892 331
46.84904 315
46.86915 325
46.88926 350
46.90938 326
46.92949 337
46.9496 310
46.96972 317
46.98983 332
47.00995 347
47.03006 318
47.05017 323
47.07029 330
47.0904 302
47.11051 343
47.13063 345
47.15074 331
47.17086 356
47.19097 320
47.21108 332
47.2312 318
47.25131 325
47.27142 316
47.29154 323
47.31165 341
47.33176 320
47.35188 319
47.37199 284
47.39211 329
47.41222 332
47.43233 314
47.45245 349
47.47256 334
47.49267 291
47.51279 301
47.5329 346
47.55302 327
47.57313 308
47.59324 329
47.61336 342
47.63347 336
47.65358 338
47.6737 314
47.69381 325
47.71393 351
47.73404 318
47.75415 331
47.77427 326
47.79438 313
47.81449 328
47.83461 343
47.85472 327
47.87483 309
47.89495 304
47.91506 302
47.93518 337
47.95529 352
47.9754 338
47.99552 350
48.01563 355
48.03574 329
48.05586 336
48.07597 349
48.09609 310
48.1162 341
48.13631 297
48.15643 328
48.17654 328
48.19665 336
48.21677 306
48.23688 352
48.257 320
48.27711 308
48.29722 315
48.31734 312
48.33745 319
48.35756 339
48.37768 351
48.39779 386
48.4179 308
48.43802 326
48.45813 331
48.47825 356
48.49836 319
48.51847 320
48.53859 348
48.5587 332
48.57881 316
48.59893 352
48.61904 357
48.63916 343
48.65927 344
48.67938 388
48.6995 355
48.71961 349
48.73972 321
48.75984 345
48.77995 346
48.80006 348
48.82018 330
48.84029 316
48.86041 356
48.88052 311
48.90063 331
48.92075 310
48.94086 350
48.96097 351
48.98109 352
49.0012 339
49.02132 347
49.04143 341
49.06154 341
49.08166 348
49.10177 336
49.12188 324
49.142 343
49.16211 349
49.18223 356
49.20234 352
49.22245 328
49.24257 350
49.26268 336
49.28279 350
49.30291 340
49.32302 351
49.34313 350
49.36325 352
49.38336 336
49.40348 351
49.42359 358
49.4437 365
49.46382 345
49.48393 342
49.50404 346
49.52416 318
49.54427 347
49.56439 371
49.5845 372
49.60461 372
49.62473 377
49.64484 375
49.66495 387
49.68507 368
49.70518 409
49.7253 392
49.74541 426
49.76552 410
49.78564 453
49.80575 477
49.82586 480
49.84598 542
49.86609 563
49.8862 652
49.90632 665
49.92643 793
49.94655 907
49.96666 1061
49.98677 1258
50.00689 1368
50.027 1597
50.04711 1903
50.06723 1933
50.08734 2137
50.10746 2102
50.12757 1928
50.14768 1746
50.1678 1523
50.18791 1408
50.20802 1282
50.22814 1191
50.24825 1149
50.26837 950
50.28848 821
50.30859 644
50.32871 546
50.34882 476
50.36893 443
50.38905 390
50.40916 413
50.42927 398
50.44939 377
50.4695 384
50.48962 397
50.50973 411
50.52984 416
50.54996 364
50.57007 413
50.59018 355
50.6103 386
50.63041 370
50.65053 358
50.67064 368
50.69075 376
50.71087 359
50.73098 354
50.75109 342
50.77121 341
50.79132 332
50.81143 366
50.83155 381
50.85166 330
50.87178 360
50.89189 356
50.912 326
50.93212 333
50.95223 332
50.97234 314
50.99246 339
51.01257 314
51.03269 332
51.0528 349
51.07291 343
51.09303 323
51.11314 316
51.13325 333
51.15337 314
51.17348 346
51.1936 336
51.21371 306
51.23382 308
51.25394 307
51.27405 310
51.29416 305
51.31428 313
51.33439 352
51.3545 326
51.37462 322
51.39473 300
51.41485 308
51.43496 300
51.45507 306
51.47519 307
51.4953 315
51.51541 357
51.53553 327
51.55564 357
51.57576 319
51.59587 288
51.61598 354
51.6361 333
51.65621 318
51.67632 312
51.69644 304
51.71655 308
51.73667 282
51.75678 317
51.77689 302
51.79701 347
51.81712 287
51.83723 324
51.85735 327
51.87746 331
51.89757 320
51.91769 313
51.9378 298
51.95792 343
51.97803 313
51.99814 285
52.01826 335
52.03837 305
52.05848 324
52.0786 308
52.09871 305
52.11883 310
52.13894 332
52.15905 325
52.17917 323
52.19928 296
52.21939 318
52.23951 330
52.25962 349
52.27974 337
52.29985 315
52.31996 330
52.34008 317
52.36019 353
52.3803 330
52.40042 351
52.42053 303
52.44064 343
52.46076 302
52.48087 323
52.50099 325
52.5211 332
52.54121 330
52.56133 299
52.58144 327
52.60155 344
52.62167 317
52.64178 328
52.6619 341
52.68201 358
52.70212 334
52.72224 323
52.74235 350
52.76246 332
52.78258 373
52.80269 343
52.8228 319
52.84292 349
52.86303 372
52.88315 378
52.90326 358
52.92337 367
52.94349 324
52.9636 385
52.98371 383
53.00383 373
53.02394 339
53.04406 339
53.06417 318
53.08428 338
53.1044 321
53.12451 337
53.14462 349
53.16474 380
53.18485 376
53.20497 341
53.22508 363
53.24519 378
53.26531 381
53.28542 376
53.30553 361
53.32565 343
53.34576 378
53.36587 391
53.38599 403
53.4061 361
53.42622 385
53.44633 392
53.46644 397
53.48656 406
53.50667 385
53.52678 399
53.5469 395
53.56701 409
53.58713 424
53.60724 403
53.62735 430
53.64747 414
53.66758 425
53.68769 407
53.70781 430
53.72792 390
53.74804 410
53.76815 386
53.78826 441
53.80838 403
53.82849 380
53.8486 397
53.86872 405
53.88883 398
53.90894 428
53.92906 432
53.94917 424
53.96929 430
53.9894 374
54.00951 391
54.02963 398
54.04974 431
54.06985 419
54.08997 391
54.11008 401
54.1302 422
54.15031 409
54.17042 449
54.19054 421
54.21065 432
54.23076 418
54.25088 418
54.27099 442
54.29111 469
54.31122 405
54.33133 458
54.35145 451
54.37156 417
54.39167 424
54.41179 422
54.4319 443
54.45201 409
54.47213 424
54.49224 415
54.51236 443
54.53247 413
54.55258 438
54.5727 462
54.59281 470
54.61292 456
54.63304 477
54.65315 522
54.67327 556
54.69338 616
54.71349 627
54.73361 703
54.75372 785
54.77383 819
54.79395 851
54.81406 865
54.83417 957
54.85429 906
54.8744 786
54.89452 759
54.91463 699
54.93474 662
54.95486 632
54.97497 675
54.99508 619
55.0152 631
55.03531 598
55.05543 508
55.07554 489
55.09565 516
55.11577 507
55.13588 548
55.15599 533
55.17611 580
55.19622 612
55.21634 613
55.23645 637
55.25656 627
55.27668 654
55.29679 598
55.3169 591
55.33702 618
55.35713 540
55.37724 516
55.39736 498
55.41747 529
55.43759 518
55.4577 496
55.47781 476
55.49793 465
55.51804 440
55.53815 428
55.55827 422
55.57838 449
55.5985 421
55.61861 443
55.63872 460
55.65884 453
55.67895 485
55.69906 424
55.71918 451
55.73929 417
55.75941 448
55.77952 468
55.79963 481
55.81975 438
55.83986 417
55.85997 447
55.88009 405
55.9002 453
55.92031 429
55.94043 400
55.96054 423
55.98066 377
56.00077 406
56.02088 407
56.041 378
56.06111 344
56.08122 391
56.10134 353
56.12145 393
56.14157 354
56.16168 357
56.18179 352
56.20191 396
56.22202 407
56.24213 386
56.26225 336
56.28236 375
56.30248 390
56.32259 355
56.3427 357
56.36282 353
56.38293 397
56.40304 388
56.42316 368
56.44327 348
56.46338 396
56.4835 359
56.50361 375
56.52373 375
56.54384 358
56.56395 378
56.58407 370
56.60418 361
56.62429 378
56.64441 361
56.66452 386
56.68464 369
56.70475 389
56.72486 340
56.74498 383
56.76509 392
56.7852 359
56.80532 358
56.82543 369
56.84554 371
56.86566 367
56.88577 373
56.90589 366
56.926 377
56.94611 378
56.96623 372
56.98634 348
57.00645 359
57.02657 315
57.04668 370
57.0668 373
57.08691 357
57.10702 355
57.12714 376
57.14725 333
57.16736 389
57.18748 329
57.20759 404
57.22771 372
57.24782 386
57.26793 379
57.28805 383
57.30816 374
57.32827 358
57.34839 364
57.3685 399
57.38861 363
57.40873 362
57.42884 345
57.44896 343
57.46907 365
57.48918 368
57.5093 376
57.52941 365
57.54952 366
57.56964 390
57.58975 345
57.60987 372
57.62998 385
57.65009 385
57.67021 349
57.69032 366
57.71043 353
57.73055 377
57.75066 327
57.77078 392
57.79089 362
57.811 368
57.83112 335
57.85123 346
57.87134 331
57.89146 326
57.91157 380
57.93168 327
57.9518 319
57.97191 319
57.99203 337
58.01214 321
58.03225 348
58.05237 341
58.07248 305
58.09259 312
58.11271 336
58.13282 328
58.15294 308
58.17305 302
58.19316 329
58.21328 339
58.23339 341
58.2535 360
58.27362 337
58.29373 311
58.31385 316
58.33396 345
58.35407 303
58.37419 345
58.3943 324
58.41441 332
58.43453 324
58.45464 329
58.47475 353
58.49487 350
58.51498 340
58.5351 343
58.55521 313
58.57532 371
58.59544 332
58.61555 327
58.63566 311
58.65578 326
58.67589 315
58.69601 323
58.71612 317
58.73623 329
58.75635 359
58.77646 347
58.79657 328
58.81669 326
58.8368 360
58.85691 334
58.87703 328
58.89714 341
58.91726 350
58.93737 356
58.95748 347
58.9776 316
58.99771 383
59.01782 351
59.03794 373
59.05805 385
59.07817 364
59.09828 352
59.11839 366
59.13851 361
59.15862 355
59.17873 382
59.19885 357
59.21896 351
59.23908 429
59.25919 360
59.2793 401
59.29942 416
59.31953 355
59.33964 375
59.35976 383
59.37987 400
59.39998 378
59.4201 405
59.44021 383
59.46033 395
59.48044 379
59.50055 404
59.52067 406
59.54078 441
59.56089 401
59.58101 454
59.60112 480
59.62124 456
59.64135 457
59.66146 524
59.68158 522
59.70169 636
59.7218 583
59.74192 719
59.76203 769
59.78215 876
59.80226 985
59.82237 1135
59.84249 1200
59.8626 1342
59.88271 1467
59.90283 1486
59.92294 1443
59.94305 1291
59.96317 1179
59.98328 1092
60.0034 1001
60.02351 922
60.04362 913
60.06374 933
60.08385 854
60.10396 787
60.12408 702
60.14419 599
60.16431 545
60.18442 433
60.20453 457
60.22465 439
60.24476 384
60.26487 417
60.28499 398
60.3051 402
60.32522 365
60.34533 387
60.36544 375
60.38556 390
60.40567 376
60.42578 353
60.4459 390
60.46601 378
60.48612 379
60.50624 375
60.52635 371
60.54647 358
60.56658 349
60.58669 378
60.60681 372
60.62692 382
60.64703 358
60.66715 376
60.68726 368
60.70738 358
60.72749 361
60.7476 376
60.76772 355
60.78783 377
60.80794 350
60.82806 380
60.84817 365
60.86828 358
60.8884 335
60.90851 371
60.92863 339
60.94874 364
60.96885 362
60.98897 378
61.00908 357
61.02919 372
61.04931 361
61.06942 335
61.08954 324
61.10965 405
61.12976 362
61.14988 350
61.16999 357
61.1901 367
61.21022 365
61.23033 389
61.25045 350
61.27056 350
61.29067 377
61.31079 415
61.3309 347
61.35101 378
61.37113 405
61.39124 402
61.41135 446
61.43147 433
61.45158 429
61.4717 428
61.49181 476
61.51192 467
61.53204 475
61.55215 522
61.57226 472
61.59238 545
61.61249 539
61.63261 561
61.65272 584
61.67283 564
61.69295 555
61.71306 527
61.73317 512
61.75329 536
61.7734 531
61.79352 542
61.81363 514
61.83374 471
61.85386 469
61.87397 477
61.89408 473
61.9142 454
61.93431 411
61.95442 427
61.97454 415
61.99465 448
62.01477 444
62.03488 453
62.05499 425
62.07511 424
62.09522 415
62.11533 394
62.13545 371
62.15556 373
62.17568 413
62.19579 386
62.2159 437
62.23602 374
62.25613 448
62.27624 441
62.29636 405
62.31647 424
62.33659 388
62.3567 390
62.37681 401
62.39693 335
62.41704 389
62.43715 361
62.45727 392
62.47738 394
62.49749 366
62.51761 396
62.53772 383
62.55784 365
62.57795 370
62.59806 370
62.61818 370
62.63829 353
62.6584 361
62.67852 367
62.69863 374
62.71875 349
62.73886 348
62.75897 317
62.77909 353
62.7992 361
62.81931 344
62.83943 343
62.85954 348
62.87965 297
62.89977 355
62.91988 344
62.94 351
62.96011 367
62.98022 378
63.00034 309
63.02045 345
63.04056 363
63.06068 333
63.08079 314
63.10091 310
63.12102 309
63.14113 308
63.16125 343
63.18136 342
63.20147 347
63.22159 314
63.2417 341
63.26182 324
63.28193 338
63.30204 346
63.32216 358
63.34227 354
63.36238 353
63.3825 350
63.40261 323
63.42272 333
63.44284 370
63.46295 328
63.48307 368
63.50318 354
63.52329 352
63.54341 347
63.56352 334
63.58363 318
63.60375 345
63.62386 369
63.64398 351
63.66409 374
63.6842 332
63.70432 368
63.72443 362
63.74454 393
63.76466 404
63.78477 395
63.80489 392
63.825 449
63.84511 427
63.86523 440
63.88534 508
63.90545 532
63.92557 515
63.94568 521
63.96579 587
63.98591 571
64.00602 532
64.02614 531
64.04625 464
64.06636 478
64.08648 491
64.10659 451
64.1267 454
64.14682 461
64.16693 473
64.18705 438
64.20716 445
64.22727 410
64.24739 369
64.2675 354
64.28761 369
64.30773 340
64.32784 374
64.34796 346
64.36807 325
64.38818 353
64.4083 350
64.42841 367
64.44852 361
64.46864 334
64.48875 331
64.50886 315
64.52898 307
64.54909 325
64.56921 333
64.58932 338
64.60943 349
64.62955 311
64.64966 342
64.66977 338
64.68989 346
64.71 328
64.73012 322
64.75023 314
64.77034 352
64.79046 376
64.81057 333
64.83068 345
64.8508 333
64.87091 346
64.89102 305
64.91114 313
64.93125 320
64.95137 319
64.97148 334
64.99159 301
65.01171 297
65.03182 326
65.05193 325
65.07205 326
65.09216 374
65.11228 330
65.13239 329
65.1525 355
65.17262 337
65.19273 331
65.21284 303
65.23296 297
65.25307 323
65.27319 307
65.2933 341
65.31341 334
65.33353 348
65.35364 332
65.37375 308
65.39387 303
65.41398 329
65.43409 333
65.45421 312
65.47432 331
65.49444 318
65.51455 336
65.53466 337
65.55478 346
65.57489 366
65.595 363
65.61512 326
65.63523 322
65.65535 363
65.67546 372
65.69557 353
65.71569 420
65.7358 376
65.75591 368
65.77603 348
65.79614 371
65.81626 328
65.83637 319
65.85648 333
65.8766 353
65.89671 349
65.91682 333
65.93694 356
65.95705 369
65.97716 332
65.99728 346
66.01739 314
66.03751 357
66.05762 335
66.07773 339
66.09785 323
66.11796 332
66.13807 311
66.15819 308
66.1783 313
66.19842 324
66.21853 319
66.23864 329
66.25876 302
66.27887 320
66.29898 349
66.3191 342
66.33921 307
66.35933 310
66.37944 283
66.39955 321
66.41967 303
66.43978 316
66.45989 312
66.48001 360
66.50012 322
66.52023 325
66.54035 313
66.56046 304
66.58058 296
66.60069 338
66.6208 326
66.64092 339
66.66103 333
66.68114 318
66.70126 315
66.72137 330
66.74149 339
66.7616 305
66.78171 335
66.80183 324
66.82194 319
66.84205 353
66.86217 310
66.88228 323
66.90239 365
66.92251 321
66.94262 344
66.96274 315
66.98285 358
67.00296 343
67.02308 309
67.04319 355
67.0633 357
67.08342 329
67.10353 310
67.12365 353
67.14376 353
67.16387 322
67.18399 353
67.2041 341
67.22421 383
67.24433 352
67.26444 342
67.28456 361
67.30467 380
67.32478 361
67.3449 361
67.36501 417
67.38512 382
67.40524 450
67.42535 398
67.44546 431
67.46558 484
67.48569 511
67.50581 531
67.52592 577
67.54603 564
67.56615 650
67.58626 769
67.60637 765
67.62649 933
67.6466 903
67.66672 989
67.68683 992
67.70694 984
67.72706 916
67.74717 885
67.76728 756
67.7874 751
67.80751 767
67.82763 806
67.84774 799
67.86785 826
67.88797 820
67.90808 843
67.92819 849
67.94831 903
67.96842 890
67.98853 943
68.00865 1046
68.02876 1071
68.04888 1208
68.06899 1237
68.0891 1305
68.10922 1339
68.12933 1237
68.14944 1163
68.16956 1060
68.18967 1133
68.20979 1130
68.2299 1215
68.25001 1216
68.27013 1199
68.29024 1107
68.31035 998
68.33047 929
68.35058 821
68.3707 684
68.39081 675
68.41092 608
68.43104 634
68.45115 602
68.47126 557
68.49138 492
68.51149 492
68.5316 484
68.55172 436
68.57183 403
68.59195 347
68.61206 365
68.63217 339
68.65229 376
68.6724 357
68.69251 363
68.71263 371
68.73274 374
68.75286 393
68.77297 366
68.79308 359
68.8132 361
68.83331 372
68.85342 352
68.87354 386
68.89365 376
68.91376 322
68.93388 370
68.95399 354
68.97411 330
68.99422 344
69.01433 328
69.03445 336
69.05456 315
69.07467 331
69.09479 352
69.1149 365
69.13502 336
69.15513 375
69.17524 319
69.19536 352
69.21547 323
69.23558 328
69.2557 359
69.27581 364
69.29593 377
69.31604 346
69.33615 374
69.35627 361
69.37638 376
69.39649 355
69.41661 402
69.43672 395
69.45683 382
69.47695 369
69.49706 409
69.51718 366
69.53729 333
69.5574 352
69.57752 346
69.59763 382
69.61774 358
69.63786 349
69.65797 325
69.67809 341
69.6982 339
69.71831 351
69.73843 361
69.75854 393
69.77865 378
69.79877 341
69.81888 352
69.839 336
69.85911 347
69.87922 363
69.89934 340
69.91945 345
69.93956 329
69.95968 371
69.97979 335
69.9999 306
70.02002 370
70.04013 358
70.06025 323
70.08036 320
70.10047 343
70.12059 328
70.1407 348
70.16081 320
70.18093 351
70.20104 343
70.22116 372
70.24127 330
70.26138 354
70.2815 348
70.30161 339
70.32172 334
70.34184 329
70.36195 341
70.38207 345
70.40218 333
70.42229 338
70.44241 328
70.46252 313
70.48263 292
70.50275 326
70.52286 323
70.54297 334
70.56309 348
70.5832 363
70.60332 314
70.62343 329
70.64354 309
70.66366 304
70.68377 311
70.70388 333
70.724 330
70.74411 316
70.76423 307
70.78434 304
70.80445 323
70.82457 312
70.84468 306
70.86479 328
70.88491 326
70.90502 295
70.92513 305
70.94525 301
70.96536 326
70.98548 320
71.00559 311
71.0257 321
71.04582 314
71.06593 321
71.08604 310
71.10616 316
71.12627 317
71.14639 296
71.1665 286
71.18661 322
71.20673 313
71.22684 345
71.24695 330
71.26707 310
71.28718 320
71.3073 305
71.32741 315
71.34752 332
71.36764 319
71.38775 293
71.40786 337
71.42798 329
71.44809 342
71.4682 317
71.48832 324
71.50843 310
71.52855 307
71.54866 366
71.56877 308
71.58889 329
71.609 307
71.62911 306
71.64923 320
71.66934 317
71.68946 306
71.70957 340
71.72968 305
71.7498 299
71.76991 300
71.79002 336
71.81014 323
71.83025 317
71.85037 335
71.87048 301
71.89059 313
71.91071 357
71.93082 322
71.95093 302
71.97105 369
71.99116 321
72.01127 301
72.03139 334
72.0515 306
72.07162 306
72.09173 316
72.11184 353
72.13196 331
72.15207 301
72.17218 333
72.1923 296
72.21241 319
72.23253 297
72.25264 328
72.27275 317
72.29287 325
72.31298 355
72.33309 353
72.35321 307
72.37332 339
72.39344 347
72.41355 324
72.43366 340
72.45378 383
72.47389 336
72.494 359
72.51412 354
72.53423 350
72.55434 332
72.57446 343
72.59457 346
72.61469 380
72.6348 364
72.65491 389
72.67503 361
72.69514 367
72.71525 376
72.73537 359
72.75548 393
72.7756 391
72.79571 362
72.81582 388
72.83594 395
72.85605 367
72.87616 370
72.89628 364
72.91639 373
72.9365 363
72.95662 389
72.97673 368
72.99685 371
73.01696 372
73.03707 375
73.05719 370
73.0773 351
73.09741 393
73.11753 391
73.13764 383
73.15776 427
73.17787 387
73.19798 406
73.2181 394
73.23821 439
73.25832 419
73.27844 479
73.29855 491
73.31867 491
73.33878 530
73.35889 573
73.37901 544
73.39912 610
73.41923 578
73.43935 561
73.45946 511
73.47957 469
73.49969 455
73.5198 511
73.53992 460
73.56003 446
73.58014 455
73.60026 449
73.62037 456
73.64048 422
73.6606 455
73.68071 388
73.70083 397
73.72094 383
73.74105 347
73.76117 362
73.78128 359
73.80139 339
73.82151 332
73.84162 337
73.86174 337
73.88185 303
73.90196 326
73.92208 342
73.94219 338
73.9623 317
73.98242 342
74.00253 316
74.02264 311
74.04276 311
74.06287 369
74.08299 330
74.1031 318
74.12321 304
74.14333 289
74.16344 335
74.18355 337
74.20367 321
74.22378 321
74.2439 307
74.26401 319
74.28412 358
74.30424 331
74.32435 334
74.34446 317
74.36458 321
74.38469 327
74.40481 310
74.42492 301
74.44503 324
74.46515 330
74.48526 341
74.50537 326
74.52549 325
74.5456 346
74.56571 309
74.58583 330
74.60594 315
74.62606 344
74.64617 309
74.66628 292
74.6864 274
74.70651 307
74.72662 297
74.74674 304
74.76685 306
74.78697 332
74.80708 355
74.82719 341
74.84731 294
74.86742 328
74.88753 318
74.90765 363
74.92776 337
74.94787 330
74.96799 309
74.9881 306
75.00822 294
