3.00117 16218
3.02128 15439
3.0414 15512
3.06151 14550
3.08162 14435
3.10174 14121
3.12185 13168
3.14197 12843
3.16208 12429
3.18219 12288
3.20231 11934
3.22242 11274
3.24253 11245
3.26265 10513
3.28276 10316
3.30288 10043
3.32299 9544
3.3431 9601
3.36322 8850
3.38333 8528
3.40344 8333
3.42356 7778
3.44367 7850
3.46379 7491
3.4839 7150
3.50401 7121
3.52413 6616
3.54424 6463
3.56435 6105
3.58447 5919
3.60458 5766
3.62469 5111
3.64481 5398
3.66492 4968
3.68504 4815
3.70515 4723
3.72526 4351
3.74538 4263
3.76549 4053
3.7856 3914
3.80572 3747
3.82583 3434
3.84595 3342
3.86606 3140
3.88617 3107
3.90629 2988
3.9264 2687
3.94651 2714
3.96663 2522
3.98674 2407
4.00686 2469
4.02697 2114
4.04708 2310
4.0672 2101
4.08731 1979
4.10742 2142
4.12754 1792
4.14765 1748
4.16776 1796
4.18788 1670
4.20799 1758
4.22811 1487
4.24822 1605
4.26833 1531
4.28845 1449
4.30856 1529
4.32867 1305
4.34879 1348
4.3689 1354
4.38902 1312
4.40913 1309
4.42924 1202
4.44936 1154
4.46947 1194
4.48958 1183
4.5097 1132
4.52981 1108
4.54992 1066
4.57004 1033
4.59015 1018
4.61027 1036
4.63038 959
4.65049 889
4.67061 998
4.69072 861
4.71083 937
4.73095 899
4.75106 864
4.77118 937
4.79129 850
4.8114 830
4.83152 767
4.85163 711
4.87174 787
4.89186 733
4.91197 785
4.93209 706
4.9522 662
4.97231 721
4.99243 672
5.01254 650
5.03265 627
5.05277 620
5.07288 618
5.09299 619
5.11311 541
5.13322 577
5.15334 559
5.17345 554
5.19356 537
5.21368 550
5.23379 518
5.2539 490
5.27402 512
5.29413 523
5.31425 496
5.33436 474
5.35447 496
5.37459 466
5.3947 481
5.41481 417
5.43493 443
5.45504 456
5.47516 458
5.49527 439
5.51538 434
5.5355 406
5.55561 390
5.57572 422
5.59584 384
5.61595 384
5.63606 379
5.65618 354
5.67629 360
5.69641 364
5.71652 342
5.73663 363
5.75675 355
5.77686 333
5.79697 375
5.81709 380
5.8372 353
5.85732 352
5.87743 361
5.89754 358
5.91766 339
5.93777 338
5.95788 328
5.978 337
5.99811 346
6.01823 346
6.03834 332
6.05845 312
6.07857 340
6.09868 298
6.11879 310
6.13891 348
6.15902 305
6.17913 308
6.19925 332
6.21936 300
6.23948 309
6.25959 339
6.2797 310
6.29982 297
6.31993 349
6.34004 331
6.36016 318
6.38027 292
6.40039 330
6.4205 341
6.44061 303
6.46073 313
6.48084 303
6.50095 338
6.52107 272
6.54118 313
6.56129 320
6.58141 314
6.60152 320
6.62164 332
6.64175 326
6.66186 273
6.68198 297
6.70209 300
6.7222 277
6.74232 279
6.76243 279
6.78255 273
6.80266 279
6.82277 299
6.84289 322
6.863 265
6.88311 302
6.90323 243
6.92334 296
6.94346 281
6.96357 251
6.98368 266
7.0038 270
7.02391 311
7.04402 284
7.06414 295
7.08425 274
7.10436 288
7.12448 261
7.14459 253
7.16471 297
7.18482 245
7.20493 289
7.22505 280
7.24516 281
7.26527 277
7.28539 290
7.3055 275
7.32562 307
7.34573 255
7.36584 288
7.38596 299
7.40607 278
7.42618 274
7.4463 292
7.46641 330
7.48653 273
7.50664 300
7.52675 293
7.54687 273
7.56698 289
7.58709 272
7.60721 297
7.62732 287
7.64743 280
7.66755 285
7.68766 294
7.70778 301
7.72789 318
7.748 294
7.76812 270
7.78823 284
7.80834 275
7.82846 312
7.84857 314
7.86869 297
7.8888 297
7.90891 261
7.92903 314
7.94914 307
7.96925 304
7.98937 301
8.00948 295
8.0296 335
8.04971 356
8.06982 328
8.08994 340
8.11005 309
8.13016 318
8.15028 319
8.17039 307
8.1905 353
8.21062 362
8.23073 369
8.25085 306
8.27096 313
8.29107 341
8.31119 375
8.3313 410
8.35141 382
8.37153 356
8.39164 410
8.41176 372
8.43187 406
8.45198 412
8.4721 403
8.49221 426
8.51232 417
8.53244 459
8.55255 429
8.57266 433
8.59278 498
8.61289 487
8.63301 510
8.65312 527
8.67323 540
8.69335 536
8.71346 551
8.73357 527
8.75369 621
8.7738 638
8.79392 541
8.81403 561
8.83414 596
8.85426 518
8.87437 517
8.89448 542
8.9146 460
8.93471 386
8.95483 415
8.97494 380
8.99505 381
9.01517 354
9.03528 319
9.05539 322
9.07551 313
9.09562 334
9.11573 325
9.13585 340
9.15596 334
9.17608 328
9.19619 313
9.2163 334
9.23642 326
9.25653 283
9.27664 301
9.29676 290
9.31687 289
9.33699 303
9.3571 310
9.37721 287
9.39733 261
9.41744 316
9.43755 286
9.45767 286
9.47778 315
9.4979 270
9.51801 324
9.53812 287
9.55824 270
9.57835 281
9.59846 280
9.61858 309
9.63869 292
9.6588 330
9.67892 289
9.69903 296
9.71915 310
9.73926 314
9.75937 270
9.77949 301
9.7996 338
9.81971 278
9.83983 288
9.85994 255
9.88006 255
9.90017 254
9.92028 262
9.9404 292
9.96051 272
9.98062 295
10.00074 283
10.02085 291
10.04097 286
10.06108 273
10.08119 335
10.10131 297
10.12142 259
10.14153 277
10.16165 282
10.18176 310
10.20187 274
10.22199 266
10.2421 298
10.26222 297
10.28233 296
10.30244 291
10.32256 308
10.34267 325
10.36278 317
10.3829 383
10.40301 349
10.42313 364
10.44324 384
10.46335 362
10.48347 387
10.50358 344
10.52369 327
10.54381 303
10.56392 287
10.58403 276
10.60415 281
10.62426 309
10.64438 286
10.66449 305
10.6846 259
10.70472 275
10.72483 278
10.74494 280
10.76506 253
10.78517 261
10.80529 266
10.8254 256
10.84551 285
10.86563 272
10.88574 286
10.90585 276
10.92597 306
10.94608 308
10.9662 298
10.98631 326
11.00642 304
11.02654 316
11.04665 290
11.06676 320
11.08688 298
11.10699 272
11.1271 316
11.14722 265
11.16733 308
11.18745 317
11.20756 295
11.22767 276
11.24779 283
11.2679 309
11.28801 275
11.30813 279
11.32824 267
11.34836 290
11.36847 261
11.38858 258
11.4087 284
11.42881 279
11.44892 290
11.46904 271
11.48915 282
11.50927 260
11.52938 255
11.54949 252
11.56961 255
11.58972 279
11.60983 283
11.62995 295
11.65006 277
11.67017 275
11.69029 314
11.7104 280
11.73052 297
11.75063 255
11.77074 266
11.79086 309
11.81097 291
11.83108 273
11.8512 275
11.87131 326
11.89143 281
11.91154 324
11.93165 277
11.95177 319
11.97188 304
11.99199 311
12.01211 328
12.03222 298
12.05234 288
12.07245 275
12.09256 321
12.11268 298
12.13279 297
12.1529 311
12.17302 324
12.19313 280
12.21324 288
12.23336 297
12.25347 296
12.27359 330
12.2937 326
12.31381 348
12.33393 304
12.35404 289
12.37415 312
12.39427 283
12.41438 278
12.4345 260
12.45461 292
12.47472 288
12.49484 256
12.51495 296
12.53506 271
12.55518 290
12.57529 262
12.5954 284
12.61552 274
12.63563 250
12.65575 279
12.67586 277
12.69597 251
12.71609 291
12.7362 279
12.75631 266
12.77643 303
12.79654 297
12.81666 281
12.83677 271
12.85688 284
12.877 277
12.89711 230
12.91722 265
12.93734 306
12.95745 259
12.97757 280
12.99768 290
13.01779 252
13.03791 270
13.05802 283
13.07813 253
13.09825 260
13.11836 279
13.13847 274
13.15859 274
13.1787 286
13.19882 263
13.21893 279
13.23904 280
13.25916 234
13.27927 272
13.29938 264
13.3195 266
13.33961 269
13.35973 247
13.37984 254
13.39995 282
13.42007 263
13.44018 265
13.46029 257
13.48041 325
13.50052 262
13.52064 271
13.54075 273
13.56086 291
13.58098 280
13.60109 287
13.6212 285
13.64132 257
13.66143 290
13.68154 271
13.70166 294
13.72177 335
13.74189 354
13.762 360
13.78211 394
13.80223 449
13.82234 454
13.84245 441
13.86257 458
13.88268 408
13.9028 426
13.92291 356
13.94302 332
13.96314 329
13.98325 347
14.00336 286
14.02348 311
14.04359 299
14.06371 291
14.08382 271
14.10393 252
14.12405 269
14.14416 255
14.16427 238
14.18439 244
14.2045 256
14.22461 249
14.24473 243
14.26484 289
14.28496 275
14.30507 260
14.32518 278
14.3453 249
14.36541 266
14.38552 248
14.40564 254
14.42575 261
14.44587 249
14.46598 223
14.48609 258
14.50621 253
14.52632 247
14.54643 246
14.56655 275
14.58666 269
14.60677 232
14.62689 245
14.647 284
14.66712 250
14.68723 250
14.70734 289
14.72746 268
14.74757 265
14.76768 264
14.7878 261
14.80791 279
14.82803 237
14.84814 252
14.86825 278
14.88837 253
14.90848 263
14.92859 287
14.94871 261
14.96882 305
14.98894 279
15.00905 302
15.02916 309
15.04928 295
15.06939 275
15.0895 299
15.10962 280
15.12973 290
15.14984 281
15.16996 293
15.19007 275
15.21019 256
15.2303 261
15.25041 236
15.27053 247
15.29064 264
15.31075 225
15.33087 270
15.35098 222
15.3711 253
15.39121 239
15.41132 256
15.43144 282
15.45155 253
15.47166 245
15.49178 256
15.51189 275
15.53201 255
15.55212 260
15.57223 243
15.59235 246
15.61246 227
15.63257 243
15.65269 238
15.6728 256
15.69291 269
15.71303 264
15.73314 274
15.75326 284
15.77337 276
15.79348 262
15.8136 251
15.83371 267
15.85382 235
15.87394 250
15.89405 265
15.91417 274
15.93428 259
15.95439 238
15.97451 256
15.99462 272
16.01473 240
16.03485 275
16.05496 259
16.07508 234
16.09519 217
16.1153 243
16.13542 248
16.15553 260
16.17564 274
16.19576 251
16.21587 263
16.23598 239
16.2561 243
16.27621 229
16.29633 273
16.31644 245
16.33655 256
16.35667 206
16.37678 254
16.39689 230
16.41701 236
16.43712 237
16.45724 234
16.47735 225
16.49746 240
16.51758 233
16.53769 240
16.5578 235
16.57792 268
16.59803 244
16.61814 230
16.63826 235
16.65837 268
16.67849 230
16.6986 244
16.71871 255
16.73883 227
16.75894 260
16.77905 250
16.79917 231
16.81928 269
16.8394 238
16.85951 264
16.87962 226
16.89974 279
16.91985 251
16.93996 249
16.96008 232
16.98019 262
17.00031 214
17.02042 238
17.04053 260
17.06065 242
17.08076 228
17.10087 241
17.12099 265
17.1411 249
17.16121 246
17.18133 247
17.20144 242
17.22156 244
17.24167 234
17.26178 259
17.2819 235
17.30201 254
17.32212 261
17.34224 268
17.36235 258
17.38247 227
17.40258 269
17.42269 231
17.44281 278
17.46292 267
17.48303 290
17.50315 278
17.52326 284
17.54338 260
17.56349 333
17.5836 337
17.60372 354
17.62383 337
17.64394 387
17.66406 364
17.68417 345
17.70428 305
17.7244 320
17.74451 272
17.76463 284
17.78474 314
17.80485 268
17.82497 280
17.84508 253
17.86519 234
17.88531 254
17.90542 272
17.92554 300
17.94565 292
17.96576 298
17.98588 278
18.00599 258
18.0261 263
18.04622 259
18.06633 251
18.08645 288
18.10656 280
18.12667 238
18.14679 273
18.1669 256
18.18701 250
18.20713 250
18.22724 265
18.24735 238
18.26747 266
18.28758 257
18.3077 237
18.32781 236
18.34792 258
18.36804 245
18.38815 244
18.40826 268
18.42838 250
18.44849 274
18.46861 254
18.48872 206
18.50883 268
18.52895 243
18.54906 261
18.56917 243
18.58929 235
18.6094 234
18.62951 251
18.64963 244
18.66974 267
18.68986 259
18.70997 258
18.73008 243
18.7502 247
18.77031 269
18.79042 264
18.81054 262
18.83065 269
18.85077 241
18.87088 276
18.89099 258
18.91111 231
18.93122 268
18.95133 266
18.97145 289
18.99156 283
19.01168 263
19.03179 264
19.0519 230
19.07202 265
19.09213 273
19.11224 282
19.13236 291
19.15247 306
19.17258 321
19.1927 318
19.21281 301
19.23293 319
19.25304 369
19.27315 356
19.29327 391
19.31338 374
19.33349 335
19.35361 348
19.37372 354
19.39384 324
19.41395 318
19.43406 343
19.45418 319
19.47429 338
19.4944 337
19.51452 322
19.53463 344
19.55475 366
19.57486 344
19.59497 354
19.61509 367
19.6352 341
19.65531 373
19.67543 337
19.69554 371
19.71565 383
19.73577 400
19.75588 384
19.776 373
19.79611 410
19.81622 400
19.83634 380
19.85645 386
19.87656 390
19.89668 382
19.91679 352
19.93691 381
19.95702 358
19.97713 381
19.99725 379
20.01736 369
20.03747 368
20.05759 338
20.0777 347
20.09782 368
20.11793 365
20.13804 355
20.15816 381
20.17827 367
20.19838 354
20.2185 346
20.23861 369
20.25872 348
20.27884 358
20.29895 377
20.31907 319
20.33918 349
20.35929 367
20.37941 330
20.39952 360
20.41963 350
20.43975 393
20.45986 357
20.47998 383
20.50009 337
20.5202 381
20.54032 412
20.56043 381
20.58054 393
20.60066 429
20.62077 426
20.64088 485
20.661 542
20.68111 557
20.70123 707
20.72134 891
20.74145 1073
20.76157 1338
20.78168 1636
20.80179 1929
20.82191 2183
20.84202 2266
20.86214 1980
20.88225 1714
20.90236 1386
20.92248 1018
20.94259 789
20.9627 579
20.98282 523
21.00293 469
21.02305 432
21.04316 472
21.06327 436
21.08339 372
21.1035 382
21.12361 362
21.14373 373
21.16384 398
21.18395 361
21.20407 329
21.22418 356
21.2443 331
21.26441 308
21.28452 342
21.30464 329
21.32475 314
21.34486 344
21.36498 337
21.38509 335
21.40521 351
21.42532 343
21.44543 334
21.46555 348
21.48566 351
21.50577 319
21.52589 309
21.546 294
21.56612 366
21.58623 336
21.60634 347
21.62646 350
21.64657 331
21.66668 339
21.6868 337
21.70691 364
21.72702 351
21.74714 350
21.76725 361
21.78737 424
21.80748 425
21.82759 473
21.84771 553
21.86782 636
21.88793 769
21.90805 931
21.92816 1209
21.94828 1300
21.96839 1525
21.9885 1572
22.00862 1566
22.02873 1443
22.04884 1235
22.06896 1012
22.08907 868
22.10919 697
22.1293 624
22.14941 488
22.16953 440
22.18964 406
22.20975 428
22.22987 444
22.24998 452
22.27009 373
22.29021 408
22.31032 402
22.33044 369
22.35055 326
22.37066 360
22.39078 357
22.41089 323
22.431 325
22.45112 314
22.47123 303
22.49135 329
22.51146 333
22.53157 298
22.55169 327
22.5718 324
22.59191 328
22.61203 349
22.63214 320
22.65225 331
22.67237 383
22.69248 363
22.7126 315
22.73271 365
22.75282 359
22.77294 368
22.79305 385
22.81316 384
22.83328 385
22.85339 450
22.87351 464
22.89362 510
22.91373 562
22.93385 504
22.95396 497
22.97407 488
22.99419 464
23.0143 448
23.03442 400
23.05453 423
23.07464 429
23.09476 360
23.11487 405
23.13498 389
23.1551 362
23.17521 392
23.19532 360
23.21544 372
23.23555 392
23.25567 322
23.27578 337
23.29589 362
23.31601 363
23.33612 349
23.35623 391
23.37635 362
23.39646 389
23.41658 459
23.43669 467
23.4568 518
23.47692 575
23.49703 630
23.51714 788
23.53726 766
23.55737 817
23.57749 816
23.5976 796
23.61771 800
23.63783 702
23.65794 618
23.67805 576
23.69817 487
23.71828 495
23.73839 479
23.75851 479
23.77862 545
23.79874 569
23.81885 584
23.83896 631
23.85908 643
23.87919 635
23.8993 669
23.91942 648
23.93953 662
23.95965 618
23.97976 574
23.99987 541
24.01999 619
24.0401 546
24.06021 572
24.08033 586
24.10044 618
24.12056 676
24.14067 649
24.16078 731
24.1809 828
24.20101 790
24.22112 885
24.24124 895
24.26135 896
24.28146 903
24.30158 915
24.32169 843
24.34181 776
24.36192 724
24.38203 643
24.40215 539
24.42226 510
24.44237 454
24.46249 396
24.4826 401
24.50272 383
24.52283 391
24.54294 346
24.56306 363
24.58317 380
24.60328 373
24.6234 379
24.64351 335
24.66362 413
24.68374 373
24.70385 377
24.72397 381
24.74408 360
24.76419 356
24.78431 378
24.80442 380
24.82453 364
24.84465 335
24.86476 359
24.88488 377
24.90499 360
24.9251 353
24.94522 364
24.96533 333
24.98544 360
25.00556 404
25.02567 364
25.04579 325
25.0659 376
25.08601 348
25.10613 345
25.12624 366
25.14635 362
25.16647 395
25.18658 363
25.20669 380
25.22681 388
25.24692 374
25.26704 400
25.28715 434
25.30726 418
25.32738 425
25.34749 512
25.3676 502
25.38772 558
25.40783 591
25.42795 617
25.44806 653
25.46817 657
25.48829 625
25.5084 602
25.52851 682
25.54863 641
25.56874 564
25.58886 539
25.60897 509
25.62908 508
25.6492 471
25.66931 442
25.68942 433
25.70954 465
25.72965 449
25.74976 439
25.76988 399
25.78999 409
25.81011 463
25.83022 435
25.85033 435
25.87045 455
25.89056 397
25.91067 416
25.93079 400
25.9509 416
25.97102 497
25.99113 448
26.01124 413
26.03136 464
26.05147 543
26.07158 489
26.0917 537
26.11181 503
26.13193 612
26.15204 626
26.17215 631
26.19227 620
26.21238 636
26.23249 721
26.25261 709
26.27272 770
26.29283 776
26.31295 894
26.33306 948
26.35318 1207
26.37329 1259
26.3934 1346
26.41352 1548
26.43363 1839
26.45374 2224
26.47386 2738
26.49397 3229
26.51409 4232
26.5342 5511
26.55431 6983
26.57443 8174
26.59454 9258
26.61465 9445
26.63477 8711
26.65488 7316
26.67499 5625
26.69511 4164
26.71522 2900
26.73534 1992
26.75545 1339
26.77556 992
26.79568 812
26.81579 761
26.8359 783
26.85602 681
26.87613 678
26.89625 630
26.91636 623
26.93647 567
26.95659 589
26.9767 566
26.99681 597
27.01693 527
27.03704 578
27.05716 558
27.07727 541
27.09738 565
27.1175 543
27.13761 499
27.15772 459
27.17784 469
27.19795 464
27.21806 449
27.23818 490
27.25829 485
27.27841 460
27.29852 511
27.31863 504
27.33875 611
27.35886 612
27.37897 629
27.39909 679
27.4192 626
27.43932 645
27.45943 627
27.47954 646
27.49966 652
27.51977 664
27.53988 696
27.56 772
27.58011 858
27.60023 854
27.62034 981
27.64045 1159
27.66057 1340
27.68068 1529
27.70079 1808
27.72091 2014
27.74102 2209
27.76113 2331
27.78125 2337
27.80136 2430
27.82148 2361
27.84159 2377
27.8617 2409
27.88182 2413
27.90193 2387
27.92204 2287
27.94216 2354
27.96227 2149
27.98239 2041
28.0025 1758
28.02261 1518
28.04273 1326
28.06284 1167
28.08295 963
28.10307 902
28.12318 858
28.1433 841
28.16341 852
28.18352 836
28.20364 775
28.22375 846
28.24386 857
28.26398 911
28.28409 816
28.3042 834
28.32432 808
28.34443 718
28.36455 702
28.38466 621
28.40477 553
28.42489 534
28.445 503
28.46511 459
28.48523 416
28.50534 407
28.52546 419
28.54557 379
28.56568 348
28.5858 363
28.60591 336
28.62602 381
28.64614 341
28.66625 338
28.68636 295
28.70648 318
28.72659 347
28.74671 328
28.76682 292
28.78693 327
28.80705 295
28.82716 313
28.84727 296
28.86739 298
28.8875 316
28.90762 328
28.92773 319
28.94784 325
28.96796 326
28.98807 288
29.00818 353
29.0283 300
29.04841 301
29.06853 325
29.08864 344
29.10875 336
29.12887 351
29.14898 314
29.16909 325
29.18921 331
29.20932 271
29.22943 361
29.24955 313
29.26966 352
29.28978 338
29.30989 345
29.33 360
29.35012 340
29.37023 365
29.39034 339
29.41046 362
29.43057 339
29.45069 343
29.4708 346
29.49091 333
29.51103 371
29.53114 349
29.55125 379
29.57137 360
29.59148 363
29.6116 397
29.63171 450
29.65182 435
29.67194 502
29.69205 461
29.71216 514
29.73228 471
29.75239 532
29.7725 513
29.79262 490
29.81273 466
29.83285 483
29.85296 426
29.87307 438
29.89319 434
29.9133 451
29.93341 395
29.95353 445
29.97364 432
29.99376 467
30.01387 479
30.03398 453
30.0541 481
30.07421 487
30.09432 459
30.11444 438
30.13455 522
30.15467 532
30.17478 520
30.19489 593
30.21501 523
30.23512 559
30.25523 592
30.27535 669
30.29546 612
30.31557 716
30.33569 674
30.3558 734
30.37592 739
30.39603 728
30.41614 774
30.43626 837
30.45637 797
30.47648 745
30.4966 702
30.51671 616
30.53683 588
30.55694 504
30.57705 568
30.59717 472
30.61728 456
30.63739 490
30.65751 477
30.67762 509
30.69773 588
30.71785 627
30.73796 625
30.75808 670
30.77819 708
30.7983 677
30.81842 614
30.83853 575
30.85864 592
30.87876 526
30.89887 466
30.91899 410
30.9391 376
30.95921 395
30.97933 382
30.99944 354
31.01955 346
31.03967 331
31.05978 338
31.0799 339
31.10001 341
31.12012 347
31.14024 385
31.16035 383
31.18046 391
31.20058 388
31.22069 389
31.2408 409
31.26092 418
31.28103 428
31.30115 429
31.32126 435
31.34137 489
31.36149 457
31.3816 436
31.40171 480
31.42183 448
31.44194 396
31.46206 461
31.48217 385
31.50228 382
31.5224 346
31.54251 345
31.56262 407
31.58274 372
31.60285 389
31.62297 395
31.64308 390
31.66319 385
31.68331 400
31.70342 464
31.72353 440
31.74365 431
31.76376 405
31.78387 421
31.80399 421
31.8241 335
31.84422 367
31.86433 353
31.88444 315
31.90456 325
31.92467 328
31.94478 318
31.9649 325
31.98501 318
32.00513 330
32.02524 324
32.04535 374
32.06547 353
32.08558 332
32.10569 304
32.12581 298
32.14592 284
32.16604 277
32.18615 284
32.20626 297
32.22638 292
32.24649 325
32.2666 293
32.28672 293
32.30683 302
32.32694 302
32.34706 313
32.36717 291
32.38729 323
32.4074 262
32.42751 297
32.44763 316
32.46774 305
32.48785 309
32.50797 302
32.52808 268
32.5482 282
32.56831 297
32.58842 286
32.60854 290
32.62865 285
32.64876 285
32.66888 281
32.68899 282
32.7091 250
32.72922 245
32.74933 285
32.76945 296
32.78956 329
32.80967 296
32.82979 373
32.8499 310
32.87001 320
32.89013 317
32.91024 363
32.93036 343
32.95047 371
32.97058 323
32.9907 323
33.01081 337
33.03092 306
33.05104 323
33.07115 303
33.09127 313
33.11138 343
33.13149 349
33.15161 298
33.17172 324
33.19183 363
33.21195 365
33.23206 401
33.25217 391
33.27229 424
33.2924 433
33.31252 392
33.33263 401
33.35274 381
33.37286 377
33.39297 341
33.41308 371
33.4332 370
33.45331 353
33.47343 323
33.49354 344
33.51365 333
33.53377 296
33.55388 342
33.57399 320
33.59411 375
33.61422 357
33.63434 361
33.65445 367
33.67456 435
33.69468 379
33.71479 397
33.7349 452
33.75502 464
33.77513 433
33.79524 436
33.81536 459
33.83547 407
33.85559 459
33.8757 456
33.89581 464
33.91593 415
33.93604 429
33.95615 419
33.97627 392
33.99638 405
34.0165 437
34.03661 408
34.05672 429
34.07684 465
34.09695 458
34.11706 547
34.13718 548
34.15729 553
34.17741 537
34.19752 602
34.21763 589
34.23775 534
34.25786 593
34.27797 544
34.29809 556
34.3182 572
34.33831 522
34.35843 557
34.37854 574
34.39866 501
34.41877 559
34.43888 504
34.459 474
34.47911 529
34.49922 458
34.51934 447
34.53945 411
34.55957 425
34.57968 440
34.59979 356
34.61991 354
34.64002 342
34.66013 352
34.68025 377
34.70036 353
34.72047 353
34.74059 344
34.7607 371
34.78082 373
34.80093 398
34.82104 373
34.84116 429
34.86127 382
34.88138 403
34.9015 406
34.92161 465
34.94173 428
34.96184 471
34.98195 417
35.00207 432
35.02218 468
35.04229 444
35.06241 449
35.08252 442
35.10264 417
35.12275 428
35.14286 437
35.16298 423
35.18309 411
35.2032 439
35.22332 435
35.24343 468
35.26354 526
35.28366 519
35.30377 513
35.32389 595
35.344 536
35.36411 543
35.38423 528
35.40434 516
35.42445 503
35.44457 509
35.46468 455
35.4848 436
35.50491 457
35.52502 435
35.54514 410
35.56525 434
35.58536 416
35.60548 427
35.62559 386
35.64571 398
35.66582 374
35.68593 379
35.70605 381
35.72616 342
35.74627 382
35.76639 370
35.7865 317
35.80661 340
35.82673 370
35.84684 375
35.86696 354
35.88707 392
35.90718 368
35.9273 343
35.94741 342
35.96752 388
35.98764 400
36.00775 402
36.02787 374
36.04798 382
36.06809 400
36.08821 439
36.10832 372
36.12843 433
36.14855 361
36.16866 383
36.18878 383
36.20889 376
36.229 368
36.24912 401
36.26923 409
36.28934 418
36.30946 392
36.32957 451
36.34968 458
36.3698 524
36.38991 562
36.41003 620
36.43014 695
36.45025 776
36.47037 818
36.49048 926
36.51059 923
36.53071 872
36.55082 871
36.57094 768
36.59105 677
36.61116 698
36.63128 634
36.65139 595
36.6715 493
36.69162 506
36.71173 411
36.73184 448
36.75196 430
36.77207 475
36.79219 434
36.8123 494
36.83241 477
36.85253 445
36.87264 476
36.89275 450
36.91287 438
36.93298 516
36.9531 487
36.97321 461
36.99332 475
37.01344 455
37.03355 487
37.05366 446
37.07378 420
37.09389 378
37.11401 423
37.13412 355
37.15423 381
37.17435 399
37.19446 367
37.21457 409
37.23469 414
37.2548 416
37.27491 431
37.29503 471
37.31514 480
37.33526 478
37.35537 530
37.37548 465
37.3956 518
37.41571 451
37.43582 447
37.45594 484
37.47605 424
37.49617 461
37.51628 399
37.53639 417
37.55651 417
37.57662 414
37.59673 400
37.61685 382
37.63696 396
37.65708 378
37.67719 413
37.6973 355
37.71742 351
37.73753 338
37.75764 319
37.77776 313
37.79787 316
37.81798 328
37.8381 335
37.85821 288
37.87833 300
37.89844 265
37.91855 312
37.93867 323
37.95878 292
37.97889 290
37.99901 291
38.01912 280
38.03924 284
38.05935 283
38.07946 303
38.09958 315
38.11969 281
38.1398 274
38.15992 291
38.18003 285
38.20015 272
38.22026 315
38.24037 288
38.26049 321
38.2806 354
38.30071 299
38.32083 325
38.34094 290
38.36105 310
38.38117 281
38.40128 315
38.4214 307
38.44151 324
38.46162 326
38.48174 315
38.50185 318
38.52196 326
38.54208 295
38.56219 316
38.58231 321
38.60242 319
38.62253 327
38.64265 309
38.66276 321
38.68287 314
38.70299 279
38.7231 308
38.74321 315
38.76333 314
38.78344 337
38.80356 334
38.82367 334
38.84378 327
38.8639 355
38.88401 360
38.90412 323
38.92424 323
38.94435 350
38.96447 341
38.98458 354
39.00469 330
39.02481 387
39.04492 380
39.06503 409
39.08515 438
39.10526 410
39.12538 403
39.14549 447
39.1656 444
39.18572 409
39.20583 493
39.22594 465
39.24606 473
39.26617 485
39.28628 483
39.3064 494
39.32651 563
39.34663 653
39.36674 698
39.38685 798
39.40697 861
39.42708 890
39.44719 816
39.46731 728
39.48742 620
39.50754 629
39.52765 585
39.54776 530
39.56788 533
39.58799 420
39.6081 371
39.62822 358
39.64833 356
39.66845 340
39.68856 336
39.70867 309
39.72879 317
39.7489 301
39.76901 321
39.78913 305
39.80924 285
39.82935 312
39.84947 299
39.86958 329
39.8897 300
39.90981 270
39.92992 294
39.95004 298
39.97015 294
39.99026 291
40.01038 332
40.03049 313
40.05061 344
40.07072 323
40.09083 352
40.11095 354
40.13106 352
40.15117 424
40.17129 400
40.1914 513
40.21152 507
40.23163 500
40.25174 528
40.27186 579
40.29197 471
40.31208 437
40.3322 418
40.35231 368
40.37242 363
40.39254 359
40.41265 320
40.43277 320
40.45288 300
40.47299 281
40.49311 327
40.51322 282
40.53333 306
40.55345 287
40.57356 267
40.59368 304
40.61379 280
40.6339 283
40.65402 287
40.67413 269
40.69424 318
40.71436 325
40.73447 317
40.75458 317
40.7747 308
40.79481 314
40.81493 321
40.83504 288
40.85515 325
40.87527 276
40.89538 276
40.91549 263
40.93561 286
40.95572 303
40.97584 298
40.99595 283
41.01606 289
41.03618 291
41.05629 325
41.0764 285
41.09652 317
41.11663 313
41.13675 337
41.15686 347
41.17697 341
41.19709 311
41.2172 351
41.23731 357
41.25743 344
41.27754 335
41.29765 329
41.31777 330
41.33788 331
41.358 361
41.37811 360
41.39822 358
41.41834 351
41.43845 361
41.45856 369
41.47868 368
41.49879 347
41.51891 381
41.53902 382
41.55913 354
41.57925 405
41.59936 429
41.61947 393
41.63959 420
41.6597 402
41.67982 408
41.69993 418
41.72004 381
41.74016 387
41.76027 366
41.78038 390
41.8005 371
41.82061 352
41.84072 366
41.86084 358
41.88095 320
41.90107 311
41.92118 305
41.94129 338
41.96141 332
41.98152 328
42.00163 283
42.02175 340
42.04186 286
42.06198 336
42.08209 303
42.1022 299
42.12232 361
42.14243 338
42.16254 351
42.18266 397
42.20277 388
42.22289 425
42.243 451
42.26311 467
42.28323 465
42.30334 506
42.32345 544
42.34357 569
42.36368 674
42.38379 676
42.40391 675
42.42402 655
42.44414 684
42.46425 656
42.48436 561
42.50448 541
42.52459 508
42.5447 473
42.56482 435
42.58493 431
42.60505 361
42.62516 379
42.64527 378
42.66539 404
42.6855 397
42.70561 404
42.72573 433
42.74584 418
42.76595 402
42.78607 415
42.80618 433
42.8263 414
42.84641 397
42.86652 408
42.88664 407
42.90675 363
42.92686 365
42.94698 351
42.96709 360
42.98721 334
43.00732 310
43.02743 307
43.04755 307
43.06766 304
43.08777 315
43.10789 276
43.128 337
43.14812 285
43.16823 285
43.18834 304
43.20846 275
43.22857 270
43.24868 304
43.2688 273
43.28891 275
43.30902 282
43.32914 269
43.34925 263
43.36937 286
43.38948 279
43.40959 275
43.42971 274
43.44982 302
43.46993 312
43.49005 310
43.51016 320
43.53028 296
43.55039 307
43.5705 294
43.59062 292
43.61073 281
43.63084 304
43.65096 260
43.67107 274
43.69119 297
43.7113 315
43.73141 300
43.75153 253
43.77164 277
43.79175 266
43.81187 275
43.83198 269
43.85209 272
43.87221 249
43.89232 274
43.91244 260
43.93255 250
43.95266 254
43.97278 249
43.99289 270
44.013 286
44.03312 247
44.05323 256
44.07335 284
44.09346 258
44.11357 248
44.13369 271
44.1538 242
44.17391 260
44.19403 286
44.21414 234
44.23426 292
44.25437 272
44.27448 258
44.2946 251
44.31471 274
44.33482 244
44.35494 268
44.37505 253
44.39516 233
44.41528 253
44.43539 237
44.45551 247
44.47562 250
44.49573 287
44.51585 277
44.53596 279
44.55607 243
44.57619 278
44.5963 311
44.61642 304
44.63653 271
44.65664 284
44.67676 301
44.69687 307
44.71698 287
44.7371 321
44.75721 282
44.77732 317
44.79744 300
44.81755 324
44.83767 315
44.85778 315
44.87789 320
44.89801 321
44.91812 327
44.93823 291
44.95835 336
44.97846 300
44.99858 309
45.01869 332
45.0388 329
45.05892 368
45.07903 309
45.09914 359
45.11926 300
45.13937 357
45.15949 310
45.1796 299
45.19971 327
45.21983 326
45.23994 314
45.26005 306
45.28017 321
45.30028 332
45.32039 314
45.34051 345
45.36062 315
45.38074 351
45.40085 302
45.42096 356
45.44108 366
45.46119 349
45.4813 370
45.50142 342
45.52153 350
45.54165 386
45.56176 332
45.58187 351
45.60199 431
45.6221 392
45.64221 386
45.66233 463
45.68244 517
45.70256 511
45.72267 532
45.74278 515
45.7629 547
45.78301 534
45.80312 425
45.82324 406
45.84335 455
45.86346 412
45.88358 383
45.90369 335
45.92381 341
45.94392 296
45.96403 270
45.98415 270
46.00426 275
46.02437 243
46.04449 277
46.0646 308
46.08472 244
46.10483 278
46.12494 294
46.14506 255
46.16517 257
46.18528 264
46.2054 248
46.22551 280
46.24563 258
46.26574 252
46.28585 292
46.30597 267
46.32608 234
46.34619 278
46.36631 245
46.38642 210
46.40653 230
46.42665 294
46.44676 264
46.46688 262
46.48699 245
46.5071 236
46.52722 291
46.54733 262
46.56744 243
46.58756 286
46.60767 233
46.62779 276
46.6479 254
46.66801 278
46.68813 280
46.70824 241
46.72835 263
46.74847 285
46.76858 246
46.78869 262
46.80881 287
46.82892 269
46.84904 264
46.86915 248
46.88926 289
46.90938 271
46.92949 255
46.9496 270
46.96972 266
46.98983 264
47.00995 260
47.03006 285
47.05017 261
47.07029 301
47.0904 289
47.11051 292
47.13063 241
47.15074 255
47.17086 293
47.19097 260
47.21108 242
47.2312 276
47.25131 260
47.27142 289
47.29154 305
47.31165 275
47.33176 289
47.35188 278
47.37199 274
47.39211 300
47.41222 333
47.43233 265
47.45245 308
47.47256 288
47.49267 290
47.51279 303
47.5329 322
47.55302 281
47.57313 271
47.59324 271
47.61336 295
47.63347 320
47.65358 245
47.6737 274
47.69381 276
47.71393 285
47.73404 234
47.75415 256
47.77427 259
47.79438 265
47.81449 257
47.83461 284
47.85472 296
47.87483 263
47.89495 295
47.91506 315
47.93518 312
47.95529 288
47.9754 277
47.99552 273
48.01563 268
48.03574 279
48.05586 292
48.07597 310
48.09609 290
48.1162 347
48.13631 354
48.15643 325
48.17654 329
48.19665 328
48.21677 361
48.23688 342
48.257 344
48.27711 336
48.29722 343
48.31734 292
48.33745 342
48.35756 336
48.37768 342
48.39779 345
48.4179 316
48.43802 317
48.45813 310
48.47825 332
48.49836 345
48.51847 342
48.53859 343
48.5587 325
48.57881 308
48.59893 324
48.61904 318
48.63916 284
48.65927 261
48.67938 337
48.6995 286
48.71961 330
48.73972 282
48.75984 294
48.77995 294
48.80006 285
48.82018 274
48.84029 299
48.86041 298
48.88052 332
48.90063 277
48.92075 308
48.94086 285
48.96097 285
48.98109 322
49.0012 316
49.02132 310
49.04143 291
49.06154 304
49.08166 354
49.10177 357
49.12188 381
49.142 396
49.16211 387
49.18223 346
49.20234 365
49.22245 363
49.24257 336
49.26268 331
49.28279 316
49.30291 338
49.32302 326
49.34313 306
49.36325 271
49.38336 300
49.40348 307
49.42359 310
49.4437 281
49.46382 296
49.48393 273
49.50404 286
49.52416 309
49.54427 324
49.56439 319
49.5845 331
49.60461 339
49.62473 350
49.64484 375
49.66495 378
49.68507 387
49.70518 388
49.7253 443
49.74541 472
49.76552 505
49.78564 486
49.80575 498
49.82586 517
49.84598 582
49.86609 570
49.8862 592
49.90632 599
49.92643 653
49.94655 654
49.96666 725
49.98677 791
50.00689 852
50.027 1007
50.04711 1060
50.06723 1061
50.08734 1175
50.10746 1141
50.12757 978
50.14768 916
50.1678 738
50.18791 716
50.20802 676
50.22814 689
50.24825 654
50.26837 525
50.28848 468
50.30859 376
50.32871 344
50.34882 288
50.36893 294
50.38905 321
50.40916 338
50.42927 318
50.44939 343
50.4695 327
50.48962 323
50.50973 366
50.52984 355
50.54996 347
50.57007 362
50.59018 356
50.6103 349
50.63041 334
50.65053 326
50.67064 333
50.69075 346
50.71087 355
50.73098 329
50.75109 295
50.77121 307
50.79132 292
50.81143 321
50.83155 344
50.85166 268
50.87178 270
50.89189 259
50.912 298
50.93212 289
50.95223 298
50.97234 309
50.99246 267
51.01257 269
51.03269 295
51.0528 344
51.07291 345
51.09303 362
51.11314 333
51.13325 325
51.15337 354
51.17348 359
51.1936 369
51.21371 350
51.23382 371
51.25394 408
51.27405 398
51.29416 375
51.31428 356
51.33439 395
51.3545 375
51.37462 336
51.39473 326
51.41485 327
51.43496 298
51.45507 288
51.47519 288
51.4953 291
51.51541 284
51.53553 276
51.55564 252
51.57576 272
51.59587 259
51.61598 248
51.6361 271
51.65621 261
51.67632 269
51.69644 232
51.71655 242
51.73667 252
51.75678 236
51.77689 261
51.79701 254
51.81712 266
51.83723 209
51.85735 226
51.87746 243
51.89757 255
51.91769 275
51.9378 252
51.95792 252
51.97803 262
51.99814 236
52.01826 231
52.03837 253
52.05848 273
52.0786 266
52.09871 263
52.11883 271
52.13894 266
52.15905 280
52.17917 288
52.19928 290
52.21939 268
52.23951 264
52.25962 255
52.27974 289
52.29985 241
52.31996 310
52.34008 295
52.36019 289
52.3803 316
52.40042 287
52.42053 288
52.44064 324
52.46076 325
52.48087 288
52.50099 288
52.5211 326
52.54121 309
52.56133 263
52.58144 290
52.60155 315
52.62167 291
52.64178 291
52.6619 290
52.68201 273
52.70212 265
52.72224 242
52.74235 296
52.76246 262
52.78258 298
52.80269 270
52.8228 266
52.84292 236
52.86303 287
52.88315 293
52.90326 283
52.92337 279
52.94349 288
52.9636 294
52.98371 326
53.00383 294
53.02394 301
53.04406 313
53.06417 316
53.08428 307
53.1044 311
53.12451 329
53.14462 309
53.16474 316
53.18485 335
53.20497 321
53.22508 291
53.24519 291
53.26531 289
53.28542 272
53.30553 305
53.32565 282
53.34576 250
53.36587 285
53.38599 263
53.4061 274
53.42622 276
53.44633 276
53.46644 266
53.48656 239
53.50667 247
53.52678 298
53.5469 262
53.56701 262
53.58713 297
53.60724 281
53.62735 271
53.64747 281
53.66758 281
53.68769 276
53.70781 255
53.72792 295
53.74804 276
53.76815 303
53.78826 278
53.80838 303
53.82849 289
53.8486 261
53.86872 248
53.88883 282
53.90894 287
53.92906 317
53.94917 293
53.96929 280
53.9894 286
54.00951 284
54.02963 292
54.04974 293
54.06985 270
54.08997 314
54.11008 288
54.1302 286
54.15031 314
54.17042 315
54.19054 318
54.21065 288
54.23076 295
54.25088 298
54.27099 326
54.29111 307
54.31122 329
54.33133 329
54.35145 315
54.37156 340
54.39167 301
54.41179 328
54.4319 323
54.45201 290
54.47213 311
54.49224 283
54.51236 284
54.53247 316
54.55258 311
54.5727 313
54.59281 356
54.61292 336
54.63304 373
54.65315 389
54.67327 406
54.69338 420
54.71349 467
54.73361 483
54.75372 527
54.77383 519
54.79395 493
54.81406 562
54.83417 536
54.85429 480
54.8744 458
54.89452 457
54.91463 408
54.93474 435
54.95486 432
54.97497 404
54.99508 427
55.0152 333
55.03531 353
55.05543 345
55.07554 304
55.09565 309
55.11577 300
55.13588 338
55.15599 339
55.17611 357
55.19622 387
55.21634 403
55.23645 371
55.25656 369
55.27668 386
55.29679 380
55.3169 426
55.33702 338
55.35713 333
55.37724 324
55.39736 317
55.41747 355
55.43759 355
55.4577 325
55.47781 332
55.49793 295
55.51804 298
55.53815 285
55.55827 305
55.57838 294
55.5985 264
55.61861 281
55.63872 270
55.65884 275
55.67895 261
55.69906 273
55.71918 235
55.73929 289
55.75941 324
55.77952 275
55.79963 291
55.81975 299
55.83986 318
55.85997 317
55.88009 307
55.9002 309
55.92031 302
55.94043 310
55.96054 320
55.98066 325
56.00077 335
56.02088 360
56.041 343
56.06111 320
56.08122 325
56.10134 295
56.12145 327
56.14157 318
56.16168 305
56.18179 273
56.20191 309
56.22202 308
56.24213 281
56.26225 285
56.28236 274
56.30248 273
56.32259 276
56.3427 267
56.36282 277
56.38293 300
56.40304 314
56.42316 266
56.44327 296
56.46338 303
56.4835 285
56.50361 284
56.52373 275
56.54384 293
56.56395 309
56.58407 274
56.60418 281
56.62429 266
56.64441 263
56.66452 291
56.68464 257
56.70475 259
56.72486 245
56.74498 265
56.76509 248
56.7852 248
56.80532 247
56.82543 249
56.84554 284
56.86566 252
56.88577 251
56.90589 249
56.926 256
56.94611 270
56.96623 226
56.98634 244
57.00645 223
57.02657 255
57.04668 248
57.0668 272
57.08691 230
57.10702 264
57.12714 260
57.14725 218
57.16736 266
57.18748 275
57.20759 264
57.22771 253
57.24782 242
57.26793 272
57.28805 257
57.30816 281
57.32827 242
57.34839 232
57.3685 269
57.38861 257
57.40873 272
57.42884 259
57.44896 290
57.46907 296
57.48918 255
57.5093 272
57.52941 285
57.54952 256
57.56964 246
57.58975 258
57.60987 253
57.62998 241
57.65009 280
57.67021 249
57.69032 270
57.71043 217
57.73055 270
57.75066 265
57.77078 258
57.79089 280
57.811 275
57.83112 260
57.85123 268
57.87134 287
57.89146 278
57.91157 264
57.93168 283
57.9518 275
57.97191 286
57.99203 271
58.01214 277
58.03225 289
58.05237 300
58.07248 260
58.09259 249
58.11271 279
58.13282 275
58.15294 279
58.17305 252
58.19316 283
58.21328 235
58.23339 262
58.2535 287
58.27362 288
58.29373 280
58.31385 277
58.33396 282
58.35407 296
58.37419 267
58.3943 290
58.41441 297
58.43453 285
58.45464 299
58.47475 289
58.49487 303
58.51498 289
58.5351 282
58.55521 285
58.57532 301
58.59544 278
58.61555 294
58.63566 279
58.65578 273
58.67589 285
58.69601 272
58.71612 283
58.73623 273
58.75635 280
58.77646 256
58.79657 266
58.81669 258
58.8368 250
58.85691 241
58.87703 261
58.89714 252
58.91726 255
58.93737 233
58.95748 236
58.9776 234
58.99771 234
59.01782 234
59.03794 235
59.05805 260
59.07817 245
59.09828 264
59.11839 263
59.13851 242
59.15862 261
59.17873 270
59.19885 267
59.21896 259
59.23908 242
59.25919 258
59.2793 277
59.29942 266
59.31953 246
59.33964 266
59.35976 245
59.37987 277
59.39998 241
59.4201 251
59.44021 267
59.46033 280
59.48044 291
59.50055 253
59.52067 306
59.54078 271
59.56089 279
59.58101 326
59.60112 333
59.62124 311
59.64135 318
59.66146 365
59.68158 368
59.70169 350
59.7218 416
59.74192 418
59.76203 453
59.78215 500
59.80226 502
59.82237 609
59.84249 709
59.8626 723
59.88271 750
59.90283 793
59.92294 777
59.94305 727
59.96317 649
59.98328 577
60.0034 561
60.02351 568
60.04362 573
60.06374 574
60.08385 562
60.10396 518
60.12408 493
60.14419 429
60.16431 389
60.18442 415
60.20453 383
60.22465 385
60.24476 378
60.26487 398
60.28499 359
60.3051 385
60.32522 364
60.34533 339
60.36544 333
60.38556 321
60.40567 349
60.42578 327
60.4459 322
60.46601 308
60.48612 286
60.50624 331
60.52635 302
60.54647 293
60.56658 276
60.58669 262
60.60681 240
60.62692 297
60.64703 256
60.66715 286
60.68726 291
60.70738 312
60.72749 275
60.7476 258
60.76772 302
60.78783 265
60.80794 246
60.82806 263
60.84817 243
60.86828 256
60.8884 274
60.90851 275
60.92863 272
60.94874 249
60.96885 241
60.98897 255
61.00908 260
61.02919 266
61.04931 230
61.06942 235
61.08954 277
61.10965 255
61.12976 276
61.14988 280
61.16999 257
61.1901 287
61.21022 251
61.23033 266
61.25045 270
61.27056 282
61.29067 289
61.31079 293
61.3309 269
61.35101 261
61.37113 284
61.39124 296
61.41135 261
61.43147 272
61.45158 283
61.4717 270
61.49181 315
61.51192 309
61.53204 274
61.55215 289
61.57226 275
61.59238 307
61.61249 283
61.63261 292
61.65272 273
61.67283 304
61.69295 270
61.71306 287
61.73317 283
61.75329 292
61.7734 279
61.79352 289
61.81363 291
61.83374 296
61.85386 262
61.87397 273
61.89408 270
61.9142 255
61.93431 269
61.95442 293
61.97454 271
61.99465 285
62.01477 261
62.03488 258
62.05499 249
62.07511 275
62.09522 296
62.11533 284
62.13545 304
62.15556 307
62.17568 305
62.19579 286
62.2159 259
62.23602 274
62.25613 304
62.27624 297
62.29636 263
62.31647 261
62.33659 299
62.3567 270
62.37681 267
62.39693 279
62.41704 241
62.43715 284
62.45727 265
62.47738 262
62.49749 253
62.51761 256
62.53772 266
62.55784 247
62.57795 249
62.59806 252
62.61818 259
62.63829 263
62.6584 278
62.67852 255
62.69863 268
62.71875 250
62.73886 270
62.75897 234
62.77909 264
62.7992 256
62.81931 271
62.83943 263
62.85954 261
62.87965 267
62.89977 267
62.91988 251
62.94 250
62.96011 268
62.98022 229
63.00034 226
63.02045 266
63.04056 254
63.06068 247
63.08079 247
63.10091 258
63.12102 270
63.14113 277
63.16125 249
63.18136 245
63.20147 264
63.22159 261
63.2417 253
63.26182 272
63.28193 257
63.30204 250
63.32216 264
63.34227 273
63.36238 301
63.3825 275
63.40261 276
63.42272 308
63.44284 303
63.46295 301
63.48307 298
63.50318 280
63.52329 282
63.54341 352
63.56352 307
63.58363 330
63.60375 334
63.62386 333
63.64398 345
63.66409 346
63.6842 332
63.70432 354
63.72443 306
63.74454 334
63.76466 355
63.78477 384
63.80489 362
63.825 327
63.84511 384
63.86523 356
63.88534 349
63.90545 361
63.92557 363
63.94568 377
63.96579 347
63.98591 354
64.00602 341
64.02614 360
64.04625 349
64.06636 304
64.08648 285
64.10659 301
64.1267 310
64.14682 305
64.16693 300
64.18705 290
64.20716 292
64.22727 255
64.24739 282
64.2675 282
64.28761 261
64.30773 270
64.32784 257
64.34796 238
64.36807 235
64.38818 253
64.4083 242
64.42841 238
64.44852 261
64.46864 270
64.48875 251
64.50886 257
64.52898 237
64.54909 248
64.56921 265
64.58932 269
64.60943 276
64.62955 267
64.64966 250
64.66977 237
64.68989 262
64.71 260
64.73012 242
64.75023 233
64.77034 254
64.79046 263
64.81057 251
64.83068 250
64.8508 236
64.87091 246
64.89102 243
64.91114 258
64.93125 239
64.95137 262
64.97148 260
64.99159 261
65.01171 244
65.03182 265
65.05193 242
65.07205 242
65.09216 278
65.11228 257
65.13239 243
65.1525 247
65.17262 264
65.19273 264
65.21284 262
65.23296 272
65.25307 278
65.27319 290
65.2933 285
65.31341 275
65.33353 251
65.35364 273
65.37375 253
65.39387 255
65.41398 243
65.43409 230
65.45421 248
65.47432 261
65.49444 298
65.51455 240
65.53466 262
65.55478 253
65.57489 273
65.595 263
65.61512 236
65.63523 272
65.65535 239
65.67546 236
65.69557 237
65.71569 262
65.7358 254
65.75591 257
65.77603 241
65.79614 225
65.81626 233
65.83637 244
65.85648 232
65.8766 208
65.89671 245
65.91682 234
65.93694 224
65.95705 262
65.97716 231
65.99728 247
66.01739 264
66.03751 251
66.05762 262
66.07773 250
66.09785 226
66.11796 261
66.13807 259
66.15819 260
66.1783 258
66.19842 260
66.21853 273
66.23864 255
66.25876 281
66.27887 272
66.29898 307
66.3191 247
66.33921 278
66.35933 249
66.37944 272
66.39955 259
66.41967 280
66.43978 281
66.45989 252
66.48001 272
66.50012 246
66.52023 283
66.54035 242
66.56046 242
66.58058 259
66.60069 206
66.6208 212
66.64092 247
66.66103 272
66.68114 237
66.70126 237
66.72137 250
66.74149 237
66.7616 263
66.78171 238
66.80183 260
66.82194 257
66.84205 290
66.86217 255
66.88228 248
66.90239 239
66.92251 255
66.94262 249
66.96274 262
66.98285 281
67.00296 303
67.02308 310
67.04319 314
67.0633 302
67.08342 246
67.10353 293
67.12365 285
67.14376 293
67.16387 288
67.18399 290
67.2041 282
67.22421 274
67.24433 276
67.26444 266
67.28456 288
67.30467 273
67.32478 271
67.3449 266
67.36501 278
67.38512 285
67.40524 282
67.42535 306
67.44546 291
67.46558 329
67.48569 317
67.50581 301
67.52592 351
67.54603 383
67.56615 422
67.58626 447
67.60637 466
67.62649 493
67.6466 554
67.66672 519
67.68683 593
67.70694 567
67.72706 493
67.74717 480
67.76728 467
67.7874 435
67.80751 403
67.82763 451
67.84774 446
67.86785 478
67.88797 491
67.90808 478
67.92819 463
67.94831 485
67.96842 557
67.98853 545
68.00865 541
68.02876 623
68.04888 594
68.06899 634
68.0891 671
68.10922 655
68.12933 688
68.14944 591
68.16956 584
68.18967 594
68.20979 605
68.2299 659
68.25001 649
68.27013 624
68.29024 594
68.31035 605
68.33047 536
68.35058 453
68.3707 442
68.39081 395
68.41092 399
68.43104 377
68.45115 396
68.47126 364
68.49138 329
68.51149 336
68.5316 308
68.55172 265
68.57183 282
68.59195 281
68.61206 284
68.63217 300
68.65229 253
68.6724 283
68.69251 262
68.71263 258
68.73274 244
68.75286 239
68.77297 271
68.79308 259
68.8132 263
68.83331 256
68.85342 232
68.87354 278
68.89365 251
68.91376 244
68.93388 260
68.95399 292
68.97411 256
68.99422 247
69.01433 258
69.03445 263
69.05456 276
69.07467 243
69.09479 283
69.1149 300
69.13502 280
69.15513 270
69.17524 298
69.19536 264
69.21547 271
69.23558 263
69.2557 295
69.27581 296
69.29593 315
69.31604 306
69.33615 308
69.35627 317
69.37638 297
69.39649 309
69.41661 276
69.43672 292
69.45683 269
69.47695 242
69.49706 274
69.51718 246
69.53729 281
69.5574 310
69.57752 298
69.59763 240
69.61774 266
69.63786 295
69.65797 266
69.67809 299
69.6982 269
69.71831 267
69.73843 290
69.75854 290
69.77865 279
69.79877 275
69.81888 273
69.839 265
69.85911 265
69.87922 246
69.89934 280
69.91945 266
69.93956 262
69.95968 254
69.97979 261
69.9999 229
70.02002 216
70.04013 234
70.06025 223
70.08036 236
70.10047 221
70.12059 220
70.1407 232
70.16081 246
70.18093 220
70.20104 209
70.22116 234
70.24127 195
70.26138 204
70.2815 211
70.30161 229
70.32172 219
70.34184 218
70.36195 207
70.38207 216
70.40218 212
70.42229 206
70.44241 211
70.46252 237
70.48263 203
70.50275 224
70.52286 194
70.54297 232
70.56309 254
70.5832 213
70.60332 231
70.62343 228
70.64354 233
70.66366 254
70.68377 223
70.70388 211
70.724 223
70.74411 251
70.76423 252
70.78434 250
70.80445 233
70.82457 223
70.84468 226
70.86479 259
70.88491 245
70.90502 237
70.92513 225
70.94525 253
70.96536 262
70.98548 233
71.00559 243
71.0257 271
71.04582 228
71.06593 262
71.08604 271
71.10616 282
71.12627 228
71.14639 268
71.1665 256
71.18661 253
71.20673 239
71.22684 259
71.24695 265
71.26707 231
71.28718 256
71.3073 259
71.32741 243
71.34752 255
71.36764 282
71.38775 232
71.40786 229
71.42798 261
71.44809 258
71.4682 229
71.48832 256
71.50843 243
71.52855 231
71.54866 255
71.56877 225
71.58889 231
71.609 226
71.62911 237
71.64923 227
71.66934 231
71.68946 213
71.70957 239
71.72968 227
71.7498 238
71.76991 217
71.79002 240
71.81014 233
71.83025 228
71.85037 224
71.87048 217
71.89059 201
71.91071 208
71.93082 218
71.95093 215
71.97105 204
71.99116 241
72.01127 224
72.03139 220
72.0515 191
72.07162 209
72.09173 253
72.11184 215
72.13196 229
72.15207 233
72.17218 219
72.1923 235
72.21241 245
72.23253 212
72.25264 219
72.27275 219
72.29287 233
72.31298 262
72.33309 227
72.35321 222
72.37332 215
72.39344 235
72.41355 215
72.43366 208
72.45378 236
72.47389 239
72.494 235
72.51412 233
72.53423 246
72.55434 235
72.57446 235
72.59457 220
72.61469 230
72.6348 238
72.65491 275
72.67503 231
72.69514 233
72.71525 217
72.73537 221
72.75548 220
72.7756 230
72.79571 239
72.81582 227
72.83594 235
72.85605 200
72.87616 240
72.89628 222
72.91639 192
72.9365 220
72.95662 244
72.97673 227
72.99685 255
73.01696 232
73.03707 243
73.05719 235
73.0773 235
73.09741 202
73.11753 236
73.13764 240
73.15776 209
73.17787 239
73.19798 269
73.2181 263
73.23821 247
73.25832 253
73.27844 274
73.29855 238
73.31867 248
73.33878 280
73.35889 279
73.37901 317
73.39912 310
73.41923 330
73.43935 296
73.45946 307
73.47957 309
73.49969 267
73.5198 276
73.53992 285
73.56003 285
73.58014 282
73.60026 305
73.62037 283
73.64048 283
73.6606 287
73.68071 244
73.70083 252
73.72094 254
73.74105 260
73.76117 234
73.78128 235
73.80139 241
73.82151 226
73.84162 234
73.86174 263
73.88185 241
73.90196 235
73.92208 241
73.94219 230
73.9623 248
73.98242 238
74.00253 238
74.02264 211
74.04276 216
74.06287 234
74.08299 226
74.1031 226
74.12321 252
74.14333 230
74.16344 240
74.18355 231
74.20367 235
74.22378 242
74.2439 238
74.26401 245
74.28412 232
74.30424 243
74.32435 235
74.34446 192
74.36458 260
74.38469 246
74.40481 264
74.42492 228
74.44503 218
74.46515 237
74.48526 259
74.50537 257
74.52549 242
74.5456 267
74.56571 254
74.58583 232
74.60594 260
74.62606 257
74.64617 236
74.66628 240
74.6864 233
74.70651 284
74.72662 239
74.74674 270
74.76685 256
74.78697 271
74.80708 253
74.82719 255
74.84731 245
74.86742 252
74.88753 264
74.90765 232
74.92776 275
74.94787 263
74.96799 232
74.9881 234
75.00822 234
