3.00117 20829
3.02128 20269
3.0414 19698
3.06151 19314
3.08162 18951
3.10174 18098
3.12185 17828
3.14197 17038
3.16208 16588
3.18219 16626
3.20231 15667
3.22242 15408
3.24253 15173
3.26265 14247
3.28276 14207
3.30288 13551
3.32299 13294
3.3431 12779
3.36322 12114
3.38333 11990
3.40344 11662
3.42356 11192
3.44367 10970
3.46379 10464
3.4839 10439
3.50401 9703
3.52413 9599
3.54424 9152
3.56435 8676
3.58447 8673
3.60458 8203
3.62469 8198
3.64481 7903
3.66492 7362
3.68504 7277
3.70515 6729
3.72526 6754
3.74538 6280
3.76549 6243
3.7856 6014
3.80572 5626
3.82583 5590
3.84595 5208
3.86606 4934
3.88617 4925
3.90629 4521
3.9264 4532
3.94651 4330
3.96663 3972
3.98674 4019
4.00686 3814
4.02697 3561
4.04708 3489
4.0672 3305
4.08731 3334
4.10742 3153
4.12754 2957
4.14765 2741
4.16776 2622
4.18788 2807
4.20799 2543
4.22811 2448
4.24822 2307
4.26833 2199
4.28845 2306
4.30856 2178
4.32867 2109
4.34879 2061
4.3689 1960
4.38902 2038
4.40913 2072
4.42924 1907
4.44936 1863
4.46947 1838
4.48958 1814
4.5097 1776
4.52981 1704
4.54992 1627
4.57004 1568
4.59015 1618
4.61027 1595
4.63038 1523
4.65049 1477
4.67061 1413
4.69072 1436
4.71083 1442
4.73095 1339
4.75106 1358
4.77118 1335
4.79129 1365
4.8114 1372
4.83152 1255
4.85163 1285
4.87174 1259
4.89186 1260
4.91197 1239
4.93209 1134
4.9522 1079
4.97231 1139
4.99243 1110
5.01254 1193
5.03265 1077
5.05277 1095
5.07288 1074
5.09299 1136
5.11311 1090
5.13322 987
5.15334 1050
5.17345 1032
5.19356 974
5.21368 1059
5.23379 978
5.2539 968
5.27402 965
5.29413 928
5.31425 939
5.33436 874
5.35447 809
5.37459 870
5.3947 846
5.41481 830
5.43493 822
5.45504 840
5.47516 818
5.49527 782
5.51538 850
5.5355 714
5.55561 770
5.57572 797
5.59584 789
5.61595 794
5.63606 764
5.65618 738
5.67629 742
5.69641 786
5.71652 683
5.73663 695
5.75675 774
5.77686 753
5.79697 713
5.81709 709
5.8372 743
5.85732 650
5.87743 675
5.89754 652
5.91766 697
5.93777 635
5.95788 643
5.978 667
5.99811 619
6.01823 628
6.03834 648
6.05845 648
6.07857 670
6.09868 630
6.11879 629
6.13891 658
6.15902 644
6.17913 624
6.19925 666
6.21936 611
6.23948 673
6.25959 597
6.2797 661
6.29982 624
6.31993 640
6.34004 610
6.36016 589
6.38027 638
6.40039 574
6.4205 580
6.44061 610
6.46073 621
6.48084 640
6.50095 564
6.52107 627
6.54118 591
6.56129 629
6.58141 607
6.60152 637
6.62164 576
6.64175 615
6.66186 620
6.68198 563
6.70209 599
6.7222 594
6.74232 604
6.76243 606
6.78255 598
6.80266 608
6.82277 633
6.84289 589
6.863 564
6.88311 581
6.90323 646
6.92334 619
6.94346 600
6.96357 591
6.98368 555
7.0038 607
7.02391 611
7.04402 549
7.06414 603
7.08425 626
7.10436 641
7.12448 596
7.14459 605
7.16471 565
7.18482 607
7.20493 608
7.22505 611
7.24516 591
7.26527 573
7.28539 566
7.3055 592
7.32562 565
7.34573 584
7.36584 636
7.38596 628
7.40607 597
7.42618 562
7.4463 562
7.46641 547
7.48653 568
7.50664 609
7.52675 622
7.54687 611
7.56698 599
7.58709 568
7.60721 536
7.62732 616
7.64743 586
7.66755 596
7.68766 562
7.70778 584
7.72789 577
7.748 657
7.76812 589
7.78823 572
7.80834 592
7.82846 605
7.84857 577
7.86869 615
7.8888 615
7.90891 556
7.92903 568
7.94914 668
7.96925 586
7.98937 581
8.00948 576
8.0296 618
8.04971 587
8.06982 597
8.08994 609
8.11005 627
8.13016 625
8.15028 606
8.17039 577
8.1905 610
8.21062 596
8.23073 581
8.25085 637
8.27096 611
8.29107 596
8.31119 592
8.3313 612
8.35141 586
8.37153 602
8.39164 607
8.41176 607
8.43187 581
8.45198 614
8.4721 558
8.49221 592
8.51232 564
8.53244 569
8.55255 625
8.57266 635
8.59278 587
8.61289 607
8.63301 537
8.65312 619
8.67323 567
8.69335 579
8.71346 607
8.73357 592
8.75369 598
8.7738 560
8.79392 604
8.81403 622
8.83414 616
8.85426 635
8.87437 629
8.89448 554
8.9146 619
8.93471 610
8.95483 621
8.97494 585
8.99505 637
9.01517 571
9.03528 563
9.05539 624
9.07551 563
9.09562 579
9.11573 642
9.13585 595
9.15596 575
9.17608 632
9.19619 586
9.2163 567
9.23642 596
9.25653 655
9.27664 636
9.29676 574
9.31687 587
9.33699 556
9.3571 605
9.37721 557
9.39733 604
9.41744 592
9.43755 592
9.45767 598
9.47778 575
9.4979 572
9.51801 606
9.53812 579
9.55824 576
9.57835 591
9.59846 588
9.61858 543
9.63869 536
9.6588 563
9.67892 581
9.69903 601
9.71915 577
9.73926 561
9.75937 646
9.77949 575
9.7996 618
9.81971 623
9.83983 588
9.85994 591
9.88006 628
9.90017 602
9.92028 632
9.9404 603
9.96051 572
9.98062 607
10.00074 560
10.02085 568
10.04097 566
10.06108 537
10.08119 561
10.10131 574
10.12142 612
10.14153 608
10.16165 592
10.18176 553
10.20187 632
10.22199 589
10.2421 584
10.26222 613
10.28233 621
10.30244 569
10.32256 572
10.34267 583
10.36278 580
10.3829 581
10.40301 600
10.42313 566
10.44324 579
10.46335 606
10.48347 545
10.50358 537
10.52369 546
10.54381 598
10.56392 597
10.58403 603
10.60415 613
10.62426 594
10.64438 570
10.66449 527
10.6846 586
10.70472 565
10.72483 565
10.74494 614
10.76506 558
10.78517 573
10.80529 550
10.8254 574
10.84551 576
10.86563 577
10.88574 562
10.90585 573
10.92597 611
10.94608 585
10.9662 570
10.98631 525
11.00642 585
11.02654 592
11.04665 598
11.06676 612
11.08688 625
11.10699 585
11.1271 590
11.14722 578
11.16733 602
11.18745 612
11.20756 605
11.22767 616
11.24779 570
11.2679 579
11.28801 577
11.30813 622
11.32824 609
11.34836 586
11.36847 626
11.38858 604
11.4087 583
11.42881 615
11.44892 592
11.46904 557
11.48915 572
11.50927 563
11.52938 568
11.54949 593
11.56961 605
11.58972 621
11.60983 540
11.62995 629
11.65006 567
11.67017 605
11.69029 631
11.7104 620
11.73052 612
11.75063 567
11.77074 614
11.79086 649
11.81097 615
11.83108 656
11.8512 607
11.87131 633
11.89143 624
11.91154 665
11.93165 644
11.95177 616
11.97188 647
11.99199 630
12.01211 702
12.03222 710
12.05234 731
12.07245 756
12.09256 680
12.11268 691
12.13279 741
12.1529 776
12.17302 740
12.19313 844
12.21324 819
12.23336 855
12.25347 862
12.27359 889
12.2937 901
12.31381 924
12.33393 897
12.35404 891
12.37415 864
12.39427 824
12.41438 799
12.4345 793
12.45461 861
12.47472 727
12.49484 738
12.51495 743
12.53506 740
12.55518 676
12.57529 681
12.5954 657
12.61552 651
12.63563 637
12.65575 655
12.67586 628
12.69597 630
12.71609 614
12.7362 633
12.75631 597
12.77643 619
12.79654 566
12.81666 585
12.83677 591
12.85688 644
12.877 620
12.89711 602
12.91722 574
12.93734 595
12.95745 564
12.97757 635
12.99768 619
13.01779 563
13.03791 565
13.05802 528
13.07813 576
13.09825 579
13.11836 578
13.13847 582
13.15859 502
13.1787 600
13.19882 588
13.21893 537
13.23904 512
13.25916 608
13.27927 534
13.29938 585
13.3195 596
13.33961 577
13.35973 556
13.37984 559
13.39995 589
13.42007 554
13.44018 547
13.46029 608
13.48041 571
13.50052 535
13.52064 571
13.54075 627
13.56086 602
13.58098 593
13.60109 576
13.6212 565
13.64132 575
13.66143 588
13.68154 539
13.70166 581
13.72177 577
13.74189 584
13.762 594
13.78211 544
13.80223 622
13.82234 495
13.84245 586
13.86257 585
13.88268 589
13.9028 587
13.92291 554
13.94302 578
13.96314 583
13.98325 591
14.00336 564
14.02348 567
14.04359 515
14.06371 556
14.08382 521
14.10393 526
14.12405 549
14.14416 574
14.16427 565
14.18439 529
14.2045 584
14.22461 550
14.24473 589
14.26484 589
14.28496 544
14.30507 517
14.32518 582
14.3453 531
14.36541 540
14.38552 558
14.40564 538
14.42575 528
14.44587 556
14.46598 580
14.48609 536
14.50621 594
14.52632 576
14.54643 542
14.56655 521
14.58666 570
14.60677 501
14.62689 575
14.647 565
14.66712 541
14.68723 534
14.70734 560
14.72746 588
14.74757 494
14.76768 573
14.7878 549
14.80791 519
14.82803 528
14.84814 559
14.86825 515
14.88837 551
14.90848 590
14.92859 515
14.94871 548
14.96882 533
14.98894 552
15.00905 560
15.02916 547
15.04928 542
15.06939 531
15.0895 540
15.10962 540
15.12973 521
15.14984 506
15.16996 536
15.19007 524
15.21019 546
15.2303 564
15.25041 556
15.27053 525
15.29064 585
15.31075 549
15.33087 514
15.35098 569
15.3711 536
15.39121 550
15.41132 501
15.43144 562
15.45155 518
15.47166 607
15.49178 577
15.51189 562
15.53201 574
15.55212 531
15.57223 615
15.59235 549
15.61246 549
15.63257 529
15.65269 580
15.6728 551
15.69291 522
15.71303 567
15.73314 570
15.75326 533
15.77337 543
15.79348 542
15.8136 552
15.83371 585
15.85382 580
15.87394 542
15.89405 558
15.91417 534
15.93428 530
15.95439 568
15.97451 553
15.99462 587
16.01473 565
16.03485 534
16.05496 503
16.07508 537
16.09519 519
16.1153 551
16.13542 556
16.15553 568
16.17564 557
16.19576 527
16.21587 533
16.23598 531
16.2561 573
16.27621 576
16.29633 626
16.31644 519
16.33655 500
16.35667 542
16.37678 554
16.39689 566
16.41701 543
16.43712 539
16.45724 556
16.47735 553
16.49746 523
16.51758 560
16.53769 549
16.5578 552
16.57792 546
16.59803 550
16.61814 572
16.63826 571
16.65837 535
16.67849 539
16.6986 553
16.71871 566
16.73883 480
16.75894 571
16.77905 560
16.79917 544
16.81928 580
16.8394 611
16.85951 554
16.87962 502
16.89974 548
16.91985 521
16.93996 542
16.96008 521
16.98019 563
17.00031 533
17.02042 532
17.04053 514
17.06065 573
17.08076 561
17.10087 573
17.12099 542
17.1411 519
17.16121 520
17.18133 542
17.20144 592
17.22156 567
17.24167 586
17.26178 523
17.2819 562
17.30201 572
17.32212 551
17.34224 560
17.36235 559
17.38247 544
17.40258 576
17.42269 575
17.44281 556
17.46292 575
17.48303 548
17.50315 593
17.52326 588
17.54338 575
17.56349 583
17.5836 544
17.60372 635
17.62383 606
17.64394 601
17.66406 596
17.68417 603
17.70428 559
17.7244 561
17.74451 569
17.76463 608
17.78474 563
17.80485 600
17.82497 641
17.84508 565
17.86519 577
17.88531 611
17.90542 627
17.92554 588
17.94565 614
17.96576 641
17.98588 617
18.00599 586
18.0261 577
18.04622 565
18.06633 524
18.08645 603
18.10656 594
18.12667 582
18.14679 584
18.1669 606
18.18701 554
18.20713 574
18.22724 626
18.24735 553
18.26747 560
18.28758 588
18.3077 606
18.32781 555
18.34792 590
18.36804 571
18.38815 584
18.40826 544
18.42838 565
18.44849 571
18.46861 573
18.48872 555
18.50883 522
18.52895 597
18.54906 556
18.56917 581
18.58929 584
18.6094 557
18.62951 558
18.64963 575
18.66974 612
18.68986 579
18.70997 541
18.73008 552
18.7502 564
18.77031 615
18.79042 616
18.81054 561
18.83065 516
18.85077 622
18.87088 572
18.89099 573
18.91111 533
18.93122 585
18.95133 572
18.97145 552
18.99156 602
19.01168 560
19.03179 579
19.0519 582
19.07202 610
19.09213 588
19.11224 567
19.13236 582
19.15247 550
19.17258 600
19.1927 563
19.21281 605
19.23293 571
19.25304 590
19.27315 557
19.29327 570
19.31338 550
19.33349 558
19.35361 598
19.37372 627
19.39384 649
19.41395 603
19.43406 603
19.45418 617
19.47429 582
19.4944 620
19.51452 602
19.53463 635
19.55475 664
19.57486 632
19.59497 674
19.61509 655
19.6352 687
19.65531 701
19.67543 756
19.69554 724
19.71565 774
19.73577 812
19.75588 734
19.776 764
19.79611 847
19.81622 819
19.83634 902
19.85645 828
19.87656 879
19.89668 916
19.91679 836
19.93691 912
19.95702 841
19.97713 836
19.99725 856
20.01736 846
20.03747 816
20.05759 830
20.0777 839
20.09782 883
20.11793 799
20.13804 849
20.15816 849
20.17827 759
20.19838 781
20.2185 770
20.23861 759
20.25872 764
20.27884 842
20.29895 800
20.31907 771
20.33918 811
20.35929 829
20.37941 783
20.39952 825
20.41963 856
20.43975 811
20.45986 841
20.47998 770
20.50009 802
20.5202 846
20.54032 841
20.56043 838
20.58054 822
20.60066 802
20.62077 846
20.64088 901
20.661 912
20.68111 903
20.70123 1039
20.72134 1161
20.74145 1335
20.76157 1587
20.78168 1761
20.80179 2035
20.82191 2089
20.84202 2181
20.86214 1989
20.88225 1693
20.90236 1475
20.92248 1245
20.94259 1068
20.9627 1013
20.98282 910
21.00293 885
21.02305 871
21.04316 866
21.06327 811
21.08339 802
21.1035 856
21.12361 884
21.14373 895
21.16384 847
21.18395 839
21.20407 949
21.22418 894
21.2443 841
21.26441 965
21.28452 827
21.30464 884
21.32475 904
21.34486 841
21.36498 877
21.38509 881
21.40521 879
21.42532 897
21.44543 872
21.46555 827
21.48566 841
21.50577 874
21.52589 866
21.546 792
21.56612 839
21.58623 835
21.60634 851
21.62646 813
21.64657 778
21.66668 745
21.6868 788
21.70691 763
21.72702 780
21.74714 764
21.76725 758
21.78737 768
21.80748 731
21.82759 710
21.84771 720
21.86782 695
21.88793 743
21.90805 759
21.92816 709
21.94828 741
21.96839 705
21.9885 712
22.00862 687
22.02873 659
22.04884 745
22.06896 691
22.08907 716
22.10919 718
22.1293 678
22.14941 706
22.16953 659
22.18964 711
22.20975 682
22.22987 677
22.24998 743
22.27009 636
22.29021 696
22.31032 671
22.33044 719
22.35055 657
22.37066 669
22.39078 694
22.41089 656
22.431 657
22.45112 691
22.47123 676
22.49135 668
22.51146 658
22.53157 668
22.55169 647
22.5718 704
22.59191 689
22.61203 643
22.63214 652
22.65225 664
22.67237 643
22.69248 687
22.7126 705
22.73271 647
22.75282 647
22.77294 616
22.79305 734
22.81316 666
22.83328 670
22.85339 666
22.87351 691
22.89362 678
22.91373 649
22.93385 693
22.95396 620
22.97407 611
22.99419 659
23.0143 626
23.03442 655
23.05453 634
23.07464 634
23.09476 673
23.11487 679
23.13498 702
23.1551 668
23.17521 610
23.19532 611
23.21544 699
23.23555 619
23.25567 661
23.27578 670
23.29589 647
23.31601 627
23.33612 626
23.35623 653
23.37635 678
23.39646 655
23.41658 679
23.43669 679
23.4568 687
23.47692 648
23.49703 636
23.51714 722
23.53726 664
23.55737 643
23.57749 686
23.5976 628
23.61771 664
23.63783 634
23.65794 674
23.67805 672
23.69817 640
23.71828 656
23.73839 670
23.75851 712
23.77862 720
23.79874 709
23.81885 685
23.83896 719
23.85908 691
23.87919 720
23.8993 694
23.91942 700
23.93953 687
23.95965 667
23.97976 718
23.99987 755
24.01999 757
24.0401 811
24.06021 783
24.08033 812
24.10044 831
24.12056 823
24.14067 804
24.16078 821
24.1809 772
24.20101 792
24.22112 769
24.24124 706
24.26135 765
24.28146 740
24.30158 687
24.32169 753
24.34181 671
24.36192 735
24.38203 733
24.40215 728
24.42226 707
24.44237 697
24.46249 720
24.4826 715
24.50272 733
24.52283 752
24.54294 748
24.56306 723
24.58317 794
24.60328 752
24.6234 776
24.64351 771
24.66362 805
24.68374 764
24.70385 835
24.72397 836
24.74408 835
24.76419 864
24.78431 810
24.80442 875
24.82453 862
24.84465 876
24.86476 901
24.88488 834
24.90499 879
24.9251 915
24.94522 865
24.96533 830
24.98544 796
25.00556 758
25.02567 809
25.04579 812
25.0659 757
25.08601 752
25.10613 780
25.12624 762
25.14635 763
25.16647 773
25.18658 755
25.20669 782
25.22681 746
25.24692 729
25.26704 731
25.28715 754
25.30726 696
25.32738 711
25.34749 691
25.3676 690
25.38772 714
25.40783 699
25.42795 697
25.44806 705
25.46817 695
25.48829 647
25.5084 598
25.52851 719
25.54863 668
25.56874 659
25.58886 688
25.60897 678
25.62908 698
25.6492 703
25.66931 721
25.68942 688
25.70954 695
25.72965 664
25.74976 702
25.76988 679
25.78999 641
25.81011 718
25.83022 693
25.85033 707
25.87045 743
25.89056 656
25.91067 705
25.93079 719
25.9509 674
25.97102 745
25.99113 730
26.01124 705
26.03136 690
26.05147 741
26.07158 687
26.0917 717
26.11181 765
26.13193 730
26.15204 745
26.17215 763
26.19227 698
26.21238 788
26.23249 727
26.25261 800
26.27272 830
26.29283 836
26.31295 825
26.33306 862
26.35318 990
26.37329 916
26.3934 1046
26.41352 1163
26.43363 1253
26.45374 1585
26.47386 1963
26.49397 2574
26.51409 3503
26.5342 4613
26.55431 5815
26.57443 6848
26.59454 7316
26.61465 7129
26.63477 6484
26.65488 5437
26.67499 4230
26.69511 3221
26.71522 2479
26.73534 1767
26.75545 1360
26.77556 1137
26.79568 1000
26.81579 893
26.8359 905
26.85602 842
26.87613 838
26.89625 850
26.91636 765
26.93647 776
26.95659 728
26.9767 706
26.99681 734
27.01693 747
27.03704 680
27.05716 696
27.07727 651
27.09738 652
27.1175 708
27.13761 705
27.15772 692
27.17784 666
27.19795 648
27.21806 658
27.23818 630
27.25829 672
27.27841 682
27.29852 665
27.31863 679
27.33875 691
27.35886 695
27.37897 682
27.39909 653
27.4192 713
27.43932 638
27.45943 632
27.47954 658
27.49966 631
27.51977 652
27.53988 636
27.56 646
27.58011 691
27.60023 679
27.62034 623
27.64045 693
27.66057 680
27.68068 666
27.70079 690
27.72091 673
27.74102 619
27.76113 646
27.78125 652
27.80136 571
27.82148 618
27.84159 645
27.8617 618
27.88182 656
27.90193 680
27.92204 614
27.94216 604
27.96227 628
27.98239 635
28.0025 591
28.02261 590
28.04273 642
28.06284 642
28.08295 608
28.10307 667
28.12318 609
28.1433 613
28.16341 612
28.18352 579
28.20364 557
28.22375 640
28.24386 576
28.26398 586
28.28409 614
28.3042 612
28.32432 624
28.34443 647
28.36455 638
28.38466 619
28.40477 585
28.42489 606
28.445 598
28.46511 611
28.48523 600
28.50534 624
28.52546 628
28.54557 628
28.56568 609
28.5858 603
28.60591 608
28.62602 617
28.64614 583
28.66625 655
28.68636 587
28.70648 606
28.72659 614
28.74671 592
28.76682 600
28.78693 696
28.80705 607
28.82716 562
28.84727 572
28.86739 604
28.8875 619
28.90762 607
28.92773 625
28.94784 590
28.96796 607
28.98807 550
29.00818 568
29.0283 637
29.04841 581
29.06853 618
29.08864 584
29.10875 640
29.12887 601
29.14898 614
29.16909 564
29.18921 641
29.20932 604
29.22943 610
29.24955 621
29.26966 580
29.28978 579
29.30989 665
29.33 608
29.35012 592
29.37023 610
29.39034 566
29.41046 587
29.43057 568
29.45069 589
29.4708 625
29.49091 581
29.51103 605
29.53114 564
29.55125 582
29.57137 615
29.59148 572
29.6116 580
29.63171 604
29.65182 650
29.67194 623
29.69205 595
29.71216 549
29.73228 590
29.75239 612
29.7725 524
29.79262 592
29.81273 610
29.83285 603
29.85296 604
29.87307 610
29.89319 664
29.9133 615
29.93341 642
29.95353 608
29.97364 625
29.99376 642
30.01387 664
30.03398 628
30.0541 615
30.07421 621
30.09432 617
30.11444 596
30.13455 614
30.15467 642
30.17478 645
30.19489 596
30.21501 660
30.23512 643
30.25523 628
30.27535 611
30.29546 621
30.31557 680
30.33569 633
30.3558 634
30.37592 631
30.39603 645
30.41614 603
30.43626 620
30.45637 630
30.47648 593
30.4966 650
30.51671 622
30.53683 584
30.55694 620
30.57705 604
30.59717 604
30.61728 622
30.63739 607
30.65751 623
30.67762 615
30.69773 600
30.71785 643
30.73796 642
30.75808 617
30.77819 605
30.7983 620
30.81842 581
30.83853 619
30.85864 621
30.87876 621
30.89887 619
30.91899 575
30.9391 651
30.95921 572
30.97933 621
30.99944 566
31.01955 615
31.03967 611
31.05978 577
31.0799 623
31.10001 564
31.12012 589
31.14024 581
31.16035 570
31.18046 602
31.20058 627
31.22069 603
31.2408 642
31.26092 565
31.28103 599
31.30115 554
31.32126 573
31.34137 594
31.36149 620
31.3816 604
31.40171 565
31.42183 571
31.44194 620
31.46206 527
31.48217 608
31.50228 595
31.5224 595
31.54251 611
31.56262 594
31.58274 579
31.60285 612
31.62297 570
31.64308 596
31.66319 587
31.68331 622
31.70342 572
31.72353 619
31.74365 598
31.76376 593
31.78387 554
31.80399 601
31.8241 589
31.84422 620
31.86433 595
31.88444 609
31.90456 595
31.92467 621
31.94478 604
31.9649 623
31.98501 610
32.00513 612
32.02524 586
32.04535 594
32.06547 588
32.08558 592
32.10569 602
32.12581 626
32.14592 574
32.16604 623
32.18615 612
32.20626 611
32.22638 576
32.24649 647
32.2666 672
32.28672 614
32.30683 663
32.32694 664
32.34706 602
32.36717 636
32.38729 642
32.4074 610
32.42751 620
32.44763 635
32.46774 609
32.48785 643
32.50797 625
32.52808 634
32.5482 658
32.56831 646
32.58842 623
32.60854 671
32.62865 614
32.64876 681
32.66888 644
32.68899 642
32.7091 627
32.72922 602
32.74933 667
32.76945 659
32.78956 671
32.80967 728
32.82979 669
32.8499 707
32.87001 754
32.89013 774
32.91024 777
32.93036 785
32.95047 840
32.97058 827
32.9907 853
33.01081 893
33.03092 992
33.05104 1014
33.07115 1082
33.09127 1130
33.11138 1116
33.13149 1031
33.15161 1131
33.17172 1072
33.19183 1035
33.21195 936
33.23206 909
33.25217 895
33.27229 861
33.2924 768
33.31252 767
33.33263 758
33.35274 787
33.37286 761
33.39297 776
33.41308 714
33.4332 799
33.45331 703
33.47343 730
33.49354 721
33.51365 737
33.53377 753
33.55388 709
33.57399 665
33.59411 691
33.61422 696
33.63434 727
33.65445 730
33.67456 699
33.69468 675
33.71479 723
33.7349 672
33.75502 699
33.77513 704
33.79524 665
33.81536 644
33.83547 663
33.85559 683
33.8757 697
33.89581 647
33.91593 659
33.93604 653
33.95615 698
33.97627 638
33.99638 630
34.0165 666
34.03661 658
34.05672 657
34.07684 622
34.09695 616
34.11706 619
34.13718 659
34.15729 629
34.17741 626
34.19752 612
34.21763 628
34.23775 640
34.25786 667
34.27797 636
34.29809 603
34.3182 667
34.33831 640
34.35843 613
34.37854 657
34.39866 643
34.41877 656
34.43888 674
34.459 697
34.47911 665
34.49922 631
34.51934 684
34.53945 668
34.55957 655
34.57968 692
34.59979 695
34.61991 675
34.64002 693
34.66013 683
34.68025 656
34.70036 684
34.72047 773
34.74059 643
34.7607 720
34.78082 792
34.80093 724
34.82104 778
34.84116 761
34.86127 788
34.88138 759
34.9015 777
34.92161 756
34.94173 765
34.96184 802
34.98195 812
35.00207 747
35.02218 763
35.04229 772
35.06241 746
35.08252 745
35.10264 743
35.12275 747
35.14286 790
35.16298 757
35.18309 779
35.2032 733
35.22332 728
35.24343 738
35.26354 779
35.28366 743
35.30377 779
35.32389 773
35.344 852
35.36411 807
35.38423 859
35.40434 833
35.42445 886
35.44457 859
35.46468 899
35.4848 982
35.50491 1026
35.52502 1034
35.54514 1115
35.56525 1140
35.58536 1146
35.60548 1169
35.62559 1127
35.64571 1177
35.66582 1078
35.68593 1042
35.70605 1038
35.72616 1051
35.74627 1031
35.76639 953
35.7865 1024
35.80661 986
35.82673 919
35.84684 947
35.86696 983
35.88707 929
35.90718 926
35.9273 903
35.94741 896
35.96752 853
35.98764 856
36.00775 867
36.02787 795
36.04798 784
36.06809 847
36.08821 766
36.10832 755
36.12843 764
36.14855 777
36.16866 761
36.18878 735
36.20889 719
36.229 729
36.24912 747
36.26923 736
36.28934 773
36.30946 753
36.32957 782
36.34968 779
36.3698 813
36.38991 821
36.41003 896
36.43014 1017
36.45025 1021
36.47037 1112
36.49048 1137
36.51059 1068
36.53071 1072
36.55082 1004
36.57094 959
36.59105 934
36.61116 831
36.63128 843
36.65139 825
36.6715 748
36.69162 708
36.71173 756
36.73184 720
36.75196 756
36.77207 743
36.79219 735
36.8123 698
36.83241 687
36.85253 708
36.87264 757
36.89275 725
36.91287 749
36.93298 706
36.9531 728
36.97321 685
36.99332 771
37.01344 657
37.03355 691
37.05366 684
37.07378 690
37.09389 704
37.11401 711
37.13412 702
37.15423 693
37.17435 678
37.19446 696
37.21457 711
37.23469 702
37.2548 694
37.27491 684
37.29503 654
37.31514 718
37.33526 689
37.35537 694
37.37548 680
37.3956 721
37.41571 688
37.43582 663
37.45594 660
37.47605 648
37.49617 665
37.51628 694
37.53639 633
37.55651 681
37.57662 718
37.59673 694
37.61685 638
37.63696 668
37.65708 652
37.67719 685
37.6973 642
37.71742 677
37.73753 696
37.75764 713
37.77776 619
37.79787 672
37.81798 627
37.8381 721
37.85821 632
37.87833 679
37.89844 623
37.91855 661
37.93867 651
37.95878 680
37.97889 649
37.99901 634
38.01912 678
38.03924 642
38.05935 632
38.07946 679
38.09958 684
38.11969 704
38.1398 719
38.15992 664
38.18003 652
38.20015 720
38.22026 669
38.24037 699
38.26049 688
38.2806 689
38.30071 687
38.32083 774
38.34094 751
38.36105 736
38.38117 819
38.40128 760
38.4214 758
38.44151 699
38.46162 709
38.48174 722
38.50185 743
38.52196 686
38.54208 703
38.56219 654
38.58231 680
38.60242 671
38.62253 666
38.64265 671
38.66276 656
38.68287 712
38.70299 641
38.7231 681
38.74321 662
38.76333 660
38.78344 613
38.80356 662
38.82367 651
38.84378 667
38.8639 699
38.88401 661
38.90412 649
38.92424 660
38.94435 652
38.96447 668
38.98458 643
39.00469 691
39.02481 709
39.04492 731
39.06503 678
39.08515 716
39.10526 672
39.12538 691
39.14549 664
39.1656 679
39.18572 672
39.20583 700
39.22594 724
39.24606 732
39.26617 711
39.28628 743
39.3064 818
39.32651 829
39.34663 904
39.36674 926
39.38685 1009
39.40697 1032
39.42708 977
39.44719 986
39.46731 940
39.48742 827
39.50754 861
39.52765 821
39.54776 772
39.56788 668
39.58799 699
39.6081 694
39.62822 659
39.64833 633
39.66845 616
39.68856 605
39.70867 614
39.72879 601
39.7489 582
39.76901 615
39.78913 577
39.80924 601
39.82935 619
39.84947 597
39.86958 625
39.8897 644
39.90981 634
39.92992 655
39.95004 633
39.97015 589
39.99026 619
40.01038 583
40.03049 638
40.05061 601
40.07072 683
40.09083 611
40.11095 727
40.13106 665
40.15117 711
40.17129 771
40.1914 790
40.21152 814
40.23163 833
40.25174 805
40.27186 796
40.29197 793
40.31208 732
40.3322 734
40.35231 696
40.37242 693
40.39254 670
40.41265 652
40.43277 650
40.45288 670
40.47299 668
40.49311 657
40.51322 606
40.53333 693
40.55345 628
40.57356 675
40.59368 680
40.61379 632
40.6339 679
40.65402 653
40.67413 669
40.69424 636
40.71436 650
40.73447 709
40.75458 686
40.7747 728
40.79481 749
40.81493 732
40.83504 736
40.85515 773
40.87527 718
40.89538 718
40.91549 717
40.93561 696
40.95572 690
40.97584 732
40.99595 675
41.01606 711
41.03618 705
41.05629 698
41.0764 663
41.09652 697
41.11663 661
41.13675 663
41.15686 653
41.17697 666
41.19709 719
41.2172 630
41.23731 631
41.25743 684
41.27754 631
41.29765 618
41.31777 645
41.33788 641
41.358 648
41.37811 660
41.39822 673
41.41834 649
41.43845 653
41.45856 636
41.47868 630
41.49879 596
41.51891 660
41.53902 579
41.55913 636
41.57925 658
41.59936 619
41.61947 629
41.63959 607
41.6597 603
41.67982 653
41.69993 615
41.72004 619
41.74016 672
41.76027 578
41.78038 610
41.8005 593
41.82061 596
41.84072 580
41.86084 589
41.88095 641
41.90107 587
41.92118 581
41.94129 573
41.96141 585
41.98152 587
42.00163 581
42.02175 596
42.04186 603
42.06198 559
42.08209 602
42.1022 616
42.12232 619
42.14243 607
42.16254 697
42.18266 599
42.20277 638
42.22289 637
42.243 633
42.26311 689
42.28323 704
42.30334 670
42.32345 819
42.34357 791
42.36368 831
42.38379 861
42.40391 825
42.42402 795
42.44414 826
42.46425 786
42.48436 734
42.50448 717
42.52459 695
42.5447 674
42.56482 652
42.58493 616
42.60505 618
42.62516 602
42.64527 616
42.66539 595
42.6855 584
42.70561 619
42.72573 580
42.74584 579
42.76595 623
42.78607 562
42.80618 606
42.8263 597
42.84641 575
42.86652 547
42.88664 619
42.90675 522
42.92686 566
42.94698 561
42.96709 609
42.98721 570
43.00732 593
43.02743 559
43.04755 625
43.06766 544
43.08777 616
43.10789 596
43.128 600
43.14812 592
43.16823 595
43.18834 604
43.20846 605
43.22857 613
43.24868 564
43.2688 590
43.28891 586
43.30902 572
43.32914 622
43.34925 595
43.36937 583
43.38948 601
43.40959 574
43.42971 534
43.44982 556
43.46993 584
43.49005 576
43.51016 588
43.53028 610
43.55039 635
43.5705 557
43.59062 592
43.61073 541
43.63084 640
43.65096 582
43.67107 583
43.69119 568
43.7113 562
43.73141 537
43.75153 593
43.77164 603
43.79175 562
43.81187 582
43.83198 556
43.85209 566
43.87221 594
43.89232 585
43.91244 546
43.93255 598
43.95266 600
43.97278 520
43.99289 551
44.013 566
44.03312 587
44.05323 555
44.07335 580
44.09346 561
44.11357 585
44.13369 593
44.1538 550
44.17391 575
44.19403 570
44.21414 573
44.23426 573
44.25437 522
44.27448 615
44.2946 563
44.31471 593
44.33482 567
44.35494 585
44.37505 524
44.39516 589
44.41528 607
44.43539 543
44.45551 572
44.47562 560
44.49573 567
44.51585 532
44.53596 543
44.55607 563
44.57619 532
44.5963 545
44.61642 547
44.63653 536
44.65664 569
44.67676 587
44.69687 580
44.71698 518
44.7371 570
44.75721 571
44.77732 536
44.79744 573
44.81755 578
44.83767 604
44.85778 567
44.87789 577
44.89801 565
44.91812 574
44.93823 557
44.95835 558
44.97846 582
44.99858 540
45.01869 528
45.0388 554
45.05892 568
45.07903 596
45.09914 593
45.11926 554
45.13937 630
45.15949 533
45.1796 564
45.19971 558
45.21983 572
45.23994 603
45.26005 584
45.28017 560
45.30028 621
45.32039 595
45.34051 582
45.36062 617
45.38074 589
45.40085 613
45.42096 619
45.44108 612
45.46119 589
45.4813 602
45.50142 647
45.52153 662
45.54165 628
45.56176 595
45.58187 643
45.60199 618
45.6221 664
45.64221 647
45.66233 738
45.68244 738
45.70256 769
45.72267 752
45.74278 793
45.7629 741
45.78301 747
45.80312 693
45.82324 669
45.84335 680
45.86346 690
45.88358 672
45.90369 618
45.92381 627
45.94392 597
45.96403 631
45.98415 545
46.00426 545
46.02437 557
46.04449 588
46.0646 586
46.08472 559
46.10483 578
46.12494 613
46.14506 583
46.16517 593
46.18528 528
46.2054 561
46.22551 544
46.24563 560
46.26574 587
46.28585 596
46.30597 576
46.32608 591
46.34619 583
46.36631 568
46.38642 589
46.40653 560
46.42665 559
46.44676 603
46.46688 540
46.48699 576
46.5071 580
46.52722 604
46.54733 541
46.56744 589
46.58756 576
46.60767 555
46.62779 595
46.6479 562
46.66801 566
46.68813 587
46.70824 562
46.72835 602
46.74847 609
46.76858 560
46.78869 567
46.80881 605
46.82892 583
46.84904 586
46.86915 569
46.88926 580
46.90938 564
46.92949 583
46.9496 554
46.96972 545
46.98983 562
47.00995 580
47.03006 551
47.05017 552
47.07029 574
47.0904 575
47.11051 541
47.13063 585
47.15074 570
47.17086 582
47.19097 595
47.21108 550
47.2312 517
47.25131 559
47.27142 621
47.29154 590
47.31165 597
47.33176 554
47.35188 553
47.37199 586
47.39211 530
47.41222 648
47.43233 568
47.45245 550
47.47256 549
47.49267 580
47.51279 559
47.5329 550
47.55302 560
47.57313 579
47.59324 522
47.61336 558
47.63347 532
47.65358 551
47.6737 511
47.69381 548
47.71393 526
47.73404 576
47.75415 539
47.77427 548
47.79438 597
47.81449 574
47.83461 552
47.85472 557
47.87483 598
47.89495 593
47.91506 580
47.93518 580
47.95529 588
47.9754 532
47.99552 565
48.01563 514
48.03574 585
48.05586 560
48.07597 578
48.09609 563
48.1162 587
48.13631 571
48.15643 595
48.17654 556
48.19665 553
48.21677 607
48.23688 531
48.257 584
48.27711 605
48.29722 551
48.31734 547
48.33745 567
48.35756 583
48.37768 538
48.39779 589
48.4179 589
48.43802 574
48.45813 606
48.47825 540
48.49836 539
48.51847 567
48.53859 612
48.5587 589
48.57881 548
48.59893 592
48.61904 551
48.63916 546
48.65927 587
48.67938 581
48.6995 571
48.71961 521
48.73972 539
48.75984 548
48.77995 584
48.80006 520
48.82018 575
48.84029 565
48.86041 591
48.88052 602
48.90063 584
48.92075 570
48.94086 595
48.96097 579
48.98109 604
49.0012 564
49.02132 615
49.04143 649
49.06154 585
49.08166 589
49.10177 558
49.12188 613
49.142 584
49.16211 556
49.18223 597
49.20234 649
49.22245 631
49.24257 645
49.26268 613
49.28279 671
49.30291 662
49.32302 660
49.34313 687
49.36325 688
49.38336 710
49.40348 729
49.42359 674
49.4437 672
49.46382 664
49.48393 732
49.50404 677
49.52416 703
49.54427 628
49.56439 655
49.5845 651
49.60461 631
49.62473 675
49.64484 631
49.66495 643
49.68507 623
49.70518 635
49.7253 652
49.74541 595
49.76552 613
49.78564 626
49.80575 607
49.82586 624
49.84598 634
49.86609 654
49.8862 662
49.90632 749
49.92643 689
49.94655 737
49.96666 810
49.98677 894
50.00689 1028
50.027 1045
50.04711 1163
50.06723 1226
50.08734 1202
50.10746 1200
50.12757 1050
50.14768 1032
50.1678 947
50.18791 950
50.20802 914
50.22814 878
50.24825 839
50.26837 743
50.28848 692
50.30859 617
50.32871 661
50.34882 579
50.36893 613
50.38905 573
50.40916 564
50.42927 575
50.44939 577
50.4695 627
50.48962 605
50.50973 596
50.52984 606
50.54996 624
50.57007 581
50.59018 593
50.6103 595
50.63041 571
50.65053 592
50.67064 564
50.69075 567
50.71087 587
50.73098 547
50.75109 611
50.77121 570
50.79132 567
50.81143 551
50.83155 542
50.85166 561
50.87178 554
50.89189 626
50.912 607
50.93212 595
50.95223 562
50.97234 551
50.99246 603
51.01257 567
51.03269 573
51.0528 526
51.07291 581
51.09303 599
51.11314 564
51.13325 583
51.15337 535
51.17348 583
51.1936 600
51.21371 541
51.23382 567
51.25394 560
51.27405 595
51.29416 536
51.31428 575
51.33439 552
51.3545 612
51.37462 537
51.39473 569
51.41485 582
51.43496 527
51.45507 574
51.47519 575
51.4953 527
51.51541 540
51.53553 583
51.55564 492
51.57576 547
51.59587 585
51.61598 545
51.6361 541
51.65621 583
51.67632 524
51.69644 553
51.71655 508
51.73667 504
51.75678 548
51.77689 534
51.79701 527
51.81712 577
51.83723 572
51.85735 538
51.87746 572
51.89757 585
51.91769 515
51.9378 541
51.95792 521
51.97803 566
51.99814 529
52.01826 540
52.03837 531
52.05848 564
52.0786 536
52.09871 559
52.11883 523
52.13894 555
52.15905 527
52.17917 549
52.19928 537
52.21939 566
52.23951 548
52.25962 501
52.27974 606
52.29985 556
52.31996 568
52.34008 560
52.36019 559
52.3803 560
52.40042 520
52.42053 594
52.44064 588
52.46076 539
52.48087 545
52.50099 563
52.5211 496
52.54121 514
52.56133 522
52.58144 539
52.60155 593
52.62167 547
52.64178 524
52.6619 564
52.68201 595
52.70212 570
52.72224 595
52.74235 560
52.76246 502
52.78258 533
52.80269 539
52.8228 548
52.84292 550
52.86303 578
52.88315 543
52.90326 573
52.92337 544
52.94349 584
52.9636 588
52.98371 597
53.00383 522
53.02394 555
53.04406 540
53.06417 571
53.08428 548
53.1044 560
53.12451 551
53.14462 618
53.16474 601
53.18485 582
53.20497 626
53.22508 540
53.24519 640
53.26531 621
53.28542 616
53.30553 608
53.32565 564
53.34576 556
53.36587 613
53.38599 595
53.4061 653
53.42622 577
53.44633 599
53.46644 587
53.48656 613
53.50667 641
53.52678 632
53.5469 598
53.56701 591
53.58713 632
53.60724 691
53.62735 589
53.64747 644
53.66758 607
53.68769 627
53.70781 656
53.72792 668
53.74804 641
53.76815 673
53.78826 658
53.80838 732
53.82849 697
53.8486 658
53.86872 714
53.88883 732
53.90894 818
53.92906 798
53.94917 824
53.96929 759
53.9894 796
54.00951 816
54.02963 792
54.04974 801
54.06985 802
54.08997 766
54.11008 770
54.1302 751
54.15031 746
54.17042 777
54.19054 754
54.21065 724
54.23076 755
54.25088 709
54.27099 767
54.29111 725
54.31122 707
54.33133 716
54.35145 725
54.37156 651
54.39167 732
54.41179 701
54.4319 733
54.45201 670
54.47213 701
54.49224 648
54.51236 671
54.53247 672
54.55258 667
54.5727 678
54.59281 699
54.61292 659
54.63304 673
54.65315 697
54.67327 693
54.69338 725
54.71349 713
54.73361 706
54.75372 775
54.77383 801
54.79395 851
54.81406 829
54.83417 816
54.85429 791
54.8744 703
54.89452 739
54.91463 770
54.93474 704
54.95486 754
54.97497 710
54.99508 728
55.0152 677
55.03531 653
55.05543 655
55.07554 658
55.09565 666
55.11577 660
55.13588 649
55.15599 676
55.17611 713
55.19622 695
55.21634 696
55.23645 641
55.25656 742
55.27668 671
55.29679 707
55.3169 638
55.33702 610
55.35713 622
55.37724 660
55.39736 676
55.41747 686
55.43759 637
55.4577 617
55.47781 611
55.49793 618
55.51804 658
55.53815 551
55.55827 582
55.57838 596
55.5985 592
55.61861 592
55.63872 587
55.65884 617
55.67895 574
55.69906 575
55.71918 543
55.73929 598
55.75941 586
55.77952 617
55.79963 585
55.81975 580
55.83986 574
55.85997 609
55.88009 595
55.9002 560
55.92031 588
55.94043 565
55.96054 563
55.98066 587
56.00077 515
56.02088 601
56.041 592
56.06111 570
56.08122 591
56.10134 573
56.12145 571
56.14157 539
56.16168 552
56.18179 590
56.20191 566
56.22202 569
56.24213 595
56.26225 600
56.28236 590
56.30248 610
56.32259 570
56.3427 509
56.36282 609
56.38293 549
56.40304 596
56.42316 576
56.44327 568
56.46338 602
56.4835 558
56.50361 561
56.52373 583
56.54384 595
56.56395 620
56.58407 550
56.60418 586
56.62429 569
56.64441 563
56.66452 573
56.68464 553
56.70475 577
56.72486 595
56.74498 613
56.76509 555
56.7852 583
56.80532 592
56.82543 562
56.84554 560
56.86566 536
56.88577 603
56.90589 630
56.926 530
56.94611 537
56.96623 557
56.98634 525
57.00645 568
57.02657 577
57.04668 540
57.0668 602
57.08691 563
57.10702 552
57.12714 573
57.14725 564
57.16736 591
57.18748 563
57.20759 569
57.22771 558
57.24782 565
57.26793 619
57.28805 551
57.30816 597
57.32827 601
57.34839 590
57.3685 564
57.38861 613
57.40873 594
57.42884 585
57.44896 555
57.46907 622
57.48918 590
57.5093 630
57.52941 565
57.54952 584
57.56964 567
57.58975 562
57.60987 582
57.62998 604
57.65009 604
57.67021 575
57.69032 568
57.71043 571
57.73055 607
57.75066 584
57.77078 603
57.79089 551
57.811 539
57.83112 574
57.85123 571
57.87134 564
57.89146 546
57.91157 571
57.93168 606
57.9518 587
57.97191 520
57.99203 547
58.01214 544
58.03225 605
58.05237 530
58.07248 542
58.09259 561
58.11271 549
58.13282 556
58.15294 538
58.17305 603
58.19316 553
58.21328 546
58.23339 533
58.2535 568
58.27362 592
58.29373 546
58.31385 555
58.33396 594
58.35407 537
58.37419 512
58.3943 531
58.41441 553
58.43453 526
58.45464 550
58.47475 541
58.49487 575
58.51498 582
58.5351 523
58.55521 580
58.57532 530
58.59544 555
58.61555 566
58.63566 543
58.65578 532
58.67589 558
58.69601 527
58.71612 541
58.73623 541
58.75635 509
58.77646 497
58.79657 517
58.81669 536
58.8368 578
58.85691 573
58.87703 543
58.89714 519
58.91726 549
58.93737 504
58.95748 551
58.9776 564
58.99771 560
59.01782 563
59.03794 585
59.05805 529
59.07817 548
59.09828 505
59.11839 547
59.13851 543
59.15862 554
59.17873 577
59.19885 600
59.21896 548
59.23908 535
59.25919 525
59.2793 587
59.29942 549
59.31953 547
59.33964 525
59.35976 533
59.37987 596
59.39998 530
59.4201 561
59.44021 522
59.46033 596
59.48044 536
59.50055 571
59.52067 555
59.54078 537
59.56089 556
59.58101 588
59.60112 590
59.62124 581
59.64135 562
59.66146 583
59.68158 605
59.70169 635
59.7218 626
59.74192 606
59.76203 622
59.78215 673
59.80226 742
59.82237 821
59.84249 880
59.8626 952
59.88271 979
59.90283 871
59.92294 872
59.94305 792
59.96317 805
59.98328 760
60.0034 720
60.02351 764
60.04362 761
60.06374 744
60.08385 685
60.10396 630
60.12408 615
60.14419 581
60.16431 623
60.18442 597
60.20453 582
60.22465 579
60.24476 550
60.26487 527
60.28499 556
60.3051 548
60.32522 546
60.34533 535
60.36544 565
60.38556 535
60.40567 571
60.42578 557
60.4459 544
60.46601 557
60.48612 526
60.50624 542
60.52635 534
60.54647 561
60.56658 557
60.58669 564
60.60681 504
60.62692 537
60.64703 527
60.66715 514
60.68726 508
60.70738 562
60.72749 604
60.7476 577
60.76772 555
60.78783 509
60.80794 525
60.82806 492
60.84817 566
60.86828 555
60.8884 520
60.90851 544
60.92863 500
60.94874 515
60.96885 536
60.98897 517
61.00908 583
61.02919 531
61.04931 545
61.06942 504
61.08954 587
61.10965 531
61.12976 541
61.14988 537
61.16999 553
61.1901 543
61.21022 529
61.23033 510
61.25045 522
61.27056 501
61.29067 534
61.31079 521
61.3309 511
61.35101 554
61.37113 502
61.39124 567
61.41135 599
61.43147 538
61.45158 575
61.4717 560
61.49181 566
61.51192 550
61.53204 566
61.55215 551
61.57226 544
61.59238 549
61.61249 565
61.63261 527
61.65272 576
61.67283 549
61.69295 529
61.71306 561
61.73317 566
61.75329 553
61.7734 564
61.79352 602
61.81363 612
61.83374 579
61.85386 556
61.87397 564
61.89408 526
61.9142 591
61.93431 581
61.95442 599
61.97454 595
61.99465 601
62.01477 608
62.03488 631
62.05499 626
62.07511 604
62.09522 649
62.11533 624
62.13545 661
62.15556 678
62.17568 717
62.19579 699
62.2159 698
62.23602 693
62.25613 729
62.27624 684
62.29636 742
62.31647 696
62.33659 754
62.3567 696
62.37681 726
62.39693 686
62.41704 714
62.43715 716
62.45727 646
62.47738 682
62.49749 702
62.51761 639
62.53772 660
62.55784 652
62.57795 675
62.59806 661
62.61818 579
62.63829 655
62.6584 610
62.67852 610
62.69863 604
62.71875 563
62.73886 596
62.75897 583
62.77909 581
62.7992 576
62.81931 626
62.83943 570
62.85954 576
62.87965 583
62.89977 578
62.91988 552
62.94 595
62.96011 605
62.98022 581
63.00034 576
63.02045 630
63.04056 594
63.06068 586
63.08079 577
63.10091 600
63.12102 566
63.14113 545
63.16125 629
63.18136 617
63.20147 556
63.22159 526
63.2417 602
63.26182 607
63.28193 572
63.30204 541
63.32216 560
63.34227 568
63.36238 563
63.3825 537
63.40261 601
63.42272 557
63.44284 574
63.46295 552
63.48307 531
63.50318 544
63.52329 526
63.54341 533
63.56352 570
63.58363 573
63.60375 604
63.62386 574
63.64398 543
63.66409 596
63.6842 543
63.70432 553
63.72443 558
63.74454 600
63.76466 591
63.78477 579
63.80489 606
63.825 623
63.84511 681
63.86523 645
63.88534 678
63.90545 719
63.92557 686
63.94568 706
63.96579 736
63.98591 706
64.00602 714
64.02614 646
64.04625 662
64.06636 647
64.08648 665
64.10659 672
64.1267 623
64.14682 634
64.16693 652
64.18705 619
64.20716 612
64.22727 634
64.24739 637
64.2675 595
64.28761 588
64.30773 585
64.32784 606
64.34796 570
64.36807 557
64.38818 566
64.4083 580
64.42841 587
64.44852 586
64.46864 568
64.48875 546
64.50886 556
64.52898 547
64.54909 526
64.56921 564
64.58932 561
64.60943 559
64.62955 503
64.64966 553
64.66977 559
64.68989 526
64.71 537
64.73012 547
64.75023 548
64.77034 516
64.79046 530
64.81057 546
64.83068 542
64.8508 552
64.87091 544
64.89102 536
64.91114 504
64.93125 542
64.95137 529
64.97148 554
64.99159 554
65.01171 566
65.03182 516
65.05193 538
65.07205 510
65.09216 522
65.11228 541
65.13239 516
65.1525 543
65.17262 498
65.19273 501
65.21284 518
65.23296 524
65.25307 491
65.27319 502
65.2933 537
65.31341 494
65.33353 482
65.35364 499
65.37375 510
65.39387 485
65.41398 509
65.43409 504
65.45421 529
65.47432 526
65.49444 508
65.51455 478
65.53466 522
65.55478 527
65.57489 486
65.595 523
65.61512 535
65.63523 495
65.65535 527
65.67546 526
65.69557 519
65.71569 546
65.7358 543
65.75591 545
65.77603 530
65.79614 536
65.81626 499
65.83637 481
65.85648 552
65.8766 528
65.89671 538
65.91682 537
65.93694 521
65.95705 533
65.97716 523
65.99728 478
66.01739 492
66.03751 487
66.05762 485
66.07773 512
66.09785 504
66.11796 523
66.13807 519
66.15819 513
66.1783 481
66.19842 540
66.21853 495
66.23864 515
66.25876 512
66.27887 470
66.29898 539
66.3191 516
66.33921 496
66.35933 476
66.37944 483
66.39955 555
66.41967 481
66.43978 508
66.45989 486
66.48001 483
66.50012 495
66.52023 478
66.54035 528
66.56046 538
66.58058 528
66.60069 504
66.6208 496
66.64092 491
66.66103 447
66.68114 483
66.70126 505
66.72137 503
66.74149 480
66.7616 500
66.78171 492
66.80183 494
66.82194 502
66.84205 473
66.86217 510
66.88228 514
66.90239 489
66.92251 466
66.94262 539
66.96274 513
66.98285 489
67.00296 476
67.02308 513
67.04319 498
67.0633 513
67.08342 507
67.10353 481
67.12365 483
67.14376 509
67.16387 530
67.18399 527
67.2041 523
67.22421 494
67.24433 499
67.26444 544
67.28456 507
67.30467 507
67.32478 518
67.3449 539
67.36501 486
67.38512 494
67.40524 518
67.42535 501
67.44546 550
67.46558 558
67.48569 547
67.50581 560
67.52592 543
67.54603 607
67.56615 613
67.58626 675
67.60637 673
67.62649 717
67.6466 716
67.66672 756
67.68683 717
67.70694 718
67.72706 644
67.74717 659
67.76728 670
67.7874 610
67.80751 647
67.82763 615
67.84774 605
67.86785 660
67.88797 672
67.90808 614
67.92819 668
67.94831 643
67.96842 681
67.98853 687
68.00865 709
68.02876 733
68.04888 822
68.06899 821
68.0891 794
68.10922 785
68.12933 714
68.14944 742
68.16956 744
68.18967 722
68.20979 808
68.2299 776
68.25001 782
68.27013 769
68.29024 759
68.31035 684
68.33047 647
68.35058 634
68.3707 585
68.39081 623
68.41092 604
68.43104 609
68.45115 605
68.47126 542
68.49138 559
68.51149 551
68.5316 510
68.55172 558
68.57183 504
68.59195 532
68.61206 515
68.63217 547
68.65229 514
68.6724 496
68.69251 495
68.71263 472
68.73274 498
68.75286 513
68.77297 530
68.79308 499
68.8132 502
68.83331 487
68.85342 510
68.87354 518
68.89365 499
68.91376 507
68.93388 482
68.95399 520
68.97411 467
68.99422 486
69.01433 500
69.03445 500
69.05456 480
69.07467 508
69.09479 465
69.1149 503
69.13502 489
69.15513 474
69.17524 497
69.19536 495
69.21547 466
69.23558 498
69.2557 499
69.27581 478
69.29593 513
69.31604 504
69.33615 482
69.35627 509
69.37638 436
69.39649 507
69.41661 492
69.43672 504
69.45683 500
69.47695 465
69.49706 464
69.51718 491
69.53729 528
69.5574 467
69.57752 475
69.59763 510
69.61774 488
69.63786 501
69.65797 534
69.67809 461
69.6982 512
69.71831 496
69.73843 518
69.75854 503
69.77865 495
69.79877 481
69.81888 505
69.839 511
69.85911 489
69.87922 486
69.89934 476
69.91945 478
69.93956 502
69.95968 467
69.97979 491
69.9999 453
70.02002 513
70.04013 468
70.06025 472
70.08036 534
70.10047 496
70.12059 463
70.1407 489
70.16081 491
70.18093 506
70.20104 482
70.22116 537
70.24127 475
70.26138 498
70.2815 458
70.30161 508
70.32172 457
70.34184 466
70.36195 532
70.38207 477
70.40218 464
70.42229 496
70.44241 503
70.46252 463
70.48263 496
70.50275 484
70.52286 479
70.54297 500
70.56309 471
70.5832 463
70.60332 489
70.62343 451
70.64354 458
70.66366 442
70.68377 465
70.70388 476
70.724 470
70.74411 456
70.76423 446
70.78434 479
70.80445 446
70.82457 493
70.84468 446
70.86479 468
70.88491 461
70.90502 462
70.92513 449
70.94525 466
70.96536 475
70.98548 482
71.00559 484
71.0257 473
71.04582 455
71.06593 452
71.08604 484
71.10616 488
71.12627 479
71.14639 472
71.1665 476
71.18661 491
71.20673 459
71.22684 467
71.24695 480
71.26707 504
71.28718 479
71.3073 464
71.32741 460
71.34752 487
71.36764 501
71.38775 474
71.40786 511
71.42798 485
71.44809 479
71.4682 477
71.48832 435
71.50843 447
71.52855 486
71.54866 501
71.56877 462
71.58889 505
71.609 473
71.62911 442
71.64923 488
71.66934 502
71.68946 491
71.70957 494
71.72968 508
71.7498 473
71.76991 498
71.79002 484
71.81014 508
71.83025 509
71.85037 502
71.87048 481
71.89059 556
71.91071 469
71.93082 443
71.95093 505
71.97105 523
71.99116 506
72.01127 547
72.03139 491
72.0515 479
72.07162 519
72.09173 524
72.11184 461
72.13196 468
72.15207 437
72.17218 477
72.1923 513
72.21241 488
72.23253 553
72.25264 496
72.27275 518
72.29287 492
72.31298 485
72.33309 508
72.35321 504
72.37332 493
72.39344 497
72.41355 508
72.43366 533
72.45378 499
72.47389 525
72.494 487
72.51412 434
72.53423 511
72.55434 477
72.57446 457
72.59457 507
72.61469 484
72.6348 481
72.65491 483
72.67503 498
72.69514 464
72.71525 468
72.73537 489
72.75548 493
72.7756 480
72.79571 515
72.81582 501
72.83594 472
72.85605 487
72.87616 505
72.89628 461
72.91639 490
72.9365 472
72.95662 485
72.97673 483
72.99685 445
73.01696 461
73.03707 455
73.05719 488
73.0773 460
73.09741 501
73.11753 490
73.13764 496
73.15776 506
73.17787 474
73.19798 486
73.2181 501
73.23821 520
73.25832 523
73.27844 484
73.29855 507
73.31867 542
73.33878 519
73.35889 523
73.37901 589
73.39912 553
73.41923 560
73.43935 525
73.45946 524
73.47957 480
73.49969 493
73.5198 516
73.53992 505
73.56003 536
73.58014 535
73.60026 556
73.62037 529
73.64048 490
73.6606 510
73.68071 494
73.70083 454
73.72094 504
73.74105 462
73.76117 442
73.78128 471
73.80139 492
73.82151 471
73.84162 428
73.86174 487
73.88185 493
73.90196 465
73.92208 448
73.94219 481
73.9623 480
73.98242 488
74.00253 446
74.02264 489
74.04276 489
74.06287 444
74.08299 446
74.1031 487
74.12321 456
74.14333 448
74.16344 466
74.18355 459
74.20367 439
74.22378 475
74.2439 447
74.26401 475
74.28412 456
74.30424 429
74.32435 460
74.34446 459
74.36458 441
74.38469 477
74.40481 450
74.42492 420
74.44503 484
74.46515 441
74.48526 463
74.50537 461
74.52549 468
74.5456 477
74.56571 507
74.58583 441
74.60594 441
74.62606 439
74.64617 433
74.66628 452
74.6864 466
74.70651 477
74.72662 420
74.74674 465
74.76685 477
74.78697 468
74.80708 456
74.82719 473
74.84731 493
74.86742 441
74.88753 461
74.90765 481
74.92776 448
74.94787 453
74.96799 464
74.9881 495
75.00822 462
