3.00117 20180
3.02128 19991
3.0414 19022
3.06151 18702
3.08162 18166
3.10174 17595
3.12185 17075
3.14197 16418
3.16208 16268
3.18219 15413
3.20231 15239
3.22242 14829
3.24253 14436
3.26265 14080
3.28276 13514
3.30288 13081
3.32299 12698
3.3431 12192
3.36322 12159
3.38333 11343
3.40344 11307
3.42356 10867
3.44367 10262
3.46379 10249
3.4839 9590
3.50401 9413
3.52413 8970
3.54424 8609
3.56435 8591
3.58447 7937
3.60458 7838
3.62469 7540
3.64481 7029
3.66492 6914
3.68504 6396
3.70515 6328
3.72526 6159
3.74538 5596
3.76549 5704
3.7856 5125
3.80572 5282
3.82583 5131
3.84595 4824
3.86606 4616
3.88617 4348
3.90629 4155
3.9264 4137
3.94651 3814
3.96663 3616
3.98674 3473
4.00686 3443
4.02697 3306
4.04708 2894
4.0672 2859
4.08731 2749
4.10742 2606
4.12754 2697
4.14765 2287
4.16776 2347
4.18788 2258
4.20799 2175
4.22811 2105
4.24822 1880
4.26833 1910
4.28845 1785
4.30856 1801
4.32867 1852
4.34879 1604
4.3689 1667
4.38902 1567
4.40913 1583
4.42924 1510
4.44936 1287
4.46947 1395
4.48958 1466
4.5097 1295
4.52981 1375
4.54992 1185
4.57004 1198
4.59015 1201
4.61027 1229
4.63038 1256
4.65049 1062
4.67061 1118
4.69072 1081
4.71083 1047
4.73095 1082
4.75106 927
4.77118 974
4.79129 957
4.8114 959
4.83152 916
4.85163 840
4.87174 898
4.89186 919
4.91197 843
4.93209 803
4.9522 764
4.97231 703
4.99243 738
5.01254 745
5.03265 692
5.05277 627
5.07288 615
5.09299 673
5.11311 671
5.13322 633
5.15334 601
5.17345 566
5.19356 531
5.21368 570
5.23379 573
5.2539 553
5.27402 501
5.29413 469
5.31425 549
5.33436 562
5.35447 474
5.37459 474
5.3947 495
5.41481 497
5.43493 476
5.45504 469
5.47516 437
5.49527 418
5.51538 382
5.5355 422
5.55561 423
5.57572 399
5.59584 371
5.61595 344
5.63606 381
5.65618 360
5.67629 364
5.69641 340
5.71652 394
5.73663 350
5.75675 328
5.77686 353
5.79697 332
5.81709 328
5.8372 356
5.85732 317
5.87743 314
5.89754 313
5.91766 352
5.93777 325
5.95788 336
5.978 294
5.99811 260
6.01823 319
6.03834 279
6.05845 303
6.07857 281
6.09868 251
6.11879 282
6.13891 264
6.15902 257
6.17913 278
6.19925 284
6.21936 299
6.23948 263
6.25959 285
6.2797 257
6.29982 213
6.31993 264
6.34004 261
6.36016 283
6.38027 244
6.40039 250
6.4205 266
6.44061 250
6.46073 238
6.48084 255
6.50095 236
6.52107 259
6.54118 280
6.56129 271
6.58141 226
6.60152 271
6.62164 254
6.64175 259
6.66186 227
6.68198 255
6.70209 278
6.7222 231
6.74232 244
6.76243 241
6.78255 246
6.80266 252
6.82277 268
6.84289 246
6.863 267
6.88311 230
6.90323 244
6.92334 252
6.94346 227
6.96357 217
6.98368 247
7.0038 220
7.02391 221
7.04402 254
7.06414 276
7.08425 227
7.10436 251
7.12448 255
7.14459 244
7.16471 227
7.18482 222
7.20493 261
7.22505 242
7.24516 273
7.26527 239
7.28539 256
7.3055 261
7.32562 248
7.34573 258
7.36584 256
7.38596 251
7.40607 271
7.42618 242
7.4463 243
7.46641 238
7.48653 239
7.50664 267
7.52675 272
7.54687 244
7.56698 228
7.58709 232
7.60721 246
7.62732 262
7.64743 260
7.66755 269
7.68766 237
7.70778 264
7.72789 283
7.748 274
7.76812 250
7.78823 276
7.80834 264
7.82846 271
7.84857 295
7.86869 274
7.8888 241
7.90891 248
7.92903 256
7.94914 239
7.96925 237
7.98937 219
8.00948 248
8.0296 260
8.04971 282
8.06982 241
8.08994 302
8.11005 254
8.13016 245
8.15028 256
8.17039 231
8.1905 251
8.21062 285
8.23073 247
8.25085 261
8.27096 265
8.29107 234
8.31119 267
8.3313 240
8.35141 289
8.37153 233
8.39164 291
8.41176 247
8.43187 277
8.45198 283
8.4721 290
8.49221 277
8.51232 266
8.53244 249
8.55255 231
8.57266 292
8.59278 283
8.61289 264
8.63301 289
8.65312 307
8.67323 284
8.69335 316
8.71346 236
8.73357 291
8.75369 306
8.7738 299
8.79392 301
8.81403 295
8.83414 257
8.85426 299
8.87437 318
8.89448 330
8.9146 284
8.93471 299
8.95483 265
8.97494 292
8.99505 314
9.01517 280
9.03528 279
9.05539 252
9.07551 272
9.09562 273
9.11573 266
9.13585 248
9.15596 242
9.17608 269
9.19619 286
9.2163 235
9.23642 275
9.25653 264
9.27664 269
9.29676 262
9.31687 283
9.33699 268
9.3571 272
9.37721 251
9.39733 297
9.41744 268
9.43755 290
9.45767 278
9.47778 282
9.4979 267
9.51801 246
9.53812 274
9.55824 237
9.57835 266
9.59846 275
9.61858 246
9.63869 260
9.6588 288
9.67892 243
9.69903 246
9.71915 279
9.73926 265
9.75937 263
9.77949 269
9.7996 267
9.81971 281
9.83983 274
9.85994 237
9.88006 260
9.90017 242
9.92028 247
9.9404 283
9.96051 263
9.98062 276
10.00074 254
10.02085 278
10.04097 281
10.06108 249
10.08119 280
10.10131 271
10.12142 266
10.14153 280
10.16165 273
10.18176 250
10.20187 271
10.22199 282
10.2421 260
10.26222 301
10.28233 287
10.30244 252
10.32256 253
10.34267 255
10.36278 279
10.3829 259
10.40301 272
10.42313 260
10.44324 306
10.46335 270
10.48347 259
10.50358 284
10.52369 262
10.54381 237
10.56392 273
10.58403 257
10.60415 256
10.62426 265
10.64438 280
10.66449 272
10.6846 273
10.70472 288
10.72483 247
10.74494 257
10.76506 272
10.78517 256
10.80529 296
10.8254 260
10.84551 275
10.86563 258
10.88574 239
10.90585 278
10.92597 253
10.94608 230
10.9662 257
10.98631 240
11.00642 273
11.02654 290
11.04665 282
11.06676 275
11.08688 256
11.10699 252
11.1271 273
11.14722 264
11.16733 279
11.18745 265
11.20756 254
11.22767 259
11.24779 266
11.2679 241
11.28801 278
11.30813 272
11.32824 280
11.34836 289
11.36847 235
11.38858 298
11.4087 248
11.42881 267
11.44892 259
11.46904 282
11.48915 263
11.50927 278
11.52938 252
11.54949 286
11.56961 257
11.58972 282
11.60983 271
11.62995 304
11.65006 271
11.67017 279
11.69029 300
11.7104 253
11.73052 269
11.75063 265
11.77074 306
11.79086 263
11.81097 274
11.83108 252
11.8512 308
11.87131 272
11.89143 280
11.91154 251
11.93165 294
11.95177 285
11.97188 314
11.99199 308
12.01211 290
12.03222 265
12.05234 272
12.07245 294
12.09256 266
12.11268 320
12.13279 288
12.1529 273
12.17302 288
12.19313 256
12.21324 302
12.23336 275
12.25347 297
12.27359 286
12.2937 255
12.31381 253
12.33393 284
12.35404 252
12.37415 254
12.39427 279
12.41438 261
12.4345 270
12.45461 268
12.47472 262
12.49484 258
12.51495 259
12.53506 250
12.55518 231
12.57529 268
12.5954 248
12.61552 261
12.63563 269
12.65575 234
12.67586 274
12.69597 268
12.71609 287
12.7362 269
12.75631 259
12.77643 256
12.79654 221
12.81666 262
12.83677 253
12.85688 218
12.877 250
12.89711 233
12.91722 251
12.93734 259
12.95745 224
12.97757 262
12.99768 245
13.01779 231
13.03791 233
13.05802 250
13.07813 230
13.09825 265
13.11836 263
13.13847 275
13.15859 240
13.1787 228
13.19882 249
13.21893 252
13.23904 253
13.25916 250
13.27927 244
13.29938 209
13.3195 237
13.33961 266
13.35973 272
13.37984 233
13.39995 235
13.42007 237
13.44018 268
13.46029 239
13.48041 235
13.50052 252
13.52064 265
13.54075 292
13.56086 280
13.58098 271
13.60109 265
13.6212 320
13.64132 294
13.66143 264
13.68154 208
13.70166 271
13.72177 259
13.74189 250
13.762 241
13.78211 263
13.80223 245
13.82234 253
13.84245 255
13.86257 241
13.88268 207
13.9028 245
13.92291 250
13.94302 268
13.96314 239
13.98325 208
14.00336 236
14.02348 243
14.04359 214
14.06371 251
14.08382 246
14.10393 242
14.12405 205
14.14416 196
14.16427 226
14.18439 202
14.2045 236
14.22461 247
14.24473 217
14.26484 211
14.28496 219
14.30507 262
14.32518 250
14.3453 220
14.36541 242
14.38552 235
14.40564 227
14.42575 257
14.44587 234
14.46598 222
14.48609 226
14.50621 200
14.52632 213
14.54643 231
14.56655 243
14.58666 256
14.60677 196
14.62689 242
14.647 233
14.66712 238
14.68723 257
14.70734 220
14.72746 233
14.74757 210
14.76768 213
14.7878 201
14.80791 217
14.82803 228
14.84814 223
14.86825 250
14.88837 236
14.90848 206
14.92859 252
14.94871 235
14.96882 256
14.98894 245
15.00905 215
15.02916 225
15.04928 231
15.06939 249
15.0895 218
15.10962 252
15.12973 222
15.14984 255
15.16996 214
15.19007 251
15.21019 217
15.2303 236
15.25041 218
15.27053 199
15.29064 230
15.31075 220
15.33087 208
15.35098 211
15.3711 224
15.39121 208
15.41132 206
15.43144 231
15.45155 212
15.47166 183
15.49178 197
15.51189 207
15.53201 224
15.55212 186
15.57223 215
15.59235 213
15.61246 215
15.63257 222
15.65269 209
15.6728 203
15.69291 205
15.71303 208
15.73314 214
15.75326 227
15.77337 197
15.79348 216
15.8136 231
15.83371 223
15.85382 204
15.87394 184
15.89405 231
15.91417 245
15.93428 211
15.95439 213
15.97451 206
15.99462 237
16.01473 212
16.03485 212
16.05496 213
16.07508 237
16.09519 210
16.1153 214
16.13542 207
16.15553 237
16.17564 212
16.19576 216
16.21587 221
16.23598 196
16.2561 195
16.27621 211
16.29633 211
16.31644 198
16.33655 230
16.35667 222
16.37678 218
16.39689 215
16.41701 177
16.43712 214
16.45724 185
16.47735 224
16.49746 200
16.51758 241
16.53769 200
16.5578 183
16.57792 208
16.59803 201
16.61814 180
16.63826 196
16.65837 207
16.67849 208
16.6986 222
16.71871 208
16.73883 219
16.75894 216
16.77905 193
16.79917 199
16.81928 200
16.8394 204
16.85951 205
16.87962 196
16.89974 243
16.91985 232
16.93996 198
16.96008 185
16.98019 230
17.00031 215
17.02042 204
17.04053 202
17.06065 222
17.08076 224
17.10087 204
17.12099 226
17.1411 217
17.16121 219
17.18133 216
17.20144 224
17.22156 195
17.24167 223
17.26178 224
17.2819 229
17.30201 232
17.32212 218
17.34224 223
17.36235 205
17.38247 204
17.40258 195
17.42269 256
17.44281 219
17.46292 196
17.48303 190
17.50315 195
17.52326 239
17.54338 205
17.56349 208
17.5836 225
17.60372 210
17.62383 192
17.64394 222
17.66406 238
17.68417 224
17.70428 236
17.7244 215
17.74451 223
17.76463 222
17.78474 231
17.80485 231
17.82497 242
17.84508 250
17.86519 209
17.88531 191
17.90542 210
17.92554 213
17.94565 209
17.96576 222
17.98588 249
18.00599 260
18.0261 225
18.04622 203
18.06633 223
18.08645 241
18.10656 194
18.12667 212
18.14679 178
18.1669 209
18.18701 180
18.20713 209
18.22724 204
18.24735 222
18.26747 222
18.28758 239
18.3077 215
18.32781 217
18.34792 202
18.36804 192
18.38815 214
18.40826 204
18.42838 235
18.44849 212
18.46861 214
18.48872 220
18.50883 195
18.52895 228
18.54906 208
18.56917 225
18.58929 204
18.6094 224
18.62951 222
18.64963 197
18.66974 206
18.68986 227
18.70997 224
18.73008 215
18.7502 234
18.77031 215
18.79042 238
18.81054 245
18.83065 238
18.85077 203
18.87088 197
18.89099 234
18.91111 198
18.93122 219
18.95133 202
18.97145 195
18.99156 209
19.01168 214
19.03179 245
19.0519 223
19.07202 213
19.09213 222
19.11224 218
19.13236 232
19.15247 219
19.17258 245
19.1927 222
19.21281 229
19.23293 234
19.25304 212
19.27315 259
19.29327 227
19.31338 239
19.33349 218
19.35361 225
19.37372 263
19.39384 214
19.41395 235
19.43406 239
19.45418 244
19.47429 213
19.4944 301
19.51452 247
19.53463 243
19.55475 274
19.57486 274
19.59497 299
19.61509 265
19.6352 263
19.65531 289
19.67543 345
19.69554 322
19.71565 343
19.73577 340
19.75588 367
19.776 363
19.79611 364
19.81622 364
19.83634 370
19.85645 388
19.87656 407
19.89668 380
19.91679 403
19.93691 391
19.95702 380
19.97713 391
19.99725 400
20.01736 372
20.03747 361
20.05759 355
20.0777 355
20.09782 388
20.11793 399
20.13804 407
20.15816 343
20.17827 381
20.19838 350
20.2185 409
20.23861 361
20.25872 375
20.27884 387
20.29895 363
20.31907 354
20.33918 384
20.35929 354
20.37941 379
20.39952 400
20.41963 447
20.43975 447
20.45986 417
20.47998 474
20.50009 447
20.5202 461
20.54032 485
20.56043 449
20.58054 491
20.60066 560
20.62077 646
20.64088 719
20.661 837
20.68111 1094
20.70123 1526
20.72134 2076
20.74145 2862
20.76157 3831
20.78168 4959
20.80179 5922
20.82191 6676
20.84202 6256
20.86214 5733
20.88225 4445
20.90236 3226
20.92248 2185
20.94259 1506
20.9627 1017
20.98282 919
21.00293 786
21.02305 716
21.04316 701
21.06327 657
21.08339 605
21.1035 577
21.12361 542
21.14373 488
21.16384 488
21.18395 480
21.20407 421
21.22418 425
21.2443 402
21.26441 405
21.28452 419
21.30464 378
21.32475 406
21.34486 382
21.36498 407
21.38509 362
21.40521 333
21.42532 349
21.44543 389
21.46555 353
21.48566 350
21.50577 368
21.52589 327
21.546 296
21.56612 341
21.58623 316
21.60634 319
21.62646 307
21.64657 303
21.66668 335
21.6868 337
21.70691 323
21.72702 323
21.74714 306
21.76725 336
21.78737 295
21.80748 273
21.82759 283
21.84771 281
21.86782 342
21.88793 300
21.90805 314
21.92816 340
21.94828 299
21.96839 320
21.9885 330
22.00862 340
22.02873 360
22.04884 300
22.06896 328
22.08907 267
22.10919 298
22.1293 286
22.14941 264
22.16953 297
22.18964 313
22.20975 351
22.22987 317
22.24998 327
22.27009 308
22.29021 329
22.31032 340
22.33044 301
22.35055 362
22.37066 344
22.39078 304
22.41089 309
22.431 320
22.45112 346
22.47123 301
22.49135 283
22.51146 320
22.53157 311
22.55169 321
22.5718 259
22.59191 296
22.61203 292
22.63214 305
22.65225 298
22.67237 291
22.69248 300
22.7126 274
22.73271 299
22.75282 275
22.77294 258
22.79305 277
22.81316 269
22.83328 269
22.85339 268
22.87351 289
22.89362 262
22.91373 301
22.93385 271
22.95396 295
22.97407 283
22.99419 267
23.0143 306
23.03442 349
23.05453 304
23.07464 313
23.09476 333
23.11487 341
23.13498 340
23.1551 399
23.17521 344
23.19532 354
23.21544 331
23.23555 289
23.25567 342
23.27578 301
23.29589 306
23.31601 285
23.33612 312
23.35623 280
23.37635 295
23.39646 300
23.41658 338
23.43669 354
23.4568 361
23.47692 386
23.49703 417
23.51714 410
23.53726 395
23.55737 370
23.57749 343
23.5976 344
23.61771 350
23.63783 317
23.65794 338
23.67805 302
23.69817 317
23.71828 304
23.73839 307
23.75851 300
23.77862 308
23.79874 299
23.81885 306
23.83896 315
23.85908 335
23.87919 366
23.8993 365
23.91942 365
23.93953 384
23.95965 409
23.97976 400
23.99987 392
24.01999 360
24.0401 374
24.06021 295
24.08033 303
24.10044 299
24.12056 278
24.14067 298
24.16078 289
24.1809 319
24.20101 315
24.22112 312
24.24124 275
24.26135 309
24.28146 306
24.30158 309
24.32169 296
24.34181 294
24.36192 310
24.38203 278
24.40215 284
24.42226 298
24.44237 261
24.46249 290
24.4826 313
24.50272 273
24.52283 299
24.54294 314
24.56306 309
24.58317 325
24.60328 329
24.6234 310
24.64351 305
24.66362 315
24.68374 318
24.70385 322
24.72397 296
24.74408 290
24.76419 307
24.78431 282
24.80442 290
24.82453 289
24.84465 314
24.86476 317
24.88488 322
24.90499 286
24.9251 295
24.94522 308
24.96533 291
24.98544 304
25.00556 321
25.02567 276
25.04579 298
25.0659 292
25.08601 293
25.10613 316
25.12624 343
25.14635 305
25.16647 306
25.18658 362
25.20669 342
25.22681 401
25.24692 364
25.26704 405
25.28715 387
25.30726 421
25.32738 389
25.34749 405
25.3676 366
25.38772 359
25.40783 365
25.42795 371
25.44806 349
25.46817 367
25.48829 428
25.5084 443
25.52851 440
25.54863 452
25.56874 450
25.58886 503
25.60897 455
25.62908 504
25.6492 516
25.66931 527
25.68942 507
25.70954 479
25.72965 490
25.74976 468
25.76988 510
25.78999 445
25.81011 513
25.83022 458
25.85033 519
25.87045 474
25.89056 509
25.91067 493
25.93079 503
25.9509 499
25.97102 478
25.99113 481
26.01124 552
26.03136 569
26.05147 558
26.07158 545
26.0917 578
26.11181 677
26.13193 669
26.15204 690
26.17215 692
26.19227 766
26.21238 851
26.23249 885
26.25261 933
26.27272 976
26.29283 1151
26.31295 1195
26.33306 1391
26.35318 1532
26.37329 1858
26.3934 2206
26.41352 2707
26.43363 3533
26.45374 4829
26.47386 6731
26.49397 9183
26.51409 12828
26.5342 17358
26.55431 22351
26.57443 26293
26.59454 28820
26.61465 27990
26.63477 25969
26.65488 21749
26.67499 16332
26.69511 11870
26.71522 8088
26.73534 5096
26.75545 3240
26.77556 2190
26.79568 1663
26.81579 1454
26.8359 1281
26.85602 1168
26.87613 1141
26.89625 1069
26.91636 940
26.93647 977
26.95659 894
26.9767 864
26.99681 834
27.01693 800
27.03704 781
27.05716 783
27.07727 717
27.09738 685
27.1175 667
27.13761 652
27.15772 577
27.17784 544
27.19795 547
27.21806 566
27.23818 532
27.25829 554
27.27841 570
27.29852 575
27.31863 631
27.33875 641
27.35886 706
27.37897 762
27.39909 793
27.4192 880
27.43932 881
27.45943 823
27.47954 824
27.49966 817
27.51977 700
27.53988 657
27.56 568
27.58011 544
27.60023 527
27.62034 456
27.64045 402
27.66057 448
27.68068 432
27.70079 419
27.72091 411
27.74102 400
27.76113 377
27.78125 370
27.80136 368
27.82148 389
27.84159 355
27.8617 362
27.88182 348
27.90193 365
27.92204 365
27.94216 373
27.96227 345
27.98239 356
28.0025 312
28.02261 329
28.04273 330
28.06284 330
28.08295 276
28.10307 299
28.12318 326
28.1433 327
28.16341 297
28.18352 307
28.20364 319
28.22375 288
28.24386 289
28.26398 297
28.28409 286
28.3042 332
28.32432 336
28.34443 311
28.36455 323
28.38466 276
28.40477 275
28.42489 301
28.445 287
28.46511 284
28.48523 274
28.50534 276
28.52546 281
28.54557 266
28.56568 289
28.5858 312
28.60591 264
28.62602 290
28.64614 265
28.66625 294
28.68636 295
28.70648 278
28.72659 283
28.74671 280
28.76682 258
28.78693 281
28.80705 253
28.82716 274
28.84727 294
28.86739 255
28.8875 243
28.90762 298
28.92773 262
28.94784 240
28.96796 288
28.98807 272
29.00818 277
29.0283 285
29.04841 262
29.06853 260
29.08864 287
29.10875 257
29.12887 280
29.14898 287
29.16909 255
29.18921 261
29.20932 273
29.22943 275
29.24955 260
29.26966 273
29.28978 266
29.30989 283
29.33 281
29.35012 286
29.37023 298
29.39034 336
29.41046 315
29.43057 298
29.45069 302
29.4708 323
29.49091 328
29.51103 332
29.53114 302
29.55125 291
29.57137 283
29.59148 264
29.6116 269
29.63171 290
29.65182 283
29.67194 284
29.69205 309
29.71216 316
29.73228 338
29.75239 309
29.7725 340
29.79262 300
29.81273 334
29.83285 325
29.85296 377
29.87307 308
29.89319 302
29.9133 291
29.93341 300
29.95353 266
29.97364 281
29.99376 303
30.01387 303
30.03398 285
30.0541 320
30.07421 296
30.09432 303
30.11444 297
30.13455 327
30.15467 303
30.17478 274
30.19489 338
30.21501 288
30.23512 312
30.25523 287
30.27535 242
30.29546 287
30.31557 262
30.33569 264
30.3558 291
30.37592 266
30.39603 258
30.41614 266
30.43626 282
30.45637 256
30.47648 259
30.4966 267
30.51671 258
30.53683 250
30.55694 274
30.57705 274
30.59717 286
30.61728 283
30.63739 288
30.65751 310
30.67762 311
30.69773 352
30.71785 326
30.73796 366
30.75808 312
30.77819 319
30.7983 312
30.81842 322
30.83853 302
30.85864 310
30.87876 289
30.89887 281
30.91899 260
30.9391 276
30.95921 258
30.97933 258
30.99944 253
31.01955 213
31.03967 251
31.05978 257
31.0799 205
31.10001 256
31.12012 244
31.14024 246
31.16035 230
31.18046 229
31.20058 251
31.22069 237
31.2408 234
31.26092 230
31.28103 230
31.30115 204
31.32126 214
31.34137 226
31.36149 240
31.3816 261
31.40171 240
31.42183 268
31.44194 211
31.46206 221
31.48217 206
31.50228 221
31.5224 206
31.54251 250
31.56262 227
31.58274 261
31.60285 242
31.62297 223
31.64308 189
31.66319 218
31.68331 219
31.70342 208
31.72353 229
31.74365 227
31.76376 213
31.78387 228
31.80399 217
31.8241 224
31.84422 213
31.86433 224
31.88444 215
31.90456 221
31.92467 221
31.94478 223
31.9649 231
31.98501 222
32.00513 221
32.02524 216
32.04535 205
32.06547 249
32.08558 260
32.10569 246
32.12581 243
32.14592 207
32.16604 244
32.18615 246
32.20626 250
32.22638 237
32.24649 268
32.2666 243
32.28672 244
32.30683 283
32.32694 237
32.34706 245
32.36717 288
32.38729 251
32.4074 281
32.42751 258
32.44763 293
32.46774 222
32.48785 263
32.50797 266
32.52808 247
32.5482 246
32.56831 234
32.58842 262
32.60854 218
32.62865 223
32.64876 240
32.66888 224
32.68899 249
32.7091 222
32.72922 218
32.74933 222
32.76945 224
32.78956 239
32.80967 223
32.82979 216
32.8499 241
32.87001 200
32.89013 222
32.91024 221
32.93036 206
32.95047 205
32.97058 238
32.9907 234
33.01081 213
33.03092 221
33.05104 238
33.07115 207
33.09127 208
33.11138 210
33.13149 226
33.15161 202
33.17172 218
33.19183 215
33.21195 230
33.23206 206
33.25217 209
33.27229 219
33.2924 244
33.31252 202
33.33263 237
33.35274 209
33.37286 217
33.39297 230
33.41308 221
33.4332 253
33.45331 240
33.47343 214
33.49354 219
33.51365 198
33.53377 212
33.55388 247
33.57399 226
33.59411 243
33.61422 232
33.63434 207
33.65445 208
33.67456 208
33.69468 232
33.71479 225
33.7349 196
33.75502 226
33.77513 223
33.79524 207
33.81536 198
33.83547 222
33.85559 219
33.8757 194
33.89581 215
33.91593 207
33.93604 216
33.95615 222
33.97627 209
33.99638 236
34.0165 228
34.03661 214
34.05672 243
34.07684 222
34.09695 222
34.11706 237
34.13718 257
34.15729 246
34.17741 242
34.19752 257
34.21763 235
34.23775 245
34.25786 255
34.27797 253
34.29809 225
34.3182 232
34.33831 265
34.35843 241
34.37854 262
34.39866 293
34.41877 220
34.43888 259
34.459 250
34.47911 262
34.49922 238
34.51934 277
34.53945 239
34.55957 270
34.57968 282
34.59979 275
34.61991 272
34.64002 285
34.66013 298
34.68025 298
34.70036 293
34.72047 310
34.74059 314
34.7607 321
34.78082 330
34.80093 315
34.82104 306
34.84116 344
34.86127 300
34.88138 346
34.9015 313
34.92161 362
34.94173 322
34.96184 342
34.98195 349
35.00207 315
35.02218 308
35.04229 305
35.06241 361
35.08252 323
35.10264 318
35.12275 312
35.14286 258
35.16298 292
35.18309 296
35.2032 294
35.22332 302
35.24343 324
35.26354 294
35.28366 269
35.30377 290
35.32389 318
35.344 301
35.36411 314
35.38423 303
35.40434 308
35.42445 310
35.44457 279
35.46468 270
35.4848 311
35.50491 316
35.52502 313
35.54514 309
35.56525 316
35.58536 286
35.60548 289
35.62559 276
35.64571 274
35.66582 273
35.68593 290
35.70605 280
35.72616 252
35.74627 257
35.76639 264
35.7865 264
35.80661 276
35.82673 265
35.84684 267
35.86696 271
35.88707 290
35.90718 283
35.9273 280
35.94741 247
35.96752 308
35.98764 262
36.00775 288
36.02787 295
36.04798 285
36.06809 299
36.08821 305
36.10832 280
36.12843 326
36.14855 291
36.16866 317
36.18878 353
36.20889 310
36.229 340
36.24912 373
36.26923 390
36.28934 444
36.30946 479
36.32957 563
36.34968 634
36.3698 775
36.38991 986
36.41003 1253
36.43014 1480
36.45025 1780
36.47037 2032
36.49048 2153
36.51059 2138
36.53071 1974
36.55082 1778
36.57094 1448
36.59105 1239
36.61116 1039
36.63128 897
36.65139 666
36.6715 555
36.69162 397
36.71173 425
36.73184 319
36.75196 368
36.77207 328
36.79219 357
36.8123 315
36.83241 331
36.85253 324
36.87264 270
36.89275 312
36.91287 307
36.93298 313
36.9531 319
36.97321 265
36.99332 301
37.01344 289
37.03355 300
37.05366 320
37.07378 274
37.09389 270
37.11401 261
37.13412 280
37.15423 226
37.17435 285
37.19446 256
37.21457 252
37.23469 254
37.2548 246
37.27491 249
37.29503 235
37.31514 236
37.33526 214
37.35537 247
37.37548 227
37.3956 236
37.41571 253
37.43582 272
37.45594 252
37.47605 248
37.49617 252
37.51628 263
37.53639 251
37.55651 232
37.57662 233
37.59673 229
37.61685 240
37.63696 270
37.65708 238
37.67719 252
37.6973 250
37.71742 256
37.73753 285
37.75764 267
37.77776 285
37.79787 238
37.81798 262
37.8381 253
37.85821 254
37.87833 247
37.89844 256
37.91855 227
37.93867 273
37.95878 244
37.97889 234
37.99901 229
38.01912 238
38.03924 228
38.05935 251
38.07946 236
38.09958 265
38.11969 260
38.1398 257
38.15992 251
38.18003 279
38.20015 249
38.22026 231
38.24037 226
38.26049 247
38.2806 250
38.30071 253
38.32083 241
38.34094 252
38.36105 223
38.38117 246
38.40128 271
38.4214 246
38.44151 225
38.46162 264
38.48174 275
38.50185 272
38.52196 273
38.54208 284
38.56219 309
38.58231 245
38.60242 254
38.62253 275
38.64265 258
38.66276 237
38.68287 251
38.70299 261
38.7231 236
38.74321 263
38.76333 237
38.78344 229
38.80356 236
38.82367 237
38.84378 240
38.8639 246
38.88401 245
38.90412 238
38.92424 224
38.94435 251
38.96447 225
38.98458 256
39.00469 236
39.02481 284
39.04492 256
39.06503 273
39.08515 254
39.10526 274
39.12538 333
39.14549 281
39.1656 277
39.18572 359
39.20583 378
39.22594 438
39.24606 484
39.26617 569
39.28628 659
39.3064 839
39.32651 1034
39.34663 1284
39.36674 1494
39.38685 1643
39.40697 1882
39.42708 1955
39.44719 1855
39.46731 1614
39.48742 1438
39.50754 1238
39.52765 1092
39.54776 958
39.56788 743
39.58799 585
39.6081 447
39.62822 345
39.64833 307
39.66845 299
39.68856 283
39.70867 290
39.72879 265
39.7489 278
39.76901 279
39.78913 280
39.80924 269
39.82935 273
39.84947 230
39.86958 250
39.8897 272
39.90981 255
39.92992 272
39.95004 271
39.97015 295
39.99026 310
40.01038 314
40.03049 303
40.05061 367
40.07072 406
40.09083 417
40.11095 475
40.13106 533
40.15117 624
40.17129 727
40.1914 886
40.21152 976
40.23163 1033
40.25174 1056
40.27186 1008
40.29197 863
40.31208 761
40.3322 709
40.35231 591
40.37242 549
40.39254 481
40.41265 390
40.43277 342
40.45288 285
40.47299 270
40.49311 247
40.51322 262
40.53333 264
40.55345 264
40.57356 244
40.59368 233
40.61379 236
40.6339 243
40.65402 224
40.67413 194
40.69424 246
40.71436 229
40.73447 230
40.75458 212
40.7747 209
40.79481 227
40.81493 240
40.83504 219
40.85515 225
40.87527 234
40.89538 225
40.91549 207
40.93561 250
40.95572 244
40.97584 229
40.99595 214
41.01606 217
41.03618 227
41.05629 228
41.0764 231
41.09652 214
41.11663 209
41.13675 264
41.15686 205
41.17697 232
41.19709 218
41.2172 226
41.23731 213
41.25743 210
41.27754 230
41.29765 207
41.31777 218
41.33788 219
41.358 236
41.37811 236
41.39822 236
41.41834 235
41.43845 240
41.45856 236
41.47868 239
41.49879 230
41.51891 248
41.53902 243
41.55913 254
41.57925 252
41.59936 250
41.61947 260
41.63959 272
41.6597 275
41.67982 237
41.69993 283
41.72004 302
41.74016 309
41.76027 333
41.78038 313
41.8005 275
41.82061 274
41.84072 290
41.86084 272
41.88095 308
41.90107 255
41.92118 251
41.94129 214
41.96141 245
41.98152 224
42.00163 218
42.02175 244
42.04186 227
42.06198 242
42.08209 254
42.1022 267
42.12232 270
42.14243 281
42.16254 308
42.18266 342
42.20277 361
42.22289 438
42.243 456
42.26311 544
42.28323 657
42.30334 806
42.32345 961
42.34357 1171
42.36368 1277
42.38379 1427
42.40391 1435
42.42402 1277
42.44414 1168
42.46425 1039
42.48436 976
42.50448 823
42.52459 730
42.5447 650
42.56482 515
42.58493 440
42.60505 323
42.62516 273
42.64527 281
42.66539 269
42.6855 280
42.70561 224
42.72573 234
42.74584 243
42.76595 260
42.78607 219
42.80618 244
42.8263 235
42.84641 208
42.86652 235
42.88664 237
42.90675 200
42.92686 229
42.94698 193
42.96709 224
42.98721 205
43.00732 219
43.02743 205
43.04755 211
43.06766 206
43.08777 212
43.10789 201
43.128 193
43.14812 185
43.16823 205
43.18834 229
43.20846 181
43.22857 215
43.24868 210
43.2688 183
43.28891 204
43.30902 206
43.32914 177
43.34925 185
43.36937 208
43.38948 206
43.40959 206
43.42971 183
43.44982 180
43.46993 213
43.49005 194
43.51016 214
43.53028 182
43.55039 207
43.5705 175
43.59062 182
43.61073 222
43.63084 219
43.65096 207
43.67107 211
43.69119 221
43.7113 231
43.73141 220
43.75153 177
43.77164 199
43.79175 207
43.81187 203
43.83198 187
43.85209 201
43.87221 198
43.89232 183
43.91244 195
43.93255 191
43.95266 209
43.97278 217
43.99289 218
44.013 228
44.03312 211
44.05323 208
44.07335 215
44.09346 215
44.11357 199
44.13369 193
44.1538 182
44.17391 206
44.19403 215
44.21414 201
44.23426 203
44.25437 208
44.27448 193
44.2946 207
44.31471 189
44.33482 206
44.35494 196
44.37505 182
44.39516 207
44.41528 199
44.43539 168
44.45551 192
44.47562 210
44.49573 214
44.51585 194
44.53596 195
44.55607 179
44.57619 195
44.5963 202
44.61642 220
44.63653 203
44.65664 219
44.67676 187
44.69687 199
44.71698 205
44.7371 193
44.75721 225
44.77732 183
44.79744 206
44.81755 186
44.83767 212
44.85778 191
44.87789 209
44.89801 190
44.91812 197
44.93823 210
44.95835 204
44.97846 194
44.99858 200
45.01869 210
45.0388 216
45.05892 229
45.07903 190
45.09914 238
45.11926 210
45.13937 171
45.15949 212
45.1796 193
45.19971 217
45.21983 200
45.23994 221
45.26005 198
45.28017 224
45.30028 230
45.32039 218
45.34051 238
45.36062 220
45.38074 229
45.40085 247
45.42096 236
45.44108 239
45.46119 271
45.4813 298
45.50142 298
45.52153 322
45.54165 314
45.56176 316
45.58187 392
45.60199 411
45.6221 499
45.64221 588
45.66233 699
45.68244 748
45.70256 870
45.72267 976
45.74278 968
45.7629 878
45.78301 858
45.80312 688
45.82324 669
45.84335 645
45.86346 590
45.88358 526
45.90369 498
45.92381 381
45.94392 344
45.96403 251
45.98415 282
46.00426 239
46.02437 242
46.04449 252
46.0646 226
46.08472 224
46.10483 220
46.12494 232
46.14506 214
46.16517 209
46.18528 231
46.2054 222
46.22551 213
46.24563 206
46.26574 200
46.28585 206
46.30597 194
46.32608 209
46.34619 209
46.36631 218
46.38642 207
46.40653 200
46.42665 191
46.44676 207
46.46688 222
46.48699 197
46.5071 202
46.52722 187
46.54733 177
46.56744 175
46.58756 179
46.60767 207
46.62779 204
46.6479 219
46.66801 188
46.68813 183
46.70824 163
46.72835 213
46.74847 156
46.76858 195
46.78869 196
46.80881 182
46.82892 186
46.84904 188
46.86915 163
46.88926 192
46.90938 198
46.92949 188
46.9496 216
46.96972 209
46.98983 194
47.00995 203
47.03006 196
47.05017 213
47.07029 203
47.0904 183
47.11051 202
47.13063 223
47.15074 208
47.17086 198
47.19097 251
47.21108 209
47.2312 226
47.25131 209
47.27142 210
47.29154 200
47.31165 244
47.33176 198
47.35188 199
47.37199 225
47.39211 204
47.41222 209
47.43233 214
47.45245 216
47.47256 188
47.49267 203
47.51279 210
47.5329 196
47.55302 194
47.57313 214
47.59324 192
47.61336 203
47.63347 223
47.65358 207
47.6737 170
47.69381 187
47.71393 191
47.73404 186
47.75415 196
47.77427 217
47.79438 181
47.81449 186
47.83461 199
47.85472 189
47.87483 208
47.89495 192
47.91506 207
47.93518 219
47.95529 199
47.9754 188
47.99552 194
48.01563 180
48.03574 214
48.05586 204
48.07597 199
48.09609 199
48.1162 194
48.13631 178
48.15643 181
48.17654 177
48.19665 186
48.21677 178
48.23688 188
48.257 190
48.27711 195
48.29722 226
48.31734 199
48.33745 218
48.35756 216
48.37768 186
48.39779 187
48.4179 191
48.43802 194
48.45813 171
48.47825 172
48.49836 175
48.51847 217
48.53859 188
48.5587 212
48.57881 205
48.59893 205
48.61904 201
48.63916 210
48.65927 228
48.67938 207
48.6995 199
48.71961 225
48.73972 208
48.75984 188
48.77995 207
48.80006 218
48.82018 239
48.84029 226
48.86041 230
48.88052 196
48.90063 217
48.92075 207
48.94086 206
48.96097 209
48.98109 217
49.0012 229
49.02132 237
49.04143 219
49.06154 215
49.08166 200
49.10177 229
49.12188 212
49.142 214
49.16211 202
49.18223 221
49.20234 231
49.22245 202
49.24257 224
49.26268 219
49.28279 200
49.30291 232
49.32302 201
49.34313 207
49.36325 212
49.38336 223
49.40348 216
49.42359 208
49.4437 191
49.46382 225
49.48393 231
49.50404 216
49.52416 211
49.54427 221
49.56439 214
49.5845 233
49.60461 230
49.62473 247
49.64484 253
49.66495 254
49.68507 248
49.70518 299
49.7253 291
49.74541 316
49.76552 332
49.78564 365
49.80575 397
49.82586 426
49.84598 474
49.86609 582
49.8862 603
49.90632 711
49.92643 899
49.94655 1095
49.96666 1355
49.98677 1628
50.00689 1939
50.027 2382
50.04711 2758
50.06723 2980
50.08734 3161
50.10746 2786
50.12757 2435
50.14768 2108
50.1678 1864
50.18791 1797
50.20802 1690
50.22814 1517
50.24825 1341
50.26837 994
50.28848 750
50.30859 597
50.32871 482
50.34882 374
50.36893 331
50.38905 351
50.40916 343
50.42927 357
50.44939 356
50.4695 340
50.48962 361
50.50973 337
50.52984 363
50.54996 332
50.57007 336
50.59018 335
50.6103 332
50.63041 329
50.65053 308
50.67064 322
50.69075 294
50.71087 333
50.73098 319
50.75109 306
50.77121 258
50.79132 283
50.81143 254
50.83155 240
50.85166 251
50.87178 216
50.89189 224
50.912 195
50.93212 227
50.95223 203
50.97234 206
50.99246 172
51.01257 200
51.03269 199
51.0528 206
51.07291 217
51.09303 212
51.11314 207
51.13325 193
51.15337 192
51.17348 206
51.1936 202
51.21371 188
51.23382 203
51.25394 204
51.27405 179
51.29416 172
51.31428 179
51.33439 199
51.3545 181
51.37462 205
51.39473 191
51.41485 170
51.43496 205
51.45507 181
51.47519 221
51.4953 201
51.51541 193
51.53553 184
51.55564 164
51.57576 191
51.59587 245
51.61598 179
51.6361 195
51.65621 179
51.67632 195
51.69644 201
51.71655 158
51.73667 189
51.75678 173
51.77689 186
51.79701 203
51.81712 199
51.83723 167
51.85735 167
51.87746 173
51.89757 180
51.91769 193
51.9378 175
51.95792 211
51.97803 165
51.99814 175
52.01826 178
52.03837 166
52.05848 176
52.0786 183
52.09871 145
52.11883 178
52.13894 181
52.15905 158
52.17917 196
52.19928 155
52.21939 202
52.23951 172
52.25962 172
52.27974 180
52.29985 180
52.31996 210
52.34008 179
52.36019 207
52.3803 169
52.40042 187
52.42053 206
52.44064 187
52.46076 184
52.48087 181
52.50099 189
52.5211 166
52.54121 202
52.56133 160
52.58144 204
52.60155 191
52.62167 194
52.64178 158
52.6619 201
52.68201 156
52.70212 208
52.72224 203
52.74235 185
52.76246 180
52.78258 204
52.80269 189
52.8228 206
52.84292 196
52.86303 183
52.88315 203
52.90326 200
52.92337 192
52.94349 195
52.9636 226
52.98371 173
53.00383 205
53.02394 194
53.04406 172
53.06417 216
53.08428 231
53.1044 234
53.12451 205
53.14462 206
53.16474 199
53.18485 205
53.20497 224
53.22508 234
53.24519 220
53.26531 224
53.28542 223
53.30553 226
53.32565 231
53.34576 216
53.36587 234
53.38599 208
53.4061 212
53.42622 236
53.44633 244
53.46644 240
53.48656 216
53.50667 218
53.52678 206
53.5469 195
53.56701 212
53.58713 201
53.60724 215
53.62735 216
53.64747 200
53.66758 232
53.68769 201
53.70781 210
53.72792 206
53.74804 206
53.76815 220
53.78826 185
53.80838 227
53.82849 228
53.8486 218
53.86872 216
53.88883 208
53.90894 217
53.92906 217
53.94917 191
53.96929 220
53.9894 196
54.00951 178
54.02963 232
54.04974 250
54.06985 248
54.08997 219
54.11008 207
54.1302 233
54.15031 202
54.17042 260
54.19054 229
54.21065 215
54.23076 218
54.25088 213
54.27099 232
54.29111 258
54.31122 237
54.33133 218
54.35145 245
54.37156 262
54.39167 238
54.41179 252
54.4319 256
54.45201 230
54.47213 261
54.49224 217
54.51236 250
54.53247 269
54.55258 267
54.5727 303
54.59281 297
54.61292 329
54.63304 346
54.65315 434
54.67327 455
54.69338 530
54.71349 598
54.73361 674
54.75372 761
54.77383 890
54.79395 971
54.81406 995
54.83417 953
54.85429 850
54.8744 742
54.89452 700
54.91463 645
54.93474 644
54.95486 671
54.97497 600
54.99508 561
55.0152 468
55.03531 390
55.05543 374
55.07554 278
55.09565 320
55.11577 356
55.13588 353
55.15599 395
55.17611 425
55.19622 470
55.21634 502
55.23645 548
55.25656 540
55.27668 553
55.29679 580
55.3169 501
55.33702 454
55.35713 410
55.37724 342
55.39736 383
55.41747 373
55.43759 369
55.4577 323
55.47781 313
55.49793 260
55.51804 263
55.53815 240
55.55827 228
55.57838 234
55.5985 214
55.61861 211
55.63872 223
55.65884 253
55.67895 237
55.69906 215
55.71918 235
55.73929 209
55.75941 194
55.77952 208
55.79963 208
55.81975 215
55.83986 210
55.85997 187
55.88009 212
55.9002 205
55.92031 213
55.94043 189
55.96054 169
55.98066 196
56.00077 196
56.02088 186
56.041 193
56.06111 202
56.08122 194
56.10134 191
56.12145 198
56.14157 176
56.16168 170
56.18179 194
56.20191 181
56.22202 193
56.24213 183
56.26225 181
56.28236 202
56.30248 195
56.32259 206
56.3427 194
56.36282 186
56.38293 193
56.40304 190
56.42316 188
56.44327 172
56.46338 194
56.4835 196
56.50361 187
56.52373 193
56.54384 171
56.56395 185
56.58407 196
56.60418 193
56.62429 192
56.64441 176
56.66452 208
56.68464 192
56.70475 203
56.72486 174
56.74498 203
56.76509 202
56.7852 191
56.80532 195
56.82543 188
56.84554 166
56.86566 197
56.88577 222
56.90589 199
56.926 171
56.94611 181
56.96623 168
56.98634 174
57.00645 198
57.02657 190
57.04668 202
57.0668 221
57.08691 193
57.10702 196
57.12714 231
57.14725 234
57.16736 212
57.18748 205
57.20759 224
57.22771 198
57.24782 191
57.26793 211
57.28805 194
57.30816 185
57.32827 209
57.34839 227
57.3685 200
57.38861 182
57.40873 183
57.42884 175
57.44896 207
57.46907 214
57.48918 189
57.5093 202
57.52941 157
57.54952 170
57.56964 181
57.58975 196
57.60987 215
57.62998 207
57.65009 204
57.67021 198
57.69032 201
57.71043 179
57.73055 200
57.75066 190
57.77078 186
57.79089 173
57.811 161
57.83112 194
57.85123 197
57.87134 170
57.89146 202
57.91157 210
57.93168 189
57.9518 176
57.97191 189
57.99203 187
58.01214 212
58.03225 181
58.05237 193
58.07248 175
58.09259 158
58.11271 172
58.13282 185
58.15294 205
58.17305 189
58.19316 199
58.21328 197
58.23339 176
58.2535 217
58.27362 184
58.29373 163
58.31385 191
58.33396 187
58.35407 196
58.37419 175
58.3943 207
58.41441 189
58.43453 182
58.45464 183
58.47475 188
58.49487 198
58.51498 189
58.5351 161
58.55521 179
58.57532 214
58.59544 184
58.61555 199
58.63566 186
58.65578 199
58.67589 175
58.69601 182
58.71612 191
58.73623 217
58.75635 185
58.77646 191
58.79657 181
58.81669 165
58.8368 193
58.85691 184
58.87703 178
58.89714 186
58.91726 198
58.93737 196
58.95748 188
58.9776 187
58.99771 164
59.01782 204
59.03794 221
59.05805 199
59.07817 207
59.09828 200
59.11839 170
59.13851 203
59.15862 189
59.17873 190
59.19885 209
59.21896 210
59.23908 205
59.25919 211
59.2793 208
59.29942 188
59.31953 191
59.33964 221
59.35976 221
59.37987 223
59.39998 234
59.4201 215
59.44021 245
59.46033 253
59.48044 219
59.50055 233
59.52067 276
59.54078 288
59.56089 298
59.58101 332
59.60112 315
59.62124 330
59.64135 401
59.66146 400
59.68158 479
59.70169 540
59.7218 638
59.74192 719
59.76203 860
59.78215 938
59.80226 1193
59.82237 1409
59.84249 1604
59.8626 1854
59.88271 1841
59.90283 1843
59.92294 1778
59.94305 1547
59.96317 1314
59.98328 1220
60.0034 1118
60.02351 1085
60.04362 1102
60.06374 972
60.08385 959
60.10396 776
60.12408 627
60.14419 476
60.16431 366
60.18442 295
60.20453 266
60.22465 244
60.24476 237
60.26487 258
60.28499 219
60.3051 216
60.32522 213
60.34533 222
60.36544 230
60.38556 203
60.40567 211
60.42578 222
60.4459 209
60.46601 183
60.48612 203
60.50624 213
60.52635 200
60.54647 172
60.56658 198
60.58669 188
60.60681 186
60.62692 190
60.64703 200
60.66715 211
60.68726 204
60.70738 211
60.72749 198
60.7476 196
60.76772 191
60.78783 189
60.80794 173
60.82806 185
60.84817 198
60.86828 197
60.8884 176
60.90851 185
60.92863 175
60.94874 195
60.96885 185
60.98897 154
61.00908 199
61.02919 176
61.04931 211
61.06942 199
61.08954 199
61.10965 200
61.12976 210
61.14988 188
61.16999 194
61.1901 213
61.21022 210
61.23033 204
61.25045 211
61.27056 197
61.29067 212
61.31079 203
61.3309 185
61.35101 189
61.37113 199
61.39124 227
61.41135 170
61.43147 217
61.45158 188
61.4717 197
61.49181 205
61.51192 214
61.53204 212
61.55215 184
61.57226 208
61.59238 199
61.61249 209
61.63261 212
61.65272 208
61.67283 215
61.69295 214
61.71306 217
61.73317 233
61.75329 228
61.7734 215
61.79352 202
61.81363 227
61.83374 221
61.85386 214
61.87397 224
61.89408 240
61.9142 238
61.93431 222
61.95442 230
61.97454 247
61.99465 226
62.01477 205
62.03488 248
62.05499 215
62.07511 221
62.09522 207
62.11533 221
62.13545 216
62.15556 227
62.17568 257
62.19579 216
62.2159 206
62.23602 197
62.25613 221
62.27624 219
62.29636 194
62.31647 208
62.33659 184
62.3567 205
62.37681 197
62.39693 208
62.41704 182
62.43715 207
62.45727 196
62.47738 196
62.49749 222
62.51761 199
62.53772 192
62.55784 180
62.57795 183
62.59806 185
62.61818 202
62.63829 177
62.6584 189
62.67852 204
62.69863 195
62.71875 199
62.73886 176
62.75897 206
62.77909 188
62.7992 229
62.81931 201
62.83943 190
62.85954 195
62.87965 209
62.89977 197
62.91988 186
62.94 203
62.96011 206
62.98022 186
63.00034 218
63.02045 195
63.04056 183
63.06068 187
63.08079 187
63.10091 194
63.12102 194
63.14113 205
63.16125 209
63.18136 186
63.20147 191
63.22159 182
63.2417 184
63.26182 172
63.28193 194
63.30204 201
63.32216 174
63.34227 182
63.36238 199
63.3825 168
63.40261 176
63.42272 162
63.44284 188
63.46295 195
63.48307 166
63.50318 204
63.52329 178
63.54341 203
63.56352 195
63.58363 192
63.60375 211
63.62386 211
63.64398 187
63.66409 208
63.6842 216
63.70432 233
63.72443 226
63.74454 236
63.76466 251
63.78477 259
63.80489 261
63.825 275
63.84511 328
63.86523 342
63.88534 375
63.90545 407
63.92557 479
63.94568 493
63.96579 501
63.98591 488
64.00602 447
64.02614 416
64.04625 372
64.06636 371
64.08648 329
64.10659 331
64.1267 368
64.14682 340
64.16693 345
64.18705 278
64.20716 262
64.22727 238
64.24739 217
64.2675 220
64.28761 190
64.30773 201
64.32784 197
64.34796 177
64.36807 185
64.38818 189
64.4083 175
64.42841 172
64.44852 166
64.46864 186
64.48875 175
64.50886 179
64.52898 185
64.54909 184
64.56921 160
64.58932 173
64.60943 173
64.62955 174
64.64966 160
64.66977 165
64.68989 164
64.71 183
64.73012 174
64.75023 189
64.77034 173
64.79046 171
64.81057 183
64.83068 164
64.8508 175
64.87091 159
64.89102 174
64.91114 201
64.93125 162
64.95137 188
64.97148 177
64.99159 186
65.01171 155
65.03182 170
65.05193 164
65.07205 183
65.09216 168
65.11228 194
65.13239 192
65.1525 197
65.17262 198
65.19273 194
65.21284 180
65.23296 168
65.25307 197
65.27319 202
65.2933 185
65.31341 192
65.33353 197
65.35364 188
65.37375 199
65.39387 193
65.41398 166
65.43409 193
65.45421 189
65.47432 195
65.49444 228
65.51455 175
65.53466 177
65.55478 204
65.57489 193
65.595 220
65.61512 204
65.63523 213
65.65535 228
65.67546 229
65.69557 241
65.71569 253
65.7358 239
65.75591 236
65.77603 240
65.79614 225
65.81626 241
65.83637 208
65.85648 210
65.8766 228
65.89671 204
65.91682 222
65.93694 193
65.95705 210
65.97716 192
65.99728 236
66.01739 186
66.03751 186
66.05762 186
66.07773 169
66.09785 183
66.11796 167
66.13807 186
66.15819 186
66.1783 203
66.19842 211
66.21853 149
66.23864 186
66.25876 184
66.27887 195
66.29898 182
66.3191 200
66.33921 185
66.35933 183
66.37944 168
66.39955 208
66.41967 171
66.43978 192
66.45989 204
66.48001 196
66.50012 195
66.52023 196
66.54035 138
66.56046 172
66.58058 179
66.60069 174
66.6208 175
66.64092 190
66.66103 192
66.68114 164
66.70126 181
66.72137 172
66.74149 179
66.7616 186
66.78171 189
66.80183 187
66.82194 199
66.84205 185
66.86217 192
66.88228 195
66.90239 180
66.92251 176
66.94262 195
66.96274 186
66.98285 196
67.00296 190
67.02308 180
67.04319 212
67.0633 218
67.08342 204
67.10353 203
67.12365 210
67.14376 191
67.16387 203
67.18399 205
67.2041 221
67.22421 244
67.24433 206
67.26444 247
67.28456 259
67.30467 259
67.32478 251
67.3449 256
67.36501 277
67.38512 265
67.40524 313
67.42535 336
67.44546 303
67.46558 368
67.48569 440
67.50581 469
67.52592 531
67.54603 597
67.56615 683
67.58626 827
67.60637 851
67.62649 1108
67.6466 1165
67.66672 1180
67.68683 1123
67.70694 1090
67.72706 1014
67.74717 918
67.76728 741
67.7874 719
67.80751 796
67.82763 818
67.84774 880
67.86785 917
67.88797 868
67.90808 869
67.92819 894
67.94831 943
67.96842 930
67.98853 1050
68.00865 1184
68.02876 1332
68.04888 1463
68.06899 1529
68.0891 1567
68.10922 1505
68.12933 1331
68.14944 1318
68.16956 1218
68.18967 1238
68.20979 1293
68.2299 1490
68.25001 1507
68.27013 1400
68.29024 1305
68.31035 1062
68.33047 949
68.35058 776
68.3707 666
68.39081 592
68.41092 619
68.43104 593
68.45115 586
68.47126 497
68.49138 453
68.51149 391
68.5316 338
68.55172 279
68.57183 279
68.59195 257
68.61206 233
68.63217 219
68.65229 225
68.6724 193
68.69251 210
68.71263 196
68.73274 207
68.75286 216
68.77297 194
68.79308 183
68.8132 186
68.83331 189
68.85342 206
68.87354 197
68.89365 186
68.91376 165
68.93388 184
68.95399 205
68.97411 161
68.99422 191
69.01433 208
69.03445 181
69.05456 190
69.07467 186
69.09479 169
69.1149 143
69.13502 165
69.15513 173
69.17524 168
69.19536 197
69.21547 164
69.23558 164
69.2557 177
69.27581 175
69.29593 170
69.31604 191
69.33615 179
69.35627 174
69.37638 181
69.39649 165
69.41661 185
69.43672 182
69.45683 158
69.47695 162
69.49706 158
69.51718 170
69.53729 171
69.5574 144
69.57752 172
69.59763 157
69.61774 178
69.63786 184
69.65797 168
69.67809 161
69.6982 153
69.71831 162
69.73843 155
69.75854 165
69.77865 186
69.79877 182
69.81888 177
69.839 178
69.85911 165
69.87922 155
69.89934 160
69.91945 186
69.93956 156
69.95968 171
69.97979 162
69.9999 155
70.02002 184
70.04013 180
70.06025 162
70.08036 179
70.10047 171
70.12059 150
70.1407 172
70.16081 175
70.18093 175
70.20104 154
70.22116 186
70.24127 166
70.26138 157
70.2815 169
70.30161 166
70.32172 187
70.34184 172
70.36195 174
70.38207 166
70.40218 159
70.42229 177
70.44241 140
70.46252 192
70.48263 197
70.50275 158
70.52286 160
70.54297 181
70.56309 179
70.5832 172
70.60332 159
70.62343 159
70.64354 148
70.66366 198
70.68377 175
70.70388 169
70.724 167
70.74411 168
70.76423 144
70.78434 172
70.80445 167
70.82457 166
70.84468 180
70.86479 168
70.88491 160
70.90502 171
70.92513 161
70.94525 170
70.96536 183
70.98548 168
71.00559 167
71.0257 164
71.04582 179
71.06593 144
71.08604 158
71.10616 164
71.12627 146
71.14639 162
71.1665 153
71.18661 159
71.20673 154
71.22684 175
71.24695 154
71.26707 141
71.28718 155
71.3073 160
71.32741 178
71.34752 157
71.36764 176
71.38775 172
71.40786 148
71.42798 154
71.44809 187
71.4682 174
71.48832 175
71.50843 171
71.52855 165
71.54866 162
71.56877 177
71.58889 170
71.609 180
71.62911 183
71.64923 172
71.66934 185
71.68946 155
71.70957 181
71.72968 173
71.7498 171
71.76991 182
71.79002 178
71.81014 162
71.83025 165
71.85037 179
71.87048 180
71.89059 154
71.91071 165
71.93082 173
71.95093 161
71.97105 183
71.99116 167
72.01127 151
72.03139 161
72.0515 171
72.07162 185
72.09173 171
72.11184 171
72.13196 162
72.15207 175
72.17218 160
72.1923 153
72.21241 170
72.23253 170
72.25264 159
72.27275 160
72.29287 161
72.31298 185
72.33309 160
72.35321 155
72.37332 158
72.39344 173
72.41355 162
72.43366 156
72.45378 160
72.47389 169
72.494 164
72.51412 171
72.53423 149
72.55434 166
72.57446 161
72.59457 148
72.61469 174
72.6348 175
72.65491 169
72.67503 182
72.69514 162
72.71525 160
72.73537 153
72.75548 175
72.7756 145
72.79571 165
72.81582 161
72.83594 166
72.85605 189
72.87616 170
72.89628 165
72.91639 177
72.9365 175
72.95662 192
72.97673 191
72.99685 199
73.01696 214
73.03707 203
73.05719 179
73.0773 185
73.09741 200
73.11753 204
73.13764 206
73.15776 227
73.17787 229
73.19798 234
73.2181 251
73.23821 245
73.25832 284
73.27844 337
73.29855 384
73.31867 381
73.33878 426
73.35889 424
73.37901 490
73.39912 516
73.41923 466
73.43935 487
73.45946 444
73.47957 343
73.49969 328
73.5198 335
73.53992 284
73.56003 322
73.58014 329
73.60026 329
73.62037 344
73.64048 296
73.6606 293
73.68071 268
73.70083 237
73.72094 193
73.74105 182
73.76117 200
73.78128 183
73.80139 174
73.82151 168
73.84162 176
73.86174 171
73.88185 194
73.90196 189
73.92208 164
73.94219 168
73.9623 176
73.98242 180
74.00253 182
74.02264 197
74.04276 140
74.06287 146
74.08299 157
74.1031 155
74.12321 160
74.14333 157
74.16344 170
74.18355 186
74.20367 168
74.22378 168
74.2439 183
74.26401 171
74.28412 159
74.30424 174
74.32435 169
74.34446 148
74.36458 189
74.38469 161
74.40481 151
74.42492 177
74.44503 174
74.46515 158
74.48526 158
74.50537 158
74.52549 173
74.5456 148
74.56571 161
74.58583 162
74.60594 170
74.62606 162
74.64617 168
74.66628 177
74.6864 163
74.70651 158
74.72662 178
74.74674 161
74.76685 167
74.78697 172
74.80708 175
74.82719 164
74.84731 189
74.86742 154
74.88753 178
74.90765 189
74.92776 186
74.94787 179
74.96799 173
74.9881 176
75.00822 185
