3.00117 20273
3.02128 19286
3.0414 18872
3.06151 18826
3.08162 17848
3.10174 17666
3.12185 16929
3.14197 16725
3.16208 15885
3.18219 15537
3.20231 14968
3.22242 14261
3.24253 14207
3.26265 13738
3.28276 13476
3.30288 12952
3.32299 12319
3.3431 12130
3.36322 11611
3.38333 11265
3.40344 11007
3.42356 10398
3.44367 10251
3.46379 9753
3.4839 9389
3.50401 9238
3.52413 8733
3.54424 8477
3.56435 8204
3.58447 7905
3.60458 7761
3.62469 7138
3.64481 7327
3.66492 6677
3.68504 6593
3.70515 6329
3.72526 5924
3.74538 5893
3.76549 5571
3.7856 5392
3.80572 5072
3.82583 4767
3.84595 4771
3.86606 4552
3.88617 4231
3.90629 4243
3.9264 3894
3.94651 3769
3.96663 3658
3.98674 3287
4.00686 3273
4.02697 3008
4.04708 2957
4.0672 2912
4.08731 2700
4.10742 2584
4.12754 2456
4.14765 2569
4.16776 2421
4.18788 2178
4.20799 2232
4.22811 1960
4.24822 1993
4.26833 2024
4.28845 1849
4.30856 1780
4.32867 1649
4.34879 1765
4.3689 1700
4.38902 1573
4.40913 1549
4.42924 1461
4.44936 1468
4.46947 1525
4.48958 1380
4.5097 1405
4.52981 1226
4.54992 1275
4.57004 1366
4.59015 1140
4.61027 1299
4.63038 1197
4.65049 1207
4.67061 1222
4.69072 1121
4.71083 1116
4.73095 1055
4.75106 990
4.77118 1100
4.79129 1055
4.8114 1018
4.83152 993
4.85163 1008
4.87174 997
4.89186 931
4.91197 898
4.93209 849
4.9522 807
4.97231 817
4.99243 748
5.01254 760
5.03265 798
5.05277 748
5.07288 780
5.09299 731
5.11311 724
5.13322 729
5.15334 711
5.17345 709
5.19356 618
5.21368 693
5.23379 622
5.2539 603
5.27402 667
5.29413 586
5.31425 594
5.33436 636
5.35447 583
5.37459 554
5.3947 564
5.41481 494
5.43493 576
5.45504 520
5.47516 476
5.49527 477
5.51538 509
5.5355 451
5.55561 503
5.57572 506
5.59584 523
5.61595 510
5.63606 485
5.65618 425
5.67629 419
5.69641 437
5.71652 413
5.73663 395
5.75675 419
5.77686 432
5.79697 441
5.81709 434
5.8372 381
5.85732 375
5.87743 406
5.89754 420
5.91766 386
5.93777 368
5.95788 378
5.978 368
5.99811 350
6.01823 366
6.03834 394
6.05845 353
6.07857 381
6.09868 355
6.11879 385
6.13891 366
6.15902 408
6.17913 361
6.19925 328
6.21936 351
6.23948 327
6.25959 352
6.2797 364
6.29982 339
6.31993 320
6.34004 338
6.36016 333
6.38027 359
6.40039 339
6.4205 352
6.44061 341
6.46073 341
6.48084 342
6.50095 322
6.52107 359
6.54118 347
6.56129 305
6.58141 306
6.60152 339
6.62164 348
6.64175 329
6.66186 334
6.68198 366
6.70209 346
6.7222 374
6.74232 321
6.76243 349
6.78255 319
6.80266 322
6.82277 371
6.84289 305
6.863 339
6.88311 316
6.90323 350
6.92334 345
6.94346 319
6.96357 338
6.98368 325
7.0038 359
7.02391 322
7.04402 368
7.06414 331
7.08425 320
7.10436 334
7.12448 342
7.14459 355
7.16471 320
7.18482 364
7.20493 313
7.22505 343
7.24516 379
7.26527 376
7.28539 329
7.3055 339
7.32562 347
7.34573 320
7.36584 362
7.38596 368
7.40607 340
7.42618 366
7.4463 316
7.46641 347
7.48653 365
7.50664 363
7.52675 364
7.54687 371
7.56698 360
7.58709 335
7.60721 337
7.62732 337
7.64743 349
7.66755 362
7.68766 331
7.70778 354
7.72789 320
7.748 342
7.76812 383
7.78823 367
7.80834 379
7.82846 368
7.84857 374
7.86869 399
7.8888 379
7.90891 388
7.92903 374
7.94914 406
7.96925 386
7.98937 382
8.00948 373
8.0296 350
8.04971 394
8.06982 375
8.08994 390
8.11005 407
8.13016 367
8.15028 414
8.17039 394
8.1905 378
8.21062 387
8.23073 395
8.25085 370
8.27096 383
8.29107 417
8.31119 361
8.3313 378
8.35141 369
8.37153 392
8.39164 416
8.41176 365
8.43187 342
8.45198 392
8.4721 380
8.49221 391
8.51232 404
8.53244 385
8.55255 387
8.57266 370
8.59278 354
8.61289 379
8.63301 412
8.65312 422
8.67323 388
8.69335 340
8.71346 354
8.73357 386
8.75369 406
8.7738 401
8.79392 432
8.81403 473
8.83414 462
8.85426 463
8.87437 469
8.89448 448
8.9146 412
8.93471 425
8.95483 400
8.97494 419
8.99505 331
9.01517 381
9.03528 373
9.05539 355
9.07551 339
9.09562 377
9.11573 348
9.13585 327
9.15596 303
9.17608 344
9.19619 374
9.2163 322
9.23642 330
9.25653 339
9.27664 338
9.29676 336
9.31687 373
9.33699 322
9.3571 343
9.37721 337
9.39733 340
9.41744 333
9.43755 328
9.45767 324
9.47778 345
9.4979 309
9.51801 322
9.53812 332
9.55824 326
9.57835 318
9.59846 353
9.61858 358
9.63869 342
9.6588 347
9.67892 340
9.69903 344
9.71915 325
9.73926 346
9.75937 353
9.77949 295
9.7996 318
9.81971 379
9.83983 328
9.85994 317
9.88006 328
9.90017 349
9.92028 336
9.9404 322
9.96051 366
9.98062 266
10.00074 296
10.02085 329
10.04097 323
10.06108 360
10.08119 332
10.10131 321
10.12142 339
10.14153 362
10.16165 315
10.18176 345
10.20187 342
10.22199 359
10.2421 358
10.26222 330
10.28233 339
10.30244 309
10.32256 320
10.34267 334
10.36278 320
10.3829 347
10.40301 317
10.42313 368
10.44324 320
10.46335 322
10.48347 342
10.50358 297
10.52369 331
10.54381 323
10.56392 314
10.58403 348
10.60415 370
10.62426 327
10.64438 321
10.66449 365
10.6846 297
10.70472 343
10.72483 296
10.74494 310
10.76506 339
10.78517 314
10.80529 316
10.8254 364
10.84551 336
10.86563 346
10.88574 364
10.90585 312
10.92597 337
10.94608 314
10.9662 337
10.98631 377
11.00642 333
11.02654 312
11.04665 339
11.06676 326
11.08688 331
11.10699 340
11.1271 335
11.14722 325
11.16733 337
11.18745 330
11.20756 327
11.22767 354
11.24779 343
11.2679 326
11.28801 337
11.30813 355
11.32824 336
11.34836 345
11.36847 312
11.38858 321
11.4087 323
11.42881 354
11.44892 330
11.46904 368
11.48915 356
11.50927 350
11.52938 341
11.54949 349
11.56961 340
11.58972 382
11.60983 335
11.62995 346
11.65006 370
11.67017 375
11.69029 375
11.7104 328
11.73052 389
11.75063 404
11.77074 416
11.79086 371
11.81097 387
11.83108 419
11.8512 423
11.87131 438
11.89143 451
11.91154 430
11.93165 449
11.95177 446
11.97188 505
11.99199 472
12.01211 499
12.03222 553
12.05234 513
12.07245 527
12.09256 595
12.11268 538
12.13279 557
12.1529 612
12.17302 630
12.19313 638
12.21324 633
12.23336 663
12.25347 709
12.27359 739
12.2937 709
12.31381 711
12.33393 742
12.35404 665
12.37415 694
12.39427 725
12.41438 686
12.4345 580
12.45461 585
12.47472 560
12.49484 542
12.51495 490
12.53506 467
12.55518 463
12.57529 458
12.5954 458
12.61552 427
12.63563 424
12.65575 407
12.67586 421
12.69597 365
12.71609 372
12.7362 383
12.75631 392
12.77643 366
12.79654 355
12.81666 372
12.83677 319
12.85688 358
12.877 330
12.89711 330
12.91722 325
12.93734 330
12.95745 344
12.97757 306
12.99768 355
13.01779 379
13.03791 312
13.05802 315
13.07813 331
13.09825 329
13.11836 317
13.13847 307
13.15859 313
13.1787 321
13.19882 307
13.21893 322
13.23904 357
13.25916 350
13.27927 336
13.29938 275
13.3195 292
13.33961 302
13.35973 298
13.37984 299
13.39995 316
13.42007 301
13.44018 305
13.46029 302
13.48041 322
13.50052 313
13.52064 299
13.54075 338
13.56086 338
13.58098 314
13.60109 369
13.6212 337
13.64132 363
13.66143 330
13.68154 334
13.70166 292
13.72177 347
13.74189 337
13.762 274
13.78211 281
13.80223 279
13.82234 303
13.84245 286
13.86257 320
13.88268 301
13.9028 305
13.92291 316
13.94302 292
13.96314 272
13.98325 301
14.00336 305
14.02348 271
14.04359 293
14.06371 304
14.08382 298
14.10393 268
14.12405 303
14.14416 294
14.16427 275
14.18439 297
14.2045 296
14.22461 317
14.24473 285
14.26484 275
14.28496 284
14.30507 280
14.32518 305
14.3453 277
14.36541 323
14.38552 276
14.40564 286
14.42575 290
14.44587 273
14.46598 292
14.48609 291
14.50621 260
14.52632 279
14.54643 318
14.56655 287
14.58666 297
14.60677 318
14.62689 268
14.647 283
14.66712 275
14.68723 291
14.70734 298
14.72746 267
14.74757 274
14.76768 293
14.7878 288
14.80791 350
14.82803 289
14.84814 306
14.86825 297
14.88837 283
14.90848 288
14.92859 320
14.94871 325
14.96882 292
14.98894 303
15.00905 298
15.02916 314
15.04928 318
15.06939 298
15.0895 260
15.10962 308
15.12973 285
15.14984 320
15.16996 296
15.19007 348
15.21019 300
15.2303 306
15.25041 318
15.27053 309
15.29064 279
15.31075 276
15.33087 297
15.35098 259
15.3711 301
15.39121 283
15.41132 277
15.43144 282
15.45155 251
15.47166 275
15.49178 301
15.51189 251
15.53201 287
15.55212 286
15.57223 263
15.59235 260
15.61246 245
15.63257 269
15.65269 278
15.6728 259
15.69291 283
15.71303 264
15.73314 282
15.75326 304
15.77337 277
15.79348 243
15.8136 270
15.83371 264
15.85382 274
15.87394 286
15.89405 269
15.91417 278
15.93428 245
15.95439 287
15.97451 285
15.99462 280
16.01473 279
16.03485 276
16.05496 267
16.07508 299
16.09519 274
16.1153 260
16.13542 310
16.15553 292
16.17564 292
16.19576 286
16.21587 253
16.23598 272
16.2561 321
16.27621 269
16.29633 288
16.31644 297
16.33655 254
16.35667 264
16.37678 275
16.39689 257
16.41701 275
16.43712 287
16.45724 312
16.47735 289
16.49746 311
16.51758 296
16.53769 275
16.5578 299
16.57792 287
16.59803 275
16.61814 280
16.63826 295
16.65837 264
16.67849 276
16.6986 254
16.71871 268
16.73883 290
16.75894 271
16.77905 257
16.79917 289
16.81928 267
16.8394 285
16.85951 247
16.87962 267
16.89974 320
16.91985 286
16.93996 259
16.96008 250
16.98019 258
17.00031 269
17.02042 300
17.04053 299
17.06065 289
17.08076 303
17.10087 298
17.12099 269
17.1411 268
17.16121 279
17.18133 278
17.20144 306
17.22156 304
17.24167 251
17.26178 268
17.2819 274
17.30201 274
17.32212 257
17.34224 253
17.36235 263
17.38247 287
17.40258 280
17.42269 284
17.44281 308
17.46292 294
17.48303 282
17.50315 267
17.52326 290
17.54338 279
17.56349 266
17.5836 233
17.60372 340
17.62383 284
17.64394 298
17.66406 313
17.68417 306
17.70428 309
17.7244 270
17.74451 265
17.76463 286
17.78474 320
17.80485 313
17.82497 285
17.84508 291
17.86519 281
17.88531 307
17.90542 309
17.92554 298
17.94565 274
17.96576 298
17.98588 308
18.00599 289
18.0261 288
18.04622 264
18.06633 320
18.08645 269
18.10656 326
18.12667 334
18.14679 338
18.1669 350
18.18701 341
18.20713 367
18.22724 425
18.24735 501
18.26747 502
18.28758 534
18.3077 489
18.32781 444
18.34792 433
18.36804 398
18.38815 396
18.40826 348
18.42838 317
18.44849 327
18.46861 320
18.48872 266
18.50883 298
18.52895 267
18.54906 308
18.56917 306
18.58929 316
18.6094 303
18.62951 281
18.64963 276
18.66974 289
18.68986 293
18.70997 288
18.73008 297
18.7502 267
18.77031 281
18.79042 299
18.81054 288
18.83065 298
18.85077 314
18.87088 270
18.89099 285
18.91111 294
18.93122 299
18.95133 275
18.97145 268
18.99156 283
19.01168 272
19.03179 309
19.0519 276
19.07202 269
19.09213 279
19.11224 282
19.13236 291
19.15247 298
19.17258 294
19.1927 278
19.21281 325
19.23293 345
19.25304 371
19.27315 381
19.29327 343
19.31338 318
19.33349 339
19.35361 314
19.37372 309
19.39384 326
19.41395 349
19.43406 344
19.45418 352
19.47429 362
19.4944 344
19.51452 297
19.53463 360
19.55475 311
19.57486 372
19.59497 370
19.61509 332
19.6352 367
19.65531 394
19.67543 420
19.69554 475
19.71565 433
19.73577 481
19.75588 529
19.776 530
19.79611 576
19.81622 636
19.83634 586
19.85645 586
19.87656 574
19.89668 633
19.91679 636
19.93691 544
19.95702 574
19.97713 540
19.99725 526
20.01736 592
20.03747 574
20.05759 512
20.0777 498
20.09782 513
20.11793 553
20.13804 571
20.15816 576
20.17827 583
20.19838 596
20.2185 577
20.23861 641
20.25872 558
20.27884 624
20.29895 608
20.31907 648
20.33918 632
20.35929 641
20.37941 648
20.39952 571
20.41963 570
20.43975 602
20.45986 644
20.47998 597
20.50009 635
20.5202 590
20.54032 621
20.56043 669
20.58054 660
20.60066 676
20.62077 700
20.64088 720
20.661 733
20.68111 889
20.70123 999
20.72134 1245
20.74145 1582
20.76157 2147
20.78168 2707
20.80179 3423
20.82191 4255
20.84202 4502
20.86214 4311
20.88225 3715
20.90236 2819
20.92248 2088
20.94259 1608
20.9627 1195
20.98282 1022
21.00293 952
21.02305 959
21.04316 912
21.06327 806
21.08339 754
21.1035 666
21.12361 610
21.14373 551
21.16384 564
21.18395 560
21.20407 524
21.22418 513
21.2443 548
21.26441 514
21.28452 528
21.30464 516
21.32475 544
21.34486 491
21.36498 537
21.38509 479
21.40521 549
21.42532 478
21.44543 509
21.46555 501
21.48566 477
21.50577 479
21.52589 514
21.546 496
21.56612 483
21.58623 449
21.60634 459
21.62646 450
21.64657 439
21.66668 458
21.6868 412
21.70691 450
21.72702 446
21.74714 423
21.76725 458
21.78737 419
21.80748 379
21.82759 447
21.84771 434
21.86782 408
21.88793 410
21.90805 411
21.92816 415
21.94828 396
21.96839 455
21.9885 367
22.00862 425
22.02873 482
22.04884 451
22.06896 427
22.08907 377
22.10919 391
22.1293 435
22.14941 459
22.16953 425
22.18964 440
22.20975 448
22.22987 434
22.24998 458
22.27009 472
22.29021 436
22.31032 451
22.33044 439
22.35055 444
22.37066 421
22.39078 499
22.41089 399
22.431 408
22.45112 458
22.47123 431
22.49135 423
22.51146 437
22.53157 410
22.55169 432
22.5718 424
22.59191 439
22.61203 465
22.63214 410
22.65225 415
22.67237 418
22.69248 372
22.7126 416
22.73271 421
22.75282 401
22.77294 383
22.79305 418
22.81316 467
22.83328 451
22.85339 411
22.87351 424
22.89362 435
22.91373 414
22.93385 449
22.95396 390
22.97407 412
22.99419 451
23.0143 436
23.03442 479
23.05453 455
23.07464 448
23.09476 445
23.11487 512
23.13498 497
23.1551 488
23.17521 518
23.19532 512
23.21544 539
23.23555 436
23.25567 483
23.27578 475
23.29589 409
23.31601 423
23.33612 449
23.35623 410
23.37635 386
23.39646 399
23.41658 399
23.43669 387
23.4568 427
23.47692 412
23.49703 415
23.51714 417
23.53726 422
23.55737 428
23.57749 417
23.5976 416
23.61771 400
23.63783 429
23.65794 429
23.67805 426
23.69817 447
23.71828 454
23.73839 405
23.75851 456
23.77862 419
23.79874 450
23.81885 447
23.83896 476
23.85908 501
23.87919 481
23.8993 509
23.91942 503
23.93953 571
23.95965 562
23.97976 583
23.99987 584
24.01999 538
24.0401 541
24.06021 535
24.08033 535
24.10044 516
24.12056 522
24.14067 516
24.16078 519
24.1809 512
24.20101 461
24.22112 467
24.24124 476
24.26135 476
24.28146 505
24.30158 498
24.32169 461
24.34181 496
24.36192 472
24.38203 483
24.40215 488
24.42226 494
24.44237 461
24.46249 471
24.4826 465
24.50272 453
24.52283 480
24.54294 498
24.56306 503
24.58317 532
24.60328 530
24.6234 557
24.64351 550
24.66362 541
24.68374 554
24.70385 620
24.72397 628
24.74408 603
24.76419 648
24.78431 665
24.80442 658
24.82453 699
24.84465 717
24.86476 661
24.88488 688
24.90499 661
24.9251 645
24.94522 622
24.96533 669
24.98544 583
25.00556 540
25.02567 606
25.04579 533
25.0659 554
25.08601 517
25.10613 521
25.12624 582
25.14635 443
25.16647 467
25.18658 507
25.20669 479
25.22681 483
25.24692 474
25.26704 494
25.28715 438
25.30726 445
25.32738 439
25.34749 488
25.3676 505
25.38772 516
25.40783 555
25.42795 559
25.44806 600
25.46817 613
25.48829 618
25.5084 661
25.52851 659
25.54863 643
25.56874 687
25.58886 640
25.60897 628
25.62908 633
25.6492 600
25.66931 588
25.68942 600
25.70954 561
25.72965 541
25.74976 564
25.76988 551
25.78999 529
25.81011 519
25.83022 491
25.85033 551
25.87045 493
25.89056 522
25.91067 538
25.93079 531
25.9509 574
25.97102 554
25.99113 571
26.01124 572
26.03136 618
26.05147 620
26.07158 574
26.0917 610
26.11181 669
26.13193 667
26.15204 639
26.17215 737
26.19227 770
26.21238 838
26.23249 869
26.25261 916
26.27272 898
26.29283 1020
26.31295 1048
26.33306 1145
26.35318 1300
26.37329 1495
26.3934 1547
26.41352 1917
26.43363 2142
26.45374 2688
26.47386 3486
26.49397 4569
26.51409 6533
26.5342 8879
26.55431 11858
26.57443 15244
26.59454 17927
26.61465 19457
26.63477 18576
26.65488 15474
26.67499 12462
26.69511 9235
26.71522 6422
26.73534 4181
26.75545 2471
26.77556 1798
26.79568 1337
26.81579 1297
26.8359 1119
26.85602 1048
26.87613 1047
26.89625 914
26.91636 910
26.93647 904
26.95659 843
26.9767 855
26.99681 863
27.01693 902
27.03704 905
27.05716 844
27.07727 826
27.09738 787
27.1175 743
27.13761 638
27.15772 646
27.17784 656
27.19795 591
27.21806 622
27.23818 609
27.25829 610
27.27841 601
27.29852 672
27.31863 738
27.33875 828
27.35886 886
27.37897 895
27.39909 1008
27.4192 1042
27.43932 1043
27.45943 1024
27.47954 932
27.49966 885
27.51977 776
27.53988 695
27.56 638
27.58011 534
27.60023 535
27.62034 515
27.64045 474
27.66057 456
27.68068 449
27.70079 455
27.72091 462
27.74102 490
27.76113 475
27.78125 455
27.80136 439
27.82148 502
27.84159 429
27.8617 433
27.88182 418
27.90193 386
27.92204 440
27.94216 402
27.96227 411
27.98239 428
28.0025 431
28.02261 416
28.04273 415
28.06284 386
28.08295 414
28.10307 398
28.12318 404
28.1433 428
28.16341 459
28.18352 372
28.20364 407
28.22375 420
28.24386 379
28.26398 385
28.28409 398
28.3042 412
28.32432 358
28.34443 388
28.36455 355
28.38466 353
28.40477 405
28.42489 401
28.445 354
28.46511 399
28.48523 384
28.50534 369
28.52546 383
28.54557 402
28.56568 377
28.5858 358
28.60591 367
28.62602 382
28.64614 358
28.66625 402
28.68636 358
28.70648 374
28.72659 378
28.74671 369
28.76682 338
28.78693 373
28.80705 381
28.82716 351
28.84727 358
28.86739 330
28.8875 374
28.90762 324
28.92773 344
28.94784 329
28.96796 334
28.98807 332
29.00818 357
29.0283 353
29.04841 354
29.06853 378
29.08864 368
29.10875 364
29.12887 356
29.14898 379
29.16909 406
29.18921 341
29.20932 364
29.22943 338
29.24955 356
29.26966 382
29.28978 361
29.30989 357
29.33 356
29.35012 390
29.37023 400
29.39034 416
29.41046 441
29.43057 426
29.45069 421
29.4708 447
29.49091 393
29.51103 436
29.53114 400
29.55125 365
29.57137 334
29.59148 341
29.6116 345
29.63171 380
29.65182 361
29.67194 358
29.69205 385
29.71216 372
29.73228 400
29.75239 415
29.7725 365
29.79262 390
29.81273 409
29.83285 426
29.85296 423
29.87307 392
29.89319 388
29.9133 379
29.93341 369
29.95353 384
29.97364 353
29.99376 422
30.01387 432
30.03398 403
30.0541 390
30.07421 438
30.09432 430
30.11444 407
30.13455 456
30.15467 418
30.17478 442
30.19489 462
30.21501 489
30.23512 423
30.25523 384
30.27535 390
30.29546 383
30.31557 392
30.33569 361
30.3558 323
30.37592 417
30.39603 354
30.41614 369
30.43626 367
30.45637 349
30.47648 355
30.4966 357
30.51671 371
30.53683 371
30.55694 356
30.57705 366
30.59717 377
30.61728 377
30.63739 424
30.65751 400
30.67762 437
30.69773 431
30.71785 455
30.73796 484
30.75808 473
30.77819 489
30.7983 465
30.81842 487
30.83853 451
30.85864 415
30.87876 410
30.89887 390
30.91899 374
30.9391 367
30.95921 381
30.97933 329
30.99944 376
31.01955 351
31.03967 320
31.05978 359
31.0799 338
31.10001 343
31.12012 313
31.14024 315
31.16035 331
31.18046 309
31.20058 347
31.22069 350
31.2408 322
31.26092 279
31.28103 326
31.30115 318
31.32126 312
31.34137 312
31.36149 348
31.3816 315
31.40171 334
31.42183 311
31.44194 281
31.46206 321
31.48217 314
31.50228 338
31.5224 313
31.54251 324
31.56262 324
31.58274 289
31.60285 323
31.62297 323
31.64308 300
31.66319 329
31.68331 288
31.70342 286
31.72353 317
31.74365 338
31.76376 321
31.78387 347
31.80399 301
31.8241 304
31.84422 319
31.86433 332
31.88444 334
31.90456 328
31.92467 345
31.94478 316
31.9649 331
31.98501 339
32.00513 365
32.02524 366
32.04535 337
32.06547 349
32.08558 328
32.10569 345
32.12581 328
32.14592 343
32.16604 302
32.18615 360
32.20626 360
32.22638 331
32.24649 323
32.2666 337
32.28672 320
32.30683 319
32.32694 347
32.34706 338
32.36717 381
32.38729 361
32.4074 344
32.42751 358
32.44763 380
32.46774 352
32.48785 322
32.50797 312
32.52808 341
32.5482 340
32.56831 346
32.58842 313
32.60854 314
32.62865 317
32.64876 315
32.66888 322
32.68899 287
32.7091 337
32.72922 353
32.74933 316
32.76945 321
32.78956 351
32.80967 347
32.82979 349
32.8499 369
32.87001 362
32.89013 363
32.91024 310
32.93036 356
32.95047 382
32.97058 388
32.9907 444
33.01081 426
33.03092 461
33.05104 536
33.07115 522
33.09127 529
33.11138 581
33.13149 560
33.15161 543
33.17172 510
33.19183 477
33.21195 440
33.23206 403
33.25217 428
33.27229 401
33.2924 374
33.31252 365
33.33263 361
33.35274 336
33.37286 368
33.39297 372
33.41308 336
33.4332 323
33.45331 302
33.47343 345
33.49354 302
33.51365 302
33.53377 307
33.55388 300
33.57399 325
33.59411 325
33.61422 329
33.63434 328
33.65445 316
33.67456 348
33.69468 329
33.71479 347
33.7349 342
33.75502 314
33.77513 319
33.79524 327
33.81536 352
33.83547 319
33.85559 365
33.8757 346
33.89581 324
33.91593 328
33.93604 379
33.95615 345
33.97627 399
33.99638 378
34.0165 381
34.03661 382
34.05672 421
34.07684 399
34.09695 481
34.11706 434
34.13718 502
34.15729 526
34.17741 544
34.19752 567
34.21763 511
34.23775 507
34.25786 484
34.27797 539
34.29809 522
34.3182 438
34.33831 448
34.35843 437
34.37854 432
34.39866 388
34.41877 426
34.43888 438
34.459 454
34.47911 444
34.49922 387
34.51934 444
34.53945 407
34.55957 381
34.57968 378
34.59979 429
34.61991 387
34.64002 416
34.66013 418
34.68025 416
34.70036 408
34.72047 436
34.74059 459
34.7607 446
34.78082 480
34.80093 482
34.82104 516
34.84116 538
34.86127 543
34.88138 544
34.9015 506
34.92161 518
34.94173 519
34.96184 524
34.98195 450
35.00207 458
35.02218 504
35.04229 476
35.06241 443
35.08252 435
35.10264 448
35.12275 448
35.14286 425
35.16298 418
35.18309 429
35.2032 416
35.22332 485
35.24343 468
35.26354 456
35.28366 499
35.30377 521
35.32389 533
35.344 488
35.36411 498
35.38423 568
35.40434 578
35.42445 561
35.44457 605
35.46468 565
35.4848 678
35.50491 665
35.52502 625
35.54514 693
35.56525 652
35.58536 673
35.60548 667
35.62559 608
35.64571 548
35.66582 567
35.68593 542
35.70605 522
35.72616 538
35.74627 509
35.76639 482
35.7865 508
35.80661 506
35.82673 477
35.84684 457
35.86696 506
35.88707 483
35.90718 457
35.9273 451
35.94741 495
35.96752 447
35.98764 425
36.00775 413
36.02787 443
36.04798 433
36.06809 410
36.08821 412
36.10832 400
36.12843 393
36.14855 391
36.16866 406
36.18878 366
36.20889 396
36.229 417
36.24912 465
36.26923 475
36.28934 430
36.30946 512
36.32957 479
36.34968 524
36.3698 634
36.38991 703
36.41003 834
36.43014 980
36.45025 1169
36.47037 1393
36.49048 1555
36.51059 1627
36.53071 1480
36.55082 1355
36.57094 1222
36.59105 1001
36.61116 936
36.63128 829
36.65139 733
36.6715 540
36.69162 486
36.71173 428
36.73184 405
36.75196 421
36.77207 394
36.79219 388
36.8123 399
36.83241 387
36.85253 397
36.87264 402
36.89275 458
36.91287 411
36.93298 468
36.9531 423
36.97321 424
36.99332 441
37.01344 425
37.03355 448
37.05366 413
37.07378 423
37.09389 407
37.11401 409
37.13412 397
37.15423 360
37.17435 411
37.19446 412
37.21457 381
37.23469 370
37.2548 385
37.27491 384
37.29503 396
37.31514 407
37.33526 394
37.35537 417
37.37548 473
37.3956 385
37.41571 396
37.43582 378
37.45594 405
37.47605 390
37.49617 459
37.51628 428
37.53639 410
37.55651 416
37.57662 416
37.59673 424
37.61685 430
37.63696 422
37.65708 412
37.67719 399
37.6973 424
37.71742 396
37.73753 412
37.75764 378
37.77776 374
37.79787 380
37.81798 386
37.8381 381
37.85821 408
37.87833 385
37.89844 390
37.91855 350
37.93867 361
37.95878 369
37.97889 345
37.99901 395
38.01912 407
38.03924 424
38.05935 405
38.07946 417
38.09958 378
38.11969 404
38.1398 408
38.15992 399
38.18003 417
38.20015 436
38.22026 426
38.24037 439
38.26049 412
38.2806 425
38.30071 456
38.32083 450
38.34094 461
38.36105 464
38.38117 479
38.40128 458
38.4214 459
38.44151 482
38.46162 441
38.48174 471
38.50185 504
38.52196 452
38.54208 456
38.56219 445
38.58231 433
38.60242 412
38.62253 407
38.64265 414
38.66276 364
38.68287 405
38.70299 378
38.7231 378
38.74321 373
38.76333 393
38.78344 368
38.80356 375
38.82367 389
38.84378 361
38.8639 397
38.88401 375
38.90412 380
38.92424 367
38.94435 374
38.96447 405
38.98458 428
39.00469 399
39.02481 412
39.04492 406
39.06503 384
39.08515 432
39.10526 439
39.12538 448
39.14549 412
39.1656 460
39.18572 495
39.20583 497
39.22594 510
39.24606 536
39.26617 574
39.28628 581
39.3064 701
39.32651 776
39.34663 867
39.36674 998
39.38685 1233
39.40697 1423
39.42708 1445
39.44719 1385
39.46731 1285
39.48742 1106
39.50754 965
39.52765 884
39.54776 887
39.56788 736
39.58799 617
39.6081 454
39.62822 402
39.64833 387
39.66845 385
39.68856 379
39.70867 390
39.72879 368
39.7489 388
39.76901 326
39.78913 369
39.80924 374
39.82935 380
39.84947 348
39.86958 405
39.8897 349
39.90981 350
39.92992 365
39.95004 357
39.97015 400
39.99026 363
40.01038 365
40.03049 393
40.05061 374
40.07072 422
40.09083 421
40.11095 480
40.13106 470
40.15117 542
40.17129 576
40.1914 661
40.21152 680
40.23163 862
40.25174 882
40.27186 864
40.29197 774
40.31208 664
40.3322 574
40.35231 635
40.37242 598
40.39254 539
40.41265 438
40.43277 436
40.45288 369
40.47299 344
40.49311 349
40.51322 349
40.53333 342
40.55345 346
40.57356 370
40.59368 372
40.61379 358
40.6339 351
40.65402 373
40.67413 362
40.69424 347
40.71436 395
40.73447 396
40.75458 406
40.7747 374
40.79481 368
40.81493 396
40.83504 400
40.85515 349
40.87527 367
40.89538 361
40.91549 377
40.93561 397
40.95572 378
40.97584 368
40.99595 389
41.01606 313
41.03618 339
41.05629 328
41.0764 351
41.09652 350
41.11663 326
41.13675 323
41.15686 353
41.17697 340
41.19709 332
41.2172 363
41.23731 285
41.25743 315
41.27754 392
41.29765 326
41.31777 308
41.33788 361
41.358 355
41.37811 338
41.39822 360
41.41834 311
41.43845 364
41.45856 359
41.47868 371
41.49879 332
41.51891 370
41.53902 404
41.55913 362
41.57925 376
41.59936 362
41.61947 410
41.63959 398
41.6597 402
41.67982 429
41.69993 435
41.72004 463
41.74016 438
41.76027 429
41.78038 450
41.8005 441
41.82061 418
41.84072 382
41.86084 393
41.88095 364
41.90107 375
41.92118 345
41.94129 332
41.96141 337
41.98152 361
42.00163 356
42.02175 341
42.04186 333
42.06198 336
42.08209 330
42.1022 359
42.12232 348
42.14243 355
42.16254 369
42.18266 402
42.20277 389
42.22289 414
42.243 447
42.26311 468
42.28323 564
42.30334 600
42.32345 671
42.34357 766
42.36368 878
42.38379 1007
42.40391 1061
42.42402 1022
42.44414 973
42.46425 903
42.48436 746
42.50448 679
42.52459 691
42.5447 615
42.56482 548
42.58493 430
42.60505 411
42.62516 393
42.64527 326
42.66539 344
42.6855 314
42.70561 342
42.72573 352
42.74584 333
42.76595 356
42.78607 302
42.80618 311
42.8263 299
42.84641 321
42.86652 291
42.88664 290
42.90675 304
42.92686 305
42.94698 308
42.96709 272
42.98721 284
43.00732 324
43.02743 299
43.04755 281
43.06766 289
43.08777 313
43.10789 288
43.128 308
43.14812 319
43.16823 318
43.18834 294
43.20846 321
43.22857 304
43.24868 282
43.2688 297
43.28891 291
43.30902 338
43.32914 305
43.34925 282
43.36937 301
43.38948 293
43.40959 293
43.42971 324
43.44982 280
43.46993 305
43.49005 308
43.51016 275
43.53028 286
43.55039 298
43.5705 314
43.59062 296
43.61073 297
43.63084 300
43.65096 291
43.67107 308
43.69119 303
43.7113 311
43.73141 274
43.75153 237
43.77164 277
43.79175 280
43.81187 288
43.83198 302
43.85209 266
43.87221 321
43.89232 297
43.91244 295
43.93255 281
43.95266 316
43.97278 294
43.99289 325
44.013 300
44.03312 299
44.05323 295
44.07335 307
44.09346 324
44.11357 352
44.13369 292
44.1538 278
44.17391 319
44.19403 297
44.21414 309
44.23426 302
44.25437 295
44.27448 289
44.2946 285
44.31471 300
44.33482 291
44.35494 300
44.37505 284
44.39516 314
44.41528 288
44.43539 305
44.45551 302
44.47562 297
44.49573 266
44.51585 322
44.53596 276
44.55607 323
44.57619 298
44.5963 322
44.61642 293
44.63653 323
44.65664 308
44.67676 256
44.69687 302
44.71698 326
44.7371 276
44.75721 321
44.77732 289
44.79744 290
44.81755 290
44.83767 271
44.85778 359
44.87789 307
44.89801 276
44.91812 306
44.93823 338
44.95835 317
44.97846 304
44.99858 316
45.01869 325
45.0388 309
45.05892 304
45.07903 342
45.09914 326
45.11926 349
45.13937 334
45.15949 304
45.1796 334
45.19971 351
45.21983 360
45.23994 351
45.26005 326
45.28017 335
45.30028 382
45.32039 381
45.34051 349
45.36062 389
45.38074 392
45.40085 399
45.42096 415
45.44108 426
45.46119 412
45.4813 408
45.50142 405
45.52153 383
45.54165 443
45.56176 471
45.58187 482
45.60199 472
45.6221 528
45.64221 544
45.66233 561
45.68244 639
45.70256 768
45.72267 818
45.74278 816
45.7629 857
45.78301 792
45.80312 712
45.82324 643
45.84335 591
45.86346 574
45.88358 554
45.90369 495
45.92381 481
45.94392 401
45.96403 351
45.98415 364
46.00426 308
46.02437 324
46.04449 334
46.0646 308
46.08472 327
46.10483 311
46.12494 335
46.14506 336
46.16517 312
46.18528 331
46.2054 320
46.22551 321
46.24563 304
46.26574 312
46.28585 282
46.30597 291
46.32608 334
46.34619 311
46.36631 288
46.38642 277
46.40653 310
46.42665 312
46.44676 302
46.46688 306
46.48699 289
46.5071 292
46.52722 295
46.54733 276
46.56744 320
46.58756 283
46.60767 255
46.62779 329
46.6479 298
46.66801 303
46.68813 265
46.70824 283
46.72835 322
46.74847 294
46.76858 286
46.78869 286
46.80881 284
46.82892 264
46.84904 268
46.86915 276
46.88926 288
46.90938 296
46.92949 269
46.9496 285
46.96972 307
46.98983 318
47.00995 331
47.03006 306
47.05017 302
47.07029 311
47.0904 340
47.11051 324
47.13063 318
47.15074 328
47.17086 325
47.19097 291
47.21108 317
47.2312 330
47.25131 312
47.27142 316
47.29154 342
47.31165 334
47.33176 300
47.35188 299
47.37199 302
47.39211 306
47.41222 320
47.43233 330
47.45245 308
47.47256 299
47.49267 312
47.51279 299
47.5329 296
47.55302 304
47.57313 305
47.59324 282
47.61336 271
47.63347 289
47.65358 283
47.6737 271
47.69381 287
47.71393 284
47.73404 302
47.75415 291
47.77427 293
47.79438 272
47.81449 260
47.83461 281
47.85472 309
47.87483 282
47.89495 268
47.91506 314
47.93518 310
47.95529 264
47.9754 291
47.99552 292
48.01563 281
48.03574 292
48.05586 267
48.07597 272
48.09609 274
48.1162 300
48.13631 283
48.15643 271
48.17654 339
48.19665 272
48.21677 269
48.23688 302
48.257 301
48.27711 306
48.29722 271
48.31734 291
48.33745 318
48.35756 308
48.37768 282
48.39779 295
48.4179 266
48.43802 310
48.45813 300
48.47825 298
48.49836 311
48.51847 302
48.53859 299
48.5587 268
48.57881 290
48.59893 288
48.61904 331
48.63916 309
48.65927 293
48.67938 277
48.6995 300
48.71961 306
48.73972 275
48.75984 322
48.77995 319
48.80006 312
48.82018 301
48.84029 335
48.86041 298
48.88052 279
48.90063 350
48.92075 323
48.94086 329
48.96097 316
48.98109 303
49.0012 308
49.02132 294
49.04143 322
49.06154 313
49.08166 324
49.10177 309
49.12188 317
49.142 321
49.16211 346
49.18223 316
49.20234 321
49.22245 329
49.24257 331
49.26268 349
49.28279 361
49.30291 368
49.32302 356
49.34313 351
49.36325 337
49.38336 332
49.40348 346
49.42359 371
49.4437 324
49.46382 323
49.48393 337
49.50404 345
49.52416 347
49.54427 340
49.56439 336
49.5845 376
49.60461 331
49.62473 349
49.64484 337
49.66495 354
49.68507 376
49.70518 368
49.7253 326
49.74541 356
49.76552 380
49.78564 359
49.80575 383
49.82586 385
49.84598 433
49.86609 419
49.8862 504
49.90632 604
49.92643 617
49.94655 657
49.96666 788
49.98677 881
50.00689 1175
50.027 1393
50.04711 1692
50.06723 1958
50.08734 2060
50.10746 2132
50.12757 1825
50.14768 1513
50.1678 1300
50.18791 1184
50.20802 1208
50.22814 1189
50.24825 1096
50.26837 928
50.28848 711
50.30859 546
50.32871 475
50.34882 412
50.36893 379
50.38905 431
50.40916 429
50.42927 412
50.44939 460
50.4695 489
50.48962 490
50.50973 467
50.52984 455
50.54996 450
50.57007 441
50.59018 400
50.6103 423
50.63041 421
50.65053 422
50.67064 351
50.69075 382
50.71087 363
50.73098 333
50.75109 362
50.77121 307
50.79132 338
50.81143 345
50.83155 350
50.85166 340
50.87178 323
50.89189 320
50.912 314
50.93212 306
50.95223 296
50.97234 316
50.99246 325
51.01257 293
51.03269 309
51.0528 278
51.07291 273
51.09303 316
51.11314 303
51.13325 295
51.15337 281
51.17348 265
51.1936 288
51.21371 272
51.23382 289
51.25394 269
51.27405 285
51.29416 289
51.31428 264
51.33439 262
51.3545 320
51.37462 293
51.39473 255
51.41485 281
51.43496 281
51.45507 277
51.47519 260
51.4953 292
51.51541 282
51.53553 275
51.55564 256
51.57576 271
51.59587 242
51.61598 249
51.6361 278
51.65621 297
51.67632 272
51.69644 268
51.71655 304
51.73667 308
51.75678 266
51.77689 263
51.79701 263
51.81712 268
51.83723 238
51.85735 272
51.87746 287
51.89757 284
51.91769 265
51.9378 233
51.95792 257
51.97803 279
51.99814 298
52.01826 270
52.03837 279
52.05848 259
52.0786 260
52.09871 285
52.11883 246
52.13894 261
52.15905 287
52.17917 270
52.19928 285
52.21939 316
52.23951 302
52.25962 296
52.27974 299
52.29985 291
52.31996 278
52.34008 281
52.36019 307
52.3803 272
52.40042 256
52.42053 287
52.44064 292
52.46076 287
52.48087 291
52.50099 311
52.5211 279
52.54121 278
52.56133 275
52.58144 266
52.60155 277
52.62167 269
52.64178 292
52.6619 301
52.68201 273
52.70212 263
52.72224 299
52.74235 300
52.76246 315
52.78258 275
52.80269 265
52.8228 263
52.84292 265
52.86303 316
52.88315 295
52.90326 260
52.92337 285
52.94349 319
52.9636 282
52.98371 294
53.00383 253
53.02394 275
53.04406 268
53.06417 303
53.08428 290
53.1044 259
53.12451 286
53.14462 265
53.16474 259
53.18485 274
53.20497 272
53.22508 262
53.24519 285
53.26531 269
53.28542 307
53.30553 266
53.32565 282
53.34576 283
53.36587 294
53.38599 294
53.4061 294
53.42622 310
53.44633 305
53.46644 307
53.48656 302
53.50667 302
53.52678 307
53.5469 277
53.56701 310
53.58713 320
53.60724 272
53.62735 335
53.64747 336
53.66758 307
53.68769 321
53.70781 326
53.72792 337
53.74804 336
53.76815 354
53.78826 322
53.80838 329
53.82849 361
53.8486 343
53.86872 356
53.88883 342
53.90894 351
53.92906 409
53.94917 379
53.96929 353
53.9894 368
54.00951 409
54.02963 388
54.04974 351
54.06985 402
54.08997 402
54.11008 399
54.1302 345
54.15031 365
54.17042 398
54.19054 377
54.21065 359
54.23076 389
54.25088 370
54.27099 358
54.29111 341
54.31122 372
54.33133 330
54.35145 383
54.37156 381
54.39167 401
54.41179 342
54.4319 347
54.45201 363
54.47213 389
54.49224 377
54.51236 359
54.53247 421
54.55258 358
54.5727 366
54.59281 386
54.61292 425
54.63304 427
54.65315 437
54.67327 470
54.69338 468
54.71349 518
54.73361 564
54.75372 674
54.77383 759
54.79395 808
54.81406 856
54.83417 877
54.85429 833
54.8744 733
54.89452 632
54.91463 596
54.93474 628
54.95486 628
54.97497 620
54.99508 615
55.0152 568
55.03531 493
55.05543 461
55.07554 437
55.09565 436
55.11577 483
55.13588 444
55.15599 475
55.17611 503
55.19622 495
55.21634 491
55.23645 522
55.25656 544
55.27668 597
55.29679 598
55.3169 557
55.33702 490
55.35713 469
55.37724 442
55.39736 473
55.41747 451
55.43759 438
55.4577 487
55.47781 428
55.49793 410
55.51804 367
55.53815 364
55.55827 327
55.57838 390
55.5985 370
55.61861 358
55.63872 341
55.65884 380
55.67895 348
55.69906 347
55.71918 365
55.73929 351
55.75941 333
55.77952 310
55.79963 315
55.81975 312
55.83986 296
55.85997 290
55.88009 312
55.9002 310
55.92031 305
55.94043 305
55.96054 332
55.98066 265
56.00077 312
56.02088 310
56.041 308
56.06111 351
56.08122 308
56.10134 318
56.12145 293
56.14157 326
56.16168 304
56.18179 308
56.20191 272
56.22202 325
56.24213 319
56.26225 312
56.28236 295
56.30248 278
56.32259 306
56.3427 299
56.36282 283
56.38293 276
56.40304 307
56.42316 301
56.44327 309
56.46338 283
56.4835 313
56.50361 271
56.52373 287
56.54384 304
56.56395 298
56.58407 287
56.60418 338
56.62429 304
56.64441 365
56.66452 274
56.68464 319
56.70475 319
56.72486 312
56.74498 331
56.76509 307
56.7852 347
56.80532 312
56.82543 336
56.84554 327
56.86566 282
56.88577 322
56.90589 315
56.926 313
56.94611 300
56.96623 315
56.98634 283
57.00645 299
57.02657 320
57.04668 316
57.0668 307
57.08691 300
57.10702 305
57.12714 306
57.14725 318
57.16736 310
57.18748 320
57.20759 335
57.22771 324
57.24782 285
57.26793 318
57.28805 332
57.30816 306
57.32827 319
57.34839 297
57.3685 327
57.38861 315
57.40873 316
57.42884 330
57.44896 324
57.46907 295
57.48918 303
57.5093 316
57.52941 297
57.54952 299
57.56964 293
57.58975 345
57.60987 294
57.62998 274
57.65009 280
57.67021 282
57.69032 261
57.71043 279
57.73055 277
57.75066 267
57.77078 290
57.79089 297
57.811 280
57.83112 296
57.85123 289
57.87134 270
57.89146 278
57.91157 280
57.93168 291
57.9518 287
57.97191 287
57.99203 288
58.01214 300
58.03225 298
58.05237 295
58.07248 283
58.09259 252
58.11271 294
58.13282 267
58.15294 297
58.17305 290
58.19316 290
58.21328 275
58.23339 288
58.2535 275
58.27362 286
58.29373 283
58.31385 274
58.33396 266
58.35407 281
58.37419 304
58.3943 285
58.41441 291
58.43453 278
58.45464 254
58.47475 282
58.49487 311
58.51498 254
58.5351 281
58.55521 271
58.57532 276
58.59544 295
58.61555 291
58.63566 275
58.65578 314
58.67589 278
58.69601 287
58.71612 306
58.73623 298
58.75635 298
58.77646 245
58.79657 297
58.81669 278
58.8368 262
58.85691 310
58.87703 247
58.89714 289
58.91726 250
58.93737 262
58.95748 270
58.9776 265
58.99771 257
59.01782 272
59.03794 282
59.05805 306
59.07817 278
59.09828 292
59.11839 267
59.13851 256
59.15862 274
59.17873 275
59.19885 278
59.21896 293
59.23908 254
59.25919 264
59.2793 310
59.29942 304
59.31953 264
59.33964 322
59.35976 292
59.37987 297
59.39998 283
59.4201 316
59.44021 295
59.46033 330
59.48044 303
59.50055 312
59.52067 312
59.54078 352
59.56089 329
59.58101 328
59.60112 366
59.62124 393
59.64135 393
59.66146 394
59.68158 404
59.70169 491
59.7218 544
59.74192 539
59.76203 613
59.78215 679
59.80226 772
59.82237 968
59.84249 1061
59.8626 1204
59.88271 1307
59.90283 1363
59.92294 1363
59.94305 1206
59.96317 1027
59.98328 949
60.0034 833
60.02351 812
60.04362 864
60.06374 850
60.08385 858
60.10396 793
60.12408 626
60.14419 542
60.16431 458
60.18442 443
60.20453 420
60.22465 414
60.24476 377
60.26487 347
60.28499 380
60.3051 388
60.32522 372
60.34533 359
60.36544 357
60.38556 338
60.40567 367
60.42578 340
60.4459 357
60.46601 369
60.48612 334
60.50624 295
60.52635 329
60.54647 303
60.56658 329
60.58669 313
60.60681 328
60.62692 307
60.64703 281
60.66715 324
60.68726 323
60.70738 304
60.72749 310
60.7476 311
60.76772 279
60.78783 285
60.80794 256
60.82806 307
60.84817 270
60.86828 280
60.8884 299
60.90851 274
60.92863 289
60.94874 297
60.96885 288
60.98897 309
61.00908 288
61.02919 303
61.04931 329
61.06942 303
61.08954 320
61.10965 291
61.12976 316
61.14988 312
61.16999 304
61.1901 352
61.21022 299
61.23033 306
61.25045 310
61.27056 305
61.29067 311
61.31079 309
61.3309 317
61.35101 297
61.37113 339
61.39124 282
61.41135 317
61.43147 321
61.45158 293
61.4717 295
61.49181 280
61.51192 292
61.53204 330
61.55215 311
61.57226 306
61.59238 281
61.61249 250
61.63261 281
61.65272 319
61.67283 315
61.69295 285
61.71306 252
61.73317 281
61.75329 297
61.7734 279
61.79352 285
61.81363 298
61.83374 298
61.85386 280
61.87397 309
61.89408 352
61.9142 301
61.93431 330
61.95442 333
61.97454 330
61.99465 299
62.01477 338
62.03488 380
62.05499 344
62.07511 331
62.09522 336
62.11533 351
62.13545 371
62.15556 381
62.17568 407
62.19579 369
62.2159 379
62.23602 366
62.25613 410
62.27624 420
62.29636 422
62.31647 427
62.33659 411
62.3567 406
62.37681 438
62.39693 389
62.41704 391
62.43715 400
62.45727 378
62.47738 355
62.49749 353
62.51761 337
62.53772 355
62.55784 348
62.57795 343
62.59806 360
62.61818 317
62.63829 315
62.6584 317
62.67852 323
62.69863 308
62.71875 330
62.73886 320
62.75897 316
62.77909 304
62.7992 332
62.81931 306
62.83943 299
62.85954 293
62.87965 331
62.89977 280
62.91988 320
62.94 316
62.96011 304
62.98022 323
63.00034 298
63.02045 311
63.04056 284
63.06068 293
63.08079 292
63.10091 311
63.12102 309
63.14113 257
63.16125 332
63.18136 319
63.20147 293
63.22159 296
63.2417 293
63.26182 262
63.28193 290
63.30204 287
63.32216 319
63.34227 288
63.36238 273
63.3825 285
63.40261 289
63.42272 323
63.44284 288
63.46295 266
63.48307 302
63.50318 285
63.52329 329
63.54341 321
63.56352 301
63.58363 271
63.60375 302
63.62386 310
63.64398 314
63.66409 319
63.6842 336
63.70432 324
63.72443 320
63.74454 356
63.76466 372
63.78477 378
63.80489 446
63.825 406
63.84511 420
63.86523 413
63.88534 391
63.90545 499
63.92557 486
63.94568 511
63.96579 541
63.98591 549
64.00602 544
64.02614 502
64.04625 452
64.06636 405
64.08648 383
64.10659 399
64.1267 408
64.14682 398
64.16693 419
64.18705 392
64.20716 390
64.22727 335
64.24739 315
64.2675 303
64.28761 309
64.30773 276
64.32784 320
64.34796 311
64.36807 286
64.38818 271
64.4083 303
64.42841 260
64.44852 290
64.46864 262
64.48875 275
64.50886 264
64.52898 275
64.54909 270
64.56921 253
64.58932 285
64.60943 263
64.62955 275
64.64966 269
64.66977 293
64.68989 268
64.71 270
64.73012 264
64.75023 289
64.77034 267
64.79046 268
64.81057 283
64.83068 266
64.8508 288
64.87091 267
64.89102 277
64.91114 268
64.93125 271
64.95137 244
64.97148 288
64.99159 271
65.01171 309
65.03182 284
65.05193 304
65.07205 289
65.09216 259
65.11228 271
65.13239 288
65.1525 264
65.17262 274
65.19273 260
65.21284 276
65.23296 302
65.25307 289
65.27319 309
65.2933 316
65.31341 298
65.33353 285
65.35364 265
65.37375 264
65.39387 251
65.41398 268
65.43409 292
65.45421 277
65.47432 255
65.49444 274
65.51455 287
65.53466 290
65.55478 282
65.57489 284
65.595 274
65.61512 297
65.63523 289
65.65535 310
65.67546 309
65.69557 301
65.71569 310
65.7358 318
65.75591 299
65.77603 339
65.79614 265
65.81626 295
65.83637 297
65.85648 263
65.8766 284
65.89671 273
65.91682 264
65.93694 277
65.95705 291
65.97716 289
65.99728 262
66.01739 278
66.03751 263
66.05762 261
66.07773 258
66.09785 262
66.11796 265
66.13807 315
66.15819 303
66.1783 303
66.19842 283
66.21853 296
66.23864 292
66.25876 321
66.27887 294
66.29898 278
66.3191 275
66.33921 279
66.35933 282
66.37944 303
66.39955 273
66.41967 264
66.43978 276
66.45989 291
66.48001 261
66.50012 277
66.52023 275
66.54035 304
66.56046 289
66.58058 261
66.60069 299
66.6208 263
66.64092 281
66.66103 285
66.68114 281
66.70126 281
66.72137 283
66.74149 291
66.7616 273
66.78171 256
66.80183 272
66.82194 286
66.84205 289
66.86217 278
66.88228 274
66.90239 270
66.92251 271
66.94262 279
66.96274 270
66.98285 279
67.00296 277
67.02308 277
67.04319 268
67.0633 301
67.08342 275
67.10353 279
67.12365 276
67.14376 289
67.16387 269
67.18399 305
67.2041 282
67.22421 277
67.24433 306
67.26444 295
67.28456 308
67.30467 304
67.32478 313
67.3449 297
67.36501 313
67.38512 321
67.40524 296
67.42535 339
67.44546 325
67.46558 364
67.48569 388
67.50581 427
67.52592 445
67.54603 452
67.56615 521
67.58626 583
67.60637 667
67.62649 720
67.6466 847
67.66672 844
67.68683 890
67.70694 888
67.72706 848
67.74717 756
67.76728 648
67.7874 593
67.80751 564
67.82763 635
67.84774 619
67.86785 706
67.88797 667
67.90808 659
67.92819 652
67.94831 708
67.96842 675
67.98853 703
68.00865 756
68.02876 885
68.04888 957
68.06899 1052
68.0891 1165
68.10922 1099
68.12933 1022
68.14944 961
68.16956 918
68.18967 938
68.20979 965
68.2299 979
68.25001 1081
68.27013 1124
68.29024 1031
68.31035 923
68.33047 768
68.35058 709
68.3707 553
68.39081 536
68.41092 550
68.43104 488
68.45115 485
68.47126 498
68.49138 453
68.51149 405
68.5316 434
68.55172 343
68.57183 334
68.59195 325
68.61206 320
68.63217 313
68.65229 284
68.6724 320
68.69251 306
68.71263 269
68.73274 258
68.75286 260
68.77297 285
68.79308 258
68.8132 290
68.83331 281
68.85342 280
68.87354 274
68.89365 288
68.91376 287
68.93388 284
68.95399 245
68.97411 314
68.99422 290
69.01433 248
69.03445 291
69.05456 263
69.07467 259
69.09479 288
69.1149 262
69.13502 277
69.15513 256
69.17524 263
69.19536 292
69.21547 236
69.23558 278
69.2557 269
69.27581 289
69.29593 281
69.31604 265
69.33615 270
69.35627 252
69.37638 276
69.39649 258
69.41661 287
69.43672 296
69.45683 242
69.47695 258
69.49706 244
69.51718 258
69.53729 266
69.5574 266
69.57752 238
69.59763 254
69.61774 248
69.63786 280
69.65797 251
69.67809 241
69.6982 240
69.71831 251
69.73843 246
69.75854 261
69.77865 246
69.79877 266
69.81888 253
69.839 245
69.85911 271
69.87922 258
69.89934 269
69.91945 261
69.93956 266
69.95968 267
69.97979 278
69.9999 238
70.02002 252
70.04013 259
70.06025 244
70.08036 240
70.10047 251
70.12059 265
70.1407 217
70.16081 279
70.18093 282
70.20104 271
70.22116 260
70.24127 233
70.26138 266
70.2815 261
70.30161 272
70.32172 274
70.34184 254
70.36195 245
70.38207 270
70.40218 256
70.42229 260
70.44241 241
70.46252 268
70.48263 246
70.50275 267
70.52286 288
70.54297 279
70.56309 253
70.5832 267
70.60332 253
70.62343 253
70.64354 258
70.66366 252
70.68377 266
70.70388 258
70.724 227
70.74411 265
70.76423 281
70.78434 268
70.80445 270
70.82457 245
70.84468 276
70.86479 257
70.88491 250
70.90502 231
70.92513 238
70.94525 258
70.96536 259
70.98548 258
71.00559 232
71.0257 271
71.04582 243
71.06593 252
71.08604 268
71.10616 246
71.12627 258
71.14639 277
71.1665 241
71.18661 263
71.20673 262
71.22684 281
71.24695 251
71.26707 268
71.28718 238
71.3073 234
71.32741 283
71.34752 284
71.36764 260
71.38775 260
71.40786 265
71.42798 255
71.44809 254
71.4682 267
71.48832 299
71.50843 284
71.52855 295
71.54866 239
71.56877 266
71.58889 287
71.609 263
71.62911 275
71.64923 262
71.66934 270
71.68946 293
71.70957 275
71.72968 252
71.7498 278
71.76991 268
71.79002 273
71.81014 252
71.83025 265
71.85037 259
71.87048 271
71.89059 269
71.91071 251
71.93082 272
71.95093 284
71.97105 274
71.99116 276
72.01127 272
72.03139 289
72.0515 278
72.07162 284
72.09173 276
72.11184 303
72.13196 300
72.15207 297
72.17218 293
72.1923 300
72.21241 319
72.23253 298
72.25264 289
72.27275 275
72.29287 262
72.31298 296
72.33309 286
72.35321 279
72.37332 275
72.39344 266
72.41355 275
72.43366 272
72.45378 283
72.47389 280
72.494 243
72.51412 290
72.53423 266
72.55434 219
72.57446 276
72.59457 261
72.61469 274
72.6348 280
72.65491 274
72.67503 278
72.69514 264
72.71525 257
72.73537 265
72.75548 268
72.7756 282
72.79571 281
72.81582 273
72.83594 265
72.85605 272
72.87616 284
72.89628 266
72.91639 276
72.9365 261
72.95662 292
72.97673 249
72.99685 267
73.01696 265
73.03707 289
73.05719 299
73.0773 287
73.09741 267
73.11753 286
73.13764 305
73.15776 273
73.17787 304
73.19798 320
73.2181 349
73.23821 307
73.25832 317
73.27844 348
73.29855 345
73.31867 389
73.33878 424
73.35889 438
73.37901 459
73.39912 471
73.41923 485
73.43935 479
73.45946 418
73.47957 402
73.49969 386
73.5198 321
73.53992 367
73.56003 369
73.58014 369
73.60026 346
73.62037 364
73.64048 368
73.6606 329
73.68071 338
73.70083 331
73.72094 299
73.74105 287
73.76117 288
73.78128 305
73.80139 253
73.82151 252
73.84162 268
73.86174 248
73.88185 248
73.90196 254
73.92208 269
73.94219 247
73.9623 289
73.98242 262
74.00253 230
74.02264 274
74.04276 249
74.06287 253
74.08299 266
74.1031 253
74.12321 250
74.14333 261
74.16344 249
74.18355 250
74.20367 242
74.22378 236
74.2439 270
74.26401 269
74.28412 207
74.30424 226
74.32435 248
74.34446 250
74.36458 255
74.38469 233
74.40481 251
74.42492 259
74.44503 238
74.46515 283
74.48526 255
74.50537 260
74.52549 251
74.5456 261
74.56571 238
74.58583 258
74.60594 259
74.62606 272
74.64617 270
74.66628 242
74.6864 247
74.70651 251
74.72662 269
74.74674 268
74.76685 255
74.78697 278
74.80708 235
74.82719 263
74.84731 265
74.86742 283
74.88753 243
74.90765 257
74.92776 280
74.94787 253
74.96799 241
74.9881 273
75.00822 268
