3.00117 21097
3.02128 20709
3.0414 20216
3.06151 19309
3.08162 18973
3.10174 18532
3.12185 18026
3.14197 17599
3.16208 17025
3.18219 16759
3.20231 15618
3.22242 15527
3.24253 15246
3.26265 14507
3.28276 14412
3.30288 13842
3.32299 13213
3.3431 13169
3.36322 12360
3.38333 12299
3.40344 11620
3.42356 11380
3.44367 11001
3.46379 10549
3.4839 10282
3.50401 9876
3.52413 9576
3.54424 9117
3.56435 8686
3.58447 8724
3.60458 8216
3.62469 7804
3.64481 7747
3.66492 7381
3.68504 7180
3.70515 6845
3.72526 6603
3.74538 6322
3.76549 6024
3.7856 5889
3.80572 5607
3.82583 5262
3.84595 5225
3.86606 4944
3.88617 4851
3.90629 4533
3.9264 4382
3.94651 4146
3.96663 3815
3.98674 3846
4.00686 3694
4.02697 3501
4.04708 3359
4.0672 3267
4.08731 3181
4.10742 2994
4.12754 2761
4.14765 2659
4.16776 2653
4.18788 2498
4.20799 2484
4.22811 2232
4.24822 2251
4.26833 2079
4.28845 2210
4.30856 2182
4.32867 1951
4.34879 1821
4.3689 1795
4.38902 1813
4.40913 1845
4.42924 1757
4.44936 1718
4.46947 1659
4.48958 1638
4.5097 1695
4.52981 1488
4.54992 1476
4.57004 1459
4.59015 1366
4.61027 1534
4.63038 1363
4.65049 1370
4.67061 1410
4.69072 1310
4.71083 1337
4.73095 1309
4.75106 1254
4.77118 1129
4.79129 1141
4.8114 1187
4.83152 1019
4.85163 1164
4.87174 1136
4.89186 1064
4.91197 1089
4.93209 992
4.9522 952
4.97231 1013
4.99243 1014
5.01254 936
5.03265 905
5.05277 966
5.07288 879
5.09299 889
5.11311 919
5.13322 877
5.15334 873
5.17345 853
5.19356 813
5.21368 820
5.23379 782
5.2539 787
5.27402 815
5.29413 763
5.31425 798
5.33436 744
5.35447 811
5.37459 754
5.3947 764
5.41481 738
5.43493 724
5.45504 677
5.47516 708
5.49527 659
5.51538 711
5.5355 664
5.55561 669
5.57572 631
5.59584 670
5.61595 653
5.63606 640
5.65618 648
5.67629 579
5.69641 624
5.71652 653
5.73663 671
5.75675 598
5.77686 606
5.79697 579
5.81709 611
5.8372 578
5.85732 547
5.87743 587
5.89754 601
5.91766 516
5.93777 591
5.95788 553
5.978 563
5.99811 570
6.01823 530
6.03834 558
6.05845 561
6.07857 511
6.09868 576
6.11879 499
6.13891 525
6.15902 481
6.17913 512
6.19925 510
6.21936 527
6.23948 533
6.25959 465
6.2797 511
6.29982 547
6.31993 487
6.34004 486
6.36016 470
6.38027 480
6.40039 498
6.4205 492
6.44061 502
6.46073 452
6.48084 502
6.50095 476
6.52107 486
6.54118 408
6.56129 450
6.58141 468
6.60152 491
6.62164 464
6.64175 480
6.66186 465
6.68198 482
6.70209 448
6.7222 453
6.74232 445
6.76243 455
6.78255 477
6.80266 457
6.82277 422
6.84289 452
6.863 453
6.88311 441
6.90323 454
6.92334 479
6.94346 426
6.96357 410
6.98368 456
7.0038 459
7.02391 448
7.04402 422
7.06414 443
7.08425 442
7.10436 468
7.12448 454
7.14459 459
7.16471 478
7.18482 422
7.20493 450
7.22505 423
7.24516 456
7.26527 473
7.28539 401
7.3055 387
7.32562 414
7.34573 439
7.36584 460
7.38596 464
7.40607 434
7.42618 486
7.4463 391
7.46641 415
7.48653 441
7.50664 380
7.52675 451
7.54687 428
7.56698 445
7.58709 429
7.60721 416
7.62732 439
7.64743 412
7.66755 487
7.68766 455
7.70778 413
7.72789 510
7.748 467
7.76812 432
7.78823 445
7.80834 474
7.82846 478
7.84857 485
7.86869 460
7.8888 496
7.90891 441
7.92903 466
7.94914 462
7.96925 520
7.98937 473
8.00948 470
8.0296 475
8.04971 522
8.06982 496
8.08994 576
8.11005 546
8.13016 488
8.15028 555
8.17039 539
8.1905 602
8.21062 598
8.23073 529
8.25085 603
8.27096 580
8.29107 620
8.31119 630
8.3313 613
8.35141 673
8.37153 666
8.39164 721
8.41176 713
8.43187 732
8.45198 752
8.4721 797
8.49221 807
8.51232 845
8.53244 906
8.55255 931
8.57266 1016
8.59278 1045
8.61289 1167
8.63301 1233
8.65312 1315
8.67323 1491
8.69335 1541
8.71346 1574
8.73357 1717
8.75369 1902
8.7738 1873
8.79392 1944
8.81403 1873
8.83414 1774
8.85426 1658
8.87437 1515
8.89448 1436
8.9146 1203
8.93471 1064
8.95483 921
8.97494 845
8.99505 756
9.01517 741
9.03528 636
9.05539 594
9.07551 572
9.09562 586
9.11573 576
9.13585 554
9.15596 537
9.17608 516
9.19619 505
9.2163 512
9.23642 504
9.25653 494
9.27664 457
9.29676 439
9.31687 477
9.33699 468
9.3571 405
9.37721 470
9.39733 474
9.41744 418
9.43755 444
9.45767 442
9.47778 408
9.4979 436
9.51801 465
9.53812 426
9.55824 440
9.57835 396
9.59846 390
9.61858 411
9.63869 407
9.6588 414
9.67892 374
9.69903 435
9.71915 369
9.73926 398
9.75937 410
9.77949 385
9.7996 437
9.81971 390
9.83983 420
9.85994 390
9.88006 384
9.90017 385
9.92028 416
9.9404 430
9.96051 406
9.98062 386
10.00074 399
10.02085 396
10.04097 402
10.06108 371
10.08119 382
10.10131 380
10.12142 387
10.14153 369
10.16165 394
10.18176 362
10.20187 388
10.22199 408
10.2421 375
10.26222 416
10.28233 389
10.30244 339
10.32256 364
10.34267 394
10.36278 378
10.3829 390
10.40301 392
10.42313 384
10.44324 353
10.46335 342
10.48347 383
10.50358 353
10.52369 402
10.54381 374
10.56392 390
10.58403 394
10.60415 378
10.62426 342
10.64438 377
10.66449 361
10.6846 372
10.70472 390
10.72483 355
10.74494 368
10.76506 433
10.78517 377
10.80529 355
10.8254 364
10.84551 342
10.86563 368
10.88574 377
10.90585 358
10.92597 343
10.94608 331
10.9662 391
10.98631 352
11.00642 391
11.02654 410
11.04665 359
11.06676 344
11.08688 368
11.10699 377
11.1271 376
11.14722 362
11.16733 380
11.18745 347
11.20756 369
11.22767 332
11.24779 378
11.2679 360
11.28801 386
11.30813 398
11.32824 392
11.34836 377
11.36847 380
11.38858 395
11.4087 381
11.42881 384
11.44892 369
11.46904 412
11.48915 396
11.50927 402
11.52938 385
11.54949 424
11.56961 394
11.58972 408
11.60983 403
11.62995 410
11.65006 368
11.67017 380
11.69029 418
11.7104 420
11.73052 427
11.75063 412
11.77074 433
11.79086 383
11.81097 434
11.83108 393
11.8512 426
11.87131 379
11.89143 429
11.91154 396
11.93165 411
11.95177 446
11.97188 410
11.99199 390
12.01211 404
12.03222 493
12.05234 427
12.07245 457
12.09256 427
12.11268 439
12.13279 463
12.1529 409
12.17302 470
12.19313 461
12.21324 442
12.23336 478
12.25347 491
12.27359 420
12.2937 518
12.31381 444
12.33393 448
12.35404 507
12.37415 427
12.39427 432
12.41438 432
12.4345 421
12.45461 434
12.47472 454
12.49484 382
12.51495 387
12.53506 420
12.55518 398
12.57529 418
12.5954 406
12.61552 393
12.63563 390
12.65575 365
12.67586 341
12.69597 402
12.71609 351
12.7362 370
12.75631 422
12.77643 329
12.79654 333
12.81666 374
12.83677 350
12.85688 375
12.877 416
12.89711 406
12.91722 371
12.93734 328
12.95745 390
12.97757 353
12.99768 362
13.01779 360
13.03791 367
13.05802 359
13.07813 356
13.09825 379
13.11836 356
13.13847 353
13.15859 379
13.1787 352
13.19882 362
13.21893 390
13.23904 356
13.25916 371
13.27927 342
13.29938 338
13.3195 352
13.33961 350
13.35973 337
13.37984 312
13.39995 382
13.42007 358
13.44018 364
13.46029 337
13.48041 346
13.50052 345
13.52064 349
13.54075 390
13.56086 366
13.58098 377
13.60109 350
13.6212 349
13.64132 387
13.66143 312
13.68154 359
13.70166 371
13.72177 431
13.74189 396
13.762 374
13.78211 426
13.80223 401
13.82234 426
13.84245 453
13.86257 427
13.88268 449
13.9028 412
13.92291 405
13.94302 357
13.96314 398
13.98325 389
14.00336 384
14.02348 367
14.04359 345
14.06371 347
14.08382 310
14.10393 346
14.12405 371
14.14416 339
14.16427 333
14.18439 315
14.2045 357
14.22461 348
14.24473 335
14.26484 355
14.28496 375
14.30507 327
14.32518 358
14.3453 325
14.36541 365
14.38552 339
14.40564 352
14.42575 301
14.44587 366
14.46598 343
14.48609 349
14.50621 326
14.52632 327
14.54643 326
14.56655 360
14.58666 331
14.60677 367
14.62689 341
14.647 310
14.66712 362
14.68723 354
14.70734 324
14.72746 340
14.74757 341
14.76768 333
14.7878 314
14.80791 325
14.82803 367
14.84814 363
14.86825 402
14.88837 351
14.90848 361
14.92859 313
14.94871 361
14.96882 379
14.98894 361
15.00905 337
15.02916 361
15.04928 355
15.06939 369
15.0895 340
15.10962 331
15.12973 365
15.14984 354
15.16996 360
15.19007 319
15.21019 332
15.2303 336
15.25041 329
15.27053 341
15.29064 358
15.31075 328
15.33087 304
15.35098 321
15.3711 331
15.39121 353
15.41132 316
15.43144 362
15.45155 335
15.47166 335
15.49178 357
15.51189 338
15.53201 319
15.55212 329
15.57223 327
15.59235 338
15.61246 352
15.63257 296
15.65269 328
15.6728 375
15.69291 347
15.71303 363
15.73314 365
15.75326 303
15.77337 317
15.79348 314
15.8136 344
15.83371 344
15.85382 378
15.87394 315
15.89405 333
15.91417 381
15.93428 315
15.95439 337
15.97451 342
15.99462 323
16.01473 327
16.03485 326
16.05496 318
16.07508 335
16.09519 339
16.1153 317
16.13542 327
16.15553 294
16.17564 298
16.19576 345
16.21587 345
16.23598 313
16.2561 324
16.27621 323
16.29633 305
16.31644 338
16.33655 335
16.35667 318
16.37678 325
16.39689 309
16.41701 329
16.43712 349
16.45724 353
16.47735 350
16.49746 310
16.51758 343
16.53769 339
16.5578 322
16.57792 350
16.59803 328
16.61814 345
16.63826 349
16.65837 335
16.67849 331
16.6986 342
16.71871 337
16.73883 336
16.75894 333
16.77905 336
16.79917 348
16.81928 319
16.8394 316
16.85951 311
16.87962 328
16.89974 308
16.91985 343
16.93996 309
16.96008 299
16.98019 339
17.00031 335
17.02042 331
17.04053 341
17.06065 347
17.08076 301
17.10087 352
17.12099 294
17.1411 366
17.16121 346
17.18133 337
17.20144 358
17.22156 357
17.24167 315
17.26178 341
17.2819 303
17.30201 350
17.32212 329
17.34224 329
17.36235 344
17.38247 341
17.40258 345
17.42269 338
17.44281 377
17.46292 358
17.48303 339
17.50315 342
17.52326 332
17.54338 372
17.56349 369
17.5836 374
17.60372 369
17.62383 378
17.64394 377
17.66406 398
17.68417 425
17.70428 409
17.7244 474
17.74451 430
17.76463 453
17.78474 464
17.80485 433
17.82497 427
17.84508 377
17.86519 366
17.88531 385
17.90542 357
17.92554 363
17.94565 343
17.96576 329
17.98588 363
18.00599 367
18.0261 322
18.04622 368
18.06633 332
18.08645 374
18.10656 304
18.12667 342
18.14679 301
18.1669 354
18.18701 314
18.20713 350
18.22724 343
18.24735 311
18.26747 369
18.28758 336
18.3077 348
18.32781 349
18.34792 366
18.36804 345
18.38815 344
18.40826 346
18.42838 327
18.44849 331
18.46861 328
18.48872 316
18.50883 347
18.52895 362
18.54906 342
18.56917 346
18.58929 344
18.6094 344
18.62951 334
18.64963 337
18.66974 365
18.68986 349
18.70997 379
18.73008 343
18.7502 362
18.77031 357
18.79042 356
18.81054 360
18.83065 353
18.85077 347
18.87088 347
18.89099 346
18.91111 377
18.93122 335
18.95133 387
18.97145 368
18.99156 351
19.01168 363
19.03179 361
19.0519 370
19.07202 398
19.09213 399
19.11224 379
19.13236 426
19.15247 471
19.17258 436
19.1927 486
19.21281 477
19.23293 488
19.25304 516
19.27315 519
19.29327 526
19.31338 540
19.33349 535
19.35361 472
19.37372 482
19.39384 530
19.41395 507
19.43406 540
19.45418 499
19.47429 518
19.4944 492
19.51452 495
19.53463 500
19.55475 475
19.57486 476
19.59497 538
19.61509 542
19.6352 553
19.65531 556
19.67543 631
19.69554 655
19.71565 655
19.73577 719
19.75588 680
19.776 791
19.79611 791
19.81622 798
19.83634 767
19.85645 809
19.87656 821
19.89668 736
19.91679 719
19.93691 710
19.95702 681
19.97713 604
19.99725 598
20.01736 598
20.03747 546
20.05759 584
20.0777 618
20.09782 620
20.11793 581
20.13804 597
20.15816 573
20.17827 552
20.19838 515
20.2185 518
20.23861 597
20.25872 524
20.27884 511
20.29895 548
20.31907 535
20.33918 525
20.35929 530
20.37941 551
20.39952 523
20.41963 533
20.43975 531
20.45986 528
20.47998 554
20.50009 536
20.5202 565
20.54032 548
20.56043 566
20.58054 587
20.60066 614
20.62077 632
20.64088 636
20.661 698
20.68111 712
20.70123 783
20.72134 990
20.74145 1202
20.76157 1349
20.78168 1616
20.80179 1815
20.82191 1989
20.84202 2015
20.86214 1897
20.88225 1562
20.90236 1248
20.92248 1010
20.94259 802
20.9627 714
20.98282 602
21.00293 584
21.02305 599
21.04316 517
21.06327 589
21.08339 549
21.1035 491
21.12361 527
21.14373 524
21.16384 516
21.18395 576
21.20407 500
21.22418 529
21.2443 485
21.26441 515
21.28452 516
21.30464 524
21.32475 476
21.34486 446
21.36498 459
21.38509 449
21.40521 485
21.42532 469
21.44543 436
21.46555 512
21.48566 530
21.50577 487
21.52589 464
21.546 505
21.56612 492
21.58623 493
21.60634 515
21.62646 496
21.64657 472
21.66668 465
21.6868 449
21.70691 462
21.72702 492
21.74714 471
21.76725 472
21.78737 532
21.80748 465
21.82759 547
21.84771 504
21.86782 526
21.88793 606
21.90805 640
21.92816 682
21.94828 753
21.96839 824
21.9885 854
22.00862 835
22.02873 793
22.04884 778
22.06896 697
22.08907 577
22.10919 572
22.1293 476
22.14941 493
22.16953 467
22.18964 468
22.20975 447
22.22987 484
22.24998 493
22.27009 509
22.29021 501
22.31032 504
22.33044 483
22.35055 490
22.37066 470
22.39078 471
22.41089 463
22.431 487
22.45112 483
22.47123 482
22.49135 515
22.51146 471
22.53157 476
22.55169 474
22.5718 527
22.59191 483
22.61203 482
22.63214 465
22.65225 458
22.67237 498
22.69248 509
22.7126 505
22.73271 504
22.75282 507
22.77294 494
22.79305 554
22.81316 528
22.83328 531
22.85339 571
22.87351 619
22.89362 552
22.91373 639
22.93385 571
22.95396 589
22.97407 546
22.99419 542
23.0143 484
23.03442 515
23.05453 513
23.07464 445
23.09476 464
23.11487 455
23.13498 414
23.1551 409
23.17521 440
23.19532 496
23.21544 500
23.23555 460
23.25567 471
23.27578 455
23.29589 483
23.31601 485
23.33612 464
23.35623 440
23.37635 463
23.39646 473
23.41658 541
23.43669 533
23.4568 555
23.47692 561
23.49703 602
23.51714 662
23.53726 621
23.55737 606
23.57749 622
23.5976 615
23.61771 584
23.63783 552
23.65794 566
23.67805 610
23.69817 494
23.71828 542
23.73839 606
23.75851 580
23.77862 618
23.79874 622
23.81885 574
23.83896 594
23.85908 617
23.87919 559
23.8993 602
23.91942 574
23.93953 558
23.95965 619
23.97976 599
23.99987 597
24.01999 622
24.0401 644
24.06021 680
24.08033 672
24.10044 658
24.12056 701
24.14067 762
24.16078 667
24.1809 793
24.20101 744
24.22112 712
24.24124 839
24.26135 775
24.28146 795
24.30158 717
24.32169 699
24.34181 630
24.36192 653
24.38203 578
24.40215 551
24.42226 557
24.44237 533
24.46249 531
24.4826 512
24.50272 524
24.52283 497
24.54294 468
24.56306 506
24.58317 514
24.60328 489
24.6234 448
24.64351 531
24.66362 470
24.68374 496
24.70385 501
24.72397 478
24.74408 520
24.76419 500
24.78431 540
24.80442 528
24.82453 507
24.84465 517
24.86476 550
24.88488 516
24.90499 578
24.9251 542
24.94522 522
24.96533 517
24.98544 554
25.00556 504
25.02567 534
25.04579 495
25.0659 533
25.08601 537
25.10613 509
25.12624 517
25.14635 504
25.16647 516
25.18658 496
25.20669 525
25.22681 551
25.24692 525
25.26704 541
25.28715 558
25.30726 581
25.32738 577
25.34749 659
25.3676 673
25.38772 647
25.40783 683
25.42795 698
25.44806 732
25.46817 709
25.48829 724
25.5084 742
25.52851 694
25.54863 656
25.56874 647
25.58886 626
25.60897 631
25.62908 623
25.6492 654
25.66931 655
25.68942 651
25.70954 590
25.72965 617
25.74976 580
25.76988 577
25.78999 570
25.81011 569
25.83022 553
25.85033 561
25.87045 608
25.89056 580
25.91067 592
25.93079 609
25.9509 614
25.97102 639
25.99113 635
26.01124 629
26.03136 666
26.05147 666
26.07158 704
26.0917 761
26.11181 788
26.13193 816
26.15204 818
26.17215 858
26.19227 904
26.21238 880
26.23249 875
26.25261 923
26.27272 974
26.29283 1042
26.31295 1085
26.33306 1091
26.35318 1280
26.37329 1325
26.3934 1471
26.41352 1729
26.43363 1891
26.45374 2312
26.47386 2729
26.49397 3404
26.51409 4146
26.5342 5257
26.55431 6288
26.57443 7472
26.59454 7947
26.61465 7914
26.63477 7392
26.65488 6224
26.67499 4909
26.69511 3949
26.71522 3105
26.73534 2191
26.75545 1596
26.77556 1324
26.79568 1156
26.81579 1061
26.8359 954
26.85602 910
26.87613 798
26.89625 739
26.91636 765
26.93647 717
26.95659 633
26.9767 695
26.99681 673
27.01693 631
27.03704 608
27.05716 607
27.07727 606
27.09738 539
27.1175 552
27.13761 517
27.15772 572
27.17784 546
27.19795 561
27.21806 545
27.23818 555
27.25829 591
27.27841 594
27.29852 587
27.31863 550
27.33875 625
27.35886 599
27.37897 609
27.39909 624
27.4192 647
27.43932 610
27.45943 657
27.47954 598
27.49966 579
27.51977 585
27.53988 610
27.56 607
27.58011 650
27.60023 650
27.62034 717
27.64045 774
27.66057 863
27.68068 920
27.70079 1082
27.72091 1124
27.74102 1101
27.76113 1122
27.78125 1184
27.80136 1193
27.82148 1287
27.84159 1244
27.8617 1341
27.88182 1388
27.90193 1437
27.92204 1411
27.94216 1319
27.96227 1266
27.98239 1143
28.0025 986
28.02261 961
28.04273 799
28.06284 787
28.08295 699
28.10307 736
28.12318 716
28.1433 705
28.16341 776
28.18352 762
28.20364 768
28.22375 774
28.24386 793
28.26398 737
28.28409 734
28.3042 771
28.32432 696
28.34443 649
28.36455 686
28.38466 663
28.40477 592
28.42489 585
28.445 563
28.46511 578
28.48523 532
28.50534 500
28.52546 528
28.54557 533
28.56568 516
28.5858 526
28.60591 487
28.62602 499
28.64614 480
28.66625 412
28.68636 478
28.70648 517
28.72659 464
28.74671 435
28.76682 451
28.78693 481
28.80705 454
28.82716 456
28.84727 419
28.86739 441
28.8875 457
28.90762 430
28.92773 441
28.94784 457
28.96796 466
28.98807 453
29.00818 475
29.0283 467
29.04841 483
29.06853 467
29.08864 444
29.10875 487
29.12887 490
29.14898 455
29.16909 444
29.18921 437
29.20932 420
29.22943 421
29.24955 435
29.26966 411
29.28978 444
29.30989 410
29.33 412
29.35012 406
29.37023 471
29.39034 472
29.41046 433
29.43057 448
29.45069 463
29.4708 426
29.49091 478
29.51103 451
29.53114 469
29.55125 476
29.57137 472
29.59148 502
29.6116 494
29.63171 481
29.65182 489
29.67194 549
29.69205 559
29.71216 537
29.73228 570
29.75239 600
29.7725 671
29.79262 646
29.81273 652
29.83285 597
29.85296 626
29.87307 621
29.89319 598
29.9133 550
29.93341 544
29.95353 544
29.97364 531
29.99376 503
30.01387 557
30.03398 513
30.0541 489
30.07421 505
30.09432 522
30.11444 520
30.13455 485
30.15467 510
30.17478 482
30.19489 514
30.21501 551
30.23512 551
30.25523 535
30.27535 541
30.29546 529
30.31557 524
30.33569 584
30.3558 621
30.37592 641
30.39603 597
30.41614 636
30.43626 606
30.45637 638
30.47648 671
30.4966 645
30.51671 548
30.53683 558
30.55694 521
30.57705 544
30.59717 523
30.61728 541
30.63739 496
30.65751 516
30.67762 499
30.69773 480
30.71785 475
30.73796 454
30.75808 474
30.77819 453
30.7983 456
30.81842 459
30.83853 460
30.85864 451
30.87876 420
30.89887 437
30.91899 445
30.9391 455
30.95921 423
30.97933 407
30.99944 432
31.01955 446
31.03967 447
31.05978 498
31.0799 497
31.10001 476
31.12012 507
31.14024 558
31.16035 523
31.18046 529
31.20058 546
31.22069 552
31.2408 554
31.26092 504
31.28103 492
31.30115 477
31.32126 531
31.34137 552
31.36149 435
31.3816 455
31.40171 473
31.42183 461
31.44194 428
31.46206 422
31.48217 424
31.50228 373
31.5224 443
31.54251 397
31.56262 406
31.58274 418
31.60285 392
31.62297 439
31.64308 387
31.66319 394
31.68331 410
31.70342 395
31.72353 394
31.74365 380
31.76376 373
31.78387 408
31.80399 406
31.8241 418
31.84422 435
31.86433 389
31.88444 423
31.90456 423
31.92467 482
31.94478 466
31.9649 434
31.98501 460
32.00513 458
32.02524 494
32.04535 476
32.06547 510
32.08558 457
32.10569 430
32.12581 416
32.14592 426
32.16604 431
32.18615 406
32.20626 367
32.22638 372
32.24649 381
32.2666 368
32.28672 399
32.30683 407
32.32694 412
32.34706 389
32.36717 380
32.38729 404
32.4074 399
32.42751 404
32.44763 368
32.46774 380
32.48785 364
32.50797 391
32.52808 413
32.5482 387
32.56831 399
32.58842 370
32.60854 386
32.62865 423
32.64876 385
32.66888 366
32.68899 386
32.7091 405
32.72922 395
32.74933 406
32.76945 423
32.78956 393
32.80967 403
32.82979 404
32.8499 413
32.87001 458
32.89013 398
32.91024 452
32.93036 426
32.95047 407
32.97058 452
32.9907 438
33.01081 423
33.03092 445
33.05104 437
33.07115 411
33.09127 455
33.11138 412
33.13149 451
33.15161 473
33.17172 464
33.19183 446
33.21195 500
33.23206 470
33.25217 447
33.27229 421
33.2924 415
33.31252 391
33.33263 418
33.35274 404
33.37286 446
33.39297 407
33.41308 419
33.4332 398
33.45331 427
33.47343 407
33.49354 435
33.51365 439
33.53377 416
33.55388 445
33.57399 405
33.59411 447
33.61422 432
33.63434 456
33.65445 454
33.67456 452
33.69468 477
33.71479 510
33.7349 516
33.75502 574
33.77513 523
33.79524 539
33.81536 533
33.83547 584
33.85559 607
33.8757 631
33.89581 576
33.91593 644
33.93604 698
33.95615 701
33.97627 732
33.99638 737
34.0165 803
34.03661 811
34.05672 926
34.07684 960
34.09695 995
34.11706 982
34.13718 1066
34.15729 1046
34.17741 1059
34.19752 953
34.21763 1010
34.23775 933
34.25786 870
34.27797 881
34.29809 737
34.3182 770
34.33831 647
34.35843 631
34.37854 656
34.39866 599
34.41877 594
34.43888 566
34.459 579
34.47911 529
34.49922 612
34.51934 564
34.53945 574
34.55957 598
34.57968 604
34.59979 542
34.61991 547
34.64002 571
34.66013 552
34.68025 599
34.70036 613
34.72047 609
34.74059 610
34.7607 582
34.78082 627
34.80093 652
34.82104 684
34.84116 651
34.86127 682
34.88138 758
34.9015 764
34.92161 759
34.94173 787
34.96184 832
34.98195 786
35.00207 811
35.02218 731
35.04229 680
35.06241 658
35.08252 632
35.10264 674
35.12275 616
35.14286 545
35.16298 578
35.18309 534
35.2032 508
35.22332 554
35.24343 516
35.26354 541
35.28366 535
35.30377 505
35.32389 512
35.344 524
35.36411 523
35.38423 510
35.40434 561
35.42445 525
35.44457 511
35.46468 502
35.4848 499
35.50491 525
35.52502 523
35.54514 560
35.56525 538
35.58536 530
35.60548 501
35.62559 552
35.64571 560
35.66582 574
35.68593 582
35.70605 535
35.72616 528
35.74627 586
35.76639 558
35.7865 528
35.80661 551
35.82673 544
35.84684 567
35.86696 527
35.88707 548
35.90718 520
35.9273 507
35.94741 552
35.96752 509
35.98764 487
36.00775 471
36.02787 498
36.04798 525
36.06809 482
36.08821 505
36.10832 482
36.12843 465
36.14855 475
36.16866 495
36.18878 505
36.20889 477
36.229 517
36.24912 522
36.26923 471
36.28934 464
36.30946 527
36.32957 626
36.34968 587
36.3698 588
36.38991 705
36.41003 745
36.43014 774
36.45025 934
36.47037 888
36.49048 973
36.51059 1051
36.53071 916
36.55082 898
36.57094 909
36.59105 817
36.61116 787
36.63128 768
36.65139 720
36.6715 699
36.69162 751
36.71173 705
36.73184 698
36.75196 763
36.77207 770
36.79219 771
36.8123 775
36.83241 800
36.85253 754
36.87264 727
36.89275 769
36.91287 750
36.93298 733
36.9531 688
36.97321 757
36.99332 672
37.01344 585
37.03355 604
37.05366 532
37.07378 571
37.09389 553
37.11401 496
37.13412 499
37.15423 452
37.17435 536
37.19446 498
37.21457 483
37.23469 457
37.2548 454
37.27491 498
37.29503 456
37.31514 450
37.33526 453
37.35537 463
37.37548 453
37.3956 462
37.41571 442
37.43582 490
37.45594 429
37.47605 449
37.49617 460
37.51628 468
37.53639 483
37.55651 488
37.57662 532
37.59673 474
37.61685 482
37.63696 474
37.65708 484
37.67719 467
37.6973 517
37.71742 484
37.73753 478
37.75764 497
37.77776 487
37.79787 447
37.81798 442
37.8381 432
37.85821 402
37.87833 452
37.89844 402
37.91855 421
37.93867 440
37.95878 470
37.97889 440
37.99901 448
38.01912 415
38.03924 424
38.05935 431
38.07946 432
38.09958 446
38.11969 468
38.1398 430
38.15992 497
38.18003 425
38.20015 434
38.22026 451
38.24037 414
38.26049 425
38.2806 449
38.30071 431
38.32083 375
38.34094 428
38.36105 444
38.38117 401
38.40128 440
38.4214 451
38.44151 374
38.46162 403
38.48174 386
38.50185 383
38.52196 447
38.54208 409
38.56219 430
38.58231 380
38.60242 435
38.62253 437
38.64265 392
38.66276 438
38.68287 383
38.70299 394
38.7231 433
38.74321 401
38.76333 450
38.78344 351
38.80356 419
38.82367 397
38.84378 428
38.8639 436
38.88401 443
38.90412 417
38.92424 437
38.94435 395
38.96447 476
38.98458 478
39.00469 434
39.02481 494
39.04492 522
39.06503 477
39.08515 459
39.10526 506
39.12538 505
39.14549 472
39.1656 476
39.18572 500
39.20583 486
39.22594 468
39.24606 530
39.26617 505
39.28628 559
39.3064 592
39.32651 651
39.34663 699
39.36674 730
39.38685 808
39.40697 786
39.42708 870
39.44719 784
39.46731 851
39.48742 735
39.50754 688
39.52765 627
39.54776 629
39.56788 614
39.58799 529
39.6081 513
39.62822 494
39.64833 498
39.66845 493
39.68856 481
39.70867 452
39.72879 526
39.7489 432
39.76901 443
39.78913 436
39.80924 462
39.82935 476
39.84947 444
39.86958 486
39.8897 471
39.90981 483
39.92992 453
39.95004 462
39.97015 454
39.99026 503
40.01038 476
40.03049 486
40.05061 498
40.07072 473
40.09083 527
40.11095 508
40.13106 561
40.15117 575
40.17129 583
40.1914 601
40.21152 604
40.23163 648
40.25174 613
40.27186 543
40.29197 580
40.31208 565
40.3322 525
40.35231 476
40.37242 470
40.39254 488
40.41265 477
40.43277 473
40.45288 445
40.47299 405
40.49311 426
40.51322 441
40.53333 441
40.55345 414
40.57356 388
40.59368 409
40.61379 390
40.6339 423
40.65402 389
40.67413 417
40.69424 413
40.71436 453
40.73447 429
40.75458 436
40.7747 478
40.79481 448
40.81493 440
40.83504 442
40.85515 478
40.87527 448
40.89538 457
40.91549 449
40.93561 409
40.95572 425
40.97584 431
40.99595 477
41.01606 415
41.03618 475
41.05629 436
41.0764 474
41.09652 449
41.11663 474
41.13675 483
41.15686 470
41.17697 499
41.19709 499
41.2172 528
41.23731 545
41.25743 566
41.27754 557
41.29765 562
41.31777 542
41.33788 582
41.358 615
41.37811 550
41.39822 595
41.41834 605
41.43845 622
41.45856 566
41.47868 583
41.49879 598
41.51891 532
41.53902 575
41.55913 574
41.57925 558
41.59936 510
41.61947 532
41.63959 535
41.6597 515
41.67982 477
41.69993 482
41.72004 485
41.74016 457
41.76027 462
41.78038 470
41.8005 465
41.82061 456
41.84072 439
41.86084 426
41.88095 462
41.90107 455
41.92118 447
41.94129 443
41.96141 472
41.98152 396
42.00163 449
42.02175 465
42.04186 449
42.06198 430
42.08209 432
42.1022 404
42.12232 468
42.14243 425
42.16254 454
42.18266 503
42.20277 477
42.22289 474
42.243 502
42.26311 582
42.28323 578
42.30334 610
42.32345 652
42.34357 723
42.36368 749
42.38379 770
42.40391 806
42.42402 687
42.44414 683
42.46425 648
42.48436 590
42.50448 571
42.52459 549
42.5447 541
42.56482 480
42.58493 425
42.60505 413
42.62516 404
42.64527 401
42.66539 382
42.6855 384
42.70561 376
42.72573 367
42.74584 396
42.76595 373
42.78607 390
42.80618 391
42.8263 408
42.84641 393
42.86652 346
42.88664 383
42.90675 363
42.92686 345
42.94698 370
42.96709 373
42.98721 375
43.00732 343
43.02743 345
43.04755 365
43.06766 342
43.08777 342
43.10789 346
43.128 380
43.14812 351
43.16823 329
43.18834 372
43.20846 348
43.22857 386
43.24868 370
43.2688 379
43.28891 367
43.30902 340
43.32914 314
43.34925 334
43.36937 345
43.38948 340
43.40959 327
43.42971 386
43.44982 341
43.46993 331
43.49005 338
43.51016 341
43.53028 351
43.55039 350
43.5705 338
43.59062 340
43.61073 364
43.63084 321
43.65096 327
43.67107 336
43.69119 335
43.7113 325
43.73141 327
43.75153 373
43.77164 341
43.79175 335
43.81187 339
43.83198 329
43.85209 363
43.87221 337
43.89232 367
43.91244 380
43.93255 360
43.95266 352
43.97278 353
43.99289 351
44.013 365
44.03312 399
44.05323 355
44.07335 365
44.09346 336
44.11357 329
44.13369 332
44.1538 347
44.17391 343
44.19403 376
44.21414 362
44.23426 353
44.25437 349
44.27448 344
44.2946 359
44.31471 341
44.33482 323
44.35494 335
44.37505 315
44.39516 345
44.41528 359
44.43539 351
44.45551 360
44.47562 332
44.49573 343
44.51585 329
44.53596 325
44.55607 351
44.57619 361
44.5963 379
44.61642 344
44.63653 381
44.65664 333
44.67676 365
44.69687 415
44.71698 375
44.7371 387
44.75721 402
44.77732 401
44.79744 440
44.81755 399
44.83767 414
44.85778 435
44.87789 424
44.89801 462
44.91812 449
44.93823 488
44.95835 460
44.97846 475
44.99858 440
45.01869 489
45.0388 493
45.05892 456
45.07903 484
45.09914 517
45.11926 484
45.13937 488
45.15949 515
45.1796 518
45.19971 514
45.21983 537
45.23994 506
45.26005 567
45.28017 585
45.30028 533
45.32039 595
45.34051 560
45.36062 584
45.38074 641
45.40085 574
45.42096 520
45.44108 556
45.46119 500
45.4813 447
45.50142 495
45.52153 489
45.54165 494
45.56176 442
45.58187 472
45.60199 500
45.6221 513
45.64221 542
45.66233 588
45.68244 549
45.70256 545
45.72267 572
45.74278 583
45.7629 573
45.78301 508
45.80312 483
45.82324 482
45.84335 485
45.86346 513
45.88358 480
45.90369 467
45.92381 431
45.94392 428
45.96403 413
45.98415 393
46.00426 382
46.02437 424
46.04449 382
46.0646 395
46.08472 398
46.10483 383
46.12494 390
46.14506 384
46.16517 337
46.18528 391
46.2054 381
46.22551 366
46.24563 380
46.26574 394
46.28585 381
46.30597 420
46.32608 394
46.34619 338
46.36631 347
46.38642 340
46.40653 356
46.42665 340
46.44676 360
46.46688 372
46.48699 357
46.5071 333
46.52722 338
46.54733 325
46.56744 352
46.58756 364
46.60767 353
46.62779 384
46.6479 365
46.66801 397
46.68813 401
46.70824 356
46.72835 399
46.74847 381
46.76858 372
46.78869 378
46.80881 354
46.82892 389
46.84904 351
46.86915 393
46.88926 366
46.90938 381
46.92949 376
46.9496 332
46.96972 387
46.98983 356
47.00995 365
47.03006 397
47.05017 414
47.07029 391
47.0904 346
47.11051 330
47.13063 367
47.15074 390
47.17086 378
47.19097 394
47.21108 381
47.2312 365
47.25131 366
47.27142 353
47.29154 353
47.31165 359
47.33176 347
47.35188 364
47.37199 402
47.39211 421
47.41222 403
47.43233 348
47.45245 371
47.47256 381
47.49267 371
47.51279 378
47.5329 376
47.55302 363
47.57313 404
47.59324 388
47.61336 372
47.63347 362
47.65358 371
47.6737 332
47.69381 352
47.71393 364
47.73404 340
47.75415 378
47.77427 389
47.79438 373
47.81449 354
47.83461 360
47.85472 374
47.87483 376
47.89495 372
47.91506 343
47.93518 386
47.95529 338
47.9754 337
47.99552 422
48.01563 350
48.03574 339
48.05586 380
48.07597 401
48.09609 334
48.1162 358
48.13631 350
48.15643 336
48.17654 363
48.19665 355
48.21677 352
48.23688 365
48.257 366
48.27711 344
48.29722 332
48.31734 349
48.33745 354
48.35756 337
48.37768 318
48.39779 373
48.4179 361
48.43802 334
48.45813 323
48.47825 323
48.49836 356
48.51847 348
48.53859 338
48.5587 332
48.57881 362
48.59893 313
48.61904 337
48.63916 322
48.65927 316
48.67938 360
48.6995 346
48.71961 340
48.73972 339
48.75984 325
48.77995 331
48.80006 326
48.82018 298
48.84029 339
48.86041 337
48.88052 318
48.90063 342
48.92075 356
48.94086 348
48.96097 332
48.98109 354
49.0012 354
49.02132 327
49.04143 340
49.06154 355
49.08166 364
49.10177 343
49.12188 384
49.142 343
49.16211 365
49.18223 354
49.20234 369
49.22245 348
49.24257 362
49.26268 374
49.28279 369
49.30291 375
49.32302 371
49.34313 361
49.36325 376
49.38336 333
49.40348 347
49.42359 368
49.4437 370
49.46382 363
49.48393 389
49.50404 338
49.52416 365
49.54427 352
49.56439 346
49.5845 382
49.60461 350
49.62473 383
49.64484 383
49.66495 384
49.68507 412
49.70518 380
49.7253 430
49.74541 413
49.76552 440
49.78564 406
49.80575 458
49.82586 469
49.84598 466
49.86609 480
49.8862 526
49.90632 537
49.92643 600
49.94655 588
49.96666 704
49.98677 769
50.00689 840
50.027 924
50.04711 959
50.06723 976
50.08734 963
50.10746 1014
50.12757 927
50.14768 755
50.1678 718
50.18791 687
50.20802 695
50.22814 599
50.24825 587
50.26837 524
50.28848 446
50.30859 389
50.32871 374
50.34882 383
50.36893 353
50.38905 379
50.40916 334
50.42927 342
50.44939 328
50.4695 354
50.48962 360
50.50973 355
50.52984 361
50.54996 369
50.57007 378
50.59018 363
50.6103 369
50.63041 371
50.65053 358
50.67064 386
50.69075 373
50.71087 342
50.73098 329
50.75109 373
50.77121 337
50.79132 334
50.81143 328
50.83155 290
50.85166 324
50.87178 340
50.89189 311
50.912 357
50.93212 347
50.95223 319
50.97234 321
50.99246 327
51.01257 326
51.03269 347
51.0528 345
51.07291 366
51.09303 365
51.11314 357
51.13325 352
51.15337 412
51.17348 384
51.1936 350
51.21371 369
51.23382 371
51.25394 370
51.27405 340
51.29416 345
51.31428 359
51.33439 349
51.3545 346
51.37462 342
51.39473 325
51.41485 325
51.43496 344
51.45507 346
51.47519 351
51.4953 317
51.51541 316
51.53553 322
51.55564 337
51.57576 298
51.59587 314
51.61598 357
51.6361 298
51.65621 355
51.67632 330
51.69644 318
51.71655 342
51.73667 317
51.75678 337
51.77689 334
51.79701 337
51.81712 329
51.83723 302
51.85735 307
51.87746 312
51.89757 337
51.91769 339
51.9378 320
51.95792 320
51.97803 302
51.99814 302
52.01826 341
52.03837 357
52.05848 320
52.0786 333
52.09871 343
52.11883 316
52.13894 307
52.15905 343
52.17917 370
52.19928 340
52.21939 323
52.23951 341
52.25962 352
52.27974 347
52.29985 353
52.31996 343
52.34008 332
52.36019 350
52.3803 326
52.40042 348
52.42053 373
52.44064 378
52.46076 366
52.48087 373
52.50099 382
52.5211 348
52.54121 355
52.56133 356
52.58144 343
52.60155 338
52.62167 342
52.64178 336
52.6619 351
52.68201 376
52.70212 346
52.72224 353
52.74235 362
52.76246 350
52.78258 367
52.80269 342
52.8228 361
52.84292 366
52.86303 341
52.88315 357
52.90326 337
52.92337 371
52.94349 339
52.9636 347
52.98371 390
53.00383 323
53.02394 358
53.04406 364
53.06417 330
53.08428 386
53.1044 379
53.12451 377
53.14462 362
53.16474 362
53.18485 382
53.20497 370
53.22508 364
53.24519 341
53.26531 372
53.28542 343
53.30553 358
53.32565 329
53.34576 360
53.36587 335
53.38599 363
53.4061 337
53.42622 366
53.44633 362
53.46644 348
53.48656 340
53.50667 339
53.52678 350
53.5469 351
53.56701 388
53.58713 402
53.60724 327
53.62735 327
53.64747 348
53.66758 354
53.68769 379
53.70781 366
53.72792 361
53.74804 352
53.76815 339
53.78826 361
53.80838 368
53.82849 390
53.8486 354
53.86872 401
53.88883 403
53.90894 367
53.92906 396
53.94917 417
53.96929 363
53.9894 397
54.00951 405
54.02963 390
54.04974 379
54.06985 376
54.08997 412
54.11008 369
54.1302 381
54.15031 428
54.17042 433
54.19054 378
54.21065 415
54.23076 448
54.25088 454
54.27099 458
54.29111 430
54.31122 447
54.33133 450
54.35145 470
54.37156 423
54.39167 483
54.41179 448
54.4319 421
54.45201 492
54.47213 474
54.49224 456
54.51236 462
54.53247 472
54.55258 503
54.5727 533
54.59281 507
54.61292 569
54.63304 548
54.65315 590
54.67327 626
54.69338 573
54.71349 609
54.73361 682
54.75372 722
54.77383 694
54.79395 684
54.81406 668
54.83417 695
54.85429 667
54.8744 651
54.89452 601
54.91463 588
54.93474 546
54.95486 573
54.97497 541
54.99508 565
55.0152 522
55.03531 536
55.05543 516
55.07554 477
55.09565 469
55.11577 473
55.13588 476
55.15599 490
55.17611 494
55.19622 529
55.21634 495
55.23645 494
55.25656 452
55.27668 499
55.29679 438
55.3169 456
55.33702 485
55.35713 442
55.37724 485
55.39736 462
55.41747 412
55.43759 461
55.4577 440
55.47781 415
55.49793 387
55.51804 446
55.53815 415
55.55827 392
55.57838 388
55.5985 389
55.61861 394
55.63872 467
55.65884 433
55.67895 378
55.69906 434
55.71918 416
55.73929 415
55.75941 410
55.77952 457
55.79963 425
55.81975 427
55.83986 375
55.85997 426
55.88009 383
55.9002 388
55.92031 412
55.94043 396
55.96054 416
55.98066 382
56.00077 376
56.02088 368
56.041 359
56.06111 372
56.08122 390
56.10134 364
56.12145 389
56.14157 347
56.16168 372
56.18179 345
56.20191 370
56.22202 356
56.24213 356
56.26225 358
56.28236 356
56.30248 350
56.32259 354
56.3427 348
56.36282 348
56.38293 371
56.40304 352
56.42316 373
56.44327 354
56.46338 326
56.4835 384
56.50361 348
56.52373 373
56.54384 370
56.56395 337
56.58407 359
56.60418 334
56.62429 362
56.64441 353
56.66452 347
56.68464 400
56.70475 345
56.72486 392
56.74498 335
56.76509 355
56.7852 361
56.80532 346
56.82543 372
56.84554 339
56.86566 370
56.88577 371
56.90589 342
56.926 368
56.94611 324
56.96623 349
56.98634 343
57.00645 323
57.02657 349
57.04668 352
57.0668 371
57.08691 347
57.10702 363
57.12714 355
57.14725 367
57.16736 358
57.18748 376
57.20759 360
57.22771 334
57.24782 327
57.26793 337
57.28805 339
57.30816 346
57.32827 356
57.34839 344
57.3685 348
57.38861 365
57.40873 362
57.42884 384
57.44896 348
57.46907 351
57.48918 371
57.5093 364
57.52941 353
57.54952 338
57.56964 352
57.58975 357
57.60987 353
57.62998 350
57.65009 348
57.67021 370
57.69032 344
57.71043 369
57.73055 343
57.75066 312
57.77078 342
57.79089 358
57.811 358
57.83112 389
57.85123 370
57.87134 338
57.89146 355
57.91157 344
57.93168 343
57.9518 322
57.97191 363
57.99203 350
58.01214 323
58.03225 349
58.05237 312
58.07248 345
58.09259 322
58.11271 355
58.13282 311
58.15294 318
58.17305 369
58.19316 317
58.21328 326
58.23339 345
58.2535 336
58.27362 336
58.29373 351
58.31385 328
58.33396 344
58.35407 391
58.37419 330
58.3943 340
58.41441 353
58.43453 329
58.45464 298
58.47475 337
58.49487 341
58.51498 353
58.5351 341
58.55521 325
58.57532 352
58.59544 345
58.61555 336
58.63566 362
58.65578 355
58.67589 351
58.69601 319
58.71612 365
58.73623 346
58.75635 333
58.77646 319
58.79657 330
58.81669 317
58.8368 330
58.85691 318
58.87703 325
58.89714 339
58.91726 335
58.93737 363
58.95748 331
58.9776 366
58.99771 336
59.01782 340
59.03794 362
59.05805 322
59.07817 353
59.09828 360
59.11839 332
59.13851 331
59.15862 352
59.17873 330
59.19885 360
59.21896 340
59.23908 371
59.25919 355
59.2793 305
59.29942 362
59.31953 384
59.33964 361
59.35976 364
59.37987 330
59.39998 342
59.4201 373
59.44021 366
59.46033 395
59.48044 346
59.50055 374
59.52067 381
59.54078 401
59.56089 386
59.58101 403
59.60112 432
59.62124 476
59.64135 404
59.66146 478
59.68158 463
59.70169 483
59.7218 519
59.74192 576
59.76203 608
59.78215 621
59.80226 638
59.82237 770
59.84249 792
59.8626 793
59.88271 875
59.90283 847
59.92294 853
59.94305 775
59.96317 785
59.98328 738
60.0034 694
60.02351 750
60.04362 750
60.06374 736
60.08385 757
60.10396 698
60.12408 655
60.14419 647
60.16431 668
60.18442 588
60.20453 618
60.22465 577
60.24476 613
60.26487 581
60.28499 589
60.3051 563
60.32522 540
60.34533 556
60.36544 517
60.38556 488
60.40567 430
60.42578 438
60.4459 425
60.46601 447
60.48612 437
60.50624 395
60.52635 427
60.54647 440
60.56658 419
60.58669 396
60.60681 459
60.62692 420
60.64703 413
60.66715 409
60.68726 443
60.70738 403
60.72749 370
60.7476 416
60.76772 397
60.78783 401
60.80794 403
60.82806 417
60.84817 395
60.86828 415
60.8884 403
60.90851 402
60.92863 394
60.94874 379
60.96885 387
60.98897 411
61.00908 372
61.02919 366
61.04931 387
61.06942 389
61.08954 375
61.10965 401
61.12976 392
61.14988 386
61.16999 376
61.1901 358
61.21022 363
61.23033 375
61.25045 369
61.27056 363
61.29067 358
61.31079 375
61.3309 398
61.35101 368
61.37113 347
61.39124 359
61.41135 393
61.43147 382
61.45158 402
61.4717 407
61.49181 418
61.51192 391
61.53204 389
61.55215 396
61.57226 383
61.59238 437
61.61249 423
61.63261 418
61.65272 393
61.67283 421
61.69295 438
61.71306 396
61.73317 438
61.75329 425
61.7734 450
61.79352 426
61.81363 444
61.83374 381
61.85386 400
61.87397 403
61.89408 373
61.9142 379
61.93431 383
61.95442 360
61.97454 364
61.99465 396
62.01477 421
62.03488 405
62.05499 375
62.07511 370
62.09522 356
62.11533 358
62.13545 366
62.15556 353
62.17568 364
62.19579 383
62.2159 382
62.23602 336
62.25613 366
62.27624 347
62.29636 395
62.31647 354
62.33659 370
62.3567 343
62.37681 342
62.39693 342
62.41704 330
62.43715 333
62.45727 347
62.47738 364
62.49749 333
62.51761 350
62.53772 350
62.55784 323
62.57795 339
62.59806 332
62.61818 340
62.63829 318
62.6584 320
62.67852 337
62.69863 342
62.71875 301
62.73886 336
62.75897 327
62.77909 335
62.7992 361
62.81931 332
62.83943 321
62.85954 346
62.87965 355
62.89977 353
62.91988 339
62.94 332
62.96011 318
62.98022 318
63.00034 345
63.02045 376
63.04056 333
63.06068 343
63.08079 322
63.10091 367
63.12102 344
63.14113 335
63.16125 338
63.18136 346
63.20147 329
63.22159 317
63.2417 333
63.26182 338
63.28193 358
63.30204 370
63.32216 341
63.34227 361
63.36238 347
63.3825 326
63.40261 324
63.42272 326
63.44284 344
63.46295 325
63.48307 353
63.50318 337
63.52329 344
63.54341 339
63.56352 328
63.58363 348
63.60375 360
63.62386 346
63.64398 396
63.66409 361
63.6842 400
63.70432 358
63.72443 357
63.74454 348
63.76466 329
63.78477 362
63.80489 338
63.825 388
63.84511 366
63.86523 364
63.88534 362
63.90545 353
63.92557 400
63.94568 370
63.96579 392
63.98591 376
64.00602 367
64.02614 387
64.04625 351
64.06636 358
64.08648 340
64.10659 359
64.1267 332
64.14682 381
64.16693 331
64.18705 304
64.20716 301
64.22727 352
64.24739 310
64.2675 320
64.28761 309
64.30773 334
64.32784 343
64.34796 318
64.36807 304
64.38818 296
64.4083 292
64.42841 269
64.44852 280
64.46864 291
64.48875 327
64.50886 293
64.52898 299
64.54909 331
64.56921 281
64.58932 344
64.60943 323
64.62955 320
64.64966 308
64.66977 326
64.68989 314
64.71 320
64.73012 315
64.75023 311
64.77034 305
64.79046 299
64.81057 323
64.83068 290
64.8508 335
64.87091 305
64.89102 312
64.91114 311
64.93125 320
64.95137 348
64.97148 326
64.99159 314
65.01171 297
65.03182 292
65.05193 339
65.07205 347
65.09216 302
65.11228 278
65.13239 331
65.1525 299
65.17262 317
65.19273 341
65.21284 329
65.23296 327
65.25307 319
65.27319 321
65.2933 320
65.31341 298
65.33353 329
65.35364 297
65.37375 333
65.39387 320
65.41398 315
65.43409 302
65.45421 322
65.47432 279
65.49444 288
65.51455 268
65.53466 294
65.55478 314
65.57489 294
65.595 294
65.61512 329
65.63523 296
65.65535 343
65.67546 332
65.69557 302
65.71569 318
65.7358 327
65.75591 311
65.77603 309
65.79614 326
65.81626 306
65.83637 289
65.85648 317
65.8766 293
65.89671 289
65.91682 306
65.93694 296
65.95705 301
65.97716 317
65.99728 330
66.01739 299
66.03751 339
66.05762 278
66.07773 325
66.09785 285
66.11796 292
66.13807 283
66.15819 297
66.1783 315
66.19842 307
66.21853 320
66.23864 296
66.25876 313
66.27887 326
66.29898 279
66.3191 298
66.33921 305
66.35933 287
66.37944 316
66.39955 302
66.41967 295
66.43978 307
66.45989 313
66.48001 293
66.50012 292
66.52023 300
66.54035 291
66.56046 324
66.58058 331
66.60069 295
66.6208 287
66.64092 294
66.66103 301
66.68114 275
66.70126 303
66.72137 324
66.74149 304
66.7616 312
66.78171 289
66.80183 317
66.82194 299
66.84205 300
66.86217 296
66.88228 330
66.90239 323
66.92251 302
66.94262 333
66.96274 300
66.98285 317
67.00296 341
67.02308 336
67.04319 334
67.0633 290
67.08342 332
67.10353 307
67.12365 329
67.14376 340
67.16387 312
67.18399 308
67.2041 294
67.22421 313
67.24433 317
67.26444 324
67.28456 332
67.30467 332
67.32478 303
67.3449 353
67.36501 355
67.38512 317
67.40524 344
67.42535 312
67.44546 339
67.46558 342
67.48569 377
67.50581 368
67.52592 380
67.54603 428
67.56615 441
67.58626 444
67.60637 452
67.62649 495
67.6466 502
67.66672 566
67.68683 526
67.70694 486
67.72706 523
67.74717 482
67.76728 453
67.7874 469
67.80751 464
67.82763 480
67.84774 512
67.86785 504
67.88797 512
67.90808 525
67.92819 506
67.94831 513
67.96842 535
67.98853 542
68.00865 596
68.02876 576
68.04888 605
68.06899 676
68.0891 679
68.10922 624
68.12933 593
68.14944 551
68.16956 577
68.18967 582
68.20979 593
68.2299 622
68.25001 584
68.27013 596
68.29024 539
68.31035 560
68.33047 489
68.35058 446
68.3707 420
68.39081 391
68.41092 431
68.43104 409
68.45115 445
68.47126 438
68.49138 379
68.51149 402
68.5316 375
68.55172 357
68.57183 375
68.59195 352
68.61206 344
68.63217 363
68.65229 348
68.6724 371
68.69251 366
68.71263 365
68.73274 385
68.75286 379
68.77297 348
68.79308 365
68.8132 375
68.83331 353
68.85342 359
68.87354 389
68.89365 360
68.91376 355
68.93388 388
68.95399 360
68.97411 330
68.99422 353
69.01433 345
69.03445 367
69.05456 364
69.07467 345
69.09479 327
69.1149 357
69.13502 342
69.15513 352
69.17524 366
69.19536 396
69.21547 380
69.23558 374
69.2557 349
69.27581 338
69.29593 358
69.31604 344
69.33615 367
69.35627 355
69.37638 378
69.39649 365
69.41661 356
69.43672 309
69.45683 342
69.47695 366
69.49706 336
69.51718 315
69.53729 349
69.5574 347
69.57752 334
69.59763 333
69.61774 307
69.63786 337
69.65797 314
69.67809 334
69.6982 350
69.71831 325
69.73843 302
69.75854 343
69.77865 360
69.79877 326
69.81888 330
69.839 322
69.85911 346
69.87922 328
69.89934 307
69.91945 304
69.93956 321
69.95968 314
69.97979 329
69.9999 302
70.02002 313
70.04013 323
70.06025 325
70.08036 304
70.10047 292
70.12059 325
70.1407 296
70.16081 302
70.18093 288
70.20104 307
70.22116 287
70.24127 327
70.26138 312
70.2815 314
70.30161 317
70.32172 300
70.34184 280
70.36195 302
70.38207 282
70.40218 293
70.42229 319
70.44241 332
70.46252 293
70.48263 316
70.50275 282
70.52286 316
70.54297 312
70.56309 326
70.5832 322
70.60332 290
70.62343 341
70.64354 309
70.66366 326
70.68377 320
70.70388 315
70.724 304
70.74411 340
70.76423 333
70.78434 322
70.80445 309
70.82457 320
70.84468 345
70.86479 329
70.88491 333
70.90502 361
70.92513 329
70.94525 346
70.96536 359
70.98548 333
71.00559 381
71.0257 341
71.04582 334
71.06593 351
71.08604 361
71.10616 352
71.12627 343
71.14639 365
71.1665 345
71.18661 338
71.20673 353
71.22684 363
71.24695 312
71.26707 347
71.28718 362
71.3073 328
71.32741 333
71.34752 321
71.36764 320
71.38775 332
71.40786 304
71.42798 336
71.44809 322
71.4682 312
71.48832 327
71.50843 313
71.52855 312
71.54866 318
71.56877 283
71.58889 324
71.609 299
71.62911 299
71.64923 301
71.66934 330
71.68946 291
71.70957 335
71.72968 310
71.7498 308
71.76991 315
71.79002 326
71.81014 333
71.83025 296
71.85037 311
71.87048 306
71.89059 344
71.91071 292
71.93082 299
71.95093 325
71.97105 321
71.99116 316
72.01127 297
72.03139 311
72.0515 340
72.07162 311
72.09173 292
72.11184 339
72.13196 323
72.15207 322
72.17218 309
72.1923 305
72.21241 306
72.23253 279
72.25264 304
72.27275 331
72.29287 306
72.31298 297
72.33309 308
72.35321 331
72.37332 321
72.39344 285
72.41355 296
72.43366 339
72.45378 332
72.47389 352
72.494 338
72.51412 310
72.53423 335
72.55434 334
72.57446 300
72.59457 349
72.61469 312
72.6348 354
72.65491 316
72.67503 327
72.69514 325
72.71525 325
72.73537 348
72.75548 341
72.7756 317
72.79571 333
72.81582 354
72.83594 312
72.85605 337
72.87616 348
72.89628 312
72.91639 312
72.9365 308
72.95662 329
72.97673 359
72.99685 297
73.01696 342
73.03707 310
73.05719 313
73.0773 311
73.09741 314
73.11753 331
73.13764 319
73.15776 321
73.17787 336
73.19798 303
73.2181 315
73.23821 319
73.25832 292
73.27844 342
73.29855 337
73.31867 358
73.33878 350
73.35889 366
73.37901 392
73.39912 356
73.41923 342
73.43935 358
73.45946 338
73.47957 361
73.49969 285
73.5198 321
73.53992 341
73.56003 319
73.58014 337
73.60026 310
73.62037 347
73.64048 312
73.6606 308
73.68071 327
73.70083 298
73.72094 294
73.74105 276
73.76117 293
73.78128 308
73.80139 296
73.82151 263
73.84162 319
73.86174 292
73.88185 299
73.90196 312
73.92208 293
73.94219 301
73.9623 279
73.98242 298
74.00253 323
74.02264 288
74.04276 249
74.06287 299
74.08299 289
74.1031 317
74.12321 290
74.14333 303
74.16344 284
74.18355 289
74.20367 293
74.22378 319
74.2439 286
74.26401 317
74.28412 287
74.30424 305
74.32435 298
74.34446 266
74.36458 285
74.38469 295
74.40481 316
74.42492 313
74.44503 323
74.46515 295
74.48526 302
74.50537 320
74.52549 281
74.5456 312
74.56571 292
74.58583 298
74.60594 308
74.62606 316
74.64617 303
74.66628 293
74.6864 318
74.70651 317
74.72662 289
74.74674 308
74.76685 309
74.78697 313
74.80708 294
74.82719 281
74.84731 312
74.86742 273
74.88753 286
74.90765 279
74.92776 292
74.94787 276
74.96799 284
74.9881 248
75.00822 255
