3.00117 21347
3.02128 20968
3.0414 20264
3.06151 19536
3.08162 19411
3.10174 18225
3.12185 18274
3.14197 17282
3.16208 16858
3.18219 17023
3.20231 15970
3.22242 15752
3.24253 14928
3.26265 14717
3.28276 14438
3.30288 13634
3.32299 13458
3.3431 12922
3.36322 12635
3.38333 12186
3.40344 11806
3.42356 11491
3.44367 10975
3.46379 11037
3.4839 10468
3.50401 10074
3.52413 9751
3.54424 9143
3.56435 8866
3.58447 8711
3.60458 8171
3.62469 8178
3.64481 7591
3.66492 7564
3.68504 7246
3.70515 6847
3.72526 6696
3.74538 6339
3.76549 6242
3.7856 6004
3.80572 5567
3.82583 5604
3.84595 5134
3.86606 4884
3.88617 4862
3.90629 4479
3.9264 4428
3.94651 4228
3.96663 4023
3.98674 3945
4.00686 3645
4.02697 3615
4.04708 3343
4.0672 3225
4.08731 3240
4.10742 2842
4.12754 2850
4.14765 2707
4.16776 2636
4.18788 2674
4.20799 2444
4.22811 2240
4.24822 2270
4.26833 2215
4.28845 2337
4.30856 1949
4.32867 1982
4.34879 1858
4.3689 1922
4.38902 1929
4.40913 1705
4.42924 1605
4.44936 1658
4.46947 1614
4.48958 1677
4.5097 1511
4.52981 1487
4.54992 1499
4.57004 1488
4.59015 1483
4.61027 1361
4.63038 1294
4.65049 1388
4.67061 1256
4.69072 1340
4.71083 1257
4.73095 1239
4.75106 1188
4.77118 1257
4.79129 1171
4.8114 1058
4.83152 1119
4.85163 1069
4.87174 1087
4.89186 1024
4.91197 982
4.93209 1030
4.9522 955
4.97231 944
4.99243 975
5.01254 910
5.03265 908
5.05277 904
5.07288 910
5.09299 914
5.11311 841
5.13322 844
5.15334 833
5.17345 816
5.19356 787
5.21368 740
5.23379 657
5.2539 805
5.27402 774
5.29413 708
5.31425 749
5.33436 690
5.35447 733
5.37459 668
5.3947 644
5.41481 640
5.43493 620
5.45504 724
5.47516 613
5.49527 577
5.51538 636
5.5355 618
5.55561 590
5.57572 624
5.59584 533
5.61595 560
5.63606 557
5.65618 571
5.67629 570
5.69641 554
5.71652 516
5.73663 507
5.75675 497
5.77686 499
5.79697 498
5.81709 516
5.8372 545
5.85732 436
5.87743 493
5.89754 473
5.91766 483
5.93777 489
5.95788 418
5.978 543
5.99811 472
6.01823 421
6.03834 472
6.05845 472
6.07857 477
6.09868 484
6.11879 444
6.13891 446
6.15902 465
6.17913 479
6.19925 447
6.21936 433
6.23948 416
6.25959 448
6.2797 440
6.29982 409
6.31993 409
6.34004 484
6.36016 427
6.38027 428
6.40039 430
6.4205 400
6.44061 415
6.46073 477
6.48084 424
6.50095 428
6.52107 380
6.54118 410
6.56129 410
6.58141 433
6.60152 421
6.62164 458
6.64175 394
6.66186 418
6.68198 434
6.70209 433
6.7222 391
6.74232 420
6.76243 448
6.78255 396
6.80266 400
6.82277 384
6.84289 374
6.863 430
6.88311 425
6.90323 390
6.92334 426
6.94346 413
6.96357 364
6.98368 361
7.0038 433
7.02391 393
7.04402 425
7.06414 402
7.08425 428
7.10436 416
7.12448 417
7.14459 378
7.16471 418
7.18482 393
7.20493 395
7.22505 407
7.24516 435
7.26527 416
7.28539 409
7.3055 431
7.32562 366
7.34573 389
7.36584 368
7.38596 401
7.40607 431
7.42618 412
7.4463 404
7.46641 395
7.48653 425
7.50664 419
7.52675 390
7.54687 390
7.56698 345
7.58709 411
7.60721 470
7.62732 456
7.64743 422
7.66755 383
7.68766 378
7.70778 387
7.72789 415
7.748 397
7.76812 442
7.78823 424
7.80834 387
7.82846 409
7.84857 408
7.86869 432
7.8888 416
7.90891 460
7.92903 378
7.94914 397
7.96925 415
7.98937 409
8.00948 438
8.0296 428
8.04971 421
8.06982 428
8.08994 397
8.11005 381
8.13016 396
8.15028 415
8.17039 365
8.1905 396
8.21062 396
8.23073 408
8.25085 403
8.27096 391
8.29107 408
8.31119 394
8.3313 381
8.35141 399
8.37153 401
8.39164 415
8.41176 373
8.43187 384
8.45198 386
8.4721 412
8.49221 408
8.51232 405
8.53244 391
8.55255 415
8.57266 421
8.59278 393
8.61289 419
8.63301 418
8.65312 361
8.67323 375
8.69335 414
8.71346 392
8.73357 460
8.75369 421
8.7738 412
8.79392 418
8.81403 448
8.83414 402
8.85426 384
8.87437 381
8.89448 455
8.9146 433
8.93471 420
8.95483 417
8.97494 413
8.99505 402
9.01517 380
9.03528 403
9.05539 419
9.07551 449
9.09562 415
9.11573 373
9.13585 460
9.15596 406
9.17608 418
9.19619 429
9.2163 388
9.23642 427
9.25653 401
9.27664 379
9.29676 416
9.31687 422
9.33699 406
9.3571 373
9.37721 404
9.39733 397
9.41744 410
9.43755 409
9.45767 426
9.47778 392
9.4979 404
9.51801 385
9.53812 384
9.55824 389
9.57835 395
9.59846 410
9.61858 395
9.63869 429
9.6588 463
9.67892 407
9.69903 417
9.71915 374
9.73926 369
9.75937 368
9.77949 423
9.7996 387
9.81971 399
9.83983 398
9.85994 382
9.88006 400
9.90017 390
9.92028 353
9.9404 409
9.96051 370
9.98062 426
10.00074 388
10.02085 384
10.04097 381
10.06108 392
10.08119 406
10.10131 402
10.12142 398
10.14153 412
10.16165 435
10.18176 405
10.20187 407
10.22199 413
10.2421 380
10.26222 387
10.28233 380
10.30244 418
10.32256 409
10.34267 398
10.36278 468
10.3829 443
10.40301 396
10.42313 409
10.44324 408
10.46335 388
10.48347 375
10.50358 408
10.52369 410
10.54381 447
10.56392 432
10.58403 393
10.60415 402
10.62426 386
10.64438 420
10.66449 398
10.6846 405
10.70472 424
10.72483 431
10.74494 371
10.76506 410
10.78517 396
10.80529 392
10.8254 408
10.84551 401
10.86563 380
10.88574 398
10.90585 440
10.92597 447
10.94608 390
10.9662 400
10.98631 390
11.00642 394
11.02654 386
11.04665 391
11.06676 393
11.08688 373
11.10699 423
11.1271 391
11.14722 409
11.16733 391
11.18745 423
11.20756 440
11.22767 433
11.24779 435
11.2679 389
11.28801 420
11.30813 451
11.32824 387
11.34836 438
11.36847 400
11.38858 394
11.4087 394
11.42881 458
11.44892 414
11.46904 438
11.48915 434
11.50927 386
11.52938 434
11.54949 427
11.56961 446
11.58972 463
11.60983 417
11.62995 407
11.65006 467
11.67017 430
11.69029 406
11.7104 462
11.73052 435
11.75063 477
11.77074 491
11.79086 456
11.81097 471
11.83108 433
11.8512 522
11.87131 480
11.89143 500
11.91154 522
11.93165 505
11.95177 506
11.97188 487
11.99199 529
12.01211 579
12.03222 533
12.05234 568
12.07245 578
12.09256 576
12.11268 638
12.13279 628
12.1529 643
12.17302 697
12.19313 711
12.21324 723
12.23336 794
12.25347 857
12.27359 878
12.2937 861
12.31381 980
12.33393 887
12.35404 922
12.37415 870
12.39427 859
12.41438 832
12.4345 769
12.45461 722
12.47472 712
12.49484 720
12.51495 597
12.53506 560
12.55518 577
12.57529 573
12.5954 558
12.61552 502
12.63563 537
12.65575 457
12.67586 480
12.69597 445
12.71609 475
12.7362 488
12.75631 440
12.77643 479
12.79654 422
12.81666 453
12.83677 439
12.85688 376
12.877 420
12.89711 412
12.91722 430
12.93734 402
12.95745 385
12.97757 419
12.99768 404
13.01779 415
13.03791 424
13.05802 398
13.07813 413
13.09825 399
13.11836 411
13.13847 389
13.15859 397
13.1787 400
13.19882 379
13.21893 394
13.23904 443
13.25916 369
13.27927 391
13.29938 384
13.3195 351
13.33961 385
13.35973 362
13.37984 387
13.39995 388
13.42007 374
13.44018 383
13.46029 379
13.48041 345
13.50052 406
13.52064 390
13.54075 392
13.56086 388
13.58098 375
13.60109 382
13.6212 388
13.64132 367
13.66143 411
13.68154 372
13.70166 389
13.72177 387
13.74189 372
13.762 384
13.78211 387
13.80223 403
13.82234 352
13.84245 333
13.86257 397
13.88268 359
13.9028 341
13.92291 404
13.94302 372
13.96314 396
13.98325 413
14.00336 395
14.02348 368
14.04359 382
14.06371 382
14.08382 413
14.10393 379
14.12405 336
14.14416 363
14.16427 377
14.18439 402
14.2045 348
14.22461 366
14.24473 334
14.26484 360
14.28496 381
14.30507 353
14.32518 367
14.3453 329
14.36541 372
14.38552 395
14.40564 330
14.42575 398
14.44587 373
14.46598 382
14.48609 382
14.50621 364
14.52632 370
14.54643 340
14.56655 349
14.58666 358
14.60677 371
14.62689 358
14.647 329
14.66712 392
14.68723 391
14.70734 379
14.72746 362
14.74757 368
14.76768 419
14.7878 369
14.80791 362
14.82803 366
14.84814 370
14.86825 340
14.88837 348
14.90848 364
14.92859 365
14.94871 358
14.96882 359
14.98894 370
15.00905 396
15.02916 351
15.04928 395
15.06939 380
15.0895 348
15.10962 355
15.12973 348
15.14984 411
15.16996 397
15.19007 370
15.21019 336
15.2303 371
15.25041 373
15.27053 316
15.29064 387
15.31075 333
15.33087 346
15.35098 376
15.3711 362
15.39121 365
15.41132 395
15.43144 391
15.45155 355
15.47166 360
15.49178 345
15.51189 365
15.53201 360
15.55212 368
15.57223 376
15.59235 393
15.61246 393
15.63257 341
15.65269 381
15.6728 382
15.69291 367
15.71303 365
15.73314 366
15.75326 371
15.77337 350
15.79348 347
15.8136 395
15.83371 335
15.85382 328
15.87394 360
15.89405 400
15.91417 368
15.93428 330
15.95439 367
15.97451 352
15.99462 365
16.01473 362
16.03485 335
16.05496 350
16.07508 351
16.09519 366
16.1153 347
16.13542 351
16.15553 343
16.17564 359
16.19576 370
16.21587 352
16.23598 339
16.2561 372
16.27621 382
16.29633 357
16.31644 373
16.33655 360
16.35667 346
16.37678 364
16.39689 362
16.41701 373
16.43712 349
16.45724 361
16.47735 382
16.49746 368
16.51758 378
16.53769 387
16.5578 359
16.57792 389
16.59803 379
16.61814 333
16.63826 356
16.65837 355
16.67849 380
16.6986 374
16.71871 358
16.73883 385
16.75894 364
16.77905 352
16.79917 331
16.81928 378
16.8394 347
16.85951 334
16.87962 366
16.89974 360
16.91985 339
16.93996 386
16.96008 383
16.98019 374
17.00031 365
17.02042 367
17.04053 345
17.06065 373
17.08076 339
17.10087 350
17.12099 362
17.1411 370
17.16121 370
17.18133 360
17.20144 358
17.22156 373
17.24167 338
17.26178 353
17.2819 369
17.30201 358
17.32212 369
17.34224 389
17.36235 372
17.38247 347
17.40258 388
17.42269 349
17.44281 413
17.46292 416
17.48303 351
17.50315 386
17.52326 368
17.54338 401
17.56349 370
17.5836 341
17.60372 363
17.62383 351
17.64394 397
17.66406 389
17.68417 377
17.70428 376
17.7244 378
17.74451 388
17.76463 376
17.78474 381
17.80485 403
17.82497 390
17.84508 385
17.86519 394
17.88531 382
17.90542 417
17.92554 388
17.94565 420
17.96576 415
17.98588 408
18.00599 418
18.0261 408
18.04622 430
18.06633 442
18.08645 470
18.10656 478
18.12667 469
18.14679 470
18.1669 554
18.18701 628
18.20713 706
18.22724 765
18.24735 948
18.26747 989
18.28758 1041
18.3077 1080
18.32781 968
18.34792 841
18.36804 678
18.38815 530
18.40826 481
18.42838 480
18.44849 405
18.46861 390
18.48872 432
18.50883 445
18.52895 417
18.54906 408
18.56917 377
18.58929 396
18.6094 378
18.62951 391
18.64963 395
18.66974 377
18.68986 382
18.70997 404
18.73008 422
18.7502 394
18.77031 370
18.79042 382
18.81054 389
18.83065 389
18.85077 347
18.87088 392
18.89099 374
18.91111 388
18.93122 386
18.95133 405
18.97145 379
18.99156 388
19.01168 362
19.03179 359
19.0519 389
19.07202 359
19.09213 365
19.11224 377
19.13236 418
19.15247 396
19.17258 385
19.1927 381
19.21281 357
19.23293 367
19.25304 378
19.27315 369
19.29327 395
19.31338 390
19.33349 382
19.35361 406
19.37372 382
19.39384 373
19.41395 404
19.43406 369
19.45418 385
19.47429 395
19.4944 396
19.51452 391
19.53463 400
19.55475 394
19.57486 423
19.59497 419
19.61509 415
19.6352 432
19.65531 452
19.67543 460
19.69554 481
19.71565 512
19.73577 549
19.75588 574
19.776 576
19.79611 642
19.81622 680
19.83634 655
19.85645 723
19.87656 731
19.89668 666
19.91679 693
19.93691 729
19.95702 674
19.97713 658
19.99725 704
20.01736 637
20.03747 674
20.05759 661
20.0777 686
20.09782 610
20.11793 667
20.13804 673
20.15816 698
20.17827 710
20.19838 737
20.2185 798
20.23861 858
20.25872 835
20.27884 874
20.29895 892
20.31907 853
20.33918 824
20.35929 770
20.37941 821
20.39952 739
20.41963 754
20.43975 781
20.45986 804
20.47998 807
20.50009 803
20.5202 869
20.54032 812
20.56043 821
20.58054 805
20.60066 836
20.62077 835
20.64088 916
20.661 981
20.68111 1072
20.70123 1212
20.72134 1486
20.74145 1805
20.76157 2327
20.78168 2904
20.80179 3699
20.82191 4253
20.84202 4431
20.86214 4354
20.88225 3688
20.90236 2912
20.92248 2210
20.94259 1555
20.9627 1200
20.98282 927
21.00293 812
21.02305 871
21.04316 844
21.06327 822
21.08339 807
21.1035 813
21.12361 748
21.14373 770
21.16384 837
21.18395 784
21.20407 755
21.22418 769
21.2443 812
21.26441 833
21.28452 847
21.30464 852
21.32475 803
21.34486 872
21.36498 888
21.38509 853
21.40521 846
21.42532 842
21.44543 809
21.46555 817
21.48566 806
21.50577 739
21.52589 767
21.546 759
21.56612 682
21.58623 666
21.60634 653
21.62646 677
21.64657 671
21.66668 614
21.6868 675
21.70691 592
21.72702 598
21.74714 576
21.76725 646
21.78737 588
21.80748 581
21.82759 619
21.84771 574
21.86782 595
21.88793 583
21.90805 533
21.92816 571
21.94828 563
21.96839 554
21.9885 558
22.00862 494
22.02873 526
22.04884 592
22.06896 571
22.08907 520
22.10919 530
22.1293 514
22.14941 526
22.16953 539
22.18964 478
22.20975 512
22.22987 505
22.24998 496
22.27009 554
22.29021 489
22.31032 490
22.33044 494
22.35055 510
22.37066 508
22.39078 473
22.41089 506
22.431 516
22.45112 470
22.47123 490
22.49135 490
22.51146 487
22.53157 515
22.55169 471
22.5718 492
22.59191 496
22.61203 496
22.63214 502
22.65225 527
22.67237 502
22.69248 459
22.7126 474
22.73271 457
22.75282 500
22.77294 513
22.79305 478
22.81316 491
22.83328 453
22.85339 455
22.87351 474
22.89362 474
22.91373 495
22.93385 468
22.95396 482
22.97407 478
22.99419 502
23.0143 464
23.03442 453
23.05453 470
23.07464 482
23.09476 459
23.11487 483
23.13498 458
23.1551 433
23.17521 456
23.19532 466
23.21544 464
23.23555 460
23.25567 439
23.27578 476
23.29589 451
23.31601 435
23.33612 448
23.35623 478
23.37635 451
23.39646 439
23.41658 448
23.43669 438
23.4568 450
23.47692 447
23.49703 441
23.51714 419
23.53726 495
23.55737 463
23.57749 455
23.5976 446
23.61771 478
23.63783 438
23.65794 446
23.67805 410
23.69817 477
23.71828 396
23.73839 485
23.75851 455
23.77862 506
23.79874 482
23.81885 481
23.83896 494
23.85908 479
23.87919 479
23.8993 501
23.91942 498
23.93953 448
23.95965 469
23.97976 470
23.99987 502
24.01999 537
24.0401 512
24.06021 478
24.08033 461
24.10044 456
24.12056 527
24.14067 490
24.16078 494
24.1809 501
24.20101 519
24.22112 536
24.24124 500
24.26135 466
24.28146 503
24.30158 520
24.32169 515
24.34181 552
24.36192 531
24.38203 525
24.40215 510
24.42226 510
24.44237 507
24.46249 501
24.4826 566
24.50272 532
24.52283 558
24.54294 556
24.56306 496
24.58317 578
24.60328 541
24.6234 605
24.64351 555
24.66362 628
24.68374 653
24.70385 662
24.72397 739
24.74408 733
24.76419 725
24.78431 782
24.80442 822
24.82453 721
24.84465 823
24.86476 760
24.88488 877
24.90499 821
24.9251 816
24.94522 749
24.96533 739
24.98544 746
25.00556 716
25.02567 704
25.04579 664
25.0659 713
25.08601 702
25.10613 733
25.12624 781
25.14635 766
25.16647 751
25.18658 776
25.20669 730
25.22681 668
25.24692 596
25.26704 622
25.28715 535
25.30726 568
25.32738 571
25.34749 493
25.3676 518
25.38772 506
25.40783 464
25.42795 468
25.44806 495
25.46817 493
25.48829 516
25.5084 474
25.52851 488
25.54863 531
25.56874 466
25.58886 504
25.60897 497
25.62908 533
25.6492 526
25.66931 508
25.68942 489
25.70954 532
25.72965 539
25.74976 569
25.76988 589
25.78999 571
25.81011 525
25.83022 574
25.85033 542
25.87045 607
25.89056 590
25.91067 568
25.93079 614
25.9509 577
25.97102 650
25.99113 585
26.01124 583
26.03136 606
26.05147 640
26.07158 659
26.0917 674
26.11181 698
26.13193 697
26.15204 707
26.17215 757
26.19227 763
26.21238 780
26.23249 876
26.25261 856
26.27272 939
26.29283 924
26.31295 1054
26.33306 1144
26.35318 1284
26.37329 1377
26.3934 1559
26.41352 1857
26.43363 2203
26.45374 2776
26.47386 3760
26.49397 4994
26.51409 6702
26.5342 8991
26.55431 11817
26.57443 14880
26.59454 17353
26.61465 18626
26.63477 18180
26.65488 15725
26.67499 12191
26.69511 9319
26.71522 6745
26.73534 4576
26.75545 2818
26.77556 1920
26.79568 1469
26.81579 1353
26.8359 1152
26.85602 1077
26.87613 1054
26.89625 975
26.91636 934
26.93647 870
26.95659 741
26.9767 746
26.99681 714
27.01693 674
27.03704 629
27.05716 642
27.07727 625
27.09738 563
27.1175 550
27.13761 535
27.15772 592
27.17784 505
27.19795 543
27.21806 531
27.23818 542
27.25829 564
27.27841 483
27.29852 536
27.31863 503
27.33875 481
27.35886 533
27.37897 458
27.39909 473
27.4192 459
27.43932 525
27.45943 480
27.47954 493
27.49966 477
27.51977 466
27.53988 484
27.56 466
27.58011 448
27.60023 449
27.62034 489
27.64045 485
27.66057 480
27.68068 464
27.70079 461
27.72091 452
27.74102 460
27.76113 465
27.78125 483
27.80136 455
27.82148 451
27.84159 460
27.8617 454
27.88182 458
27.90193 486
27.92204 486
27.94216 486
27.96227 497
27.98239 492
28.0025 499
28.02261 478
28.04273 483
28.06284 470
28.08295 423
28.10307 446
28.12318 409
28.1433 415
28.16341 455
28.18352 412
28.20364 457
28.22375 417
28.24386 425
28.26398 448
28.28409 437
28.3042 423
28.32432 430
28.34443 418
28.36455 437
28.38466 433
28.40477 390
28.42489 434
28.445 432
28.46511 414
28.48523 407
28.50534 424
28.52546 452
28.54557 420
28.56568 464
28.5858 415
28.60591 405
28.62602 438
28.64614 410
28.66625 448
28.68636 414
28.70648 432
28.72659 428
28.74671 426
28.76682 421
28.78693 416
28.80705 404
28.82716 396
28.84727 408
28.86739 428
28.8875 398
28.90762 435
28.92773 405
28.94784 414
28.96796 405
28.98807 394
29.00818 383
29.0283 397
29.04841 405
29.06853 359
29.08864 406
29.10875 439
29.12887 415
29.14898 444
29.16909 416
29.18921 405
29.20932 403
29.22943 411
29.24955 374
29.26966 397
29.28978 424
29.30989 416
29.33 379
29.35012 390
29.37023 380
29.39034 361
29.41046 419
29.43057 391
29.45069 363
29.4708 392
29.49091 420
29.51103 397
29.53114 406
29.55125 422
29.57137 393
29.59148 370
29.6116 372
29.63171 385
29.65182 406
29.67194 409
29.69205 414
29.71216 408
29.73228 416
29.75239 406
29.7725 390
29.79262 426
29.81273 364
29.83285 349
29.85296 377
29.87307 443
29.89319 345
29.9133 403
29.93341 421
29.95353 397
29.97364 387
29.99376 422
30.01387 397
30.03398 416
30.0541 401
30.07421 427
30.09432 393
30.11444 376
30.13455 370
30.15467 398
30.17478 399
30.19489 383
30.21501 430
30.23512 418
30.25523 380
30.27535 370
30.29546 382
30.31557 373
30.33569 400
30.3558 411
30.37592 400
30.39603 377
30.41614 405
30.43626 407
30.45637 387
30.47648 408
30.4966 438
30.51671 366
30.53683 404
30.55694 420
30.57705 352
30.59717 380
30.61728 343
30.63739 378
30.65751 364
30.67762 381
30.69773 395
30.71785 395
30.73796 374
30.75808 386
30.77819 380
30.7983 364
30.81842 360
30.83853 350
30.85864 377
30.87876 416
30.89887 365
30.91899 398
30.9391 399
30.95921 389
30.97933 403
30.99944 398
31.01955 349
31.03967 366
31.05978 352
31.0799 384
31.10001 369
31.12012 389
31.14024 359
31.16035 360
31.18046 351
31.20058 375
31.22069 386
31.2408 358
31.26092 373
31.28103 395
31.30115 378
31.32126 412
31.34137 408
31.36149 362
31.3816 389
31.40171 395
31.42183 386
31.44194 374
31.46206 394
31.48217 345
31.50228 376
31.5224 384
31.54251 359
31.56262 354
31.58274 407
31.60285 374
31.62297 355
31.64308 377
31.66319 356
31.68331 380
31.70342 338
31.72353 380
31.74365 366
31.76376 356
31.78387 362
31.80399 410
31.8241 390
31.84422 382
31.86433 427
31.88444 421
31.90456 391
31.92467 381
31.94478 402
31.9649 428
31.98501 360
32.00513 383
32.02524 363
32.04535 359
32.06547 392
32.08558 372
32.10569 342
32.12581 363
32.14592 366
32.16604 374
32.18615 402
32.20626 400
32.22638 399
32.24649 389
32.2666 368
32.28672 387
32.30683 395
32.32694 395
32.34706 400
32.36717 394
32.38729 401
32.4074 361
32.42751 415
32.44763 425
32.46774 410
32.48785 443
32.50797 413
32.52808 405
32.5482 384
32.56831 371
32.58842 421
32.60854 395
32.62865 406
32.64876 417
32.66888 362
32.68899 419
32.7091 397
32.72922 445
32.74933 426
32.76945 394
32.78956 430
32.80967 401
32.82979 423
32.8499 413
32.87001 400
32.89013 398
32.91024 410
32.93036 426
32.95047 475
32.97058 420
32.9907 444
33.01081 484
33.03092 441
33.05104 523
33.07115 498
33.09127 450
33.11138 502
33.13149 471
33.15161 455
33.17172 471
33.19183 486
33.21195 485
33.23206 474
33.25217 457
33.27229 457
33.2924 442
33.31252 445
33.33263 471
33.35274 447
33.37286 433
33.39297 431
33.41308 426
33.4332 439
33.45331 453
33.47343 450
33.49354 421
33.51365 453
33.53377 447
33.55388 462
33.57399 461
33.59411 437
33.61422 449
33.63434 480
33.65445 425
33.67456 463
33.69468 429
33.71479 416
33.7349 429
33.75502 405
33.77513 452
33.79524 448
33.81536 437
33.83547 441
33.85559 417
33.8757 424
33.89581 422
33.91593 425
33.93604 403
33.95615 418
33.97627 387
33.99638 422
34.0165 417
34.03661 372
34.05672 383
34.07684 380
34.09695 412
34.11706 404
34.13718 395
34.15729 369
34.17741 380
34.19752 366
34.21763 360
34.23775 383
34.25786 379
34.27797 385
34.29809 393
34.3182 383
34.33831 389
34.35843 419
34.37854 426
34.39866 385
34.41877 368
34.43888 406
34.459 369
34.47911 444
34.49922 419
34.51934 390
34.53945 385
34.55957 414
34.57968 383
34.59979 380
34.61991 422
34.64002 408
34.66013 453
34.68025 414
34.70036 454
34.72047 462
34.74059 468
34.7607 472
34.78082 463
34.80093 518
34.82104 515
34.84116 531
34.86127 528
34.88138 595
34.9015 544
34.92161 573
34.94173 628
34.96184 605
34.98195 588
35.00207 566
35.02218 548
35.04229 569
35.06241 568
35.08252 539
35.10264 546
35.12275 537
35.14286 509
35.16298 535
35.18309 519
35.2032 513
35.22332 566
35.24343 541
35.26354 554
35.28366 542
35.30377 566
35.32389 523
35.344 589
35.36411 580
35.38423 586
35.40434 612
35.42445 600
35.44457 565
35.46468 554
35.4848 600
35.50491 580
35.52502 531
35.54514 533
35.56525 558
35.58536 542
35.60548 559
35.62559 534
35.64571 549
35.66582 544
35.68593 547
35.70605 598
35.72616 660
35.74627 554
35.76639 624
35.7865 568
35.80661 620
35.82673 630
35.84684 599
35.86696 578
35.88707 570
35.90718 577
35.9273 549
35.94741 595
35.96752 554
35.98764 568
36.00775 520
36.02787 563
36.04798 562
36.06809 498
36.08821 518
36.10832 553
36.12843 506
36.14855 478
36.16866 536
36.18878 527
36.20889 546
36.229 532
36.24912 553
36.26923 557
36.28934 587
36.30946 657
36.32957 670
36.34968 692
36.3698 768
36.38991 874
36.41003 937
36.43014 1020
36.45025 1267
36.47037 1483
36.49048 1539
36.51059 1555
36.53071 1605
36.55082 1573
36.57094 1235
36.59105 1174
36.61116 1093
36.63128 897
36.65139 855
36.6715 669
36.69162 668
36.71173 565
36.73184 539
36.75196 505
36.77207 545
36.79219 550
36.8123 519
36.83241 539
36.85253 546
36.87264 528
36.89275 554
36.91287 573
36.93298 587
36.9531 591
36.97321 559
36.99332 563
37.01344 575
37.03355 554
37.05366 555
37.07378 537
37.09389 610
37.11401 605
37.13412 517
37.15423 556
37.17435 561
37.19446 572
37.21457 545
37.23469 552
37.2548 537
37.27491 500
37.29503 539
37.31514 496
37.33526 504
37.35537 516
37.37548 465
37.3956 508
37.41571 468
37.43582 515
37.45594 524
37.47605 513
37.49617 501
37.51628 565
37.53639 512
37.55651 525
37.57662 543
37.59673 550
37.61685 619
37.63696 589
37.65708 546
37.67719 534
37.6973 550
37.71742 569
37.73753 559
37.75764 571
37.77776 552
37.79787 497
37.81798 508
37.8381 463
37.85821 522
37.87833 486
37.89844 480
37.91855 455
37.93867 480
37.95878 461
37.97889 438
37.99901 513
38.01912 496
38.03924 456
38.05935 500
38.07946 536
38.09958 467
38.11969 511
38.1398 551
38.15992 505
38.18003 540
38.20015 595
38.22026 572
38.24037 557
38.26049 563
38.2806 584
38.30071 583
38.32083 608
38.34094 640
38.36105 641
38.38117 626
38.40128 628
38.4214 645
38.44151 578
38.46162 602
38.48174 605
38.50185 578
38.52196 525
38.54208 529
38.56219 544
38.58231 516
38.60242 524
38.62253 502
38.64265 462
38.66276 450
38.68287 464
38.70299 462
38.7231 468
38.74321 467
38.76333 493
38.78344 453
38.80356 430
38.82367 453
38.84378 483
38.8639 512
38.88401 445
38.90412 499
38.92424 492
38.94435 456
38.96447 477
38.98458 502
39.00469 504
39.02481 474
39.04492 521
39.06503 467
39.08515 481
39.10526 498
39.12538 538
39.14549 576
39.1656 546
39.18572 589
39.20583 579
39.22594 675
39.24606 700
39.26617 701
39.28628 767
39.3064 783
39.32651 850
39.34663 983
39.36674 1181
39.38685 1294
39.40697 1413
39.42708 1577
39.44719 1436
39.46731 1326
39.48742 1177
39.50754 1011
39.52765 1030
39.54776 909
39.56788 762
39.58799 710
39.6081 533
39.62822 492
39.64833 473
39.66845 469
39.68856 462
39.70867 420
39.72879 457
39.7489 412
39.76901 434
39.78913 462
39.80924 429
39.82935 425
39.84947 445
39.86958 462
39.8897 439
39.90981 444
39.92992 445
39.95004 407
39.97015 500
39.99026 483
40.01038 468
40.03049 492
40.05061 538
40.07072 473
40.09083 538
40.11095 581
40.13106 668
40.15117 662
40.17129 700
40.1914 793
40.21152 872
40.23163 877
40.25174 925
40.27186 950
40.29197 886
40.31208 807
40.3322 745
40.35231 699
40.37242 628
40.39254 621
40.41265 560
40.43277 513
40.45288 532
40.47299 448
40.49311 454
40.51322 457
40.53333 476
40.55345 460
40.57356 472
40.59368 446
40.61379 441
40.6339 476
40.65402 442
40.67413 383
40.69424 433
40.71436 440
40.73447 409
40.75458 460
40.7747 444
40.79481 473
40.81493 456
40.83504 481
40.85515 470
40.87527 468
40.89538 468
40.91549 471
40.93561 428
40.95572 441
40.97584 439
40.99595 445
41.01606 424
41.03618 446
41.05629 432
41.0764 429
41.09652 456
41.11663 441
41.13675 418
41.15686 391
41.17697 414
41.19709 421
41.2172 403
41.23731 423
41.25743 398
41.27754 404
41.29765 417
41.31777 442
41.33788 423
41.358 457
41.37811 390
41.39822 424
41.41834 418
41.43845 454
41.45856 436
41.47868 419
41.49879 420
41.51891 412
41.53902 461
41.55913 428
41.57925 468
41.59936 466
41.61947 456
41.63959 461
41.6597 430
41.67982 465
41.69993 479
41.72004 449
41.74016 422
41.76027 416
41.78038 440
41.8005 431
41.82061 433
41.84072 397
41.86084 388
41.88095 442
41.90107 414
41.92118 401
41.94129 427
41.96141 445
41.98152 416
42.00163 418
42.02175 401
42.04186 397
42.06198 410
42.08209 424
42.1022 438
42.12232 399
42.14243 450
42.16254 432
42.18266 471
42.20277 470
42.22289 450
42.243 514
42.26311 595
42.28323 598
42.30334 672
42.32345 722
42.34357 861
42.36368 939
42.38379 1053
42.40391 1095
42.42402 1109
42.44414 1024
42.46425 909
42.48436 858
42.50448 754
42.52459 707
42.5447 657
42.56482 587
42.58493 520
42.60505 467
42.62516 420
42.64527 385
42.66539 398
42.6855 374
42.70561 363
42.72573 363
42.74584 357
42.76595 333
42.78607 350
42.80618 340
42.8263 378
42.84641 357
42.86652 336
42.88664 299
42.90675 350
42.92686 348
42.94698 355
42.96709 358
42.98721 362
43.00732 349
43.02743 352
43.04755 351
43.06766 396
43.08777 340
43.10789 340
43.128 367
43.14812 349
43.16823 350
43.18834 355
43.20846 348
43.22857 375
43.24868 341
43.2688 343
43.28891 405
43.30902 334
43.32914 333
43.34925 340
43.36937 368
43.38948 332
43.40959 365
43.42971 350
43.44982 353
43.46993 330
43.49005 367
43.51016 329
43.53028 370
43.55039 359
43.5705 379
43.59062 352
43.61073 340
43.63084 382
43.65096 352
43.67107 384
43.69119 330
43.7113 330
43.73141 340
43.75153 343
43.77164 369
43.79175 343
43.81187 354
43.83198 366
43.85209 351
43.87221 355
43.89232 328
43.91244 375
43.93255 340
43.95266 426
43.97278 358
43.99289 375
44.013 376
44.03312 388
44.05323 355
44.07335 393
44.09346 401
44.11357 383
44.13369 393
44.1538 386
44.17391 406
44.19403 373
44.21414 349
44.23426 384
44.25437 387
44.27448 390
44.2946 367
44.31471 381
44.33482 359
44.35494 366
44.37505 347
44.39516 377
44.41528 342
44.43539 328
44.45551 336
44.47562 380
44.49573 364
44.51585 351
44.53596 339
44.55607 348
44.57619 356
44.5963 362
44.61642 356
44.63653 362
44.65664 355
44.67676 344
44.69687 370
44.71698 363
44.7371 348
44.75721 358
44.77732 353
44.79744 346
44.81755 362
44.83767 384
44.85778 350
44.87789 356
44.89801 361
44.91812 363
44.93823 335
44.95835 358
44.97846 400
44.99858 332
45.01869 389
45.0388 380
45.05892 354
45.07903 385
45.09914 405
45.11926 395
45.13937 348
45.15949 371
45.1796 379
45.19971 380
45.21983 382
45.23994 405
45.26005 445
45.28017 396
45.30028 432
45.32039 478
45.34051 445
45.36062 442
45.38074 433
45.40085 457
45.42096 463
45.44108 475
45.46119 447
45.4813 500
45.50142 485
45.52153 501
45.54165 488
45.56176 501
45.58187 466
45.60199 516
45.6221 557
45.64221 583
45.66233 630
45.68244 696
45.70256 728
45.72267 819
45.74278 894
45.7629 846
45.78301 814
45.80312 722
45.82324 656
45.84335 613
45.86346 608
45.88358 580
45.90369 558
45.92381 488
45.94392 448
45.96403 402
45.98415 420
46.00426 376
46.02437 370
46.04449 376
46.0646 363
46.08472 368
46.10483 354
46.12494 405
46.14506 367
46.16517 374
46.18528 400
46.2054 356
46.22551 343
46.24563 345
46.26574 374
46.28585 328
46.30597 358
46.32608 375
46.34619 357
46.36631 364
46.38642 398
46.40653 358
46.42665 328
46.44676 390
46.46688 360
46.48699 362
46.5071 347
46.52722 337
46.54733 369
46.56744 324
46.58756 337
46.60767 343
46.62779 394
46.6479 373
46.66801 366
46.68813 380
46.70824 359
46.72835 380
46.74847 371
46.76858 390
46.78869 368
46.80881 353
46.82892 370
46.84904 361
46.86915 389
46.88926 391
46.90938 360
46.92949 388
46.9496 381
46.96972 360
46.98983 378
47.00995 345
47.03006 358
47.05017 341
47.07029 367
47.0904 355
47.11051 365
47.13063 356
47.15074 352
47.17086 347
47.19097 371
47.21108 358
47.2312 339
47.25131 373
47.27142 406
47.29154 369
47.31165 377
47.33176 385
47.35188 383
47.37199 387
47.39211 382
47.41222 400
47.43233 381
47.45245 393
47.47256 362
47.49267 421
47.51279 367
47.5329 378
47.55302 395
47.57313 362
47.59324 385
47.61336 396
47.63347 351
47.65358 402
47.6737 402
47.69381 412
47.71393 446
47.73404 422
47.75415 354
47.77427 435
47.79438 399
47.81449 424
47.83461 394
47.85472 389
47.87483 400
47.89495 408
47.91506 377
47.93518 393
47.95529 388
47.9754 375
47.99552 394
48.01563 345
48.03574 373
48.05586 398
48.07597 385
48.09609 384
48.1162 339
48.13631 379
48.15643 365
48.17654 344
48.19665 367
48.21677 390
48.23688 345
48.257 366
48.27711 373
48.29722 372
48.31734 363
48.33745 372
48.35756 376
48.37768 390
48.39779 363
48.4179 360
48.43802 353
48.45813 363
48.47825 375
48.49836 379
48.51847 360
48.53859 354
48.5587 363
48.57881 373
48.59893 388
48.61904 372
48.63916 388
48.65927 333
48.67938 380
48.6995 374
48.71961 388
48.73972 383
48.75984 360
48.77995 366
48.80006 335
48.82018 344
48.84029 352
48.86041 359
48.88052 369
48.90063 403
48.92075 355
48.94086 374
48.96097 353
48.98109 363
49.0012 360
49.02132 367
49.04143 358
49.06154 382
49.08166 375
49.10177 349
49.12188 368
49.142 351
49.16211 323
49.18223 370
49.20234 381
49.22245 384
49.24257 373
49.26268 401
49.28279 400
49.30291 385
49.32302 384
49.34313 419
49.36325 397
49.38336 395
49.40348 381
49.42359 390
49.4437 402
49.46382 376
49.48393 411
49.50404 368
49.52416 397
49.54427 410
49.56439 393
49.5845 371
49.60461 403
49.62473 382
49.64484 395
49.66495 369
49.68507 408
49.70518 442
49.7253 463
49.74541 410
49.76552 471
49.78564 461
49.80575 494
49.82586 527
49.84598 543
49.86609 553
49.8862 543
49.90632 691
49.92643 726
49.94655 841
49.96666 935
49.98677 1142
50.00689 1329
50.027 1515
50.04711 1790
50.06723 1922
50.08734 2002
50.10746 2017
50.12757 1867
50.14768 1664
50.1678 1389
50.18791 1247
50.20802 1208
50.22814 1191
50.24825 1031
50.26837 917
50.28848 746
50.30859 640
50.32871 479
50.34882 510
50.36893 485
50.38905 488
50.40916 421
50.42927 428
50.44939 446
50.4695 493
50.48962 453
50.50973 416
50.52984 449
50.54996 453
50.57007 499
50.59018 443
50.6103 435
50.63041 404
50.65053 451
50.67064 398
50.69075 376
50.71087 426
50.73098 436
50.75109 365
50.77121 388
50.79132 362
50.81143 379
50.83155 407
50.85166 374
50.87178 389
50.89189 347
50.912 392
50.93212 390
50.95223 394
50.97234 380
50.99246 387
51.01257 375
51.03269 394
51.0528 370
51.07291 377
51.09303 349
51.11314 392
51.13325 355
51.15337 357
51.17348 358
51.1936 371
51.21371 384
51.23382 372
51.25394 341
51.27405 362
51.29416 349
51.31428 370
51.33439 338
51.3545 382
51.37462 328
51.39473 355
51.41485 328
51.43496 350
51.45507 350
51.47519 335
51.4953 349
51.51541 349
51.53553 326
51.55564 341
51.57576 327
51.59587 343
51.61598 330
51.6361 336
51.65621 353
51.67632 332
51.69644 344
51.71655 352
51.73667 338
51.75678 357
51.77689 323
51.79701 329
51.81712 374
51.83723 324
51.85735 323
51.87746 343
51.89757 365
51.91769 342
51.9378 371
51.95792 342
51.97803 337
51.99814 346
52.01826 374
52.03837 351
52.05848 380
52.0786 376
52.09871 358
52.11883 390
52.13894 314
52.15905 368
52.17917 376
52.19928 352
52.21939 372
52.23951 395
52.25962 384
52.27974 379
52.29985 400
52.31996 322
52.34008 350
52.36019 316
52.3803 386
52.40042 328
52.42053 331
52.44064 345
52.46076 387
52.48087 354
52.50099 362
52.5211 311
52.54121 351
52.56133 315
52.58144 322
52.60155 338
52.62167 339
52.64178 325
52.6619 351
52.68201 354
52.70212 332
52.72224 348
52.74235 330
52.76246 363
52.78258 339
52.80269 349
52.8228 333
52.84292 346
52.86303 342
52.88315 352
52.90326 365
52.92337 356
52.94349 373
52.9636 346
52.98371 345
53.00383 360
53.02394 343
53.04406 333
53.06417 343
53.08428 349
53.1044 375
53.12451 342
53.14462 350
53.16474 331
53.18485 352
53.20497 394
53.22508 367
53.24519 408
53.26531 393
53.28542 368
53.30553 364
53.32565 353
53.34576 381
53.36587 396
53.38599 391
53.4061 410
53.42622 368
53.44633 377
53.46644 383
53.48656 390
53.50667 397
53.52678 429
53.5469 427
53.56701 404
53.58713 460
53.60724 424
53.62735 437
53.64747 449
53.66758 455
53.68769 467
53.70781 468
53.72792 453
53.74804 464
53.76815 479
53.78826 484
53.80838 463
53.82849 484
53.8486 454
53.86872 467
53.88883 487
53.90894 476
53.92906 479
53.94917 464
53.96929 411
53.9894 439
54.00951 493
54.02963 447
54.04974 455
54.06985 442
54.08997 458
54.11008 468
54.1302 471
54.15031 467
54.17042 465
54.19054 452
54.21065 439
54.23076 434
54.25088 442
54.27099 454
54.29111 460
54.31122 490
54.33133 467
54.35145 497
54.37156 501
54.39167 476
54.41179 469
54.4319 443
54.45201 464
54.47213 464
54.49224 512
54.51236 469
54.53247 470
54.55258 508
54.5727 500
54.59281 469
54.61292 511
54.63304 520
54.65315 529
54.67327 595
54.69338 600
54.71349 628
54.73361 700
54.75372 787
54.77383 805
54.79395 839
54.81406 934
54.83417 906
54.85429 897
54.8744 844
54.89452 700
54.91463 673
54.93474 681
54.95486 703
54.97497 685
54.99508 630
55.0152 633
55.03531 546
55.05543 552
55.07554 526
55.09565 499
55.11577 512
55.13588 516
55.15599 525
55.17611 552
55.19622 534
55.21634 558
55.23645 666
55.25656 639
55.27668 626
55.29679 604
55.3169 594
55.33702 558
55.35713 517
55.37724 500
55.39736 495
55.41747 477
55.43759 510
55.4577 503
55.47781 471
55.49793 441
55.51804 439
55.53815 411
55.55827 410
55.57838 398
55.5985 403
55.61861 373
55.63872 409
55.65884 348
55.67895 367
55.69906 399
55.71918 405
55.73929 343
55.75941 396
55.77952 401
55.79963 381
55.81975 376
55.83986 377
55.85997 370
55.88009 368
55.9002 371
55.92031 374
55.94043 384
55.96054 364
55.98066 347
56.00077 365
56.02088 364
56.041 361
56.06111 330
56.08122 354
56.10134 360
56.12145 358
56.14157 398
56.16168 353
56.18179 347
56.20191 353
56.22202 348
56.24213 351
56.26225 359
56.28236 358
56.30248 339
56.32259 346
56.3427 359
56.36282 354
56.38293 345
56.40304 347
56.42316 370
56.44327 368
56.46338 382
56.4835 346
56.50361 339
56.52373 347
56.54384 360
56.56395 372
56.58407 321
56.60418 360
56.62429 359
56.64441 341
56.66452 350
56.68464 378
56.70475 357
56.72486 341
56.74498 352
56.76509 340
56.7852 368
56.80532 353
56.82543 382
56.84554 329
56.86566 355
56.88577 410
56.90589 352
56.926 356
56.94611 345
56.96623 332
56.98634 317
57.00645 361
57.02657 352
57.04668 331
57.0668 362
57.08691 376
57.10702 347
57.12714 342
57.14725 359
57.16736 356
57.18748 386
57.20759 342
57.22771 347
57.24782 370
57.26793 340
57.28805 358
57.30816 387
57.32827 362
57.34839 365
57.3685 325
57.38861 374
57.40873 344
57.42884 382
57.44896 326
57.46907 370
57.48918 324
57.5093 342
57.52941 302
57.54952 337
57.56964 339
57.58975 341
57.60987 339
57.62998 348
57.65009 353
57.67021 329
57.69032 349
57.71043 307
57.73055 323
57.75066 343
57.77078 356
57.79089 341
57.811 342
57.83112 351
57.85123 371
57.87134 339
57.89146 347
57.91157 351
57.93168 356
57.9518 334
57.97191 346
57.99203 384
58.01214 361
58.03225 340
58.05237 342
58.07248 351
58.09259 349
58.11271 334
58.13282 333
58.15294 322
58.17305 346
58.19316 329
58.21328 378
58.23339 341
58.2535 362
58.27362 343
58.29373 372
58.31385 330
58.33396 332
58.35407 338
58.37419 346
58.3943 323
58.41441 353
58.43453 308
58.45464 357
58.47475 361
58.49487 338
58.51498 357
58.5351 334
58.55521 333
58.57532 366
58.59544 329
58.61555 320
58.63566 311
58.65578 330
58.67589 318
58.69601 354
58.71612 346
58.73623 329
58.75635 352
58.77646 350
58.79657 360
58.81669 340
58.8368 324
58.85691 342
58.87703 349
58.89714 339
58.91726 358
58.93737 344
58.95748 366
58.9776 317
58.99771 321
59.01782 352
59.03794 325
59.05805 351
59.07817 335
59.09828 318
59.11839 338
59.13851 349
59.15862 329
59.17873 332
59.19885 326
59.21896 348
59.23908 349
59.25919 375
59.2793 361
59.29942 377
59.31953 356
59.33964 364
59.35976 359
59.37987 368
59.39998 340
59.4201 354
59.44021 341
59.46033 392
59.48044 390
59.50055 418
59.52067 370
59.54078 404
59.56089 428
59.58101 423
59.60112 478
59.62124 453
59.64135 461
59.66146 476
59.68158 544
59.70169 564
59.7218 566
59.74192 655
59.76203 736
59.78215 782
59.80226 902
59.82237 1050
59.84249 1082
59.8626 1254
59.88271 1343
59.90283 1420
59.92294 1335
59.94305 1247
59.96317 1078
59.98328 949
60.0034 875
60.02351 848
60.04362 865
60.06374 869
60.08385 802
60.10396 795
60.12408 670
60.14419 523
60.16431 455
60.18442 433
60.20453 414
60.22465 380
60.24476 399
60.26487 412
60.28499 409
60.3051 380
60.32522 367
60.34533 366
60.36544 371
60.38556 355
60.40567 361
60.42578 352
60.4459 356
60.46601 357
60.48612 347
60.50624 339
60.52635 318
60.54647 346
60.56658 371
60.58669 326
60.60681 329
60.62692 336
60.64703 318
60.66715 317
60.68726 329
60.70738 355
60.72749 366
60.7476 340
60.76772 329
60.78783 344
60.80794 321
60.82806 317
60.84817 312
60.86828 336
60.8884 336
60.90851 327
60.92863 308
60.94874 322
60.96885 338
60.98897 316
61.00908 315
61.02919 339
61.04931 336
61.06942 350
61.08954 318
61.10965 374
61.12976 361
61.14988 324
61.16999 356
61.1901 327
61.21022 314
61.23033 312
61.25045 311
61.27056 337
61.29067 319
61.31079 307
61.3309 350
61.35101 354
61.37113 371
61.39124 312
61.41135 357
61.43147 332
61.45158 342
61.4717 346
61.49181 339
61.51192 320
61.53204 306
61.55215 348
61.57226 346
61.59238 343
61.61249 325
61.63261 346
61.65272 334
61.67283 362
61.69295 336
61.71306 358
61.73317 335
61.75329 367
61.7734 368
61.79352 333
61.81363 373
61.83374 367
61.85386 374
61.87397 364
61.89408 359
61.9142 379
61.93431 400
61.95442 376
61.97454 393
61.99465 424
62.01477 422
62.03488 418
62.05499 407
62.07511 386
62.09522 459
62.11533 463
62.13545 430
62.15556 491
62.17568 449
62.19579 484
62.2159 471
62.23602 467
62.25613 482
62.27624 469
62.29636 446
62.31647 468
62.33659 449
62.3567 459
62.37681 451
62.39693 492
62.41704 455
62.43715 479
62.45727 406
62.47738 463
62.49749 398
62.51761 405
62.53772 414
62.55784 418
62.57795 380
62.59806 353
62.61818 377
62.63829 376
62.6584 358
62.67852 363
62.69863 390
62.71875 360
62.73886 396
62.75897 359
62.77909 340
62.7992 373
62.81931 373
62.83943 359
62.85954 374
62.87965 303
62.89977 347
62.91988 327
62.94 291
62.96011 358
62.98022 329
63.00034 345
63.02045 342
63.04056 350
63.06068 334
63.08079 332
63.10091 343
63.12102 312
63.14113 319
63.16125 313
63.18136 310
63.20147 324
63.22159 325
63.2417 335
63.26182 364
63.28193 321
63.30204 346
63.32216 332
63.34227 335
63.36238 306
63.3825 343
63.40261 300
63.42272 317
63.44284 319
63.46295 371
63.48307 351
63.50318 368
63.52329 369
63.54341 350
63.56352 334
63.58363 357
63.60375 353
63.62386 346
63.64398 354
63.66409 383
63.6842 393
63.70432 366
63.72443 390
63.74454 397
63.76466 407
63.78477 409
63.80489 398
63.825 431
63.84511 447
63.86523 456
63.88534 430
63.90545 510
63.92557 532
63.94568 524
63.96579 531
63.98591 528
64.00602 560
64.02614 505
64.04625 470
64.06636 455
64.08648 410
64.10659 462
64.1267 458
64.14682 439
64.16693 419
64.18705 423
64.20716 395
64.22727 400
64.24739 409
64.2675 359
64.28761 340
64.30773 367
64.32784 346
64.34796 365
64.36807 324
64.38818 351
64.4083 338
64.42841 321
64.44852 357
64.46864 316
64.48875 345
64.50886 324
64.52898 314
64.54909 335
64.56921 309
64.58932 346
64.60943 365
64.62955 370
64.64966 327
64.66977 298
64.68989 330
64.71 361
64.73012 304
64.75023 341
64.77034 333
64.79046 315
64.81057 298
64.83068 290
64.8508 317
64.87091 365
64.89102 340
64.91114 297
64.93125 326
64.95137 298
64.97148 343
64.99159 340
65.01171 321
65.03182 324
65.05193 304
65.07205 316
65.09216 337
65.11228 323
65.13239 309
65.1525 334
65.17262 299
65.19273 336
65.21284 313
65.23296 306
65.25307 333
65.27319 330
65.2933 335
65.31341 317
65.33353 329
65.35364 311
65.37375 336
65.39387 310
65.41398 310
65.43409 340
65.45421 293
65.47432 306
65.49444 306
65.51455 321
65.53466 300
65.55478 305
65.57489 323
65.595 334
65.61512 322
65.63523 318
65.65535 322
65.67546 326
65.69557 379
65.71569 333
65.7358 358
65.75591 383
65.77603 340
65.79614 359
65.81626 347
65.83637 324
65.85648 332
65.8766 310
65.89671 313
65.91682 309
65.93694 339
65.95705 330
65.97716 340
65.99728 321
66.01739 336
66.03751 317
66.05762 326
66.07773 301
66.09785 322
66.11796 308
66.13807 328
66.15819 296
66.1783 289
66.19842 307
66.21853 303
66.23864 337
66.25876 334
66.27887 311
66.29898 307
66.3191 319
66.33921 345
66.35933 341
66.37944 306
66.39955 301
66.41967 331
66.43978 320
66.45989 284
66.48001 302
66.50012 300
66.52023 330
66.54035 338
66.56046 341
66.58058 330
66.60069 346
66.6208 319
66.64092 314
66.66103 310
66.68114 335
66.70126 368
66.72137 316
66.74149 311
66.7616 316
66.78171 346
66.80183 323
66.82194 321
66.84205 316
66.86217 313
66.88228 323
66.90239 323
66.92251 320
66.94262 322
66.96274 328
66.98285 327
67.00296 321
67.02308 330
67.04319 311
67.0633 347
67.08342 301
67.10353 364
67.12365 322
67.14376 330
67.16387 319
67.18399 341
67.2041 294
67.22421 323
67.24433 334
67.26444 327
67.28456 337
67.30467 377
67.32478 351
67.3449 352
67.36501 375
67.38512 370
67.40524 371
67.42535 416
67.44546 401
67.46558 432
67.48569 418
67.50581 396
67.52592 494
67.54603 561
67.56615 605
67.58626 635
67.60637 735
67.62649 772
67.6466 830
67.66672 825
67.68683 863
67.70694 881
67.72706 829
67.74717 763
67.76728 690
67.7874 642
67.80751 600
67.82763 668
67.84774 686
67.86785 730
67.88797 750
67.90808 719
67.92819 732
67.94831 742
67.96842 786
67.98853 795
68.00865 884
68.02876 877
68.04888 1044
68.06899 1062
68.0891 1080
68.10922 1076
68.12933 1026
68.14944 986
68.16956 928
68.18967 956
68.20979 964
68.2299 992
68.25001 1034
68.27013 994
68.29024 942
68.31035 866
68.33047 792
68.35058 678
68.3707 617
68.39081 536
68.41092 567
68.43104 544
68.45115 516
68.47126 460
68.49138 443
68.51149 444
68.5316 370
68.55172 365
68.57183 384
68.59195 369
68.61206 357
68.63217 372
68.65229 310
68.6724 347
68.69251 300
68.71263 340
68.73274 350
68.75286 354
68.77297 317
68.79308 328
68.8132 327
68.83331 343
68.85342 310
68.87354 347
68.89365 304
68.91376 329
68.93388 309
68.95399 327
68.97411 297
68.99422 309
69.01433 309
69.03445 314
69.05456 298
69.07467 315
69.09479 348
69.1149 301
69.13502 320
69.15513 289
69.17524 290
69.19536 322
69.21547 314
69.23558 314
69.2557 285
69.27581 319
69.29593 301
69.31604 315
69.33615 305
69.35627 320
69.37638 300
69.39649 323
69.41661 312
69.43672 325
69.45683 301
69.47695 327
69.49706 284
69.51718 315
69.53729 307
69.5574 293
69.57752 304
69.59763 310
69.61774 282
69.63786 306
69.65797 308
69.67809 329
69.6982 313
69.71831 308
69.73843 291
69.75854 314
69.77865 323
69.79877 318
69.81888 298
69.839 311
69.85911 341
69.87922 298
69.89934 300
69.91945 302
69.93956 319
69.95968 292
69.97979 310
69.9999 308
70.02002 315
70.04013 314
70.06025 322
70.08036 311
70.10047 298
70.12059 341
70.1407 307
70.16081 312
70.18093 309
70.20104 327
70.22116 317
70.24127 300
70.26138 292
70.2815 315
70.30161 265
70.32172 276
70.34184 314
70.36195 295
70.38207 269
70.40218 288
70.42229 325
70.44241 303
70.46252 290
70.48263 288
70.50275 296
70.52286 306
70.54297 286
70.56309 313
70.5832 310
70.60332 263
70.62343 337
70.64354 280
70.66366 309
70.68377 296
70.70388 325
70.724 307
70.74411 289
70.76423 306
70.78434 302
70.80445 288
70.82457 288
70.84468 290
70.86479 302
70.88491 287
70.90502 282
70.92513 276
70.94525 290
70.96536 274
70.98548 278
71.00559 279
71.0257 289
71.04582 271
71.06593 275
71.08604 296
71.10616 288
71.12627 267
71.14639 290
71.1665 309
71.18661 320
71.20673 279
71.22684 266
71.24695 313
71.26707 266
71.28718 286
71.3073 299
71.32741 261
71.34752 264
71.36764 312
71.38775 255
71.40786 281
71.42798 285
71.44809 291
71.4682 290
71.48832 253
71.50843 269
71.52855 289
71.54866 283
71.56877 296
71.58889 267
71.609 276
71.62911 285
71.64923 272
71.66934 299
71.68946 293
71.70957 275
71.72968 284
71.7498 310
71.76991 299
71.79002 308
71.81014 278
71.83025 296
71.85037 287
71.87048 293
71.89059 289
71.91071 315
71.93082 315
71.95093 277
71.97105 281
71.99116 312
72.01127 306
72.03139 300
72.0515 289
72.07162 320
72.09173 306
72.11184 296
72.13196 289
72.15207 293
72.17218 325
72.1923 278
72.21241 299
72.23253 312
72.25264 293
72.27275 288
72.29287 318
72.31298 294
72.33309 306
72.35321 355
72.37332 300
72.39344 319
72.41355 285
72.43366 307
72.45378 286
72.47389 304
72.494 272
72.51412 269
72.53423 288
72.55434 272
72.57446 290
72.59457 303
72.61469 304
72.6348 304
72.65491 304
72.67503 303
72.69514 295
72.71525 284
72.73537 270
72.75548 304
72.7756 302
72.79571 287
72.81582 277
72.83594 288
72.85605 291
72.87616 286
72.89628 333
72.91639 286
72.9365 299
72.95662 302
72.97673 307
72.99685 292
73.01696 294
73.03707 298
73.05719 314
73.0773 257
73.09741 299
73.11753 306
73.13764 314
73.15776 309
73.17787 345
73.19798 306
73.2181 311
73.23821 342
73.25832 384
73.27844 342
73.29855 345
73.31867 412
73.33878 430
73.35889 442
73.37901 467
73.39912 466
73.41923 474
73.43935 467
73.45946 499
73.47957 463
73.49969 372
73.5198 386
73.53992 398
73.56003 356
73.58014 351
73.60026 385
73.62037 400
73.64048 393
73.6606 377
73.68071 355
73.70083 301
73.72094 334
73.74105 310
73.76117 340
73.78128 305
73.80139 323
73.82151 306
73.84162 299
73.86174 269
73.88185 299
73.90196 284
73.92208 282
73.94219 275
73.9623 297
73.98242 304
74.00253 290
74.02264 278
74.04276 264
74.06287 269
74.08299 287
74.1031 294
74.12321 260
74.14333 277
74.16344 299
74.18355 271
74.20367 280
74.22378 299
74.2439 274
74.26401 309
74.28412 279
74.30424 307
74.32435 281
74.34446 300
74.36458 259
74.38469 313
74.40481 282
74.42492 281
74.44503 294
74.46515 288
74.48526 285
74.50537 277
74.52549 303
74.5456 279
74.56571 300
74.58583 317
74.60594 300
74.62606 259
74.64617 284
74.66628 288
74.6864 288
74.70651 265
74.72662 293
74.74674 282
74.76685 252
74.78697 263
74.80708 305
74.82719 309
74.84731 305
74.86742 280
74.88753 263
74.90765 301
74.92776 308
74.94787 282
74.96799 276
74.9881 281
75.00822 304
