3.00117 20080
3.02128 19799
3.0414 18843
3.06151 18675
3.08162 17820
3.10174 17337
3.12185 17150
3.14197 16059
3.16208 16070
3.18219 15803
3.20231 14754
3.22242 14780
3.24253 14134
3.26265 13821
3.28276 13375
3.30288 12809
3.32299 12642
3.3431 11706
3.36322 11707
3.38333 11426
3.40344 11279
3.42356 10795
3.44367 10227
3.46379 10130
3.4839 9644
3.50401 9290
3.52413 8893
3.54424 8701
3.56435 8543
3.58447 8211
3.60458 7668
3.62469 7468
3.64481 7045
3.66492 6833
3.68504 6725
3.70515 6260
3.72526 6197
3.74538 5932
3.76549 5729
3.7856 5556
3.80572 5068
3.82583 4953
3.84595 4589
3.86606 4489
3.88617 4535
3.90629 4033
3.9264 3999
3.94651 3747
3.96663 3762
3.98674 3588
4.00686 3296
4.02697 3329
4.04708 3102
4.0672 2978
4.08731 2929
4.10742 2752
4.12754 2623
4.14765 2375
4.16776 2353
4.18788 2353
4.20799 2146
4.22811 2225
4.24822 2057
4.26833 1935
4.28845 2025
4.30856 1826
4.32867 1841
4.34879 1766
4.3689 1773
4.38902 1737
4.40913 1472
4.42924 1670
4.44936 1551
4.46947 1499
4.48958 1591
4.5097 1354
4.52981 1335
4.54992 1345
4.57004 1228
4.59015 1303
4.61027 1222
4.63038 1223
4.65049 1211
4.67061 1196
4.69072 1142
4.71083 1088
4.73095 967
4.75106 1067
4.77118 1031
4.79129 1033
4.8114 891
4.83152 958
4.85163 924
4.87174 942
4.89186 957
4.91197 814
4.93209 852
4.9522 828
4.97231 843
4.99243 875
5.01254 731
5.03265 814
5.05277 766
5.07288 699
5.09299 709
5.11311 703
5.13322 639
5.15334 693
5.17345 691
5.19356 671
5.21368 669
5.23379 623
5.2539 631
5.27402 624
5.29413 593
5.31425 527
5.33436 623
5.35447 576
5.37459 548
5.3947 567
5.41481 520
5.43493 561
5.45504 483
5.47516 521
5.49527 500
5.51538 433
5.5355 459
5.55561 460
5.57572 479
5.59584 492
5.61595 422
5.63606 466
5.65618 463
5.67629 437
5.69641 404
5.71652 396
5.73663 382
5.75675 385
5.77686 441
5.79697 368
5.81709 367
5.8372 419
5.85732 384
5.87743 369
5.89754 345
5.91766 354
5.93777 322
5.95788 328
5.978 341
5.99811 345
6.01823 374
6.03834 368
6.05845 354
6.07857 314
6.09868 313
6.11879 295
6.13891 319
6.15902 309
6.17913 300
6.19925 321
6.21936 295
6.23948 332
6.25959 300
6.2797 302
6.29982 339
6.31993 326
6.34004 341
6.36016 314
6.38027 290
6.40039 298
6.4205 307
6.44061 319
6.46073 300
6.48084 303
6.50095 306
6.52107 286
6.54118 294
6.56129 282
6.58141 300
6.60152 250
6.62164 306
6.64175 285
6.66186 272
6.68198 295
6.70209 305
6.7222 256
6.74232 268
6.76243 262
6.78255 275
6.80266 277
6.82277 287
6.84289 291
6.863 280
6.88311 284
6.90323 247
6.92334 268
6.94346 283
6.96357 252
6.98368 269
7.0038 287
7.02391 258
7.04402 287
7.06414 215
7.08425 280
7.10436 249
7.12448 268
7.14459 245
7.16471 240
7.18482 267
7.20493 260
7.22505 238
7.24516 252
7.26527 272
7.28539 243
7.3055 260
7.32562 284
7.34573 250
7.36584 250
7.38596 250
7.40607 278
7.42618 263
7.4463 256
7.46641 253
7.48653 235
7.50664 287
7.52675 267
7.54687 265
7.56698 247
7.58709 260
7.60721 257
7.62732 261
7.64743 264
7.66755 267
7.68766 229
7.70778 266
7.72789 273
7.748 278
7.76812 260
7.78823 291
7.80834 280
7.82846 250
7.84857 293
7.86869 257
7.8888 230
7.90891 308
7.92903 253
7.94914 263
7.96925 248
7.98937 259
8.00948 239
8.0296 247
8.04971 265
8.06982 286
8.08994 285
8.11005 288
8.13016 254
8.15028 248
8.17039 274
8.1905 281
8.21062 258
8.23073 275
8.25085 257
8.27096 256
8.29107 289
8.31119 267
8.3313 282
8.35141 276
8.37153 252
8.39164 302
8.41176 243
8.43187 277
8.45198 252
8.4721 311
8.49221 259
8.51232 291
8.53244 286
8.55255 262
8.57266 291
8.59278 276
8.61289 292
8.63301 299
8.65312 274
8.67323 313
8.69335 276
8.71346 305
8.73357 270
8.75369 319
8.7738 307
8.79392 280
8.81403 301
8.83414 262
8.85426 283
8.87437 304
8.89448 292
8.9146 290
8.93471 276
8.95483 308
8.97494 276
8.99505 256
9.01517 267
9.03528 260
9.05539 268
9.07551 277
9.09562 250
9.11573 258
9.13585 240
9.15596 224
9.17608 234
9.19619 265
9.2163 230
9.23642 287
9.25653 240
9.27664 241
9.29676 279
9.31687 294
9.33699 240
9.3571 259
9.37721 224
9.39733 254
9.41744 287
9.43755 250
9.45767 301
9.47778 241
9.4979 256
9.51801 224
9.53812 272
9.55824 230
9.57835 211
9.59846 255
9.61858 243
9.63869 272
9.6588 258
9.67892 261
9.69903 245
9.71915 257
9.73926 266
9.75937 257
9.77949 268
9.7996 267
9.81971 236
9.83983 260
9.85994 258
9.88006 228
9.90017 279
9.92028 233
9.9404 237
9.96051 247
9.98062 286
10.00074 252
10.02085 269
10.04097 227
10.06108 243
10.08119 242
10.10131 258
10.12142 221
10.14153 235
10.16165 243
10.18176 230
10.20187 270
10.22199 261
10.2421 243
10.26222 276
10.28233 265
10.30244 243
10.32256 241
10.34267 276
10.36278 267
10.3829 259
10.40301 255
10.42313 273
10.44324 268
10.46335 230
10.48347 250
10.50358 248
10.52369 225
10.54381 262
10.56392 254
10.58403 279
10.60415 261
10.62426 239
10.64438 258
10.66449 263
10.6846 270
10.70472 271
10.72483 244
10.74494 231
10.76506 240
10.78517 267
10.80529 273
10.8254 253
10.84551 250
10.86563 242
10.88574 275
10.90585 261
10.92597 223
10.94608 273
10.9662 266
10.98631 255
11.00642 249
11.02654 244
11.04665 250
11.06676 262
11.08688 297
11.10699 227
11.1271 254
11.14722 225
11.16733 261
11.18745 257
11.20756 230
11.22767 242
11.24779 245
11.2679 238
11.28801 249
11.30813 240
11.32824 293
11.34836 259
11.36847 284
11.38858 278
11.4087 287
11.42881 277
11.44892 255
11.46904 254
11.48915 242
11.50927 271
11.52938 235
11.54949 232
11.56961 308
11.58972 266
11.60983 258
11.62995 274
11.65006 233
11.67017 281
11.69029 279
11.7104 281
11.73052 251
11.75063 261
11.77074 259
11.79086 289
11.81097 263
11.83108 260
11.8512 269
11.87131 294
11.89143 291
11.91154 243
11.93165 285
11.95177 296
11.97188 257
11.99199 277
12.01211 257
12.03222 287
12.05234 280
12.07245 288
12.09256 298
12.11268 295
12.13279 286
12.1529 306
12.17302 293
12.19313 279
12.21324 285
12.23336 274
12.25347 313
12.27359 300
12.2937 266
12.31381 292
12.33393 282
12.35404 304
12.37415 298
12.39427 291
12.41438 263
12.4345 246
12.45461 278
12.47472 253
12.49484 248
12.51495 252
12.53506 260
12.55518 277
12.57529 272
12.5954 229
12.61552 243
12.63563 262
12.65575 250
12.67586 222
12.69597 243
12.71609 249
12.7362 252
12.75631 244
12.77643 272
12.79654 239
12.81666 223
12.83677 220
12.85688 249
12.877 232
12.89711 225
12.91722 274
12.93734 243
12.95745 241
12.97757 237
12.99768 242
13.01779 227
13.03791 238
13.05802 271
13.07813 258
13.09825 262
13.11836 310
13.13847 263
13.15859 266
13.1787 266
13.19882 251
13.21893 276
13.23904 244
13.25916 220
13.27927 224
13.29938 212
13.3195 269
13.33961 233
13.35973 255
13.37984 252
13.39995 242
13.42007 245
13.44018 281
13.46029 253
13.48041 251
13.50052 265
13.52064 323
13.54075 309
13.56086 272
13.58098 319
13.60109 364
13.6212 314
13.64132 332
13.66143 309
13.68154 307
13.70166 295
13.72177 260
13.74189 264
13.762 251
13.78211 271
13.80223 263
13.82234 288
13.84245 276
13.86257 251
13.88268 267
13.9028 239
13.92291 230
13.94302 229
13.96314 222
13.98325 242
14.00336 242
14.02348 199
14.04359 242
14.06371 201
14.08382 201
14.10393 189
14.12405 236
14.14416 219
14.16427 221
14.18439 232
14.2045 234
14.22461 233
14.24473 210
14.26484 211
14.28496 197
14.30507 218
14.32518 228
14.3453 219
14.36541 185
14.38552 215
14.40564 215
14.42575 206
14.44587 193
14.46598 195
14.48609 210
14.50621 183
14.52632 214
14.54643 227
14.56655 218
14.58666 219
14.60677 226
14.62689 202
14.647 186
14.66712 208
14.68723 207
14.70734 200
14.72746 237
14.74757 224
14.76768 234
14.7878 231
14.80791 273
14.82803 237
14.84814 258
14.86825 303
14.88837 291
14.90848 246
14.92859 264
14.94871 282
14.96882 262
14.98894 230
15.00905 284
15.02916 265
15.04928 237
15.06939 243
15.0895 263
15.10962 234
15.12973 246
15.14984 241
15.16996 230
15.19007 251
15.21019 219
15.2303 217
15.25041 234
15.27053 227
15.29064 228
15.31075 233
15.33087 215
15.35098 228
15.3711 203
15.39121 203
15.41132 213
15.43144 229
15.45155 210
15.47166 210
15.49178 211
15.51189 195
15.53201 186
15.55212 227
15.57223 208
15.59235 196
15.61246 222
15.63257 220
15.65269 197
15.6728 205
15.69291 209
15.71303 217
15.73314 233
15.75326 195
15.77337 216
15.79348 212
15.8136 210
15.83371 213
15.85382 204
15.87394 194
15.89405 192
15.91417 209
15.93428 191
15.95439 212
15.97451 184
15.99462 218
16.01473 190
16.03485 197
16.05496 194
16.07508 204
16.09519 177
16.1153 192
16.13542 188
16.15553 194
16.17564 212
16.19576 212
16.21587 180
16.23598 190
16.2561 228
16.27621 187
16.29633 195
16.31644 203
16.33655 211
16.35667 194
16.37678 185
16.39689 208
16.41701 210
16.43712 214
16.45724 215
16.47735 214
16.49746 237
16.51758 201
16.53769 208
16.5578 178
16.57792 206
16.59803 201
16.61814 191
16.63826 186
16.65837 185
16.67849 212
16.6986 194
16.71871 198
16.73883 220
16.75894 233
16.77905 203
16.79917 226
16.81928 209
16.8394 201
16.85951 199
16.87962 219
16.89974 208
16.91985 218
16.93996 187
16.96008 249
16.98019 213
17.00031 195
17.02042 192
17.04053 205
17.06065 225
17.08076 186
17.10087 238
17.12099 199
17.1411 216
17.16121 217
17.18133 199
17.20144 186
17.22156 205
17.24167 197
17.26178 206
17.2819 210
17.30201 214
17.32212 192
17.34224 202
17.36235 199
17.38247 179
17.40258 176
17.42269 193
17.44281 180
17.46292 208
17.48303 173
17.50315 225
17.52326 201
17.54338 195
17.56349 187
17.5836 179
17.60372 182
17.62383 224
17.64394 200
17.66406 195
17.68417 199
17.70428 191
17.7244 212
17.74451 202
17.76463 229
17.78474 198
17.80485 213
17.82497 220
17.84508 195
17.86519 186
17.88531 228
17.90542 215
17.92554 193
17.94565 204
17.96576 187
17.98588 196
18.00599 193
18.0261 205
18.04622 191
18.06633 194
18.08645 217
18.10656 209
18.12667 202
18.14679 200
18.1669 195
18.18701 186
18.20713 217
18.22724 248
18.24735 203
18.26747 214
18.28758 216
18.3077 210
18.32781 181
18.34792 206
18.36804 206
18.38815 202
18.40826 195
18.42838 196
18.44849 196
18.46861 187
18.48872 213
18.50883 226
18.52895 208
18.54906 192
18.56917 201
18.58929 220
18.6094 191
18.62951 212
18.64963 199
18.66974 205
18.68986 198
18.70997 190
18.73008 221
18.7502 229
18.77031 210
18.79042 211
18.81054 208
18.83065 221
18.85077 229
18.87088 201
18.89099 185
18.91111 207
18.93122 196
18.95133 224
18.97145 234
18.99156 204
19.01168 220
19.03179 216
19.0519 223
19.07202 223
19.09213 228
19.11224 216
19.13236 222
19.15247 236
19.17258 237
19.1927 254
19.21281 262
19.23293 285
19.25304 258
19.27315 276
19.29327 249
19.31338 270
19.33349 246
19.35361 257
19.37372 243
19.39384 251
19.41395 250
19.43406 262
19.45418 245
19.47429 242
19.4944 263
19.51452 286
19.53463 298
19.55475 268
19.57486 265
19.59497 308
19.61509 281
19.6352 294
19.65531 312
19.67543 344
19.69554 281
19.71565 341
19.73577 355
19.75588 352
19.776 365
19.79611 377
19.81622 351
19.83634 404
19.85645 425
19.87656 397
19.89668 393
19.91679 385
19.93691 331
19.95702 398
19.97713 354
19.99725 344
20.01736 389
20.03747 374
20.05759 361
20.0777 347
20.09782 370
20.11793 363
20.13804 370
20.15816 373
20.17827 363
20.19838 375
20.2185 345
20.23861 363
20.25872 350
20.27884 381
20.29895 398
20.31907 374
20.33918 400
20.35929 340
20.37941 415
20.39952 368
20.41963 400
20.43975 423
20.45986 434
20.47998 392
20.50009 420
20.5202 457
20.54032 487
20.56043 476
20.58054 518
20.60066 562
20.62077 592
20.64088 764
20.661 873
20.68111 1091
20.70123 1473
20.72134 1971
20.74145 2593
20.76157 3202
20.78168 4073
20.80179 4404
20.82191 4504
20.84202 4283
20.86214 3635
20.88225 2781
20.90236 2157
20.92248 1707
20.94259 1548
20.9627 1292
20.98282 1146
21.00293 1091
21.02305 1020
21.04316 906
21.06327 723
21.08339 630
21.1035 550
21.12361 473
21.14373 408
21.16384 392
21.18395 388
21.20407 395
21.22418 391
21.2443 384
21.26441 420
21.28452 343
21.30464 333
21.32475 347
21.34486 358
21.36498 348
21.38509 321
21.40521 333
21.42532 343
21.44543 330
21.46555 325
21.48566 336
21.50577 316
21.52589 318
21.546 353
21.56612 348
21.58623 316
21.60634 312
21.62646 312
21.64657 305
21.66668 348
21.6868 294
21.70691 307
21.72702 326
21.74714 324
21.76725 282
21.78737 333
21.80748 373
21.82759 371
21.84771 396
21.86782 464
21.88793 457
21.90805 486
21.92816 559
21.94828 618
21.96839 629
21.9885 562
22.00862 491
22.02873 475
22.04884 398
22.06896 346
22.08907 391
22.10919 297
22.1293 313
22.14941 326
22.16953 344
22.18964 343
22.20975 382
22.22987 380
22.24998 430
22.27009 412
22.29021 419
22.31032 394
22.33044 399
22.35055 419
22.37066 343
22.39078 348
22.41089 328
22.431 332
22.45112 339
22.47123 340
22.49135 338
22.51146 375
22.53157 374
22.55169 355
22.5718 322
22.59191 348
22.61203 339
22.63214 332
22.65225 334
22.67237 309
22.69248 285
22.7126 281
22.73271 327
22.75282 279
22.77294 299
22.79305 320
22.81316 323
22.83328 337
22.85339 327
22.87351 329
22.89362 356
22.91373 348
22.93385 353
22.95396 353
22.97407 389
22.99419 409
23.0143 421
23.03442 402
23.05453 428
23.07464 451
23.09476 493
23.11487 523
23.13498 566
23.1551 602
23.17521 584
23.19532 581
23.21544 517
23.23555 526
23.25567 442
23.27578 455
23.29589 407
23.31601 369
23.33612 375
23.35623 344
23.37635 384
23.39646 370
23.41658 360
23.43669 384
23.4568 392
23.47692 403
23.49703 414
23.51714 437
23.53726 488
23.55737 465
23.57749 465
23.5976 476
23.61771 467
23.63783 431
23.65794 409
23.67805 416
23.69817 388
23.71828 417
23.73839 417
23.75851 397
23.77862 458
23.79874 459
23.81885 466
23.83896 598
23.85908 527
23.87919 626
23.8993 586
23.91942 681
23.93953 734
23.95965 656
23.97976 634
23.99987 595
24.01999 514
24.0401 425
24.06021 427
24.08033 365
24.10044 371
24.12056 348
24.14067 405
24.16078 360
24.1809 411
24.20101 427
24.22112 457
24.24124 477
24.26135 445
24.28146 491
24.30158 508
24.32169 487
24.34181 477
24.36192 399
24.38203 401
24.40215 317
24.42226 360
24.44237 318
24.46249 338
24.4826 340
24.50272 358
24.52283 326
24.54294 347
24.56306 346
24.58317 338
24.60328 363
24.6234 367
24.64351 378
24.66362 377
24.68374 409
24.70385 381
24.72397 412
24.74408 381
24.76419 370
24.78431 394
24.80442 386
24.82453 362
24.84465 408
24.86476 378
24.88488 361
24.90499 360
24.9251 368
24.94522 373
24.96533 351
24.98544 290
25.00556 317
25.02567 293
25.04579 301
25.0659 345
25.08601 338
25.10613 366
25.12624 345
25.14635 329
25.16647 312
25.18658 358
25.20669 371
25.22681 366
25.24692 359
25.26704 382
25.28715 361
25.30726 421
25.32738 383
25.34749 426
25.3676 451
25.38772 442
25.40783 545
25.42795 557
25.44806 626
25.46817 749
25.48829 744
25.5084 803
25.52851 753
25.54863 786
25.56874 783
25.58886 814
25.60897 757
25.62908 743
25.6492 713
25.66931 633
25.68942 609
25.70954 521
25.72965 534
25.74976 512
25.76988 488
25.78999 481
25.81011 462
25.83022 416
25.85033 404
25.87045 440
25.89056 474
25.91067 457
25.93079 462
25.9509 464
25.97102 515
25.99113 480
26.01124 474
26.03136 499
26.05147 524
26.07158 559
26.0917 614
26.11181 630
26.13193 650
26.15204 672
26.17215 724
26.19227 805
26.21238 835
26.23249 883
26.25261 960
26.27272 1067
26.29283 1153
26.31295 1310
26.33306 1586
26.35318 1686
26.37329 2083
26.3934 2499
26.41352 2959
26.43363 3654
26.45374 4969
26.47386 6636
26.49397 8708
26.51409 11495
26.5342 14435
26.55431 17282
26.57443 19288
26.59454 19632
26.61465 18371
26.63477 15579
26.65488 12345
26.67499 8932
26.69511 6542
26.71522 4349
26.73534 2705
26.75545 1949
26.77556 1420
26.79568 1271
26.81579 1142
26.8359 1161
26.85602 1073
26.87613 1047
26.89625 993
26.91636 1037
26.93647 1048
26.95659 1143
26.9767 1188
26.99681 1232
27.01693 1227
27.03704 1263
27.05716 1112
27.07727 1002
27.09738 870
27.1175 912
27.13761 828
27.15772 741
27.17784 747
27.19795 791
27.21806 792
27.23818 866
27.25829 915
27.27841 1017
27.29852 1068
27.31863 1170
27.33875 1450
27.35886 1523
27.37897 1675
27.39909 1656
27.4192 1643
27.43932 1630
27.45943 1550
27.47954 1350
27.49966 1203
27.51977 1029
27.53988 862
27.56 796
27.58011 678
27.60023 632
27.62034 638
27.64045 652
27.66057 702
27.68068 773
27.70079 807
27.72091 835
27.74102 872
27.76113 840
27.78125 837
27.80136 906
27.82148 873
27.84159 826
27.8617 873
27.88182 831
27.90193 888
27.92204 823
27.94216 766
27.96227 723
27.98239 708
28.0025 590
28.02261 516
28.04273 463
28.06284 437
28.08295 440
28.10307 411
28.12318 390
28.1433 413
28.16341 435
28.18352 434
28.20364 436
28.22375 432
28.24386 440
28.26398 416
28.28409 371
28.3042 391
28.32432 347
28.34443 314
28.36455 327
28.38466 345
28.40477 296
28.42489 313
28.445 304
28.46511 283
28.48523 278
28.50534 317
28.52546 293
28.54557 286
28.56568 292
28.5858 275
28.60591 265
28.62602 299
28.64614 240
28.66625 283
28.68636 260
28.70648 275
28.72659 271
28.74671 293
28.76682 288
28.78693 278
28.80705 287
28.82716 260
28.84727 262
28.86739 285
28.8875 272
28.90762 250
28.92773 270
28.94784 267
28.96796 256
28.98807 275
29.00818 251
29.0283 306
29.04841 280
29.06853 298
29.08864 256
29.10875 252
29.12887 269
29.14898 266
29.16909 286
29.18921 309
29.20932 272
29.22943 267
29.24955 285
29.26966 336
29.28978 363
29.30989 371
29.33 374
29.35012 376
29.37023 390
29.39034 472
29.41046 481
29.43057 464
29.45069 451
29.4708 444
29.49091 445
29.51103 389
29.53114 417
29.55125 404
29.57137 366
29.59148 377
29.6116 356
29.63171 349
29.65182 338
29.67194 344
29.69205 348
29.71216 358
29.73228 373
29.75239 381
29.7725 378
29.79262 391
29.81273 342
29.83285 367
29.85296 381
29.87307 326
29.89319 367
29.9133 355
29.93341 350
29.95353 360
29.97364 366
29.99376 418
30.01387 410
30.03398 412
30.0541 478
30.07421 503
30.09432 514
30.11444 507
30.13455 569
30.15467 511
30.17478 502
30.19489 489
30.21501 456
30.23512 480
30.25523 437
30.27535 420
30.29546 421
30.31557 425
30.33569 443
30.3558 405
30.37592 407
30.39603 423
30.41614 409
30.43626 366
30.45637 392
30.47648 334
30.4966 337
30.51671 325
30.53683 365
30.55694 328
30.57705 377
30.59717 389
30.61728 427
30.63739 415
30.65751 479
30.67762 514
30.69773 571
30.71785 508
30.73796 511
30.75808 493
30.77819 471
30.7983 454
30.81842 455
30.83853 452
30.85864 439
30.87876 398
30.89887 393
30.91899 350
30.9391 346
30.95921 323
30.97933 258
30.99944 253
31.01955 243
31.03967 244
31.05978 263
31.0799 250
31.10001 230
31.12012 232
31.14024 243
31.16035 257
31.18046 250
31.20058 234
31.22069 284
31.2408 268
31.26092 247
31.28103 294
31.30115 290
31.32126 279
31.34137 280
31.36149 296
31.3816 296
31.40171 264
31.42183 248
31.44194 249
31.46206 277
31.48217 259
31.50228 249
31.5224 256
31.54251 217
31.56262 219
31.58274 256
31.60285 233
31.62297 235
31.64308 238
31.66319 226
31.68331 264
31.70342 243
31.72353 227
31.74365 242
31.76376 227
31.78387 201
31.80399 245
31.8241 217
31.84422 230
31.86433 210
31.88444 218
31.90456 224
31.92467 249
31.94478 247
31.9649 251
31.98501 255
32.00513 277
32.02524 241
32.04535 232
32.06547 274
32.08558 291
32.10569 295
32.12581 294
32.14592 302
32.16604 304
32.18615 264
32.20626 287
32.22638 270
32.24649 291
32.2666 293
32.28672 299
32.30683 302
32.32694 311
32.34706 327
32.36717 325
32.38729 315
32.4074 318
32.42751 303
32.44763 329
32.46774 321
32.48785 284
32.50797 248
32.52808 267
32.5482 262
32.56831 260
32.58842 229
32.60854 238
32.62865 224
32.64876 221
32.66888 201
32.68899 222
32.7091 197
32.72922 233
32.74933 208
32.76945 193
32.78956 197
32.80967 215
32.82979 223
32.8499 193
32.87001 225
32.89013 209
32.91024 216
32.93036 224
32.95047 205
32.97058 218
32.9907 200
33.01081 210
33.03092 220
33.05104 197
33.07115 191
33.09127 214
33.11138 207
33.13149 230
33.15161 202
33.17172 238
33.19183 207
33.21195 212
33.23206 213
33.25217 238
33.27229 236
33.2924 223
33.31252 197
33.33263 215
33.35274 187
33.37286 199
33.39297 198
33.41308 215
33.4332 209
33.45331 199
33.47343 208
33.49354 204
33.51365 234
33.53377 207
33.55388 206
33.57399 231
33.59411 251
33.61422 215
33.63434 201
33.65445 208
33.67456 203
33.69468 220
33.71479 231
33.7349 258
33.75502 247
33.77513 221
33.79524 269
33.81536 259
33.83547 241
33.85559 271
33.8757 265
33.89581 252
33.91593 223
33.93604 248
33.95615 243
33.97627 249
33.99638 270
34.0165 309
34.03661 309
34.05672 311
34.07684 351
34.09695 337
34.11706 373
34.13718 390
34.15729 413
34.17741 434
34.19752 410
34.21763 437
34.23775 408
34.25786 400
34.27797 350
34.29809 363
34.3182 357
34.33831 366
34.35843 325
34.37854 316
34.39866 315
34.41877 295
34.43888 323
34.459 334
34.47911 311
34.49922 332
34.51934 371
34.53945 337
34.55957 362
34.57968 347
34.59979 374
34.61991 354
34.64002 325
34.66013 332
34.68025 310
34.70036 370
34.72047 350
34.74059 336
34.7607 324
34.78082 334
34.80093 375
34.82104 401
34.84116 373
34.86127 421
34.88138 396
34.9015 383
34.92161 417
34.94173 427
34.96184 351
34.98195 361
35.00207 384
35.02218 377
35.04229 362
35.06241 361
35.08252 385
35.10264 358
35.12275 399
35.14286 384
35.16298 371
35.18309 384
35.2032 352
35.22332 417
35.24343 403
35.26354 441
35.28366 388
35.30377 426
35.32389 449
35.344 431
35.36411 420
35.38423 417
35.40434 428
35.42445 432
35.44457 442
35.46468 459
35.4848 455
35.50491 421
35.52502 398
35.54514 427
35.56525 371
35.58536 377
35.60548 346
35.62559 329
35.64571 346
35.66582 311
35.68593 310
35.70605 325
35.72616 294
35.74627 320
35.76639 335
35.7865 322
35.80661 327
35.82673 316
35.84684 295
35.86696 305
35.88707 322
35.90718 278
35.9273 292
35.94741 314
35.96752 288
35.98764 295
36.00775 291
36.02787 316
36.04798 315
36.06809 281
36.08821 291
36.10832 289
36.12843 303
36.14855 358
36.16866 322
36.18878 320
36.20889 329
36.229 349
36.24912 363
36.26923 395
36.28934 418
36.30946 430
36.32957 517
36.34968 590
36.3698 718
36.38991 806
36.41003 1058
36.43014 1224
36.45025 1458
36.47037 1398
36.49048 1433
36.51059 1446
36.53071 1224
36.55082 1054
36.57094 1011
36.59105 848
36.61116 675
36.63128 603
36.65139 468
36.6715 391
36.69162 329
36.71173 317
36.73184 348
36.75196 326
36.77207 325
36.79219 359
36.8123 355
36.83241 341
36.85253 353
36.87264 363
36.89275 369
36.91287 398
36.93298 366
36.9531 365
36.97321 372
36.99332 372
37.01344 344
37.03355 317
37.05366 304
37.07378 320
37.09389 270
37.11401 324
37.13412 280
37.15423 280
37.17435 278
37.19446 278
37.21457 298
37.23469 264
37.2548 279
37.27491 221
37.29503 261
37.31514 249
37.33526 268
37.35537 246
37.37548 261
37.3956 274
37.41571 285
37.43582 296
37.45594 281
37.47605 288
37.49617 242
37.51628 262
37.53639 293
37.55651 263
37.57662 303
37.59673 284
37.61685 267
37.63696 243
37.65708 281
37.67719 271
37.6973 243
37.71742 255
37.73753 280
37.75764 258
37.77776 225
37.79787 244
37.81798 222
37.8381 232
37.85821 225
37.87833 246
37.89844 219
37.91855 242
37.93867 230
37.95878 262
37.97889 230
37.99901 235
38.01912 227
38.03924 242
38.05935 255
38.07946 234
38.09958 258
38.11969 250
38.1398 240
38.15992 252
38.18003 224
38.20015 246
38.22026 258
38.24037 264
38.26049 236
38.2806 291
38.30071 267
38.32083 270
38.34094 294
38.36105 298
38.38117 290
38.40128 308
38.4214 328
38.44151 333
38.46162 312
38.48174 298
38.50185 329
38.52196 347
38.54208 308
38.56219 311
38.58231 304
38.60242 277
38.62253 268
38.64265 282
38.66276 264
38.68287 285
38.70299 242
38.7231 222
38.74321 253
38.76333 244
38.78344 219
38.80356 240
38.82367 237
38.84378 258
38.8639 266
38.88401 250
38.90412 241
38.92424 242
38.94435 247
38.96447 283
38.98458 292
39.00469 296
39.02481 287
39.04492 266
39.06503 266
39.08515 294
39.10526 271
39.12538 312
39.14549 334
39.1656 357
39.18572 334
39.20583 406
39.22594 427
39.24606 482
39.26617 541
39.28628 650
39.3064 791
39.32651 919
39.34663 1074
39.36674 1216
39.38685 1270
39.40697 1348
39.42708 1296
39.44719 1177
39.46731 1046
39.48742 898
39.50754 820
39.52765 672
39.54776 631
39.56788 458
39.58799 413
39.6081 347
39.62822 295
39.64833 296
39.66845 305
39.68856 272
39.70867 266
39.72879 272
39.7489 265
39.76901 266
39.78913 262
39.80924 248
39.82935 258
39.84947 245
39.86958 270
39.8897 244
39.90981 240
39.92992 259
39.95004 308
39.97015 265
39.99026 266
40.01038 284
40.03049 299
40.05061 319
40.07072 365
40.09083 369
40.11095 458
40.13106 516
40.15117 521
40.17129 658
40.1914 697
40.21152 769
40.23163 751
40.25174 713
40.27186 742
40.29197 634
40.31208 589
40.3322 519
40.35231 459
40.37242 390
40.39254 355
40.41265 304
40.43277 261
40.45288 234
40.47299 268
40.49311 251
40.51322 238
40.53333 276
40.55345 229
40.57356 263
40.59368 233
40.61379 269
40.6339 244
40.65402 226
40.67413 230
40.69424 221
40.71436 238
40.73447 241
40.75458 222
40.7747 230
40.79481 240
40.81493 208
40.83504 254
40.85515 205
40.87527 229
40.89538 218
40.91549 231
40.93561 214
40.95572 217
40.97584 219
40.99595 238
41.01606 240
41.03618 248
41.05629 234
41.0764 236
41.09652 224
41.11663 219
41.13675 277
41.15686 248
41.17697 244
41.19709 205
41.2172 229
41.23731 235
41.25743 230
41.27754 224
41.29765 246
41.31777 265
41.33788 245
41.358 255
41.37811 238
41.39822 241
41.41834 245
41.43845 241
41.45856 234
41.47868 293
41.49879 262
41.51891 270
41.53902 293
41.55913 302
41.57925 326
41.59936 324
41.61947 354
41.63959 369
41.6597 415
41.67982 473
41.69993 504
41.72004 491
41.74016 458
41.76027 497
41.78038 517
41.8005 437
41.82061 433
41.84072 383
41.86084 356
41.88095 386
41.90107 314
41.92118 290
41.94129 265
41.96141 272
41.98152 308
42.00163 255
42.02175 246
42.04186 223
42.06198 277
42.08209 275
42.1022 303
42.12232 294
42.14243 315
42.16254 326
42.18266 352
42.20277 382
42.22289 441
42.243 486
42.26311 513
42.28323 616
42.30334 748
42.32345 794
42.34357 965
42.36368 952
42.38379 1082
42.40391 1030
42.42402 923
42.44414 846
42.46425 794
42.48436 673
42.50448 604
42.52459 562
42.5447 498
42.56482 392
42.58493 356
42.60505 320
42.62516 317
42.64527 321
42.66539 314
42.6855 274
42.70561 307
42.72573 288
42.74584 289
42.76595 289
42.78607 275
42.80618 279
42.8263 272
42.84641 282
42.86652 244
42.88664 257
42.90675 250
42.92686 250
42.94698 259
42.96709 259
42.98721 245
43.00732 210
43.02743 249
43.04755 212
43.06766 214
43.08777 222
43.10789 243
43.128 233
43.14812 234
43.16823 220
43.18834 228
43.20846 237
43.22857 219
43.24868 202
43.2688 215
43.28891 219
43.30902 203
43.32914 223
43.34925 218
43.36937 238
43.38948 174
43.40959 212
43.42971 233
43.44982 223
43.46993 223
43.49005 239
43.51016 230
43.53028 233
43.55039 229
43.5705 229
43.59062 216
43.61073 216
43.63084 203
43.65096 194
43.67107 222
43.69119 207
43.7113 221
43.73141 211
43.75153 192
43.77164 198
43.79175 198
43.81187 210
43.83198 209
43.85209 231
43.87221 214
43.89232 232
43.91244 195
43.93255 203
43.95266 226
43.97278 226
43.99289 240
44.013 231
44.03312 264
44.05323 216
44.07335 240
44.09346 216
44.11357 233
44.13369 229
44.1538 262
44.17391 236
44.19403 211
44.21414 205
44.23426 234
44.25437 215
44.27448 229
44.2946 221
44.31471 231
44.33482 216
44.35494 217
44.37505 190
44.39516 194
44.41528 192
44.43539 209
44.45551 191
44.47562 217
44.49573 241
44.51585 221
44.53596 210
44.55607 224
44.57619 234
44.5963 210
44.61642 223
44.63653 223
44.65664 186
44.67676 216
44.69687 197
44.71698 212
44.7371 196
44.75721 213
44.77732 200
44.79744 227
44.81755 216
44.83767 215
44.85778 196
44.87789 255
44.89801 233
44.91812 216
44.93823 222
44.95835 218
44.97846 211
44.99858 212
45.01869 216
45.0388 211
45.05892 207
45.07903 212
45.09914 212
45.11926 219
45.13937 195
45.15949 227
45.1796 224
45.19971 232
45.21983 244
45.23994 223
45.26005 233
45.28017 234
45.30028 227
45.32039 254
45.34051 249
45.36062 268
45.38074 309
45.40085 296
45.42096 298
45.44108 308
45.46119 314
45.4813 360
45.50142 343
45.52153 400
45.54165 397
45.56176 415
45.58187 450
45.60199 475
45.6221 515
45.64221 609
45.66233 654
45.68244 745
45.70256 726
45.72267 735
45.74278 740
45.7629 670
45.78301 658
45.80312 594
45.82324 547
45.84335 473
45.86346 464
45.88358 435
45.90369 359
45.92381 296
45.94392 268
45.96403 252
45.98415 238
46.00426 237
46.02437 255
46.04449 272
46.0646 226
46.08472 251
46.10483 238
46.12494 273
46.14506 270
46.16517 226
46.18528 226
46.2054 249
46.22551 265
46.24563 243
46.26574 219
46.28585 220
46.30597 226
46.32608 216
46.34619 206
46.36631 216
46.38642 195
46.40653 216
46.42665 194
46.44676 208
46.46688 179
46.48699 189
46.5071 186
46.52722 212
46.54733 207
46.56744 193
46.58756 229
46.60767 176
46.62779 186
46.6479 204
46.66801 212
46.68813 239
46.70824 209
46.72835 211
46.74847 206
46.76858 197
46.78869 218
46.80881 217
46.82892 221
46.84904 234
46.86915 219
46.88926 229
46.90938 216
46.92949 205
46.9496 221
46.96972 220
46.98983 258
47.00995 248
47.03006 254
47.05017 254
47.07029 278
47.0904 274
47.11051 274
47.13063 293
47.15074 247
47.17086 242
47.19097 260
47.21108 240
47.2312 232
47.25131 210
47.27142 233
47.29154 232
47.31165 221
47.33176 234
47.35188 265
47.37199 270
47.39211 229
47.41222 249
47.43233 234
47.45245 285
47.47256 247
47.49267 230
47.51279 236
47.5329 287
47.55302 231
47.57313 220
47.59324 232
47.61336 228
47.63347 199
47.65358 221
47.6737 208
47.69381 196
47.71393 184
47.73404 214
47.75415 192
47.77427 208
47.79438 177
47.81449 217
47.83461 220
47.85472 201
47.87483 208
47.89495 208
47.91506 214
47.93518 207
47.95529 202
47.9754 208
47.99552 234
48.01563 212
48.03574 209
48.05586 224
48.07597 210
48.09609 184
48.1162 217
48.13631 198
48.15643 209
48.17654 208
48.19665 200
48.21677 180
48.23688 192
48.257 224
48.27711 215
48.29722 220
48.31734 221
48.33745 209
48.35756 209
48.37768 232
48.39779 197
48.4179 187
48.43802 231
48.45813 194
48.47825 196
48.49836 199
48.51847 200
48.53859 202
48.5587 208
48.57881 222
48.59893 212
48.61904 220
48.63916 230
48.65927 225
48.67938 224
48.6995 271
48.71961 205
48.73972 254
48.75984 257
48.77995 281
48.80006 269
48.82018 259
48.84029 273
48.86041 259
48.88052 285
48.90063 255
48.92075 248
48.94086 282
48.96097 291
48.98109 280
49.0012 232
49.02132 245
49.04143 279
49.06154 227
49.08166 270
49.10177 262
49.12188 279
49.142 297
49.16211 244
49.18223 260
49.20234 228
49.22245 241
49.24257 286
49.26268 232
49.28279 234
49.30291 212
49.32302 237
49.34313 206
49.36325 237
49.38336 208
49.40348 231
49.42359 254
49.4437 216
49.46382 260
49.48393 210
49.50404 248
49.52416 253
49.54427 248
49.56439 251
49.5845 256
49.60461 274
49.62473 271
49.64484 296
49.66495 306
49.68507 304
49.70518 314
49.7253 357
49.74541 312
49.76552 383
49.78564 414
49.80575 452
49.82586 450
49.84598 532
49.86609 571
49.8862 595
49.90632 727
49.92643 845
49.94655 1015
49.96666 1162
49.98677 1343
50.00689 1584
50.027 1855
50.04711 2055
50.06723 2078
50.08734 2030
50.10746 1871
50.12757 1639
50.14768 1450
50.1678 1277
50.18791 1269
50.20802 1086
50.22814 990
50.24825 922
50.26837 687
50.28848 544
50.30859 464
50.32871 444
50.34882 412
50.36893 421
50.38905 428
50.40916 475
50.42927 447
50.44939 472
50.4695 544
50.48962 507
50.50973 543
50.52984 517
50.54996 496
50.57007 474
50.59018 449
50.6103 468
50.63041 419
50.65053 410
50.67064 424
50.69075 359
50.71087 379
50.73098 322
50.75109 367
50.77121 306
50.79132 338
50.81143 318
50.83155 301
50.85166 294
50.87178 281
50.89189 260
50.912 286
50.93212 240
50.95223 261
50.97234 232
50.99246 220
51.01257 262
51.03269 266
51.0528 248
51.07291 254
51.09303 241
51.11314 215
51.13325 227
51.15337 244
51.17348 247
51.1936 241
51.21371 232
51.23382 253
51.25394 234
51.27405 237
51.29416 241
51.31428 237
51.33439 212
51.3545 223
51.37462 225
51.39473 214
51.41485 206
51.43496 229
51.45507 237
51.47519 204
51.4953 209
51.51541 200
51.53553 214
51.55564 179
51.57576 202
51.59587 211
51.61598 205
51.6361 179
51.65621 193
51.67632 175
51.69644 171
51.71655 195
51.73667 198
51.75678 170
51.77689 185
51.79701 187
51.81712 192
51.83723 208
51.85735 181
51.87746 193
51.89757 178
51.91769 175
51.9378 190
51.95792 172
51.97803 199
51.99814 167
52.01826 206
52.03837 210
52.05848 182
52.0786 204
52.09871 213
52.11883 224
52.13894 214
52.15905 206
52.17917 204
52.19928 189
52.21939 180
52.23951 194
52.25962 205
52.27974 185
52.29985 177
52.31996 218
52.34008 191
52.36019 234
52.3803 229
52.40042 206
52.42053 200
52.44064 205
52.46076 220
52.48087 191
52.50099 230
52.5211 199
52.54121 223
52.56133 222
52.58144 229
52.60155 224
52.62167 201
52.64178 208
52.6619 192
52.68201 232
52.70212 230
52.72224 233
52.74235 224
52.76246 205
52.78258 226
52.80269 245
52.8228 211
52.84292 232
52.86303 197
52.88315 228
52.90326 223
52.92337 218
52.94349 202
52.9636 218
52.98371 207
53.00383 210
53.02394 216
53.04406 228
53.06417 213
53.08428 214
53.1044 220
53.12451 222
53.14462 205
53.16474 236
53.18485 259
53.20497 217
53.22508 209
53.24519 206
53.26531 236
53.28542 221
53.30553 204
53.32565 236
53.34576 208
53.36587 218
53.38599 219
53.4061 220
53.42622 198
53.44633 205
53.46644 221
53.48656 235
53.50667 194
53.52678 225
53.5469 235
53.56701 196
53.58713 205
53.60724 203
53.62735 198
53.64747 241
53.66758 203
53.68769 218
53.70781 213
53.72792 183
53.74804 190
53.76815 218
53.78826 199
53.80838 220
53.82849 209
53.8486 219
53.86872 221
53.88883 202
53.90894 191
53.92906 217
53.94917 227
53.96929 212
53.9894 216
54.00951 237
54.02963 235
54.04974 209
54.06985 243
54.08997 231
54.11008 215
54.1302 229
54.15031 231
54.17042 230
54.19054 234
54.21065 231
54.23076 243
54.25088 225
54.27099 240
54.29111 253
54.31122 263
54.33133 205
54.35145 240
54.37156 240
54.39167 230
54.41179 252
54.4319 260
54.45201 254
54.47213 233
54.49224 262
54.51236 260
54.53247 293
54.55258 275
54.5727 304
54.59281 337
54.61292 315
54.63304 341
54.65315 402
54.67327 447
54.69338 442
54.71349 525
54.73361 684
54.75372 633
54.77383 718
54.79395 755
54.81406 729
54.83417 672
54.85429 661
54.8744 591
54.89452 509
54.91463 488
54.93474 512
54.95486 500
54.97497 476
54.99508 447
55.0152 390
55.03531 323
55.05543 303
55.07554 294
55.09565 304
55.11577 300
55.13588 345
55.15599 371
55.17611 388
55.19622 420
55.21634 405
55.23645 460
55.25656 461
55.27668 455
55.29679 456
55.3169 419
55.33702 360
55.35713 362
55.37724 354
55.39736 363
55.41747 385
55.43759 331
55.4577 332
55.47781 312
55.49793 266
55.51804 285
55.53815 255
55.55827 265
55.57838 229
55.5985 212
55.61861 250
55.63872 240
55.65884 233
55.67895 225
55.69906 252
55.71918 217
55.73929 216
55.75941 210
55.77952 239
55.79963 221
55.81975 195
55.83986 216
55.85997 206
55.88009 216
55.9002 233
55.92031 226
55.94043 223
55.96054 196
55.98066 195
56.00077 197
56.02088 200
56.041 192
56.06111 211
56.08122 195
56.10134 189
56.12145 209
56.14157 216
56.16168 201
56.18179 204
56.20191 207
56.22202 187
56.24213 177
56.26225 209
56.28236 193
56.30248 184
56.32259 188
56.3427 184
56.36282 211
56.38293 184
56.40304 195
56.42316 212
56.44327 191
56.46338 211
56.4835 199
56.50361 200
56.52373 205
56.54384 214
56.56395 210
56.58407 206
56.60418 197
56.62429 202
56.64441 216
56.66452 217
56.68464 219
56.70475 242
56.72486 216
56.74498 209
56.76509 228
56.7852 201
56.80532 222
56.82543 219
56.84554 180
56.86566 211
56.88577 218
56.90589 209
56.926 204
56.94611 192
56.96623 208
56.98634 217
57.00645 219
57.02657 191
57.04668 207
57.0668 219
57.08691 245
57.10702 234
57.12714 206
57.14725 231
57.16736 248
57.18748 223
57.20759 234
57.22771 212
57.24782 217
57.26793 220
57.28805 230
57.30816 236
57.32827 256
57.34839 239
57.3685 228
57.38861 236
57.40873 222
57.42884 220
57.44896 221
57.46907 209
57.48918 189
57.5093 202
57.52941 183
57.54952 181
57.56964 224
57.58975 211
57.60987 207
57.62998 191
57.65009 197
57.67021 211
57.69032 191
57.71043 191
57.73055 184
57.75066 185
57.77078 168
57.79089 210
57.811 215
57.83112 181
57.85123 172
57.87134 183
57.89146 208
57.91157 185
57.93168 200
57.9518 201
57.97191 190
57.99203 198
58.01214 180
58.03225 199
58.05237 206
58.07248 217
58.09259 184
58.11271 196
58.13282 212
58.15294 222
58.17305 217
58.19316 198
58.21328 204
58.23339 202
58.2535 211
58.27362 210
58.29373 212
58.31385 201
58.33396 213
58.35407 222
58.37419 230
58.3943 203
58.41441 212
58.43453 219
58.45464 220
58.47475 210
58.49487 224
58.51498 208
58.5351 220
58.55521 217
58.57532 215
58.59544 211
58.61555 230
58.63566 252
58.65578 244
58.67589 256
58.69601 233
58.71612 234
58.73623 227
58.75635 230
58.77646 207
58.79657 208
58.81669 207
58.8368 177
58.85691 189
58.87703 219
58.89714 207
58.91726 204
58.93737 166
58.95748 190
58.9776 201
58.99771 204
59.01782 176
59.03794 176
59.05805 201
59.07817 177
59.09828 209
59.11839 182
59.13851 203
59.15862 181
59.17873 197
59.19885 219
59.21896 209
59.23908 172
59.25919 183
59.2793 215
59.29942 226
59.31953 213
59.33964 210
59.35976 220
59.37987 190
59.39998 227
59.4201 258
59.44021 235
59.46033 248
59.48044 246
59.50055 262
59.52067 304
59.54078 296
59.56089 294
59.58101 306
59.60112 276
59.62124 328
59.64135 387
59.66146 407
59.68158 450
59.70169 456
59.7218 570
59.74192 630
59.76203 724
59.78215 890
59.80226 997
59.82237 1104
59.84249 1296
59.8626 1318
59.88271 1399
59.90283 1333
59.92294 1242
59.94305 1116
59.96317 983
59.98328 873
60.0034 828
60.02351 830
60.04362 852
60.06374 736
60.08385 685
60.10396 573
60.12408 428
60.14419 401
60.16431 338
60.18442 291
60.20453 313
60.22465 289
60.24476 298
60.26487 251
60.28499 267
60.3051 255
60.32522 227
60.34533 238
60.36544 236
60.38556 220
60.40567 213
60.42578 257
60.4459 203
60.46601 216
60.48612 204
60.50624 231
60.52635 238
60.54647 230
60.56658 221
60.58669 227
60.60681 183
60.62692 240
60.64703 186
60.66715 237
60.68726 207
60.70738 220
60.72749 213
60.7476 208
60.76772 186
60.78783 239
60.80794 228
60.82806 219
60.84817 194
60.86828 219
60.8884 241
60.90851 200
60.92863 222
60.94874 234
60.96885 226
60.98897 231
61.00908 256
61.02919 241
61.04931 232
61.06942 257
61.08954 254
61.10965 278
61.12976 294
61.14988 224
61.16999 239
61.1901 232
61.21022 267
61.23033 254
61.25045 255
61.27056 242
61.29067 251
61.31079 237
61.3309 221
61.35101 235
61.37113 243
61.39124 207
61.41135 221
61.43147 202
61.45158 248
61.4717 223
61.49181 217
61.51192 216
61.53204 213
61.55215 212
61.57226 234
61.59238 238
61.61249 220
61.63261 247
61.65272 239
61.67283 234
61.69295 229
61.71306 210
61.73317 245
61.75329 227
61.7734 220
61.79352 237
61.81363 242
61.83374 247
61.85386 233
61.87397 233
61.89408 234
61.9142 230
61.93431 220
61.95442 244
61.97454 197
61.99465 245
62.01477 244
62.03488 234
62.05499 251
62.07511 239
62.09522 248
62.11533 250
62.13545 253
62.15556 226
62.17568 243
62.19579 232
62.2159 229
62.23602 215
62.25613 242
62.27624 249
62.29636 221
62.31647 264
62.33659 246
62.3567 215
62.37681 204
62.39693 244
62.41704 213
62.43715 229
62.45727 241
62.47738 212
62.49749 229
62.51761 214
62.53772 228
62.55784 224
62.57795 247
62.59806 209
62.61818 221
62.63829 256
62.6584 224
62.67852 209
62.69863 236
62.71875 223
62.73886 238
62.75897 236
62.77909 223
62.7992 226
62.81931 231
62.83943 217
62.85954 245
62.87965 231
62.89977 231
62.91988 232
62.94 240
62.96011 246
62.98022 263
63.00034 257
63.02045 257
63.04056 234
63.06068 254
63.08079 261
63.10091 241
63.12102 247
63.14113 203
63.16125 214
63.18136 226
63.20147 230
63.22159 239
63.2417 232
63.26182 216
63.28193 217
63.30204 215
63.32216 219
63.34227 209
63.36238 223
63.3825 207
63.40261 208
63.42272 242
63.44284 231
63.46295 198
63.48307 225
63.50318 234
63.52329 233
63.54341 265
63.56352 254
63.58363 246
63.60375 217
63.62386 261
63.64398 250
63.66409 260
63.6842 327
63.70432 269
63.72443 285
63.74454 290
63.76466 307
63.78477 305
63.80489 316
63.825 355
63.84511 370
63.86523 392
63.88534 406
63.90545 439
63.92557 424
63.94568 447
63.96579 522
63.98591 466
64.00602 449
64.02614 370
64.04625 392
64.06636 347
64.08648 337
64.10659 345
64.1267 354
64.14682 350
64.16693 278
64.18705 268
64.20716 279
64.22727 237
64.24739 204
64.2675 230
64.28761 231
64.30773 215
64.32784 187
64.34796 174
64.36807 198
64.38818 207
64.4083 199
64.42841 182
64.44852 192
64.46864 182
64.48875 192
64.50886 183
64.52898 168
64.54909 183
64.56921 176
64.58932 225
64.60943 213
64.62955 173
64.64966 202
64.66977 201
64.68989 191
64.71 191
64.73012 194
64.75023 195
64.77034 180
64.79046 178
64.81057 198
64.83068 208
64.8508 188
64.87091 193
64.89102 191
64.91114 204
64.93125 191
64.95137 210
64.97148 228
64.99159 212
65.01171 225
65.03182 212
65.05193 197
65.07205 226
65.09216 236
65.11228 236
65.13239 243
65.1525 244
65.17262 227
65.19273 224
65.21284 225
65.23296 233
65.25307 262
65.27319 265
65.2933 239
65.31341 222
65.33353 225
65.35364 238
65.37375 221
65.39387 240
65.41398 209
65.43409 226
65.45421 214
65.47432 219
65.49444 238
65.51455 205
65.53466 222
65.55478 218
65.57489 225
65.595 232
65.61512 230
65.63523 223
65.65535 235
65.67546 225
65.69557 232
65.71569 235
65.7358 227
65.75591 227
65.77603 232
65.79614 234
65.81626 228
65.83637 200
65.85648 225
65.8766 201
65.89671 240
65.91682 187
65.93694 208
65.95705 233
65.97716 201
65.99728 205
66.01739 201
66.03751 214
66.05762 201
66.07773 205
66.09785 225
66.11796 210
66.13807 217
66.15819 226
66.1783 244
66.19842 227
66.21853 241
66.23864 214
66.25876 210
66.27887 251
66.29898 227
66.3191 209
66.33921 221
66.35933 247
66.37944 226
66.39955 222
66.41967 194
66.43978 230
66.45989 222
66.48001 196
66.50012 213
66.52023 206
66.54035 204
66.56046 205
66.58058 200
66.60069 196
66.6208 212
66.64092 213
66.66103 184
66.68114 172
66.70126 211
66.72137 221
66.74149 202
66.7616 206
66.78171 217
66.80183 213
66.82194 203
66.84205 232
66.86217 226
66.88228 185
66.90239 229
66.92251 216
66.94262 212
66.96274 229
66.98285 239
67.00296 181
67.02308 197
67.04319 208
67.0633 205
67.08342 242
67.10353 204
67.12365 205
67.14376 242
67.16387 248
67.18399 236
67.2041 235
67.22421 264
67.24433 218
67.26444 225
67.28456 230
67.30467 265
67.32478 266
67.3449 259
67.36501 268
67.38512 275
67.40524 300
67.42535 330
67.44546 339
67.46558 325
67.48569 400
67.50581 423
67.52592 477
67.54603 512
67.56615 602
67.58626 712
67.60637 775
67.62649 882
67.6466 921
67.66672 899
67.68683 889
67.70694 832
67.72706 774
67.74717 713
67.76728 629
67.7874 616
67.80751 629
67.82763 673
67.84774 731
67.86785 722
67.88797 800
67.90808 768
67.92819 739
67.94831 769
67.96842 836
67.98853 879
68.00865 992
68.02876 1073
68.04888 1186
68.06899 1158
68.0891 1179
68.10922 1148
68.12933 1123
68.14944 1062
68.16956 1051
68.18967 1072
68.20979 1045
68.2299 1138
68.25001 1129
68.27013 1104
68.29024 957
68.31035 770
68.33047 689
68.35058 613
68.3707 550
68.39081 510
68.41092 487
68.43104 491
68.45115 485
68.47126 383
68.49138 379
68.51149 331
68.5316 305
68.55172 263
68.57183 273
68.59195 226
68.61206 266
68.63217 239
68.65229 248
68.6724 227
68.69251 213
68.71263 242
68.73274 227
68.75286 193
68.77297 218
68.79308 243
68.8132 238
68.83331 198
68.85342 202
68.87354 193
68.89365 214
68.91376 198
68.93388 205
68.95399 213
68.97411 202
68.99422 203
69.01433 204
69.03445 220
69.05456 190
69.07467 205
69.09479 191
69.1149 212
69.13502 192
69.15513 198
69.17524 201
69.19536 208
69.21547 203
69.23558 186
69.2557 200
69.27581 190
69.29593 220
69.31604 224
69.33615 180
69.35627 197
69.37638 198
69.39649 203
69.41661 202
69.43672 194
69.45683 179
69.47695 210
69.49706 194
69.51718 191
69.53729 164
69.5574 190
69.57752 223
69.59763 191
69.61774 190
69.63786 184
69.65797 185
69.67809 176
69.6982 210
69.71831 184
69.73843 186
69.75854 179
69.77865 186
69.79877 202
69.81888 195
69.839 179
69.85911 199
69.87922 188
69.89934 203
69.91945 216
69.93956 183
69.95968 215
69.97979 186
69.9999 176
70.02002 180
70.04013 182
70.06025 158
70.08036 191
70.10047 189
70.12059 201
70.1407 211
70.16081 174
70.18093 182
70.20104 181
70.22116 184
70.24127 172
70.26138 202
70.2815 182
70.30161 186
70.32172 172
70.34184 177
70.36195 203
70.38207 167
70.40218 187
70.42229 196
70.44241 175
70.46252 181
70.48263 177
70.50275 187
70.52286 166
70.54297 195
70.56309 191
70.5832 190
70.60332 188
70.62343 204
70.64354 186
70.66366 173
70.68377 179
70.70388 207
70.724 178
70.74411 196
70.76423 188
70.78434 199
70.80445 203
70.82457 180
70.84468 164
70.86479 177
70.88491 176
70.90502 179
70.92513 196
70.94525 187
70.96536 187
70.98548 179
71.00559 190
71.0257 187
71.04582 179
71.06593 173
71.08604 195
71.10616 211
71.12627 161
71.14639 179
71.1665 172
71.18661 178
71.20673 187
71.22684 207
71.24695 195
71.26707 169
71.28718 189
71.3073 185
71.32741 207
71.34752 199
71.36764 200
71.38775 190
71.40786 204
71.42798 195
71.44809 228
71.4682 201
71.48832 206
71.50843 219
71.52855 208
71.54866 202
71.56877 201
71.58889 209
71.609 203
71.62911 198
71.64923 180
71.66934 211
71.68946 217
71.70957 192
71.72968 168
71.7498 211
71.76991 204
71.79002 181
71.81014 183
71.83025 190
71.85037 180
71.87048 168
71.89059 178
71.91071 199
71.93082 219
71.95093 210
71.97105 222
71.99116 183
72.01127 198
72.03139 204
72.0515 202
72.07162 185
72.09173 195
72.11184 192
72.13196 198
72.15207 206
72.17218 194
72.1923 229
72.21241 225
72.23253 204
72.25264 223
72.27275 207
72.29287 199
72.31298 213
72.33309 200
72.35321 222
72.37332 186
72.39344 198
72.41355 210
72.43366 199
72.45378 194
72.47389 195
72.494 218
72.51412 205
72.53423 208
72.55434 184
72.57446 183
72.59457 232
72.61469 195
72.6348 175
72.65491 184
72.67503 203
72.69514 202
72.71525 200
72.73537 205
72.75548 215
72.7756 196
72.79571 206
72.81582 204
72.83594 183
72.85605 219
72.87616 209
72.89628 206
72.91639 223
72.9365 210
72.95662 201
72.97673 212
72.99685 232
73.01696 223
73.03707 232
73.05719 257
73.0773 255
73.09741 243
73.11753 245
73.13764 252
73.15776 256
73.17787 242
73.19798 274
73.2181 290
73.23821 271
73.25832 303
73.27844 334
73.29855 341
73.31867 392
73.33878 405
73.35889 445
73.37901 466
73.39912 416
73.41923 439
73.43935 402
73.45946 368
73.47957 368
73.49969 327
73.5198 311
73.53992 293
73.56003 333
73.58014 358
73.60026 359
73.62037 359
73.64048 314
73.6606 280
73.68071 256
73.70083 254
73.72094 258
73.74105 220
73.76117 215
73.78128 221
73.80139 212
73.82151 213
73.84162 197
73.86174 231
73.88185 207
73.90196 203
73.92208 182
73.94219 196
73.9623 204
73.98242 214
74.00253 209
74.02264 183
74.04276 197
74.06287 214
74.08299 187
74.1031 179
74.12321 190
74.14333 197
74.16344 194
74.18355 205
74.20367 214
74.22378 182
74.2439 199
74.26401 192
74.28412 188
74.30424 190
74.32435 185
74.34446 198
74.36458 185
74.38469 208
74.40481 207
74.42492 210
74.44503 201
74.46515 218
74.48526 212
74.50537 201
74.52549 198
74.5456 217
74.56571 205
74.58583 206
74.60594 198
74.62606 185
74.64617 217
74.66628 205
74.6864 225
74.70651 223
74.72662 232
74.74674 225
74.76685 206
74.78697 204
74.80708 204
74.82719 207
74.84731 228
74.86742 225
74.88753 212
74.90765 191
74.92776 211
74.94787 225
74.96799 219
74.9881 203
75.00822 207
