3.00117 19932
3.02128 19596
3.0414 18876
3.06151 18047
3.08162 18134
3.10174 16977
3.12185 17031
3.14197 16436
3.16208 16007
3.18219 15744
3.20231 14915
3.22242 14686
3.24253 13891
3.26265 13578
3.28276 13426
3.30288 12885
3.32299 12635
3.3431 12132
3.36322 11835
3.38333 11524
3.40344 10903
3.42356 10682
3.44367 10288
3.46379 9799
3.4839 9847
3.50401 9131
3.52413 8957
3.54424 8657
3.56435 8440
3.58447 8169
3.60458 7622
3.62469 7450
3.64481 7157
3.66492 6992
3.68504 6748
3.70515 6314
3.72526 6108
3.74538 5918
3.76549 5675
3.7856 5630
3.80572 5140
3.82583 5103
3.84595 4753
3.86606 4728
3.88617 4565
3.90629 4083
3.9264 4081
3.94651 3910
3.96663 3764
3.98674 3701
4.00686 3218
4.02697 3266
4.04708 3216
4.0672 2996
4.08731 2934
4.10742 2685
4.12754 2768
4.14765 2687
4.16776 2467
4.18788 2561
4.20799 2225
4.22811 2183
4.24822 2096
4.26833 2104
4.28845 2088
4.30856 1844
4.32867 1909
4.34879 1855
4.3689 1780
4.38902 1820
4.40913 1719
4.42924 1586
4.44936 1683
4.46947 1483
4.48958 1587
4.5097 1484
4.52981 1440
4.54992 1403
4.57004 1317
4.59015 1376
4.61027 1287
4.63038 1275
4.65049 1330
4.67061 1173
4.69072 1252
4.71083 1157
4.73095 1108
4.75106 1132
4.77118 1094
4.79129 1051
4.8114 1057
4.83152 1010
4.85163 1042
4.87174 1065
4.89186 980
4.91197 990
4.93209 918
4.9522 922
4.97231 887
4.99243 892
5.01254 887
5.03265 816
5.05277 895
5.07288 928
5.09299 833
5.11311 772
5.13322 743
5.15334 754
5.17345 746
5.19356 697
5.21368 756
5.23379 740
5.2539 735
5.27402 725
5.29413 674
5.31425 702
5.33436 646
5.35447 653
5.37459 639
5.3947 580
5.41481 577
5.43493 601
5.45504 573
5.47516 622
5.49527 558
5.51538 611
5.5355 582
5.55561 621
5.57572 542
5.59584 532
5.61595 558
5.63606 533
5.65618 524
5.67629 559
5.69641 475
5.71652 473
5.73663 505
5.75675 525
5.77686 507
5.79697 468
5.81709 471
5.8372 502
5.85732 445
5.87743 498
5.89754 495
5.91766 473
5.93777 470
5.95788 457
5.978 462
5.99811 431
6.01823 443
6.03834 438
6.05845 417
6.07857 422
6.09868 493
6.11879 439
6.13891 450
6.15902 422
6.17913 410
6.19925 403
6.21936 437
6.23948 398
6.25959 430
6.2797 396
6.29982 494
6.31993 405
6.34004 404
6.36016 409
6.38027 389
6.40039 361
6.4205 395
6.44061 370
6.46073 413
6.48084 438
6.50095 371
6.52107 400
6.54118 399
6.56129 409
6.58141 375
6.60152 429
6.62164 398
6.64175 385
6.66186 448
6.68198 449
6.70209 393
6.7222 429
6.74232 367
6.76243 375
6.78255 363
6.80266 360
6.82277 399
6.84289 381
6.863 408
6.88311 387
6.90323 433
6.92334 370
6.94346 377
6.96357 396
6.98368 350
7.0038 390
7.02391 401
7.04402 382
7.06414 387
7.08425 371
7.10436 380
7.12448 445
7.14459 405
7.16471 382
7.18482 403
7.20493 388
7.22505 401
7.24516 401
7.26527 406
7.28539 369
7.3055 421
7.32562 444
7.34573 390
7.36584 412
7.38596 385
7.40607 414
7.42618 422
7.4463 404
7.46641 362
7.48653 416
7.50664 406
7.52675 404
7.54687 388
7.56698 404
7.58709 378
7.60721 412
7.62732 354
7.64743 368
7.66755 398
7.68766 369
7.70778 414
7.72789 357
7.748 373
7.76812 425
7.78823 411
7.80834 398
7.82846 403
7.84857 394
7.86869 397
7.8888 372
7.90891 395
7.92903 408
7.94914 443
7.96925 387
7.98937 399
8.00948 407
8.0296 405
8.04971 353
8.06982 425
8.08994 405
8.11005 410
8.13016 415
8.15028 394
8.17039 394
8.1905 392
8.21062 387
8.23073 428
8.25085 388
8.27096 402
8.29107 381
8.31119 381
8.3313 445
8.35141 394
8.37153 430
8.39164 381
8.41176 385
8.43187 384
8.45198 400
8.4721 402
8.49221 423
8.51232 440
8.53244 350
8.55255 413
8.57266 389
8.59278 396
8.61289 428
8.63301 431
8.65312 412
8.67323 400
8.69335 416
8.71346 399
8.73357 420
8.75369 404
8.7738 383
8.79392 399
8.81403 410
8.83414 392
8.85426 400
8.87437 344
8.89448 381
8.9146 432
8.93471 402
8.95483 370
8.97494 408
8.99505 387
9.01517 391
9.03528 398
9.05539 414
9.07551 427
9.09562 406
9.11573 373
9.13585 399
9.15596 390
9.17608 393
9.19619 381
9.2163 396
9.23642 389
9.25653 387
9.27664 383
9.29676 393
9.31687 393
9.33699 393
9.3571 419
9.37721 377
9.39733 396
9.41744 365
9.43755 445
9.45767 374
9.47778 447
9.4979 398
9.51801 383
9.53812 390
9.55824 428
9.57835 387
9.59846 422
9.61858 386
9.63869 381
9.6588 384
9.67892 379
9.69903 370
9.71915 362
9.73926 403
9.75937 378
9.77949 389
9.7996 414
9.81971 426
9.83983 394
9.85994 392
9.88006 398
9.90017 401
9.92028 471
9.9404 390
9.96051 389
9.98062 359
10.00074 397
10.02085 364
10.04097 396
10.06108 406
10.08119 399
10.10131 436
10.12142 408
10.14153 410
10.16165 375
10.18176 425
10.20187 382
10.22199 420
10.2421 412
10.26222 422
10.28233 392
10.30244 378
10.32256 393
10.34267 354
10.36278 408
10.3829 406
10.40301 401
10.42313 378
10.44324 396
10.46335 380
10.48347 409
10.50358 373
10.52369 423
10.54381 398
10.56392 368
10.58403 374
10.60415 386
10.62426 403
10.64438 397
10.66449 382
10.6846 413
10.70472 435
10.72483 404
10.74494 382
10.76506 420
10.78517 367
10.80529 427
10.8254 401
10.84551 394
10.86563 429
10.88574 356
10.90585 401
10.92597 418
10.94608 405
10.9662 403
10.98631 431
11.00642 368
11.02654 383
11.04665 357
11.06676 442
11.08688 391
11.10699 422
11.1271 395
11.14722 423
11.16733 405
11.18745 400
11.20756 404
11.22767 412
11.24779 407
11.2679 438
11.28801 421
11.30813 426
11.32824 384
11.34836 410
11.36847 387
11.38858 378
11.4087 432
11.42881 406
11.44892 369
11.46904 454
11.48915 420
11.50927 408
11.52938 385
11.54949 407
11.56961 448
11.58972 471
11.60983 405
11.62995 423
11.65006 458
11.67017 466
11.69029 461
11.7104 445
11.73052 471
11.75063 447
11.77074 450
11.79086 450
11.81097 482
11.83108 492
11.8512 454
11.87131 489
11.89143 451
11.91154 509
11.93165 517
11.95177 506
11.97188 519
11.99199 516
12.01211 517
12.03222 559
12.05234 595
12.07245 609
12.09256 616
12.11268 689
12.13279 705
12.1529 726
12.17302 774
12.19313 835
12.21324 855
12.23336 920
12.25347 920
12.27359 1016
12.2937 961
12.31381 974
12.33393 952
12.35404 956
12.37415 909
12.39427 848
12.41438 757
12.4345 723
12.45461 716
12.47472 616
12.49484 606
12.51495 565
12.53506 568
12.55518 524
12.57529 482
12.5954 489
12.61552 509
12.63563 494
12.65575 430
12.67586 425
12.69597 480
12.71609 479
12.7362 427
12.75631 463
12.77643 446
12.79654 411
12.81666 417
12.83677 426
12.85688 409
12.877 416
12.89711 374
12.91722 406
12.93734 438
12.95745 421
12.97757 441
12.99768 427
13.01779 408
13.03791 368
13.05802 385
13.07813 380
13.09825 374
13.11836 418
13.13847 369
13.15859 377
13.1787 345
13.19882 386
13.21893 367
13.23904 420
13.25916 432
13.27927 395
13.29938 350
13.3195 367
13.33961 414
13.35973 391
13.37984 432
13.39995 395
13.42007 375
13.44018 418
13.46029 409
13.48041 387
13.50052 406
13.52064 436
13.54075 359
13.56086 413
13.58098 374
13.60109 365
13.6212 362
13.64132 363
13.66143 391
13.68154 360
13.70166 401
13.72177 356
13.74189 387
13.762 363
13.78211 381
13.80223 390
13.82234 367
13.84245 385
13.86257 403
13.88268 354
13.9028 360
13.92291 344
13.94302 362
13.96314 382
13.98325 354
14.00336 394
14.02348 342
14.04359 335
14.06371 372
14.08382 376
14.10393 370
14.12405 357
14.14416 385
14.16427 347
14.18439 381
14.2045 382
14.22461 381
14.24473 367
14.26484 342
14.28496 364
14.30507 373
14.32518 394
14.3453 331
14.36541 375
14.38552 371
14.40564 387
14.42575 334
14.44587 368
14.46598 367
14.48609 369
14.50621 355
14.52632 348
14.54643 378
14.56655 390
14.58666 353
14.60677 381
14.62689 389
14.647 361
14.66712 366
14.68723 394
14.70734 369
14.72746 349
14.74757 367
14.76768 373
14.7878 369
14.80791 394
14.82803 389
14.84814 377
14.86825 383
14.88837 378
14.90848 398
14.92859 385
14.94871 361
14.96882 370
14.98894 369
15.00905 386
15.02916 332
15.04928 351
15.06939 378
15.0895 395
15.10962 379
15.12973 341
15.14984 370
15.16996 377
15.19007 372
15.21019 347
15.2303 335
15.25041 341
15.27053 354
15.29064 352
15.31075 376
15.33087 366
15.35098 417
15.3711 374
15.39121 385
15.41132 362
15.43144 364
15.45155 366
15.47166 351
15.49178 350
15.51189 384
15.53201 363
15.55212 360
15.57223 362
15.59235 342
15.61246 369
15.63257 393
15.65269 402
15.6728 390
15.69291 362
15.71303 371
15.73314 343
15.75326 387
15.77337 366
15.79348 399
15.8136 367
15.83371 387
15.85382 379
15.87394 397
15.89405 379
15.91417 385
15.93428 367
15.95439 366
15.97451 372
15.99462 361
16.01473 348
16.03485 374
16.05496 336
16.07508 352
16.09519 423
16.1153 391
16.13542 344
16.15553 348
16.17564 336
16.19576 414
16.21587 343
16.23598 348
16.2561 350
16.27621 319
16.29633 386
16.31644 384
16.33655 370
16.35667 342
16.37678 358
16.39689 338
16.41701 398
16.43712 353
16.45724 356
16.47735 360
16.49746 371
16.51758 374
16.53769 368
16.5578 374
16.57792 320
16.59803 361
16.61814 332
16.63826 383
16.65837 351
16.67849 363
16.6986 357
16.71871 357
16.73883 332
16.75894 341
16.77905 364
16.79917 387
16.81928 373
16.8394 377
16.85951 379
16.87962 367
16.89974 357
16.91985 389
16.93996 346
16.96008 342
16.98019 353
17.00031 379
17.02042 358
17.04053 388
17.06065 382
17.08076 355
17.10087 359
17.12099 336
17.1411 357
17.16121 382
17.18133 355
17.20144 369
17.22156 411
17.24167 376
17.26178 374
17.2819 314
17.30201 370
17.32212 366
17.34224 368
17.36235 373
17.38247 363
17.40258 343
17.42269 410
17.44281 369
17.46292 343
17.48303 356
17.50315 368
17.52326 369
17.54338 370
17.56349 404
17.5836 392
17.60372 326
17.62383 442
17.64394 343
17.66406 389
17.68417 381
17.70428 362
17.7244 374
17.74451 375
17.76463 380
17.78474 362
17.80485 397
17.82497 393
17.84508 396
17.86519 376
17.88531 389
17.90542 410
17.92554 385
17.94565 410
17.96576 380
17.98588 338
18.00599 397
18.0261 381
18.04622 380
18.06633 418
18.08645 354
18.10656 344
18.12667 353
18.14679 342
18.1669 382
18.18701 369
18.20713 362
18.22724 360
18.24735 340
18.26747 369
18.28758 342
18.3077 363
18.32781 359
18.34792 397
18.36804 357
18.38815 378
18.40826 381
18.42838 390
18.44849 339
18.46861 350
18.48872 384
18.50883 345
18.52895 353
18.54906 358
18.56917 362
18.58929 348
18.6094 354
18.62951 359
18.64963 373
18.66974 372
18.68986 402
18.70997 375
18.73008 367
18.7502 366
18.77031 357
18.79042 418
18.81054 373
18.83065 336
18.85077 374
18.87088 370
18.89099 383
18.91111 388
18.93122 356
18.95133 382
18.97145 318
18.99156 384
19.01168 375
19.03179 373
19.0519 373
19.07202 391
19.09213 374
19.11224 381
19.13236 374
19.15247 400
19.17258 385
19.1927 375
19.21281 407
19.23293 364
19.25304 416
19.27315 385
19.29327 386
19.31338 419
19.33349 402
19.35361 376
19.37372 383
19.39384 416
19.41395 390
19.43406 380
19.45418 418
19.47429 379
19.4944 372
19.51452 397
19.53463 453
19.55475 415
19.57486 457
19.59497 448
19.61509 422
19.6352 446
19.65531 440
19.67543 531
19.69554 532
19.71565 524
19.73577 608
19.75588 609
19.776 687
19.79611 681
19.81622 718
19.83634 678
19.85645 700
19.87656 747
19.89668 685
19.91679 690
19.93691 673
19.95702 731
19.97713 645
19.99725 676
20.01736 724
20.03747 640
20.05759 632
20.0777 647
20.09782 648
20.11793 713
20.13804 638
20.15816 677
20.17827 654
20.19838 668
20.2185 655
20.23861 682
20.25872 671
20.27884 678
20.29895 697
20.31907 652
20.33918 686
20.35929 708
20.37941 718
20.39952 681
20.41963 661
20.43975 728
20.45986 658
20.47998 691
20.50009 705
20.5202 756
20.54032 736
20.56043 713
20.58054 759
20.60066 845
20.62077 905
20.64088 983
20.661 1110
20.68111 1331
20.70123 1549
20.72134 1978
20.74145 2477
20.76157 3188
20.78168 3585
20.80179 3923
20.82191 3851
20.84202 3562
20.86214 3112
20.88225 2444
20.90236 1848
20.92248 1413
20.94259 1132
20.9627 929
20.98282 840
21.00293 844
21.02305 826
21.04316 812
21.06327 804
21.08339 757
21.1035 811
21.12361 744
21.14373 768
21.16384 840
21.18395 762
21.20407 761
21.22418 804
21.2443 798
21.26441 770
21.28452 814
21.30464 807
21.32475 808
21.34486 791
21.36498 825
21.38509 713
21.40521 761
21.42532 768
21.44543 718
21.46555 688
21.48566 683
21.50577 637
21.52589 640
21.546 636
21.56612 612
21.58623 627
21.60634 603
21.62646 671
21.64657 602
21.66668 612
21.6868 543
21.70691 576
21.72702 565
21.74714 580
21.76725 545
21.78737 580
21.80748 548
21.82759 584
21.84771 537
21.86782 533
21.88793 554
21.90805 519
21.92816 575
21.94828 576
21.96839 498
21.9885 539
22.00862 561
22.02873 553
22.04884 551
22.06896 553
22.08907 527
22.10919 491
22.1293 531
22.14941 541
22.16953 461
22.18964 490
22.20975 502
22.22987 554
22.24998 541
22.27009 499
22.29021 498
22.31032 510
22.33044 508
22.35055 530
22.37066 504
22.39078 515
22.41089 496
22.431 503
22.45112 524
22.47123 478
22.49135 469
22.51146 521
22.53157 494
22.55169 485
22.5718 482
22.59191 540
22.61203 464
22.63214 462
22.65225 465
22.67237 504
22.69248 490
22.7126 480
22.73271 480
22.75282 478
22.77294 465
22.79305 510
22.81316 463
22.83328 433
22.85339 478
22.87351 477
22.89362 458
22.91373 415
22.93385 468
22.95396 499
22.97407 457
22.99419 496
23.0143 441
23.03442 510
23.05453 485
23.07464 450
23.09476 487
23.11487 502
23.13498 472
23.1551 452
23.17521 468
23.19532 447
23.21544 485
23.23555 498
23.25567 414
23.27578 503
23.29589 456
23.31601 496
23.33612 462
23.35623 429
23.37635 474
23.39646 475
23.41658 438
23.43669 436
23.4568 438
23.47692 479
23.49703 431
23.51714 474
23.53726 469
23.55737 468
23.57749 423
23.5976 489
23.61771 478
23.63783 437
23.65794 496
23.67805 445
23.69817 473
23.71828 495
23.73839 533
23.75851 514
23.77862 470
23.79874 505
23.81885 487
23.83896 510
23.85908 499
23.87919 498
23.8993 529
23.91942 485
23.93953 538
23.95965 586
23.97976 602
23.99987 543
24.01999 551
24.0401 521
24.06021 503
24.08033 511
24.10044 529
24.12056 500
24.14067 567
24.16078 505
24.1809 510
24.20101 514
24.22112 524
24.24124 537
24.26135 483
24.28146 508
24.30158 564
24.32169 520
24.34181 553
24.36192 522
24.38203 555
24.40215 527
24.42226 500
24.44237 543
24.46249 542
24.4826 548
24.50272 552
24.52283 602
24.54294 566
24.56306 599
24.58317 582
24.60328 590
24.6234 612
24.64351 658
24.66362 747
24.68374 760
24.70385 779
24.72397 793
24.74408 854
24.76419 852
24.78431 911
24.80442 841
24.82453 899
24.84465 841
24.86476 870
24.88488 837
24.90499 781
24.9251 783
24.94522 797
24.96533 725
24.98544 634
25.00556 666
25.02567 612
25.04579 640
25.0659 635
25.08601 574
25.10613 598
25.12624 622
25.14635 592
25.16647 612
25.18658 587
25.20669 591
25.22681 568
25.24692 584
25.26704 546
25.28715 557
25.30726 540
25.32738 551
25.34749 502
25.3676 553
25.38772 492
25.40783 497
25.42795 505
25.44806 506
25.46817 514
25.48829 540
25.5084 472
25.52851 518
25.54863 499
25.56874 518
25.58886 541
25.60897 526
25.62908 489
25.6492 542
25.66931 570
25.68942 491
25.70954 581
25.72965 543
25.74976 573
25.76988 527
25.78999 515
25.81011 579
25.83022 584
25.85033 548
25.87045 564
25.89056 541
25.91067 547
25.93079 588
25.9509 572
25.97102 579
25.99113 598
26.01124 600
26.03136 643
26.05147 626
26.07158 644
26.0917 632
26.11181 730
26.13193 739
26.15204 711
26.17215 755
26.19227 726
26.21238 783
26.23249 872
26.25261 844
26.27272 944
26.29283 1016
26.31295 1081
26.33306 1137
26.35318 1390
26.37329 1571
26.3934 1890
26.41352 2383
26.43363 3066
26.45374 4088
26.47386 5560
26.49397 7445
26.51409 10045
26.5342 12481
26.55431 14744
26.57443 16119
26.59454 16433
26.61465 15037
26.63477 13039
26.65488 10422
26.67499 7715
26.69511 5510
26.71522 3782
26.73534 2419
26.75545 1705
26.77556 1366
26.79568 1078
26.81579 989
26.8359 1034
26.85602 889
26.87613 875
26.89625 782
26.91636 719
26.93647 753
26.95659 683
26.9767 684
26.99681 711
27.01693 624
27.03704 587
27.05716 567
27.07727 607
27.09738 571
27.1175 565
27.13761 552
27.15772 538
27.17784 542
27.19795 511
27.21806 575
27.23818 516
27.25829 554
27.27841 503
27.29852 557
27.31863 561
27.33875 516
27.35886 554
27.37897 598
27.39909 591
27.4192 585
27.43932 585
27.45943 554
27.47954 558
27.49966 520
27.51977 538
27.53988 517
27.56 481
27.58011 494
27.60023 483
27.62034 455
27.64045 497
27.66057 476
27.68068 447
27.70079 452
27.72091 492
27.74102 469
27.76113 471
27.78125 462
27.80136 509
27.82148 445
27.84159 433
27.8617 448
27.88182 472
27.90193 474
27.92204 483
27.94216 448
27.96227 477
27.98239 466
28.0025 452
28.02261 451
28.04273 477
28.06284 425
28.08295 469
28.10307 452
28.12318 446
28.1433 431
28.16341 446
28.18352 418
28.20364 467
28.22375 462
28.24386 443
28.26398 458
28.28409 444
28.3042 428
28.32432 468
28.34443 445
28.36455 416
28.38466 424
28.40477 401
28.42489 435
28.445 415
28.46511 449
28.48523 460
28.50534 414
28.52546 436
28.54557 467
28.56568 408
28.5858 443
28.60591 462
28.62602 410
28.64614 450
28.66625 402
28.68636 443
28.70648 417
28.72659 436
28.74671 418
28.76682 452
28.78693 422
28.80705 464
28.82716 438
28.84727 446
28.86739 403
28.8875 436
28.90762 460
28.92773 443
28.94784 415
28.96796 421
28.98807 439
29.00818 403
29.0283 437
29.04841 416
29.06853 403
29.08864 432
29.10875 433
29.12887 429
29.14898 446
29.16909 442
29.18921 416
29.20932 417
29.22943 428
29.24955 445
29.26966 405
29.28978 433
29.30989 418
29.33 419
29.35012 448
29.37023 448
29.39034 389
29.41046 447
29.43057 463
29.45069 430
29.4708 402
29.49091 398
29.51103 445
29.53114 420
29.55125 408
29.57137 406
29.59148 400
29.6116 439
29.63171 420
29.65182 430
29.67194 406
29.69205 399
29.71216 445
29.73228 440
29.75239 417
29.7725 402
29.79262 412
29.81273 409
29.83285 393
29.85296 417
29.87307 407
29.89319 394
29.9133 418
29.93341 447
29.95353 391
29.97364 428
29.99376 388
30.01387 404
30.03398 428
30.0541 416
30.07421 420
30.09432 482
30.11444 407
30.13455 382
30.15467 448
30.17478 432
30.19489 431
30.21501 415
30.23512 484
30.25523 425
30.27535 449
30.29546 435
30.31557 403
30.33569 350
30.3558 402
30.37592 416
30.39603 402
30.41614 398
30.43626 418
30.45637 389
30.47648 393
30.4966 402
30.51671 405
30.53683 448
30.55694 405
30.57705 421
30.59717 362
30.61728 405
30.63739 427
30.65751 429
30.67762 413
30.69773 440
30.71785 427
30.73796 422
30.75808 430
30.77819 437
30.7983 428
30.81842 437
30.83853 409
30.85864 409
30.87876 416
30.89887 397
30.91899 417
30.9391 402
30.95921 413
30.97933 415
30.99944 406
31.01955 384
31.03967 414
31.05978 409
31.0799 425
31.10001 410
31.12012 373
31.14024 417
31.16035 422
31.18046 407
31.20058 407
31.22069 386
31.2408 430
31.26092 380
31.28103 404
31.30115 373
31.32126 396
31.34137 389
31.36149 432
31.3816 417
31.40171 393
31.42183 410
31.44194 423
31.46206 407
31.48217 432
31.50228 370
31.5224 407
31.54251 390
31.56262 406
31.58274 390
31.60285 394
31.62297 432
31.64308 392
31.66319 423
31.68331 451
31.70342 378
31.72353 391
31.74365 400
31.76376 388
31.78387 407
31.80399 403
31.8241 372
31.84422 412
31.86433 421
31.88444 433
31.90456 382
31.92467 401
31.94478 426
31.9649 469
31.98501 416
32.00513 416
32.02524 460
32.04535 390
32.06547 438
32.08558 389
32.10569 422
32.12581 413
32.14592 458
32.16604 461
32.18615 441
32.20626 426
32.22638 404
32.24649 395
32.2666 430
32.28672 448
32.30683 459
32.32694 399
32.34706 460
32.36717 499
32.38729 419
32.4074 417
32.42751 463
32.44763 444
32.46774 483
32.48785 369
32.50797 479
32.52808 445
32.5482 478
32.56831 466
32.58842 417
32.60854 425
32.62865 434
32.64876 423
32.66888 428
32.68899 430
32.7091 461
32.72922 476
32.74933 438
32.76945 453
32.78956 493
32.80967 486
32.82979 501
32.8499 485
32.87001 501
32.89013 506
32.91024 493
32.93036 547
32.95047 566
32.97058 527
32.9907 544
33.01081 523
33.03092 584
33.05104 570
33.07115 551
33.09127 568
33.11138 562
33.13149 562
33.15161 614
33.17172 574
33.19183 538
33.21195 537
33.23206 581
33.25217 574
33.27229 551
33.2924 607
33.31252 530
33.33263 528
33.35274 554
33.37286 525
33.39297 496
33.41308 542
33.4332 529
33.45331 545
33.47343 516
33.49354 500
33.51365 501
33.53377 491
33.55388 451
33.57399 466
33.59411 508
33.61422 522
33.63434 476
33.65445 467
33.67456 485
33.69468 467
33.71479 488
33.7349 449
33.75502 429
33.77513 476
33.79524 452
33.81536 456
33.83547 486
33.85559 416
33.8757 398
33.89581 422
33.91593 457
33.93604 398
33.95615 440
33.97627 449
33.99638 435
34.0165 412
34.03661 402
34.05672 430
34.07684 434
34.09695 425
34.11706 423
34.13718 424
34.15729 443
34.17741 415
34.19752 407
34.21763 441
34.23775 428
34.25786 413
34.27797 409
34.29809 452
34.3182 439
34.33831 470
34.35843 433
34.37854 475
34.39866 455
34.41877 417
34.43888 432
34.459 411
34.47911 418
34.49922 453
34.51934 491
34.53945 460
34.55957 442
34.57968 455
34.59979 484
34.61991 489
34.64002 495
34.66013 507
34.68025 506
34.70036 545
34.72047 551
34.74059 569
34.7607 573
34.78082 582
34.80093 566
34.82104 617
34.84116 635
34.86127 606
34.88138 626
34.9015 618
34.92161 609
34.94173 602
34.96184 609
34.98195 627
35.00207 605
35.02218 653
35.04229 606
35.06241 604
35.08252 584
35.10264 543
35.12275 547
35.14286 544
35.16298 574
35.18309 532
35.2032 614
35.22332 548
35.24343 529
35.26354 593
35.28366 606
35.30377 544
35.32389 550
35.344 582
35.36411 605
35.38423 580
35.40434 635
35.42445 635
35.44457 639
35.46468 632
35.4848 658
35.50491 666
35.52502 677
35.54514 682
35.56525 688
35.58536 661
35.60548 702
35.62559 673
35.64571 699
35.66582 759
35.68593 706
35.70605 669
35.72616 697
35.74627 700
35.76639 690
35.7865 744
35.80661 677
35.82673 644
35.84684 647
35.86696 709
35.88707 650
35.90718 645
35.9273 616
35.94741 646
35.96752 606
35.98764 596
36.00775 590
36.02787 593
36.04798 536
36.06809 586
36.08821 537
36.10832 544
36.12843 560
36.14855 511
36.16866 523
36.18878 510
36.20889 612
36.229 611
36.24912 593
36.26923 604
36.28934 642
36.30946 716
36.32957 730
36.34968 786
36.3698 865
36.38991 1055
36.41003 1171
36.43014 1289
36.45025 1505
36.47037 1590
36.49048 1515
36.51059 1435
36.53071 1363
36.55082 1293
36.57094 1059
36.59105 1017
36.61116 844
36.63128 740
36.65139 659
36.6715 668
36.69162 606
36.71173 600
36.73184 560
36.75196 548
36.77207 544
36.79219 601
36.8123 611
36.83241 566
36.85253 594
36.87264 608
36.89275 588
36.91287 568
36.93298 618
36.9531 562
36.97321 564
36.99332 583
37.01344 538
37.03355 542
37.05366 588
37.07378 524
37.09389 520
37.11401 540
37.13412 511
37.15423 510
37.17435 509
37.19446 488
37.21457 481
37.23469 451
37.2548 502
37.27491 439
37.29503 470
37.31514 462
37.33526 439
37.35537 443
37.37548 489
37.3956 492
37.41571 501
37.43582 497
37.45594 480
37.47605 480
37.49617 492
37.51628 503
37.53639 487
37.55651 473
37.57662 502
37.59673 493
37.61685 492
37.63696 544
37.65708 474
37.67719 487
37.6973 523
37.71742 511
37.73753 544
37.75764 466
37.77776 455
37.79787 528
37.81798 470
37.8381 545
37.85821 525
37.87833 509
37.89844 527
37.91855 495
37.93867 476
37.95878 497
37.97889 461
37.99901 500
38.01912 459
38.03924 543
38.05935 505
38.07946 538
38.09958 489
38.11969 540
38.1398 577
38.15992 590
38.18003 572
38.20015 553
38.22026 599
38.24037 602
38.26049 608
38.2806 616
38.30071 653
38.32083 684
38.34094 604
38.36105 665
38.38117 660
38.40128 628
38.4214 647
38.44151 591
38.46162 636
38.48174 619
38.50185 650
38.52196 568
38.54208 560
38.56219 539
38.58231 548
38.60242 539
38.62253 535
38.64265 502
38.66276 525
38.68287 502
38.70299 524
38.7231 522
38.74321 578
38.76333 471
38.78344 471
38.80356 494
38.82367 500
38.84378 537
38.8639 533
38.88401 520
38.90412 496
38.92424 522
38.94435 516
38.96447 520
38.98458 587
39.00469 535
39.02481 537
39.04492 537
39.06503 535
39.08515 508
39.10526 511
39.12538 599
39.14549 611
39.1656 628
39.18572 596
39.20583 682
39.22594 678
39.24606 717
39.26617 733
39.28628 848
39.3064 956
39.32651 1070
39.34663 1246
39.36674 1365
39.38685 1521
39.40697 1590
39.42708 1568
39.44719 1387
39.46731 1199
39.48742 1156
39.50754 1137
39.52765 919
39.54776 837
39.56788 665
39.58799 538
39.6081 522
39.62822 479
39.64833 426
39.66845 469
39.68856 502
39.70867 425
39.72879 435
39.7489 459
39.76901 493
39.78913 481
39.80924 466
39.82935 443
39.84947 470
39.86958 439
39.8897 475
39.90981 465
39.92992 468
39.95004 468
39.97015 526
39.99026 466
40.01038 498
40.03049 538
40.05061 445
40.07072 566
40.09083 589
40.11095 651
40.13106 661
40.15117 779
40.17129 795
40.1914 822
40.21152 923
40.23163 874
40.25174 856
40.27186 872
40.29197 766
40.31208 727
40.3322 741
40.35231 641
40.37242 631
40.39254 577
40.41265 531
40.43277 517
40.45288 495
40.47299 479
40.49311 467
40.51322 509
40.53333 475
40.55345 462
40.57356 466
40.59368 407
40.61379 515
40.6339 475
40.65402 482
40.67413 448
40.69424 467
40.71436 504
40.73447 473
40.75458 473
40.7747 450
40.79481 519
40.81493 515
40.83504 498
40.85515 492
40.87527 465
40.89538 492
40.91549 465
40.93561 478
40.95572 493
40.97584 428
40.99595 455
41.01606 477
41.03618 493
41.05629 489
41.0764 449
41.09652 466
41.11663 409
41.13675 449
41.15686 462
41.17697 464
41.19709 456
41.2172 452
41.23731 448
41.25743 461
41.27754 474
41.29765 477
41.31777 441
41.33788 441
41.358 458
41.37811 465
41.39822 442
41.41834 439
41.43845 460
41.45856 460
41.47868 456
41.49879 401
41.51891 469
41.53902 453
41.55913 444
41.57925 410
41.59936 446
41.61947 468
41.63959 403
41.6597 409
41.67982 419
41.69993 446
41.72004 441
41.74016 474
41.76027 433
41.78038 401
41.8005 468
41.82061 420
41.84072 470
41.86084 417
41.88095 427
41.90107 436
41.92118 391
41.94129 383
41.96141 408
41.98152 437
42.00163 415
42.02175 426
42.04186 439
42.06198 417
42.08209 411
42.1022 455
42.12232 438
42.14243 423
42.16254 450
42.18266 503
42.20277 499
42.22289 530
42.243 613
42.26311 649
42.28323 735
42.30334 836
42.32345 939
42.34357 1006
42.36368 1068
42.38379 1077
42.40391 1091
42.42402 967
42.44414 899
42.46425 826
42.48436 795
42.50448 733
42.52459 654
42.5447 559
42.56482 531
42.58493 482
42.60505 402
42.62516 430
42.64527 409
42.66539 407
42.6855 436
42.70561 362
42.72573 402
42.74584 380
42.76595 401
42.78607 378
42.80618 386
42.8263 369
42.84641 407
42.86652 441
42.88664 348
42.90675 369
42.92686 378
42.94698 369
42.96709 374
42.98721 367
43.00732 369
43.02743 411
43.04755 384
43.06766 401
43.08777 396
43.10789 370
43.128 368
43.14812 387
43.16823 411
43.18834 357
43.20846 400
43.22857 399
43.24868 370
43.2688 385
43.28891 394
43.30902 395
43.32914 355
43.34925 413
43.36937 389
43.38948 383
43.40959 400
43.42971 400
43.44982 376
43.46993 369
43.49005 414
43.51016 373
43.53028 391
43.55039 424
43.5705 416
43.59062 368
43.61073 402
43.63084 383
43.65096 365
43.67107 346
43.69119 392
43.7113 358
43.73141 360
43.75153 367
43.77164 432
43.79175 376
43.81187 378
43.83198 374
43.85209 411
43.87221 372
43.89232 404
43.91244 406
43.93255 358
43.95266 402
43.97278 390
43.99289 371
44.013 351
44.03312 356
44.05323 419
44.07335 367
44.09346 403
44.11357 386
44.13369 398
44.1538 380
44.17391 402
44.19403 394
44.21414 375
44.23426 364
44.25437 360
44.27448 408
44.2946 380
44.31471 368
44.33482 378
44.35494 374
44.37505 413
44.39516 388
44.41528 390
44.43539 378
44.45551 359
44.47562 428
44.49573 364
44.51585 398
44.53596 394
44.55607 384
44.57619 365
44.5963 404
44.61642 410
44.63653 359
44.65664 360
44.67676 408
44.69687 416
44.71698 385
44.7371 430
44.75721 415
44.77732 369
44.79744 409
44.81755 406
44.83767 385
44.85778 376
44.87789 373
44.89801 414
44.91812 371
44.93823 399
44.95835 427
44.97846 387
44.99858 381
45.01869 401
45.0388 427
45.05892 407
45.07903 417
45.09914 392
45.11926 435
45.13937 408
45.15949 447
45.1796 412
45.19971 416
45.21983 417
45.23994 423
45.26005 480
45.28017 413
45.30028 443
45.32039 452
45.34051 463
45.36062 429
45.38074 485
45.40085 413
45.42096 450
45.44108 459
45.46119 514
45.4813 467
45.50142 502
45.52153 480
45.54165 504
45.56176 522
45.58187 535
45.60199 629
45.6221 642
45.64221 708
45.66233 787
45.68244 849
45.70256 813
45.72267 882
45.74278 839
45.7629 810
45.78301 727
45.80312 687
45.82324 645
45.84335 645
45.86346 610
45.88358 565
45.90369 496
45.92381 478
45.94392 458
45.96403 398
45.98415 449
46.00426 444
46.02437 424
46.04449 426
46.0646 434
46.08472 430
46.10483 396
46.12494 372
46.14506 391
46.16517 433
46.18528 424
46.2054 410
46.22551 370
46.24563 372
46.26574 373
46.28585 397
46.30597 406
46.32608 411
46.34619 418
46.36631 372
46.38642 401
46.40653 414
46.42665 407
46.44676 411
46.46688 376
46.48699 421
46.5071 403
46.52722 439
46.54733 419
46.56744 388
46.58756 388
46.60767 376
46.62779 401
46.6479 410
46.66801 408
46.68813 425
46.70824 384
46.72835 403
46.74847 371
46.76858 402
46.78869 398
46.80881 410
46.82892 399
46.84904 408
46.86915 390
46.88926 425
46.90938 390
46.92949 416
46.9496 397
46.96972 408
46.98983 427
47.00995 412
47.03006 366
47.05017 403
47.07029 404
47.0904 395
47.11051 380
47.13063 407
47.15074 372
47.17086 417
47.19097 408
47.21108 393
47.2312 403
47.25131 395
47.27142 405
47.29154 383
47.31165 417
47.33176 359
47.35188 382
47.37199 392
47.39211 405
47.41222 423
47.43233 374
47.45245 413
47.47256 384
47.49267 416
47.51279 406
47.5329 408
47.55302 406
47.57313 408
47.59324 417
47.61336 416
47.63347 400
47.65358 387
47.6737 430
47.69381 402
47.71393 388
47.73404 392
47.75415 403
47.77427 400
47.79438 391
47.81449 404
47.83461 450
47.85472 449
47.87483 422
47.89495 408
47.91506 409
47.93518 398
47.95529 420
47.9754 398
47.99552 397
48.01563 431
48.03574 377
48.05586 421
48.07597 383
48.09609 418
48.1162 413
48.13631 402
48.15643 399
48.17654 410
48.19665 387
48.21677 383
48.23688 392
48.257 393
48.27711 375
48.29722 407
48.31734 388
48.33745 406
48.35756 406
48.37768 403
48.39779 396
48.4179 410
48.43802 427
48.45813 421
48.47825 391
48.49836 387
48.51847 404
48.53859 398
48.5587 395
48.57881 391
48.59893 386
48.61904 372
48.63916 391
48.65927 402
48.67938 385
48.6995 368
48.71961 422
48.73972 409
48.75984 423
48.77995 425
48.80006 392
48.82018 407
48.84029 404
48.86041 406
48.88052 433
48.90063 404
48.92075 387
48.94086 412
48.96097 407
48.98109 444
49.0012 416
49.02132 421
49.04143 404
49.06154 411
49.08166 437
49.10177 423
49.12188 439
49.142 431
49.16211 463
49.18223 425
49.20234 412
49.22245 470
49.24257 395
49.26268 461
49.28279 454
49.30291 464
49.32302 452
49.34313 459
49.36325 420
49.38336 473
49.40348 450
49.42359 435
49.4437 422
49.46382 458
49.48393 455
49.50404 471
49.52416 483
49.54427 470
49.56439 437
49.5845 485
49.60461 469
49.62473 469
49.64484 454
49.66495 474
49.68507 501
49.70518 511
49.7253 500
49.74541 540
49.76552 509
49.78564 526
49.80575 586
49.82586 561
49.84598 636
49.86609 673
49.8862 673
49.90632 799
49.92643 920
49.94655 987
49.96666 1117
49.98677 1294
50.00689 1528
50.027 1784
50.04711 2007
50.06723 2134
50.08734 1924
50.10746 1795
50.12757 1589
50.14768 1446
50.1678 1289
50.18791 1282
50.20802 1191
50.22814 1077
50.24825 890
50.26837 846
50.28848 622
50.30859 624
50.32871 540
50.34882 492
50.36893 465
50.38905 495
50.40916 428
50.42927 490
50.44939 462
50.4695 464
50.48962 467
50.50973 457
50.52984 510
50.54996 497
50.57007 491
50.59018 437
50.6103 422
50.63041 421
50.65053 428
50.67064 413
50.69075 437
50.71087 441
50.73098 425
50.75109 416
50.77121 450
50.79132 406
50.81143 414
50.83155 435
50.85166 456
50.87178 414
50.89189 448
50.912 437
50.93212 388
50.95223 420
50.97234 410
50.99246 470
51.01257 404
51.03269 408
51.0528 438
51.07291 373
51.09303 416
51.11314 423
51.13325 432
51.15337 413
51.17348 394
51.1936 435
51.21371 383
51.23382 372
51.25394 395
51.27405 432
51.29416 387
51.31428 397
51.33439 389
51.3545 393
51.37462 394
51.39473 355
51.41485 393
51.43496 393
51.45507 361
51.47519 397
51.4953 379
51.51541 373
51.53553 381
51.55564 391
51.57576 390
51.59587 412
51.61598 393
51.6361 393
51.65621 360
51.67632 391
51.69644 358
51.71655 381
51.73667 385
51.75678 379
51.77689 369
51.79701 374
51.81712 373
51.83723 418
51.85735 358
51.87746 380
51.89757 363
51.91769 355
51.9378 343
51.95792 379
51.97803 393
51.99814 372
52.01826 354
52.03837 372
52.05848 408
52.0786 386
52.09871 379
52.11883 391
52.13894 373
52.15905 372
52.17917 411
52.19928 344
52.21939 371
52.23951 366
52.25962 398
52.27974 400
52.29985 395
52.31996 406
52.34008 342
52.36019 369
52.3803 407
52.40042 374
52.42053 376
52.44064 401
52.46076 392
52.48087 368
52.50099 379
52.5211 368
52.54121 398
52.56133 339
52.58144 369
52.60155 383
52.62167 420
52.64178 375
52.6619 355
52.68201 400
52.70212 358
52.72224 391
52.74235 380
52.76246 361
52.78258 397
52.80269 381
52.8228 376
52.84292 383
52.86303 376
52.88315 378
52.90326 427
52.92337 384
52.94349 393
52.9636 414
52.98371 414
53.00383 380
53.02394 387
53.04406 368
53.06417 399
53.08428 392
53.1044 398
53.12451 427
53.14462 395
53.16474 432
53.18485 416
53.20497 429
53.22508 435
53.24519 423
53.26531 428
53.28542 459
53.30553 408
53.32565 450
53.34576 447
53.36587 467
53.38599 433
53.4061 459
53.42622 422
53.44633 468
53.46644 501
53.48656 472
53.50667 453
53.52678 500
53.5469 483
53.56701 488
53.58713 505
53.60724 500
53.62735 480
53.64747 468
53.66758 491
53.68769 503
53.70781 461
53.72792 485
53.74804 514
53.76815 474
53.78826 478
53.80838 493
53.82849 509
53.8486 531
53.86872 515
53.88883 531
53.90894 521
53.92906 505
53.94917 514
53.96929 451
53.9894 496
54.00951 507
54.02963 514
54.04974 508
54.06985 509
54.08997 475
54.11008 512
54.1302 500
54.15031 523
54.17042 496
54.19054 496
54.21065 507
54.23076 478
54.25088 545
54.27099 496
54.29111 525
54.31122 518
54.33133 489
54.35145 514
54.37156 473
54.39167 551
54.41179 476
54.4319 512
54.45201 476
54.47213 509
54.49224 490
54.51236 518
54.53247 504
54.55258 553
54.5727 535
54.59281 582
54.61292 549
54.63304 548
54.65315 585
54.67327 697
54.69338 687
54.71349 680
54.73361 845
54.75372 865
54.77383 880
54.79395 965
54.81406 880
54.83417 826
54.85429 861
54.8744 803
54.89452 769
54.91463 730
54.93474 704
54.95486 699
54.97497 723
54.99508 678
55.0152 613
55.03531 573
55.05543 548
55.07554 519
55.09565 588
55.11577 545
55.13588 539
55.15599 591
55.17611 636
55.19622 625
55.21634 659
55.23645 645
55.25656 652
55.27668 649
55.29679 637
55.3169 563
55.33702 550
55.35713 607
55.37724 598
55.39736 572
55.41747 545
55.43759 536
55.4577 471
55.47781 448
55.49793 479
55.51804 428
55.53815 470
55.55827 445
55.57838 477
55.5985 407
55.61861 426
55.63872 418
55.65884 433
55.67895 415
55.69906 423
55.71918 437
55.73929 441
55.75941 435
55.77952 419
55.79963 402
55.81975 436
55.83986 422
55.85997 439
55.88009 437
55.9002 387
55.92031 397
55.94043 444
55.96054 404
55.98066 416
56.00077 367
56.02088 398
56.041 434
56.06111 396
56.08122 412
56.10134 387
56.12145 409
56.14157 393
56.16168 402
56.18179 403
56.20191 391
56.22202 419
56.24213 402
56.26225 402
56.28236 428
56.30248 455
56.32259 396
56.3427 433
56.36282 432
56.38293 425
56.40304 403
56.42316 420
56.44327 391
56.46338 412
56.4835 418
56.50361 429
56.52373 424
56.54384 412
56.56395 403
56.58407 409
56.60418 407
56.62429 425
56.64441 410
56.66452 438
56.68464 432
56.70475 461
56.72486 454
56.74498 405
56.76509 394
56.7852 424
56.80532 428
56.82543 419
56.84554 397
56.86566 425
56.88577 433
56.90589 433
56.926 392
56.94611 403
56.96623 382
56.98634 394
57.00645 418
57.02657 438
57.04668 431
57.0668 401
57.08691 434
57.10702 417
57.12714 416
57.14725 392
57.16736 432
57.18748 425
57.20759 393
57.22771 406
57.24782 420
57.26793 415
57.28805 395
57.30816 426
57.32827 393
57.34839 434
57.3685 416
57.38861 386
57.40873 406
57.42884 390
57.44896 419
57.46907 398
57.48918 382
57.5093 383
57.52941 380
57.54952 421
57.56964 411
57.58975 412
57.60987 412
57.62998 400
57.65009 389
57.67021 408
57.69032 381
57.71043 382
57.73055 350
57.75066 398
57.77078 399
57.79089 415
57.811 424
57.83112 404
57.85123 415
57.87134 398
57.89146 389
57.91157 414
57.93168 382
57.9518 409
57.97191 415
57.99203 393
58.01214 416
58.03225 448
58.05237 396
58.07248 369
58.09259 391
58.11271 405
58.13282 378
58.15294 408
58.17305 391
58.19316 382
58.21328 361
58.23339 403
58.2535 428
58.27362 364
58.29373 380
58.31385 401
58.33396 398
58.35407 407
58.37419 400
58.3943 422
58.41441 432
58.43453 372
58.45464 400
58.47475 408
58.49487 383
58.51498 408
58.5351 404
58.55521 390
58.57532 401
58.59544 384
58.61555 370
58.63566 415
58.65578 337
58.67589 379
58.69601 368
58.71612 402
58.73623 378
58.75635 409
58.77646 414
58.79657 403
58.81669 425
58.8368 372
58.85691 409
58.87703 424
58.89714 371
58.91726 391
58.93737 379
58.95748 389
58.9776 355
58.99771 375
59.01782 376
59.03794 399
59.05805 402
59.07817 391
59.09828 399
59.11839 419
59.13851 402
59.15862 422
59.17873 403
59.19885 428
59.21896 406
59.23908 380
59.25919 421
59.2793 445
59.29942 422
59.31953 432
59.33964 426
59.35976 444
59.37987 421
59.39998 447
59.4201 475
59.44021 422
59.46033 492
59.48044 471
59.50055 466
59.52067 466
59.54078 458
59.56089 451
59.58101 520
59.60112 503
59.62124 500
59.64135 529
59.66146 573
59.68158 616
59.70169 639
59.7218 697
59.74192 749
59.76203 815
59.78215 980
59.80226 1100
59.82237 1177
59.84249 1297
59.8626 1435
59.88271 1429
59.90283 1391
59.92294 1253
59.94305 1137
59.96317 1053
59.98328 988
60.0034 1000
60.02351 945
60.04362 913
60.06374 879
60.08385 844
60.10396 739
60.12408 595
60.14419 556
60.16431 525
60.18442 451
60.20453 444
60.22465 427
60.24476 422
60.26487 388
60.28499 399
60.3051 400
60.32522 382
60.34533 421
60.36544 410
60.38556 409
60.40567 368
60.42578 436
60.4459 399
60.46601 387
60.48612 385
60.50624 431
60.52635 384
60.54647 415
60.56658 383
60.58669 390
60.60681 399
60.62692 391
60.64703 401
60.66715 418
60.68726 399
60.70738 411
60.72749 391
60.7476 374
60.76772 356
60.78783 391
60.80794 385
60.82806 357
60.84817 408
60.86828 424
60.8884 371
60.90851 381
60.92863 384
60.94874 383
60.96885 402
60.98897 370
61.00908 369
61.02919 352
61.04931 400
61.06942 394
61.08954 411
61.10965 365
61.12976 376
61.14988 401
61.16999 421
61.1901 387
61.21022 381
61.23033 364
61.25045 401
61.27056 386
61.29067 409
61.31079 388
61.3309 366
61.35101 413
61.37113 413
61.39124 421
61.41135 422
61.43147 387
61.45158 386
61.4717 428
61.49181 406
61.51192 395
61.53204 415
61.55215 420
61.57226 397
61.59238 430
61.61249 415
61.63261 422
61.65272 376
61.67283 376
61.69295 439
61.71306 421
61.73317 406
61.75329 406
61.7734 426
61.79352 464
61.81363 419
61.83374 443
61.85386 425
61.87397 434
61.89408 441
61.9142 448
61.93431 489
61.95442 455
61.97454 462
61.99465 457
62.01477 495
62.03488 527
62.05499 518
62.07511 506
62.09522 543
62.11533 517
62.13545 546
62.15556 561
62.17568 549
62.19579 529
62.2159 569
62.23602 580
62.25613 558
62.27624 520
62.29636 559
62.31647 553
62.33659 554
62.3567 519
62.37681 489
62.39693 532
62.41704 522
62.43715 483
62.45727 481
62.47738 476
62.49749 491
62.51761 472
62.53772 458
62.55784 452
62.57795 454
62.59806 468
62.61818 447
62.63829 400
62.6584 446
62.67852 437
62.69863 433
62.71875 465
62.73886 430
62.75897 451
62.77909 383
62.7992 425
62.81931 394
62.83943 368
62.85954 412
62.87965 401
62.89977 425
62.91988 395
62.94 400
62.96011 391
62.98022 389
63.00034 411
63.02045 399
63.04056 391
63.06068 393
63.08079 408
63.10091 406
63.12102 402
63.14113 411
63.16125 399
63.18136 425
63.20147 405
63.22159 435
63.2417 401
63.26182 400
63.28193 401
63.30204 421
63.32216 446
63.34227 389
63.36238 411
63.3825 429
63.40261 392
63.42272 388
63.44284 430
63.46295 404
63.48307 378
63.50318 396
63.52329 446
63.54341 417
63.56352 401
63.58363 423
63.60375 421
63.62386 407
63.64398 406
63.66409 427
63.6842 434
63.70432 450
63.72443 453
63.74454 458
63.76466 448
63.78477 476
63.80489 488
63.825 532
63.84511 535
63.86523 528
63.88534 535
63.90545 595
63.92557 683
63.94568 601
63.96579 696
63.98591 651
64.00602 648
64.02614 601
64.04625 534
64.06636 553
64.08648 569
64.10659 537
64.1267 561
64.14682 568
64.16693 499
64.18705 524
64.20716 493
64.22727 473
64.24739 451
64.2675 472
64.28761 428
64.30773 430
64.32784 430
64.34796 444
64.36807 430
64.38818 411
64.4083 396
64.42841 381
64.44852 385
64.46864 410
64.48875 407
64.50886 398
64.52898 387
64.54909 378
64.56921 391
64.58932 394
64.60943 403
64.62955 402
64.64966 404
64.66977 386
64.68989 381
64.71 359
64.73012 387
64.75023 382
64.77034 372
64.79046 380
64.81057 360
64.83068 373
64.8508 391
64.87091 377
64.89102 410
64.91114 378
64.93125 393
64.95137 387
64.97148 401
64.99159 377
65.01171 406
65.03182 389
65.05193 353
65.07205 387
65.09216 394
65.11228 396
65.13239 376
65.1525 379
65.17262 381
65.19273 389
65.21284 363
65.23296 371
65.25307 378
65.27319 393
65.2933 368
65.31341 368
65.33353 371
65.35364 361
65.37375 387
65.39387 385
65.41398 399
65.43409 375
65.45421 409
65.47432 383
65.49444 401
65.51455 404
65.53466 387
65.55478 344
65.57489 391
65.595 419
65.61512 403
65.63523 373
65.65535 389
65.67546 408
65.69557 421
65.71569 415
65.7358 406
65.75591 397
65.77603 398
65.79614 394
65.81626 384
65.83637 374
65.85648 418
65.8766 401
65.89671 375
65.91682 401
65.93694 419
65.95705 369
65.97716 354
65.99728 351
66.01739 391
66.03751 394
66.05762 379
66.07773 362
66.09785 377
66.11796 378
66.13807 348
66.15819 362
66.1783 400
66.19842 369
66.21853 376
66.23864 390
66.25876 402
66.27887 360
66.29898 385
66.3191 361
66.33921 423
66.35933 387
66.37944 366
66.39955 383
66.41967 378
66.43978 361
66.45989 379
66.48001 358
66.50012 367
66.52023 402
66.54035 389
66.56046 372
66.58058 389
66.60069 370
66.6208 383
66.64092 377
66.66103 389
66.68114 356
66.70126 362
66.72137 408
66.74149 384
66.7616 405
66.78171 378
66.80183 370
66.82194 375
66.84205 365
66.86217 378
66.88228 393
66.90239 381
66.92251 358
66.94262 376
66.96274 375
66.98285 411
67.00296 387
67.02308 401
67.04319 406
67.0633 387
67.08342 375
67.10353 371
67.12365 399
67.14376 401
67.16387 380
67.18399 405
67.2041 404
67.22421 390
67.24433 372
67.26444 406
67.28456 419
67.30467 446
67.32478 395
67.3449 423
67.36501 430
67.38512 428
67.40524 484
67.42535 445
67.44546 498
67.46558 522
67.48569 498
67.50581 587
67.52592 620
67.54603 627
67.56615 731
67.58626 801
67.60637 831
67.62649 932
67.6466 942
67.66672 970
67.68683 973
67.70694 899
67.72706 821
67.74717 738
67.76728 742
67.7874 724
67.80751 671
67.82763 771
67.84774 808
67.86785 801
67.88797 795
67.90808 812
67.92819 773
67.94831 834
67.96842 857
67.98853 977
68.00865 1067
68.02876 1129
68.04888 1186
68.06899 1221
68.0891 1265
68.10922 1192
68.12933 1064
68.14944 1010
68.16956 1043
68.18967 1056
68.20979 1157
68.2299 1146
68.25001 1179
68.27013 1093
68.29024 987
68.31035 937
68.33047 772
68.35058 716
68.3707 651
68.39081 618
68.41092 653
68.43104 612
68.45115 602
68.47126 551
68.49138 474
68.51149 457
68.5316 441
68.55172 422
68.57183 441
68.59195 414
68.61206 380
68.63217 428
68.65229 408
68.6724 389
68.69251 371
68.71263 387
68.73274 404
68.75286 389
68.77297 380
68.79308 384
68.8132 416
68.83331 382
68.85342 408
68.87354 406
68.89365 374
68.91376 389
68.93388 373
68.95399 406
68.97411 384
68.99422 361
69.01433 399
69.03445 401
69.05456 353
69.07467 413
69.09479 375
69.1149 393
69.13502 403
69.15513 373
69.17524 377
69.19536 380
69.21547 357
69.23558 358
69.2557 354
69.27581 386
69.29593 369
69.31604 374
69.33615 355
69.35627 371
69.37638 363
69.39649 384
69.41661 344
69.43672 343
69.45683 379
69.47695 362
69.49706 376
69.51718 395
69.53729 378
69.5574 393
69.57752 377
69.59763 367
69.61774 367
69.63786 362
69.65797 383
69.67809 342
69.6982 357
69.71831 405
69.73843 378
69.75854 387
69.77865 386
69.79877 404
69.81888 376
69.839 368
69.85911 401
69.87922 368
69.89934 384
69.91945 380
69.93956 373
69.95968 377
69.97979 402
69.9999 356
70.02002 393
70.04013 364
70.06025 397
70.08036 373
70.10047 398
70.12059 364
70.1407 375
70.16081 413
70.18093 398
70.20104 355
70.22116 364
70.24127 382
70.26138 386
70.2815 380
70.30161 374
70.32172 358
70.34184 373
70.36195 364
70.38207 356
70.40218 363
70.42229 400
70.44241 380
70.46252 356
70.48263 371
70.50275 379
70.52286 349
70.54297 365
70.56309 391
70.5832 373
70.60332 369
70.62343 324
70.64354 351
70.66366 378
70.68377 334
70.70388 356
70.724 391
70.74411 345
70.76423 364
70.78434 406
70.80445 367
70.82457 367
70.84468 338
70.86479 352
70.88491 368
70.90502 359
70.92513 350
70.94525 353
70.96536 375
70.98548 330
71.00559 329
71.0257 386
71.04582 362
71.06593 371
71.08604 354
71.10616 371
71.12627 355
71.14639 373
71.1665 369
71.18661 366
71.20673 405
71.22684 370
71.24695 387
71.26707 360
71.28718 384
71.3073 376
71.32741 391
71.34752 344
71.36764 372
71.38775 362
71.40786 343
71.42798 365
71.44809 385
71.4682 350
71.48832 348
71.50843 378
71.52855 390
71.54866 387
71.56877 395
71.58889 388
71.609 394
71.62911 393
71.64923 389
71.66934 377
71.68946 393
71.70957 387
71.72968 381
71.7498 387
71.76991 359
71.79002 379
71.81014 394
71.83025 414
71.85037 361
71.87048 371
71.89059 397
71.91071 346
71.93082 372
71.95093 385
71.97105 368
71.99116 420
72.01127 389
72.03139 392
72.0515 395
72.07162 366
72.09173 404
72.11184 360
72.13196 371
72.15207 355
72.17218 350
72.1923 382
72.21241 339
72.23253 396
72.25264 388
72.27275 365
72.29287 367
72.31298 384
72.33309 398
72.35321 391
72.37332 381
72.39344 400
72.41355 392
72.43366 400
72.45378 383
72.47389 389
72.494 358
72.51412 381
72.53423 335
72.55434 370
72.57446 397
72.59457 376
72.61469 418
72.6348 308
72.65491 332
72.67503 349
72.69514 382
72.71525 354
72.73537 358
72.75548 350
72.7756 382
72.79571 370
72.81582 350
72.83594 355
72.85605 357
72.87616 356
72.89628 380
72.91639 368
72.9365 368
72.95662 384
72.97673 366
72.99685 371
73.01696 369
73.03707 355
73.05719 370
73.0773 381
73.09741 397
73.11753 399
73.13764 371
73.15776 373
73.17787 381
73.19798 404
73.2181 415
73.23821 407
73.25832 422
73.27844 486
73.29855 471
73.31867 515
73.33878 554
73.35889 585
73.37901 572
73.39912 572
73.41923 571
73.43935 525
73.45946 495
73.47957 468
73.49969 473
73.5198 484
73.53992 461
73.56003 482
73.58014 482
73.60026 484
73.62037 500
73.64048 447
73.6606 485
73.68071 430
73.70083 409
73.72094 392
73.74105 413
73.76117 412
73.78128 415
73.80139 388
73.82151 383
73.84162 393
73.86174 363
73.88185 374
73.90196 348
73.92208 368
73.94219 336
73.9623 378
73.98242 345
74.00253 390
74.02264 364
74.04276 353
74.06287 361
74.08299 356
74.1031 373
74.12321 373
74.14333 336
74.16344 384
74.18355 341
74.20367 365
74.22378 320
74.2439 365
74.26401 345
74.28412 377
74.30424 382
74.32435 329
74.34446 349
74.36458 388
74.38469 316
74.40481 350
74.42492 346
74.44503 361
74.46515 348
74.48526 366
74.50537 341
74.52549 341
74.5456 355
74.56571 352
74.58583 354
74.60594 360
74.62606 366
74.64617 334
74.66628 329
74.6864 355
74.70651 357
74.72662 366
74.74674 383
74.76685 357
74.78697 367
74.80708 355
74.82719 333
74.84731 365
74.86742 356
74.88753 364
74.90765 337
74.92776 359
74.94787 363
74.96799 375
74.9881 359
75.00822 348
