3.00117 20955
3.02128 20453
3.0414 19490
3.06151 18815
3.08162 18259
3.10174 18085
3.12185 17151
3.14197 17304
3.16208 16435
3.18219 15812
3.20231 15786
3.22242 15010
3.24253 14610
3.26265 14371
3.28276 13673
3.30288 13193
3.32299 12751
3.3431 12473
3.36322 11881
3.38333 11463
3.40344 11548
3.42356 10973
3.44367 10691
3.46379 10118
3.4839 9692
3.50401 9603
3.52413 9050
3.54424 8746
3.56435 8485
3.58447 8017
3.60458 7960
3.62469 7539
3.64481 7401
3.66492 6883
3.68504 6753
3.70515 6478
3.72526 6055
3.74538 6003
3.76549 5734
3.7856 5326
3.80572 5414
3.82583 4881
3.84595 4843
3.86606 4664
3.88617 4236
3.90629 4336
3.9264 3942
3.94651 3948
3.96663 3599
3.98674 3398
4.00686 3390
4.02697 3264
4.04708 3044
4.0672 2876
4.08731 2681
4.10742 2632
4.12754 2614
4.14765 2448
4.16776 2449
4.18788 2228
4.20799 2179
4.22811 2080
4.24822 2015
4.26833 1918
4.28845 1744
4.30856 1833
4.32867 1756
4.34879 1660
4.3689 1644
4.38902 1531
4.40913 1593
4.42924 1513
4.44936 1428
4.46947 1407
4.48958 1383
4.5097 1320
4.52981 1284
4.54992 1179
4.57004 1222
4.59015 1171
4.61027 1150
4.63038 1131
4.65049 1054
4.67061 1085
4.69072 1022
4.71083 1047
4.73095 1093
4.75106 948
4.77118 1008
4.79129 892
4.8114 986
4.83152 891
4.85163 822
4.87174 879
4.89186 790
4.91197 812
4.93209 838
4.9522 748
4.97231 747
4.99243 718
5.01254 703
5.03265 736
5.05277 678
5.07288 662
5.09299 632
5.11311 676
5.13322 630
5.15334 592
5.17345 581
5.19356 541
5.21368 558
5.23379 582
5.2539 497
5.27402 551
5.29413 503
5.31425 515
5.33436 502
5.35447 470
5.37459 499
5.3947 468
5.41481 463
5.43493 496
5.45504 448
5.47516 456
5.49527 379
5.51538 386
5.5355 393
5.55561 360
5.57572 370
5.59584 343
5.61595 389
5.63606 359
5.65618 373
5.67629 338
5.69641 342
5.71652 343
5.73663 310
5.75675 334
5.77686 313
5.79697 307
5.81709 265
5.8372 288
5.85732 311
5.87743 328
5.89754 284
5.91766 318
5.93777 278
5.95788 301
5.978 250
5.99811 276
6.01823 273
6.03834 273
6.05845 295
6.07857 242
6.09868 297
6.11879 257
6.13891 227
6.15902 293
6.17913 248
6.19925 207
6.21936 239
6.23948 236
6.25959 284
6.2797 247
6.29982 245
6.31993 279
6.34004 257
6.36016 232
6.38027 251
6.40039 247
6.4205 236
6.44061 245
6.46073 237
6.48084 259
6.50095 247
6.52107 221
6.54118 222
6.56129 212
6.58141 218
6.60152 229
6.62164 221
6.64175 235
6.66186 244
6.68198 242
6.70209 203
6.7222 257
6.74232 243
6.76243 212
6.78255 255
6.80266 246
6.82277 207
6.84289 240
6.863 207
6.88311 226
6.90323 204
6.92334 223
6.94346 220
6.96357 227
6.98368 208
7.0038 230
7.02391 232
7.04402 205
7.06414 222
7.08425 214
7.10436 206
7.12448 213
7.14459 220
7.16471 244
7.18482 200
7.20493 223
7.22505 218
7.24516 226
7.26527 259
7.28539 213
7.3055 237
7.32562 243
7.34573 213
7.36584 258
7.38596 210
7.40607 213
7.42618 213
7.4463 235
7.46641 208
7.48653 266
7.50664 232
7.52675 253
7.54687 247
7.56698 238
7.58709 255
7.60721 220
7.62732 211
7.64743 200
7.66755 190
7.68766 217
7.70778 199
7.72789 232
7.748 229
7.76812 235
7.78823 237
7.80834 222
7.82846 174
7.84857 230
7.86869 241
7.8888 222
7.90891 220
7.92903 213
7.94914 236
7.96925 214
7.98937 229
8.00948 222
8.0296 222
8.04971 194
8.06982 220
8.08994 212
8.11005 229
8.13016 230
8.15028 221
8.17039 226
8.1905 226
8.21062 231
8.23073 229
8.25085 254
8.27096 234
8.29107 232
8.31119 197
8.3313 227
8.35141 247
8.37153 244
8.39164 245
8.41176 244
8.43187 231
8.45198 226
8.4721 243
8.49221 225
8.51232 273
8.53244 213
8.55255 237
8.57266 239
8.59278 243
8.61289 237
8.63301 265
8.65312 256
8.67323 225
8.69335 238
8.71346 233
8.73357 283
8.75369 247
8.7738 245
8.79392 255
8.81403 322
8.83414 274
8.85426 285
8.87437 256
8.89448 245
8.9146 238
8.93471 256
8.95483 241
8.97494 223
8.99505 254
9.01517 251
9.03528 252
9.05539 240
9.07551 232
9.09562 235
9.11573 236
9.13585 251
9.15596 244
9.17608 240
9.19619 253
9.2163 243
9.23642 255
9.25653 267
9.27664 241
9.29676 252
9.31687 217
9.33699 259
9.3571 259
9.37721 283
9.39733 282
9.41744 269
9.43755 305
9.45767 316
9.47778 303
9.4979 336
9.51801 267
9.53812 231
9.55824 260
9.57835 255
9.59846 223
9.61858 259
9.63869 288
9.6588 251
9.67892 289
9.69903 230
9.71915 273
9.73926 273
9.75937 289
9.77949 325
9.7996 297
9.81971 306
9.83983 288
9.85994 261
9.88006 260
9.90017 244
9.92028 238
9.9404 224
9.96051 241
9.98062 242
10.00074 230
10.02085 229
10.04097 253
10.06108 242
10.08119 233
10.10131 243
10.12142 237
10.14153 215
10.16165 245
10.18176 245
10.20187 264
10.22199 232
10.2421 254
10.26222 249
10.28233 266
10.30244 252
10.32256 239
10.34267 231
10.36278 273
10.3829 250
10.40301 273
10.42313 246
10.44324 288
10.46335 294
10.48347 306
10.50358 314
10.52369 322
10.54381 337
10.56392 326
10.58403 301
10.60415 261
10.62426 251
10.64438 259
10.66449 260
10.6846 250
10.70472 255
10.72483 281
10.74494 270
10.76506 258
10.78517 238
10.80529 236
10.8254 235
10.84551 252
10.86563 219
10.88574 246
10.90585 278
10.92597 246
10.94608 234
10.9662 242
10.98631 217
11.00642 245
11.02654 232
11.04665 236
11.06676 247
11.08688 240
11.10699 263
11.1271 248
11.14722 244
11.16733 227
11.18745 232
11.20756 264
11.22767 229
11.24779 245
11.2679 231
11.28801 227
11.30813 260
11.32824 245
11.34836 259
11.36847 255
11.38858 239
11.4087 209
11.42881 261
11.44892 267
11.46904 246
11.48915 247
11.50927 244
11.52938 251
11.54949 252
11.56961 268
11.58972 268
11.60983 237
11.62995 244
11.65006 278
11.67017 249
11.69029 263
11.7104 270
11.73052 272
11.75063 256
11.77074 262
11.79086 261
11.81097 279
11.83108 266
11.8512 296
11.87131 257
11.89143 302
11.91154 269
11.93165 264
11.95177 278
11.97188 293
11.99199 259
12.01211 278
12.03222 328
12.05234 263
12.07245 273
12.09256 293
12.11268 288
12.13279 305
12.1529 312
12.17302 295
12.19313 308
12.21324 306
12.23336 273
12.25347 300
12.27359 283
12.2937 313
12.31381 269
12.33393 267
12.35404 285
12.37415 242
12.39427 253
12.41438 243
12.4345 275
12.45461 288
12.47472 275
12.49484 284
12.51495 262
12.53506 287
12.55518 271
12.57529 262
12.5954 253
12.61552 274
12.63563 251
12.65575 237
12.67586 278
12.69597 238
12.71609 260
12.7362 217
12.75631 222
12.77643 237
12.79654 259
12.81666 234
12.83677 227
12.85688 220
12.877 207
12.89711 225
12.91722 250
12.93734 244
12.95745 234
12.97757 241
12.99768 223
13.01779 244
13.03791 257
13.05802 238
13.07813 263
13.09825 229
13.11836 268
13.13847 257
13.15859 225
13.1787 217
13.19882 224
13.21893 249
13.23904 238
13.25916 219
13.27927 265
13.29938 203
13.3195 235
13.33961 216
13.35973 231
13.37984 202
13.39995 208
13.42007 240
13.44018 198
13.46029 245
13.48041 196
13.50052 231
13.52064 205
13.54075 248
13.56086 226
13.58098 287
13.60109 290
13.6212 298
13.64132 289
13.66143 313
13.68154 310
13.70166 255
13.72177 225
13.74189 195
13.762 226
13.78211 232
13.80223 207
13.82234 196
13.84245 226
13.86257 198
13.88268 246
13.9028 205
13.92291 214
13.94302 217
13.96314 204
13.98325 223
14.00336 188
14.02348 233
14.04359 210
14.06371 195
14.08382 208
14.10393 184
14.12405 196
14.14416 214
14.16427 185
14.18439 183
14.2045 204
14.22461 219
14.24473 212
14.26484 210
14.28496 187
14.30507 191
14.32518 208
14.3453 207
14.36541 213
14.38552 197
14.40564 190
14.42575 206
14.44587 186
14.46598 224
14.48609 204
14.50621 187
14.52632 210
14.54643 171
14.56655 170
14.58666 183
14.60677 195
14.62689 204
14.647 199
14.66712 207
14.68723 205
14.70734 202
14.72746 180
14.74757 228
14.76768 194
14.7878 221
14.80791 218
14.82803 217
14.84814 192
14.86825 211
14.88837 246
14.90848 241
14.92859 233
14.94871 234
14.96882 225
14.98894 245
15.00905 236
15.02916 213
15.04928 217
15.06939 228
15.0895 208
15.10962 211
15.12973 226
15.14984 230
15.16996 227
15.19007 237
15.21019 211
15.2303 222
15.25041 201
15.27053 219
15.29064 198
15.31075 195
15.33087 182
15.35098 200
15.3711 189
15.39121 199
15.41132 201
15.43144 208
15.45155 209
15.47166 185
15.49178 181
15.51189 189
15.53201 192
15.55212 172
15.57223 181
15.59235 183
15.61246 215
15.63257 182
15.65269 199
15.6728 181
15.69291 209
15.71303 169
15.73314 200
15.75326 171
15.77337 170
15.79348 201
15.8136 234
15.83371 178
15.85382 189
15.87394 203
15.89405 221
15.91417 194
15.93428 189
15.95439 196
15.97451 177
15.99462 182
16.01473 198
16.03485 187
16.05496 175
16.07508 206
16.09519 177
16.1153 173
16.13542 190
16.15553 204
16.17564 184
16.19576 213
16.21587 203
16.23598 203
16.2561 178
16.27621 193
16.29633 171
16.31644 174
16.33655 179
16.35667 179
16.37678 191
16.39689 202
16.41701 166
16.43712 172
16.45724 180
16.47735 174
16.49746 191
16.51758 195
16.53769 186
16.5578 187
16.57792 198
16.59803 184
16.61814 177
16.63826 187
16.65837 192
16.67849 186
16.6986 184
16.71871 191
16.73883 201
16.75894 184
16.77905 152
16.79917 196
16.81928 200
16.8394 174
16.85951 201
16.87962 189
16.89974 222
16.91985 195
16.93996 183
16.96008 183
16.98019 177
17.00031 196
17.02042 170
17.04053 179
17.06065 177
17.08076 177
17.10087 174
17.12099 164
17.1411 188
17.16121 204
17.18133 186
17.20144 195
17.22156 193
17.24167 183
17.26178 185
17.2819 201
17.30201 192
17.32212 180
17.34224 172
17.36235 174
17.38247 199
17.40258 181
17.42269 205
17.44281 197
17.46292 175
17.48303 186
17.50315 181
17.52326 184
17.54338 166
17.56349 172
17.5836 199
17.60372 193
17.62383 182
17.64394 209
17.66406 163
17.68417 178
17.70428 210
17.7244 208
17.74451 178
17.76463 218
17.78474 202
17.80485 181
17.82497 215
17.84508 172
17.86519 192
17.88531 173
17.90542 213
17.92554 210
17.94565 177
17.96576 180
17.98588 184
18.00599 205
18.0261 177
18.04622 209
18.06633 214
18.08645 184
18.10656 212
18.12667 184
18.14679 198
18.1669 176
18.18701 195
18.20713 204
18.22724 183
18.24735 163
18.26747 191
18.28758 206
18.3077 193
18.32781 199
18.34792 177
18.36804 175
18.38815 208
18.40826 194
18.42838 168
18.44849 178
18.46861 147
18.48872 164
18.50883 183
18.52895 192
18.54906 168
18.56917 200
18.58929 187
18.6094 195
18.62951 191
18.64963 181
18.66974 159
18.68986 177
18.70997 186
18.73008 173
18.7502 190
18.77031 220
18.79042 193
18.81054 207
18.83065 210
18.85077 209
18.87088 194
18.89099 216
18.91111 203
18.93122 189
18.95133 181
18.97145 189
18.99156 169
19.01168 212
19.03179 169
19.0519 185
19.07202 197
19.09213 181
19.11224 181
19.13236 176
19.15247 179
19.17258 203
19.1927 201
19.21281 215
19.23293 201
19.25304 228
19.27315 224
19.29327 233
19.31338 203
19.33349 233
19.35361 270
19.37372 196
19.39384 209
19.41395 220
19.43406 197
19.45418 208
19.47429 211
19.4944 210
19.51452 243
19.53463 203
19.55475 234
19.57486 223
19.59497 221
19.61509 276
19.6352 223
19.65531 250
19.67543 264
19.69554 262
19.71565 256
19.73577 282
19.75588 268
19.776 298
19.79611 302
19.81622 287
19.83634 294
19.85645 341
19.87656 316
19.89668 332
19.91679 321
19.93691 309
19.95702 299
19.97713 321
19.99725 313
20.01736 280
20.03747 298
20.05759 243
20.0777 285
20.09782 311
20.11793 288
20.13804 334
20.15816 323
20.17827 301
20.19838 335
20.2185 296
20.23861 281
20.25872 323
20.27884 342
20.29895 304
20.31907 356
20.33918 342
20.35929 321
20.37941 326
20.39952 346
20.41963 350
20.43975 359
20.45986 368
20.47998 374
20.50009 381
20.5202 387
20.54032 420
20.56043 360
20.58054 400
20.60066 459
20.62077 431
20.64088 483
20.661 509
20.68111 648
20.70123 746
20.72134 1054
20.74145 1462
20.76157 2199
20.78168 3269
20.80179 4771
20.82191 6446
20.84202 7493
20.86214 7837
20.88225 6760
20.90236 5205
20.92248 3733
20.94259 2350
20.9627 1558
20.98282 1181
21.00293 1060
21.02305 977
21.04316 943
21.06327 818
21.08339 698
21.1035 600
21.12361 522
21.14373 453
21.16384 401
21.18395 390
21.20407 383
21.22418 354
21.2443 372
21.26441 339
21.28452 281
21.30464 290
21.32475 323
21.34486 301
21.36498 324
21.38509 330
21.40521 333
21.42532 300
21.44543 324
21.46555 334
21.48566 309
21.50577 270
21.52589 329
21.546 268
21.56612 290
21.58623 316
21.60634 279
21.62646 279
21.64657 286
21.66668 252
21.6868 308
21.70691 284
21.72702 282
21.74714 278
21.76725 259
21.78737 280
21.80748 247
21.82759 261
21.84771 228
21.86782 241
21.88793 236
21.90805 269
21.92816 270
21.94828 286
21.96839 298
21.9885 290
22.00862 270
22.02873 313
22.04884 309
22.06896 300
22.08907 304
22.10919 290
22.1293 274
22.14941 290
22.16953 285
22.18964 281
22.20975 279
22.22987 297
22.24998 357
22.27009 335
22.29021 355
22.31032 384
22.33044 385
22.35055 329
22.37066 315
22.39078 295
22.41089 302
22.431 259
22.45112 282
22.47123 302
22.49135 283
22.51146 241
22.53157 307
22.55169 270
22.5718 269
22.59191 314
22.61203 314
22.63214 267
22.65225 332
22.67237 270
22.69248 266
22.7126 260
22.73271 210
22.75282 269
22.77294 218
22.79305 253
22.81316 242
22.83328 289
22.85339 278
22.87351 256
22.89362 263
22.91373 279
22.93385 262
22.95396 293
22.97407 310
22.99419 308
23.0143 311
23.03442 314
23.05453 342
23.07464 366
23.09476 309
23.11487 341
23.13498 404
23.1551 463
23.17521 445
23.19532 468
23.21544 452
23.23555 446
23.25567 397
23.27578 360
23.29589 320
23.31601 317
23.33612 305
23.35623 291
23.37635 252
23.39646 271
23.41658 330
23.43669 276
23.4568 294
23.47692 271
23.49703 310
23.51714 317
23.53726 307
23.55737 302
23.57749 289
23.5976 344
23.61771 289
23.63783 314
23.65794 298
23.67805 278
23.69817 300
23.71828 275
23.73839 274
23.75851 281
23.77862 292
23.79874 304
23.81885 330
23.83896 328
23.85908 347
23.87919 342
23.8993 356
23.91942 419
23.93953 462
23.95965 497
23.97976 539
23.99987 540
24.01999 517
24.0401 483
24.06021 403
24.08033 343
24.10044 336
24.12056 295
24.14067 310
24.16078 271
24.1809 292
24.20101 288
24.22112 318
24.24124 287
24.26135 323
24.28146 306
24.30158 353
24.32169 347
24.34181 317
24.36192 306
24.38203 382
24.40215 312
24.42226 303
24.44237 268
24.46249 281
24.4826 249
24.50272 253
24.52283 263
24.54294 274
24.56306 300
24.58317 301
24.60328 320
24.6234 291
24.64351 311
24.66362 343
24.68374 344
24.70385 352
24.72397 325
24.74408 325
24.76419 299
24.78431 334
24.80442 348
24.82453 309
24.84465 343
24.86476 321
24.88488 340
24.90499 357
24.9251 319
24.94522 315
24.96533 309
24.98544 358
25.00556 290
25.02567 293
25.04579 282
25.0659 304
25.08601 260
25.10613 260
25.12624 281
25.14635 294
25.16647 283
25.18658 284
25.20669 276
25.22681 263
25.24692 283
25.26704 306
25.28715 283
25.30726 301
25.32738 337
25.34749 294
25.3676 315
25.38772 303
25.40783 348
25.42795 337
25.44806 403
25.46817 394
25.48829 557
25.5084 529
25.52851 568
25.54863 583
25.56874 552
25.58886 574
25.60897 580
25.62908 540
25.6492 651
25.66931 596
25.68942 533
25.70954 538
25.72965 478
25.74976 451
25.76988 423
25.78999 406
25.81011 421
25.83022 398
25.85033 401
25.87045 448
25.89056 416
25.91067 398
25.93079 400
25.9509 382
25.97102 434
25.99113 467
26.01124 434
26.03136 432
26.05147 454
26.07158 448
26.0917 482
26.11181 509
26.13193 542
26.15204 572
26.17215 590
26.19227 659
26.21238 663
26.23249 699
26.25261 761
26.27272 880
26.29283 931
26.31295 980
26.33306 1050
26.35318 1257
26.37329 1357
26.3934 1574
26.41352 1792
26.43363 2181
26.45374 2607
26.47386 3429
26.49397 4573
26.51409 6539
26.5342 9748
26.55431 14525
26.57443 20591
26.59454 27769
26.61465 32906
26.63477 34409
26.65488 29835
26.67499 23352
26.69511 17796
26.71522 13343
26.73534 7930
26.75545 4060
26.77556 2324
26.79568 1649
26.81579 1402
26.8359 1206
26.85602 1150
26.87613 1062
26.89625 1006
26.91636 939
26.93647 934
26.95659 869
26.9767 893
26.99681 894
27.01693 1000
27.03704 901
27.05716 991
27.07727 873
27.09738 788
27.1175 740
27.13761 697
27.15772 656
27.17784 584
27.19795 564
27.21806 580
27.23818 567
27.25829 604
27.27841 576
27.29852 686
27.31863 747
27.33875 875
27.35886 953
27.37897 1098
27.39909 1299
27.4192 1366
27.43932 1531
27.45943 1386
27.47954 1360
27.49966 1138
27.51977 1029
27.53988 857
27.56 716
27.58011 589
27.60023 486
27.62034 432
27.64045 404
27.66057 402
27.68068 405
27.70079 418
27.72091 376
27.74102 410
27.76113 381
27.78125 394
27.80136 388
27.82148 380
27.84159 384
27.8617 333
27.88182 377
27.90193 339
27.92204 404
27.94216 409
27.96227 377
27.98239 377
28.0025 308
28.02261 324
28.04273 292
28.06284 328
28.08295 312
28.10307 307
28.12318 291
28.1433 293
28.16341 272
28.18352 306
28.20364 302
28.22375 272
28.24386 260
28.26398 295
28.28409 284
28.3042 271
28.32432 346
28.34443 292
28.36455 261
28.38466 252
28.40477 293
28.42489 297
28.445 300
28.46511 306
28.48523 283
28.50534 321
28.52546 326
28.54557 330
28.56568 311
28.5858 369
28.60591 320
28.62602 320
28.64614 293
28.66625 261
28.68636 256
28.70648 286
28.72659 266
28.74671 233
28.76682 237
28.78693 241
28.80705 225
28.82716 254
28.84727 219
28.86739 259
28.8875 222
28.90762 263
28.92773 254
28.94784 267
28.96796 253
28.98807 240
29.00818 242
29.0283 235
29.04841 247
29.06853 240
29.08864 261
29.10875 250
29.12887 270
29.14898 249
29.16909 252
29.18921 270
29.20932 247
29.22943 279
29.24955 250
29.26966 299
29.28978 250
29.30989 306
29.33 306
29.35012 336
29.37023 310
29.39034 391
29.41046 402
29.43057 398
29.45069 370
29.4708 351
29.49091 361
29.51103 333
29.53114 332
29.55125 315
29.57137 308
29.59148 293
29.6116 284
29.63171 267
29.65182 274
29.67194 269
29.69205 258
29.71216 233
29.73228 292
29.75239 304
29.7725 272
29.79262 260
29.81273 266
29.83285 244
29.85296 275
29.87307 278
29.89319 256
29.9133 288
29.93341 249
29.95353 278
29.97364 291
29.99376 315
30.01387 305
30.03398 300
30.0541 331
30.07421 366
30.09432 368
30.11444 363
30.13455 418
30.15467 439
30.17478 402
30.19489 391
30.21501 411
30.23512 388
30.25523 346
30.27535 373
30.29546 323
30.31557 346
30.33569 298
30.3558 279
30.37592 263
30.39603 297
30.41614 275
30.43626 282
30.45637 277
30.47648 270
30.4966 274
30.51671 259
30.53683 283
30.55694 262
30.57705 287
30.59717 274
30.61728 280
30.63739 317
30.65751 337
30.67762 345
30.69773 363
30.71785 431
30.73796 414
30.75808 396
30.77819 393
30.7983 379
30.81842 415
30.83853 378
30.85864 392
30.87876 357
30.89887 341
30.91899 288
30.9391 281
30.95921 277
30.97933 266
30.99944 281
31.01955 214
31.03967 214
31.05978 251
31.0799 207
31.10001 245
31.12012 194
31.14024 192
31.16035 218
31.18046 202
31.20058 225
31.22069 221
31.2408 216
31.26092 230
31.28103 230
31.30115 189
31.32126 199
31.34137 220
31.36149 198
31.3816 229
31.40171 238
31.42183 183
31.44194 200
31.46206 183
31.48217 216
31.50228 197
31.5224 188
31.54251 189
31.56262 182
31.58274 181
31.60285 207
31.62297 226
31.64308 203
31.66319 196
31.68331 184
31.70342 193
31.72353 220
31.74365 210
31.76376 195
31.78387 219
31.80399 200
31.8241 211
31.84422 213
31.86433 198
31.88444 193
31.90456 212
31.92467 215
31.94478 211
31.9649 221
31.98501 207
32.00513 237
32.02524 219
32.04535 218
32.06547 213
32.08558 250
32.10569 269
32.12581 255
32.14592 242
32.16604 250
32.18615 259
32.20626 247
32.22638 234
32.24649 270
32.2666 223
32.28672 222
32.30683 252
32.32694 256
32.34706 243
32.36717 248
32.38729 233
32.4074 295
32.42751 260
32.44763 303
32.46774 276
32.48785 304
32.50797 276
32.52808 274
32.5482 237
32.56831 223
32.58842 227
32.60854 242
32.62865 226
32.64876 255
32.66888 236
32.68899 219
32.7091 232
32.72922 219
32.74933 234
32.76945 249
32.78956 197
32.80967 228
32.82979 189
32.8499 216
32.87001 207
32.89013 220
32.91024 210
32.93036 239
32.95047 213
32.97058 210
32.9907 237
33.01081 244
33.03092 258
33.05104 285
33.07115 222
33.09127 207
33.11138 253
33.13149 217
33.15161 221
33.17172 210
33.19183 236
33.21195 195
33.23206 200
33.25217 212
33.27229 205
33.2924 197
33.31252 202
33.33263 215
33.35274 192
33.37286 207
33.39297 173
33.41308 189
33.4332 200
33.45331 191
33.47343 188
33.49354 179
33.51365 191
33.53377 183
33.55388 202
33.57399 177
33.59411 190
33.61422 211
33.63434 181
33.65445 198
33.67456 207
33.69468 189
33.71479 208
33.7349 184
33.75502 197
33.77513 173
33.79524 200
33.81536 199
33.83547 212
33.85559 189
33.8757 194
33.89581 236
33.91593 219
33.93604 191
33.95615 180
33.97627 215
33.99638 211
34.0165 217
34.03661 200
34.05672 206
34.07684 235
34.09695 255
34.11706 279
34.13718 315
34.15729 323
34.17741 355
34.19752 317
34.21763 287
34.23775 298
34.25786 274
34.27797 254
34.29809 236
34.3182 278
34.33831 258
34.35843 249
34.37854 272
34.39866 253
34.41877 257
34.43888 242
34.459 272
34.47911 254
34.49922 268
34.51934 270
34.53945 293
34.55957 292
34.57968 298
34.59979 311
34.61991 294
34.64002 289
34.66013 267
34.68025 272
34.70036 256
34.72047 281
34.74059 277
34.7607 283
34.78082 260
34.80093 326
34.82104 290
34.84116 322
34.86127 290
34.88138 335
34.9015 326
34.92161 317
34.94173 336
34.96184 356
34.98195 317
35.00207 375
35.02218 315
35.04229 343
35.06241 304
35.08252 375
35.10264 305
35.12275 276
35.14286 303
35.16298 317
35.18309 324
35.2032 280
35.22332 264
35.24343 299
35.26354 294
35.28366 323
35.30377 330
35.32389 319
35.344 307
35.36411 298
35.38423 313
35.40434 300
35.42445 299
35.44457 306
35.46468 319
35.4848 344
35.50491 324
35.52502 308
35.54514 308
35.56525 318
35.58536 261
35.60548 297
35.62559 292
35.64571 278
35.66582 291
35.68593 267
35.70605 242
35.72616 260
35.74627 260
35.76639 285
35.7865 262
35.80661 275
35.82673 259
35.84684 280
35.86696 259
35.88707 253
35.90718 280
35.9273 245
35.94741 251
35.96752 269
35.98764 267
36.00775 248
36.02787 240
36.04798 271
36.06809 257
36.08821 239
36.10832 247
36.12843 285
36.14855 207
36.16866 272
36.18878 242
36.20889 255
36.229 281
36.24912 271
36.26923 331
36.28934 315
36.30946 341
36.32957 423
36.34968 409
36.3698 478
36.38991 590
36.41003 752
36.43014 968
36.45025 1296
36.47037 1649
36.49048 1979
36.51059 2454
36.53071 2503
36.55082 2086
36.57094 1666
36.59105 1417
36.61116 1312
36.63128 1139
36.65139 873
36.6715 609
36.69162 404
36.71173 319
36.73184 302
36.75196 321
36.77207 327
36.79219 246
36.8123 288
36.83241 291
36.85253 321
36.87264 308
36.89275 313
36.91287 319
36.93298 282
36.9531 265
36.97321 322
36.99332 329
37.01344 297
37.03355 287
37.05366 273
37.07378 261
37.09389 273
37.11401 256
37.13412 264
37.15423 239
37.17435 253
37.19446 230
37.21457 217
37.23469 222
37.2548 243
37.27491 244
37.29503 240
37.31514 209
37.33526 255
37.35537 223
37.37548 243
37.3956 242
37.41571 220
37.43582 227
37.45594 238
37.47605 215
37.49617 234
37.51628 220
37.53639 229
37.55651 241
37.57662 235
37.59673 232
37.61685 239
37.63696 212
37.65708 233
37.67719 212
37.6973 221
37.71742 217
37.73753 215
37.75764 248
37.77776 215
37.79787 230
37.81798 213
37.8381 218
37.85821 219
37.87833 210
37.89844 188
37.91855 221
37.93867 219
37.95878 211
37.97889 201
37.99901 231
38.01912 200
38.03924 192
38.05935 241
38.07946 223
38.09958 202
38.11969 212
38.1398 231
38.15992 230
38.18003 230
38.20015 191
38.22026 208
38.24037 201
38.26049 244
38.2806 202
38.30071 249
38.32083 228
38.34094 246
38.36105 239
38.38117 227
38.40128 235
38.4214 251
38.44151 266
38.46162 258
38.48174 295
38.50185 276
38.52196 267
38.54208 308
38.56219 294
38.58231 266
38.60242 255
38.62253 263
38.64265 248
38.66276 217
38.68287 216
38.70299 233
38.7231 228
38.74321 231
38.76333 204
38.78344 221
38.80356 241
38.82367 216
38.84378 242
38.8639 213
38.88401 218
38.90412 236
38.92424 224
38.94435 230
38.96447 226
38.98458 204
39.00469 189
39.02481 229
39.04492 247
39.06503 271
39.08515 250
39.10526 227
39.12538 267
39.14549 260
39.1656 266
39.18572 280
39.20583 288
39.22594 318
39.24606 356
39.26617 389
39.28628 436
39.3064 520
39.32651 643
39.34663 828
39.36674 1077
39.38685 1416
39.40697 1760
39.42708 2014
39.44719 2197
39.46731 2083
39.48742 1737
39.50754 1289
39.52765 1234
39.54776 1149
39.56788 1014
39.58799 718
39.6081 505
39.62822 351
39.64833 304
39.66845 261
39.68856 266
39.70867 227
39.72879 223
39.7489 208
39.76901 207
39.78913 256
39.80924 237
39.82935 211
39.84947 221
39.86958 227
39.8897 196
39.90981 211
39.92992 212
39.95004 210
39.97015 232
39.99026 235
40.01038 253
40.03049 259
40.05061 285
40.07072 286
40.09083 284
40.11095 351
40.13106 390
40.15117 450
40.17129 501
40.1914 680
40.21152 844
40.23163 989
40.25174 1188
40.27186 1186
40.29197 1114
40.31208 923
40.3322 726
40.35231 754
40.37242 695
40.39254 618
40.41265 496
40.43277 364
40.45288 326
40.47299 278
40.49311 267
40.51322 224
40.53333 222
40.55345 241
40.57356 243
40.59368 203
40.61379 224
40.6339 223
40.65402 195
40.67413 196
40.69424 207
40.71436 207
40.73447 216
40.75458 223
40.7747 201
40.79481 209
40.81493 234
40.83504 212
40.85515 193
40.87527 202
40.89538 181
40.91549 210
40.93561 210
40.95572 202
40.97584 216
40.99595 198
41.01606 171
41.03618 207
41.05629 196
41.0764 188
41.09652 185
41.11663 206
41.13675 200
41.15686 183
41.17697 211
41.19709 229
41.2172 190
41.23731 189
41.25743 228
41.27754 189
41.29765 191
41.31777 212
41.33788 209
41.358 215
41.37811 225
41.39822 171
41.41834 227
41.43845 223
41.45856 209
41.47868 212
41.49879 231
41.51891 258
41.53902 228
41.55913 234
41.57925 240
41.59936 253
41.61947 284
41.63959 249
41.6597 298
41.67982 320
41.69993 332
41.72004 356
41.74016 389
41.76027 426
41.78038 411
41.8005 371
41.82061 365
41.84072 337
41.86084 306
41.88095 273
41.90107 279
41.92118 267
41.94129 273
41.96141 255
41.98152 218
42.00163 240
42.02175 246
42.04186 223
42.06198 237
42.08209 189
42.1022 233
42.12232 249
42.14243 229
42.16254 245
42.18266 241
42.20277 293
42.22289 304
42.243 326
42.26311 400
42.28323 453
42.30334 508
42.32345 653
42.34357 776
42.36368 983
42.38379 1315
42.40391 1529
42.42402 1692
42.44414 1631
42.46425 1337
42.48436 1042
42.50448 933
42.52459 932
42.5447 825
42.56482 733
42.58493 517
42.60505 373
42.62516 325
42.64527 280
42.66539 298
42.6855 227
42.70561 262
42.72573 243
42.74584 249
42.76595 278
42.78607 244
42.80618 233
42.8263 239
42.84641 219
42.86652 203
42.88664 208
42.90675 206
42.92686 216
42.94698 207
42.96709 193
42.98721 212
43.00732 212
43.02743 190
43.04755 178
43.06766 207
43.08777 229
43.10789 194
43.128 203
43.14812 217
43.16823 190
43.18834 167
43.20846 211
43.22857 183
43.24868 197
43.2688 178
43.28891 219
43.30902 208
43.32914 217
43.34925 187
43.36937 183
43.38948 194
43.40959 186
43.42971 206
43.44982 179
43.46993 177
43.49005 195
43.51016 177
43.53028 222
43.55039 205
43.5705 221
43.59062 190
43.61073 194
43.63084 208
43.65096 173
43.67107 186
43.69119 182
43.7113 167
43.73141 196
43.75153 188
43.77164 185
43.79175 200
43.81187 162
43.83198 191
43.85209 174
43.87221 190
43.89232 168
43.91244 175
43.93255 185
43.95266 188
43.97278 190
43.99289 217
44.013 194
44.03312 181
44.05323 189
44.07335 195
44.09346 197
44.11357 186
44.13369 174
44.1538 210
44.17391 202
44.19403 200
44.21414 188
44.23426 190
44.25437 195
44.27448 202
44.2946 181
44.31471 161
44.33482 174
44.35494 192
44.37505 165
44.39516 182
44.41528 201
44.43539 200
44.45551 186
44.47562 183
44.49573 204
44.51585 173
44.53596 211
44.55607 203
44.57619 185
44.5963 190
44.61642 195
44.63653 198
44.65664 185
44.67676 206
44.69687 205
44.71698 204
44.7371 181
44.75721 184
44.77732 176
44.79744 211
44.81755 192
44.83767 207
44.85778 187
44.87789 204
44.89801 179
44.91812 186
44.93823 215
44.95835 219
44.97846 202
44.99858 204
45.01869 198
45.0388 185
45.05892 179
45.07903 194
45.09914 183
45.11926 188
45.13937 179
45.15949 180
45.1796 198
45.19971 201
45.21983 189
45.23994 187
45.26005 205
45.28017 179
45.30028 221
45.32039 186
45.34051 209
45.36062 218
45.38074 208
45.40085 227
45.42096 244
45.44108 226
45.46119 238
45.4813 243
45.50142 261
45.52153 287
45.54165 281
45.56176 284
45.58187 350
45.60199 331
45.6221 409
45.64221 460
45.66233 511
45.68244 636
45.70256 704
45.72267 902
45.74278 1021
45.7629 1123
45.78301 1110
45.80312 930
45.82324 708
45.84335 643
45.86346 624
45.88358 653
45.90369 606
45.92381 476
45.94392 369
45.96403 319
45.98415 248
46.00426 242
46.02437 233
46.04449 209
46.0646 189
46.08472 233
46.10483 215
46.12494 210
46.14506 219
46.16517 211
46.18528 211
46.2054 214
46.22551 216
46.24563 202
46.26574 205
46.28585 196
46.30597 213
46.32608 212
46.34619 208
46.36631 189
46.38642 194
46.40653 170
46.42665 187
46.44676 180
46.46688 189
46.48699 202
46.5071 186
46.52722 161
46.54733 158
46.56744 167
46.58756 186
46.60767 169
46.62779 173
46.6479 182
46.66801 203
46.68813 181
46.70824 167
46.72835 185
46.74847 190
46.76858 181
46.78869 183
46.80881 194
46.82892 175
46.84904 190
46.86915 154
46.88926 184
46.90938 198
46.92949 199
46.9496 200
46.96972 198
46.98983 240
47.00995 228
47.03006 233
47.05017 229
47.07029 210
47.0904 241
47.11051 226
47.13063 238
47.15074 211
47.17086 193
47.19097 197
47.21108 206
47.2312 184
47.25131 216
47.27142 209
47.29154 194
47.31165 207
47.33176 218
47.35188 196
47.37199 206
47.39211 186
47.41222 214
47.43233 201
47.45245 190
47.47256 198
47.49267 190
47.51279 196
47.5329 186
47.55302 225
47.57313 172
47.59324 182
47.61336 171
47.63347 174
47.65358 168
47.6737 172
47.69381 187
47.71393 158
47.73404 169
47.75415 171
47.77427 171
47.79438 191
47.81449 163
47.83461 165
47.85472 164
47.87483 172
47.89495 172
47.91506 173
47.93518 162
47.95529 177
47.9754 170
47.99552 183
48.01563 199
48.03574 179
48.05586 183
48.07597 173
48.09609 170
48.1162 185
48.13631 195
48.15643 185
48.17654 193
48.19665 192
48.21677 187
48.23688 195
48.257 183
48.27711 177
48.29722 177
48.31734 156
48.33745 195
48.35756 191
48.37768 193
48.39779 169
48.4179 157
48.43802 169
48.45813 192
48.47825 189
48.49836 179
48.51847 191
48.53859 158
48.5587 192
48.57881 158
48.59893 225
48.61904 192
48.63916 209
48.65927 218
48.67938 208
48.6995 221
48.71961 181
48.73972 200
48.75984 216
48.77995 208
48.80006 223
48.82018 226
48.84029 222
48.86041 229
48.88052 273
48.90063 231
48.92075 214
48.94086 226
48.96097 216
48.98109 245
49.0012 236
49.02132 212
49.04143 202
49.06154 220
49.08166 185
49.10177 208
49.12188 234
49.142 220
49.16211 213
49.18223 198
49.20234 174
49.22245 197
49.24257 210
49.26268 200
49.28279 197
49.30291 197
49.32302 179
49.34313 187
49.36325 171
49.38336 178
49.40348 184
49.42359 192
49.4437 201
49.46382 191
49.48393 202
49.50404 174
49.52416 185
49.54427 203
49.56439 204
49.5845 205
49.60461 187
49.62473 221
49.64484 233
49.66495 223
49.68507 221
49.70518 254
49.7253 288
49.74541 229
49.76552 248
49.78564 278
49.80575 304
49.82586 333
49.84598 365
49.86609 379
49.8862 448
49.90632 467
49.92643 573
49.94655 691
49.96666 823
49.98677 1010
50.00689 1325
50.027 1663
50.04711 2062
50.06723 2720
50.08734 3187
50.10746 3436
50.12757 3487
50.14768 2810
50.1678 2138
50.18791 1714
50.20802 1717
50.22814 1824
50.24825 1737
50.26837 1566
50.28848 1173
50.30859 744
50.32871 541
50.34882 429
50.36893 399
50.38905 368
50.40916 363
50.42927 367
50.44939 379
50.4695 400
50.48962 412
50.50973 435
50.52984 413
50.54996 411
50.57007 384
50.59018 411
50.6103 365
50.63041 395
50.65053 370
50.67064 298
50.69075 299
50.71087 320
50.73098 308
50.75109 276
50.77121 271
50.79132 280
50.81143 271
50.83155 250
50.85166 260
50.87178 255
50.89189 222
50.912 225
50.93212 254
50.95223 241
50.97234 222
50.99246 237
51.01257 232
51.03269 215
51.0528 222
51.07291 195
51.09303 188
51.11314 188
51.13325 192
51.15337 177
51.17348 187
51.1936 192
51.21371 190
51.23382 190
51.25394 178
51.27405 195
51.29416 182
51.31428 172
51.33439 159
51.3545 201
51.37462 177
51.39473 154
51.41485 169
51.43496 167
51.45507 189
51.47519 191
51.4953 180
51.51541 160
51.53553 193
51.55564 181
51.57576 171
51.59587 181
51.61598 141
51.6361 161
51.65621 183
51.67632 160
51.69644 180
51.71655 159
51.73667 170
51.75678 162
51.77689 160
51.79701 152
51.81712 162
51.83723 168
51.85735 145
51.87746 158
51.89757 181
51.91769 167
51.9378 178
51.95792 149
51.97803 160
51.99814 160
52.01826 153
52.03837 144
52.05848 163
52.0786 183
52.09871 159
52.11883 157
52.13894 193
52.15905 170
52.17917 165
52.19928 157
52.21939 145
52.23951 178
52.25962 164
52.27974 186
52.29985 147
52.31996 176
52.34008 186
52.36019 186
52.3803 164
52.40042 172
52.42053 149
52.44064 165
52.46076 173
52.48087 162
52.50099 165
52.5211 176
52.54121 174
52.56133 180
52.58144 160
52.60155 187
52.62167 197
52.64178 175
52.6619 145
52.68201 190
52.70212 185
52.72224 193
52.74235 182
52.76246 179
52.78258 174
52.80269 202
52.8228 161
52.84292 199
52.86303 178
52.88315 181
52.90326 168
52.92337 177
52.94349 158
52.9636 189
52.98371 188
53.00383 175
53.02394 192
53.04406 183
53.06417 207
53.08428 185
53.1044 187
53.12451 175
53.14462 184
53.16474 185
53.18485 183
53.20497 156
53.22508 182
53.24519 186
53.26531 199
53.28542 206
53.30553 208
53.32565 189
53.34576 214
53.36587 217
53.38599 178
53.4061 207
53.42622 170
53.44633 179
53.46644 189
53.48656 159
53.50667 181
53.52678 197
53.5469 186
53.56701 171
53.58713 194
53.60724 164
53.62735 186
53.64747 191
53.66758 214
53.68769 167
53.70781 176
53.72792 212
53.74804 186
53.76815 189
53.78826 186
53.80838 200
53.82849 206
53.8486 176
53.86872 194
53.88883 174
53.90894 185
53.92906 172
53.94917 213
53.96929 192
53.9894 204
54.00951 206
54.02963 189
54.04974 211
54.06985 197
54.08997 199
54.11008 184
54.1302 205
54.15031 215
54.17042 204
54.19054 194
54.21065 211
54.23076 178
54.25088 215
54.27099 208
54.29111 202
54.31122 193
54.33133 210
54.35145 221
54.37156 192
54.39167 226
54.41179 221
54.4319 192
54.45201 209
54.47213 225
54.49224 213
54.51236 198
54.53247 220
54.55258 219
54.5727 237
54.59281 246
54.61292 240
54.63304 296
54.65315 314
54.67327 350
54.69338 371
54.71349 478
54.73361 570
54.75372 597
54.77383 760
54.79395 850
54.81406 1013
54.83417 1133
54.85429 1116
54.8744 991
54.89452 769
54.91463 658
54.93474 600
54.95486 619
54.97497 658
54.99508 649
55.0152 593
55.03531 475
55.05543 409
55.07554 291
55.09565 292
55.11577 295
55.13588 297
55.15599 320
55.17611 342
55.19622 408
55.21634 425
55.23645 455
55.25656 506
55.27668 557
55.29679 588
55.3169 620
55.33702 524
55.35713 442
55.37724 357
55.39736 391
55.41747 353
55.43759 450
55.4577 378
55.47781 381
55.49793 335
55.51804 273
55.53815 247
55.55827 220
55.57838 208
55.5985 205
55.61861 208
55.63872 214
55.65884 210
55.67895 196
55.69906 210
55.71918 189
55.73929 201
55.75941 194
55.77952 193
55.79963 182
55.81975 190
55.83986 174
55.85997 212
55.88009 179
55.9002 194
55.92031 189
55.94043 212
55.96054 174
55.98066 197
56.00077 181
56.02088 174
56.041 190
56.06111 176
56.08122 157
56.10134 196
56.12145 158
56.14157 196
56.16168 159
56.18179 177
56.20191 180
56.22202 165
56.24213 188
56.26225 181
56.28236 175
56.30248 197
56.32259 161
56.3427 168
56.36282 183
56.38293 170
56.40304 147
56.42316 182
56.44327 169
56.46338 163
56.4835 167
56.50361 173
56.52373 198
56.54384 178
56.56395 193
56.58407 182
56.60418 187
56.62429 175
56.64441 182
56.66452 205
56.68464 205
56.70475 158
56.72486 188
56.74498 212
56.76509 193
56.7852 170
56.80532 196
56.82543 195
56.84554 163
56.86566 177
56.88577 172
56.90589 184
56.926 189
56.94611 137
56.96623 204
56.98634 193
57.00645 175
57.02657 178
57.04668 188
57.0668 203
57.08691 205
57.10702 191
57.12714 207
57.14725 220
57.16736 227
57.18748 208
57.20759 207
57.22771 216
57.24782 238
57.26793 201
57.28805 224
57.30816 193
57.32827 179
57.34839 194
57.3685 210
57.38861 197
57.40873 193
57.42884 177
57.44896 189
57.46907 179
57.48918 177
57.5093 200
57.52941 173
57.54952 168
57.56964 167
57.58975 195
57.60987 170
57.62998 160
57.65009 170
57.67021 161
57.69032 150
57.71043 175
57.73055 188
57.75066 179
57.77078 177
57.79089 185
57.811 191
57.83112 167
57.85123 173
57.87134 169
57.89146 184
57.91157 200
57.93168 181
57.9518 200
57.97191 186
57.99203 184
58.01214 192
58.03225 164
58.05237 197
58.07248 167
58.09259 195
58.11271 180
58.13282 189
58.15294 178
58.17305 169
58.19316 194
58.21328 173
58.23339 182
58.2535 170
58.27362 177
58.29373 177
58.31385 175
58.33396 174
58.35407 184
58.37419 189
58.3943 187
58.41441 179
58.43453 183
58.45464 211
58.47475 215
58.49487 177
58.51498 181
58.5351 185
58.55521 192
58.57532 222
58.59544 197
58.61555 174
58.63566 198
58.65578 209
58.67589 187
58.69601 189
58.71612 182
58.73623 215
58.75635 189
58.77646 157
58.79657 201
58.81669 178
58.8368 193
58.85691 155
58.87703 195
58.89714 186
58.91726 161
58.93737 165
58.95748 154
58.9776 180
58.99771 181
59.01782 170
59.03794 161
59.05805 169
59.07817 183
59.09828 165
59.11839 149
59.13851 152
59.15862 190
59.17873 181
59.19885 182
59.21896 192
59.23908 166
59.25919 160
59.2793 186
59.29942 215
59.31953 179
59.33964 179
59.35976 192
59.37987 186
59.39998 206
59.4201 191
59.44021 202
59.46033 226
59.48044 226
59.50055 240
59.52067 222
59.54078 235
59.56089 245
59.58101 261
59.60112 271
59.62124 308
59.64135 328
59.66146 326
59.68158 344
59.70169 402
59.7218 436
59.74192 521
59.76203 599
59.78215 722
59.80226 821
59.82237 1055
59.84249 1284
59.8626 1577
59.88271 1897
59.90283 2145
59.92294 2272
59.94305 2145
59.96317 1801
59.98328 1366
60.0034 1093
60.02351 1000
60.04362 1115
60.06374 1204
60.08385 1254
60.10396 1131
60.12408 964
60.14419 658
60.16431 446
60.18442 329
60.20453 309
60.22465 258
60.24476 225
60.26487 237
60.28499 232
60.3051 238
60.32522 182
60.34533 218
60.36544 203
60.38556 191
60.40567 212
60.42578 196
60.4459 206
60.46601 217
60.48612 186
60.50624 202
60.52635 161
60.54647 197
60.56658 194
60.58669 205
60.60681 173
60.62692 181
60.64703 172
60.66715 185
60.68726 180
60.70738 197
60.72749 178
60.7476 186
60.76772 198
60.78783 175
60.80794 201
60.82806 185
60.84817 192
60.86828 202
60.8884 195
60.90851 186
60.92863 189
60.94874 188
60.96885 209
60.98897 186
61.00908 203
61.02919 200
61.04931 215
61.06942 208
61.08954 253
61.10965 194
61.12976 201
61.14988 216
61.16999 212
61.1901 202
61.21022 205
61.23033 210
61.25045 205
61.27056 217
61.29067 224
61.31079 200
61.3309 203
61.35101 181
61.37113 202
61.39124 181
61.41135 190
61.43147 195
61.45158 198
61.4717 189
61.49181 191
61.51192 186
61.53204 179
61.55215 192
61.57226 201
61.59238 196
61.61249 173
61.63261 173
61.65272 176
61.67283 168
61.69295 179
61.71306 200
61.73317 192
61.75329 184
61.7734 195
61.79352 182
61.81363 196
61.83374 179
61.85386 192
61.87397 198
61.89408 174
61.9142 181
61.93431 176
61.95442 207
61.97454 176
61.99465 211
62.01477 194
62.03488 167
62.05499 211
62.07511 206
62.09522 197
62.11533 207
62.13545 192
62.15556 209
62.17568 187
62.19579 208
62.2159 198
62.23602 225
62.25613 208
62.27624 219
62.29636 205
62.31647 207
62.33659 182
62.3567 206
62.37681 187
62.39693 193
62.41704 178
62.43715 230
62.45727 191
62.47738 208
62.49749 192
62.51761 183
62.53772 212
62.55784 195
62.57795 176
62.59806 202
62.61818 197
62.63829 185
62.6584 222
62.67852 194
62.69863 188
62.71875 171
62.73886 171
62.75897 190
62.77909 192
62.7992 169
62.81931 188
62.83943 201
62.85954 194
62.87965 177
62.89977 191
62.91988 203
62.94 201
62.96011 209
62.98022 212
63.00034 171
63.02045 184
63.04056 221
63.06068 180
63.08079 201
63.10091 210
63.12102 203
63.14113 186
63.16125 171
63.18136 179
63.20147 201
63.22159 193
63.2417 203
63.26182 219
63.28193 213
63.30204 186
63.32216 192
63.34227 183
63.36238 201
63.3825 186
63.40261 223
63.42272 189
63.44284 193
63.46295 184
63.48307 168
63.50318 206
63.52329 186
63.54341 190
63.56352 208
63.58363 205
63.60375 192
63.62386 178
63.64398 217
63.66409 196
63.6842 217
63.70432 215
63.72443 207
63.74454 229
63.76466 231
63.78477 258
63.80489 237
63.825 270
63.84511 329
63.86523 316
63.88534 369
63.90545 366
63.92557 441
63.94568 442
63.96579 520
63.98591 535
64.00602 574
64.02614 549
64.04625 442
64.06636 417
64.08648 330
64.10659 320
64.1267 325
64.14682 326
64.16693 357
64.18705 334
64.20716 339
64.22727 315
64.24739 242
64.2675 191
64.28761 183
64.30773 208
64.32784 188
64.34796 174
64.36807 162
64.38818 180
64.4083 186
64.42841 165
64.44852 158
64.46864 155
64.48875 144
64.50886 155
64.52898 170
64.54909 169
64.56921 176
64.58932 155
64.60943 166
64.62955 202
64.64966 155
64.66977 173
64.68989 147
64.71 163
64.73012 189
64.75023 197
64.77034 183
64.79046 185
64.81057 170
64.83068 180
64.8508 176
64.87091 176
64.89102 196
64.91114 168
64.93125 195
64.95137 164
64.97148 180
64.99159 157
65.01171 177
65.03182 189
65.05193 198
65.07205 184
65.09216 177
65.11228 199
65.13239 183
65.1525 186
65.17262 221
65.19273 194
65.21284 194
65.23296 186
65.25307 186
65.27319 178
65.2933 190
65.31341 201
65.33353 197
65.35364 206
65.37375 197
65.39387 191
65.41398 166
65.43409 184
65.45421 199
65.47432 169
65.49444 166
65.51455 192
65.53466 195
65.55478 182
65.57489 174
65.595 174
65.61512 185
65.63523 209
65.65535 222
65.67546 204
65.69557 251
65.71569 254
65.7358 248
65.75591 243
65.77603 235
65.79614 251
65.81626 187
65.83637 189
65.85648 184
65.8766 225
65.89671 213
65.91682 212
65.93694 203
65.95705 203
65.97716 191
65.99728 176
66.01739 192
66.03751 198
66.05762 176
66.07773 201
66.09785 189
66.11796 214
66.13807 188
66.15819 210
66.1783 200
66.19842 179
66.21853 198
66.23864 196
66.25876 162
66.27887 204
66.29898 194
66.3191 196
66.33921 177
66.35933 206
66.37944 183
66.39955 180
66.41967 175
66.43978 191
66.45989 210
66.48001 177
66.50012 180
66.52023 168
66.54035 202
66.56046 179
66.58058 182
66.60069 179
66.6208 168
66.64092 188
66.66103 180
66.68114 172
66.70126 167
66.72137 172
66.74149 176
66.7616 171
66.78171 199
66.80183 194
66.82194 200
66.84205 176
66.86217 164
66.88228 199
66.90239 200
66.92251 195
66.94262 167
66.96274 204
66.98285 185
67.00296 154
67.02308 180
67.04319 180
67.0633 188
67.08342 158
67.10353 192
67.12365 179
67.14376 182
67.16387 190
67.18399 197
67.2041 192
67.22421 213
67.24433 190
67.26444 183
67.28456 200
67.30467 216
67.32478 232
67.3449 226
67.36501 210
67.38512 219
67.40524 258
67.42535 280
67.44546 297
67.46558 312
67.48569 319
67.50581 289
67.52592 388
67.54603 436
67.56615 505
67.58626 575
67.60637 673
67.62649 843
67.6466 1008
67.66672 1165
67.68683 1322
67.70694 1414
67.72706 1302
67.74717 1104
67.76728 889
67.7874 717
67.80751 701
67.82763 729
67.84774 766
67.86785 917
67.88797 905
67.90808 928
67.92819 926
67.94831 886
67.96842 872
67.98853 853
68.00865 923
68.02876 1099
68.04888 1310
68.06899 1558
68.0891 1720
68.10922 1754
68.12933 1768
68.14944 1588
68.16956 1429
68.18967 1248
68.20979 1309
68.2299 1458
68.25001 1573
68.27013 1710
68.29024 1770
68.31035 1611
68.33047 1280
68.35058 1028
68.3707 778
68.39081 735
68.41092 614
68.43104 643
68.45115 628
68.47126 619
68.49138 596
68.51149 551
68.5316 388
68.55172 353
68.57183 266
68.59195 229
68.61206 230
68.63217 236
68.65229 197
68.6724 227
68.69251 189
68.71263 204
68.73274 185
68.75286 181
68.77297 197
68.79308 184
68.8132 187
68.83331 204
68.85342 189
68.87354 198
68.89365 174
68.91376 154
68.93388 155
68.95399 179
68.97411 160
68.99422 189
69.01433 183
69.03445 174
69.05456 198
69.07467 185
69.09479 162
69.1149 173
69.13502 147
69.15513 152
69.17524 157
69.19536 149
69.21547 168
69.23558 191
69.2557 161
69.27581 176
69.29593 159
69.31604 167
69.33615 159
69.35627 182
69.37638 159
69.39649 161
69.41661 138
69.43672 160
69.45683 143
69.47695 175
69.49706 139
69.51718 149
69.53729 145
69.5574 147
69.57752 178
69.59763 163
69.61774 168
69.63786 163
69.65797 140
69.67809 149
69.6982 177
69.71831 154
69.73843 165
69.75854 167
69.77865 139
69.79877 171
69.81888 180
69.839 173
69.85911 146
69.87922 163
69.89934 169
69.91945 173
69.93956 182
69.95968 182
69.97979 185
69.9999 158
70.02002 185
70.04013 169
70.06025 190
70.08036 174
70.10047 162
70.12059 168
70.1407 174
70.16081 161
70.18093 163
70.20104 173
70.22116 168
70.24127 161
70.26138 164
70.2815 169
70.30161 155
70.32172 167
70.34184 141
70.36195 151
70.38207 146
70.40218 145
70.42229 169
70.44241 166
70.46252 157
70.48263 156
70.50275 177
70.52286 166
70.54297 189
70.56309 177
70.5832 176
70.60332 166
70.62343 156
70.64354 174
70.66366 168
70.68377 155
70.70388 161
70.724 171
70.74411 159
70.76423 172
70.78434 166
70.80445 150
70.82457 181
70.84468 166
70.86479 170
70.88491 177
70.90502 168
70.92513 151
70.94525 155
70.96536 148
70.98548 166
71.00559 146
71.0257 151
71.04582 155
71.06593 162
71.08604 142
71.10616 150
71.12627 164
71.14639 129
71.1665 151
71.18661 170
71.20673 164
71.22684 139
71.24695 151
71.26707 149
71.28718 156
71.3073 173
71.32741 165
71.34752 158
71.36764 146
71.38775 158
71.40786 166
71.42798 170
71.44809 173
71.4682 183
71.48832 177
71.50843 156
71.52855 189
71.54866 188
71.56877 159
71.58889 164
71.609 177
71.62911 164
71.64923 182
71.66934 171
71.68946 169
71.70957 159
71.72968 180
71.7498 160
71.76991 174
71.79002 166
71.81014 174
71.83025 182
71.85037 175
71.87048 184
71.89059 147
71.91071 157
71.93082 183
71.95093 161
71.97105 161
71.99116 164
72.01127 160
72.03139 190
72.0515 168
72.07162 176
72.09173 169
72.11184 165
72.13196 176
72.15207 167
72.17218 199
72.1923 150
72.21241 173
72.23253 182
72.25264 203
72.27275 186
72.29287 192
72.31298 175
72.33309 190
72.35321 174
72.37332 174
72.39344 176
72.41355 166
72.43366 167
72.45378 163
72.47389 174
72.494 178
72.51412 206
72.53423 162
72.55434 175
72.57446 158
72.59457 158
72.61469 185
72.6348 148
72.65491 160
72.67503 167
72.69514 152
72.71525 168
72.73537 165
72.75548 148
72.7756 155
72.79571 162
72.81582 147
72.83594 160
72.85605 183
72.87616 186
72.89628 166
72.91639 163
72.9365 179
72.95662 198
72.97673 195
72.99685 205
73.01696 201
73.03707 189
73.05719 234
73.0773 181
73.09741 175
73.11753 224
73.13764 223
73.15776 199
73.17787 205
73.19798 242
73.2181 238
73.23821 231
73.25832 265
73.27844 300
73.29855 303
73.31867 338
73.33878 384
73.35889 450
73.37901 458
73.39912 515
73.41923 570
73.43935 566
73.45946 547
73.47957 454
73.49969 382
73.5198 334
73.53992 308
73.56003 275
73.58014 327
73.60026 340
73.62037 345
73.64048 367
73.6606 349
73.68071 308
73.70083 268
73.72094 226
73.74105 217
73.76117 204
73.78128 198
73.80139 167
73.82151 171
73.84162 159
73.86174 183
73.88185 174
73.90196 191
73.92208 180
73.94219 162
73.9623 154
73.98242 156
74.00253 161
74.02264 153
74.04276 162
74.06287 169
74.08299 160
74.1031 169
74.12321 172
74.14333 154
74.16344 163
74.18355 145
74.20367 146
74.22378 139
74.2439 171
74.26401 140
74.28412 158
74.30424 165
74.32435 166
74.34446 152
74.36458 146
74.38469 167
74.40481 168
74.42492 176
74.44503 175
74.46515 162
74.48526 162
74.50537 172
74.52549 150
74.5456 166
74.56571 178
74.58583 152
74.60594 167
74.62606 150
74.64617 146
74.66628 171
74.6864 189
74.70651 184
74.72662 149
74.74674 161
74.76685 212
74.78697 148
74.80708 167
74.82719 163
74.84731 165
74.86742 163
74.88753 174
74.90765 169
74.92776 171
74.94787 155
74.96799 181
74.9881 171
75.00822 169
