3.00117 20381
3.02128 20112
3.0414 19786
3.06151 18876
3.08162 18378
3.10174 17410
3.12185 17320
3.14197 17014
3.16208 16411
3.18219 16095
3.20231 15277
3.22242 15040
3.24253 14747
3.26265 14171
3.28276 13635
3.30288 13486
3.32299 12873
3.3431 12627
3.36322 12079
3.38333 11714
3.40344 11368
3.42356 11018
3.44367 10598
3.46379 10138
3.4839 10067
3.50401 9620
3.52413 9194
3.54424 8868
3.56435 8476
3.58447 8359
3.60458 7891
3.62469 7674
3.64481 7424
3.66492 7011
3.68504 6883
3.70515 6451
3.72526 6279
3.74538 6145
3.76549 5625
3.7856 5703
3.80572 5050
3.82583 5256
3.84595 5007
3.86606 4775
3.88617 4481
3.90629 4258
3.9264 4237
3.94651 4018
3.96663 3585
3.98674 3617
4.00686 3476
4.02697 3343
4.04708 3195
4.0672 3132
4.08731 3013
4.10742 2675
4.12754 2492
4.14765 2592
4.16776 2415
4.18788 2357
4.20799 2038
4.22811 2180
4.24822 2122
4.26833 2014
4.28845 1976
4.30856 1783
4.32867 1773
4.34879 1830
4.3689 1795
4.38902 1759
4.40913 1423
4.42924 1466
4.44936 1553
4.46947 1482
4.48958 1530
4.5097 1369
4.52981 1314
4.54992 1324
4.57004 1263
4.59015 1362
4.61027 1146
4.63038 1215
4.65049 1146
4.67061 1153
4.69072 1143
4.71083 1095
4.73095 996
4.75106 1050
4.77118 1037
4.79129 999
4.8114 921
4.83152 945
4.85163 883
4.87174 938
4.89186 860
4.91197 862
4.93209 859
4.9522 845
4.97231 854
4.99243 761
5.01254 700
5.03265 726
5.05277 700
5.07288 711
5.09299 702
5.11311 689
5.13322 635
5.15334 695
5.17345 669
5.19356 647
5.21368 638
5.23379 613
5.2539 618
5.27402 591
5.29413 555
5.31425 524
5.33436 571
5.35447 546
5.37459 540
5.3947 517
5.41481 488
5.43493 526
5.45504 508
5.47516 489
5.49527 461
5.51538 430
5.5355 446
5.55561 468
5.57572 444
5.59584 405
5.61595 421
5.63606 473
5.65618 396
5.67629 458
5.69641 407
5.71652 383
5.73663 410
5.75675 384
5.77686 423
5.79697 369
5.81709 365
5.8372 401
5.85732 373
5.87743 347
5.89754 343
5.91766 327
5.93777 366
5.95788 376
5.978 317
5.99811 316
6.01823 344
6.03834 311
6.05845 331
6.07857 334
6.09868 320
6.11879 341
6.13891 314
6.15902 359
6.17913 358
6.19925 315
6.21936 346
6.23948 344
6.25959 294
6.2797 337
6.29982 314
6.31993 311
6.34004 285
6.36016 276
6.38027 291
6.40039 304
6.4205 291
6.44061 269
6.46073 335
6.48084 255
6.50095 298
6.52107 269
6.54118 296
6.56129 266
6.58141 289
6.60152 272
6.62164 263
6.64175 279
6.66186 265
6.68198 270
6.70209 232
6.7222 254
6.74232 273
6.76243 266
6.78255 268
6.80266 249
6.82277 248
6.84289 258
6.863 251
6.88311 269
6.90323 268
6.92334 238
6.94346 240
6.96357 263
6.98368 261
7.0038 256
7.02391 220
7.04402 239
7.06414 251
7.08425 243
7.10436 271
7.12448 220
7.14459 231
7.16471 268
7.18482 245
7.20493 244
7.22505 255
7.24516 258
7.26527 235
7.28539 251
7.3055 290
7.32562 288
7.34573 251
7.36584 284
7.38596 239
7.40607 294
7.42618 282
7.4463 222
7.46641 250
7.48653 245
7.50664 266
7.52675 250
7.54687 263
7.56698 271
7.58709 243
7.60721 277
7.62732 264
7.64743 263
7.66755 290
7.68766 248
7.70778 251
7.72789 277
7.748 253
7.76812 277
7.78823 247
7.80834 231
7.82846 251
7.84857 265
7.86869 253
7.8888 275
7.90891 273
7.92903 277
7.94914 255
7.96925 267
7.98937 237
8.00948 271
8.0296 294
8.04971 258
8.06982 281
8.08994 270
8.11005 251
8.13016 256
8.15028 256
8.17039 238
8.1905 231
8.21062 270
8.23073 282
8.25085 252
8.27096 271
8.29107 246
8.31119 262
8.3313 248
8.35141 274
8.37153 220
8.39164 249
8.41176 279
8.43187 292
8.45198 291
8.4721 265
8.49221 288
8.51232 248
8.53244 279
8.55255 292
8.57266 298
8.59278 313
8.61289 309
8.63301 284
8.65312 321
8.67323 280
8.69335 303
8.71346 323
8.73357 325
8.75369 366
8.7738 328
8.79392 378
8.81403 356
8.83414 401
8.85426 367
8.87437 365
8.89448 393
8.9146 320
8.93471 352
8.95483 282
8.97494 278
8.99505 273
9.01517 275
9.03528 286
9.05539 283
9.07551 259
9.09562 285
9.11573 267
9.13585 282
9.15596 288
9.17608 254
9.19619 242
9.2163 239
9.23642 250
9.25653 250
9.27664 268
9.29676 297
9.31687 293
9.33699 289
9.3571 277
9.37721 251
9.39733 258
9.41744 312
9.43755 284
9.45767 288
9.47778 271
9.4979 273
9.51801 253
9.53812 263
9.55824 262
9.57835 298
9.59846 240
9.61858 265
9.63869 246
9.6588 256
9.67892 256
9.69903 288
9.71915 270
9.73926 239
9.75937 276
9.77949 267
9.7996 291
9.81971 266
9.83983 299
9.85994 282
9.88006 272
9.90017 241
9.92028 251
9.9404 273
9.96051 247
9.98062 288
10.00074 282
10.02085 264
10.04097 242
10.06108 258
10.08119 275
10.10131 281
10.12142 254
10.14153 269
10.16165 237
10.18176 242
10.20187 232
10.22199 258
10.2421 266
10.26222 232
10.28233 276
10.30244 259
10.32256 276
10.34267 290
10.36278 256
10.3829 260
10.40301 306
10.42313 295
10.44324 301
10.46335 317
10.48347 235
10.50358 277
10.52369 283
10.54381 294
10.56392 304
10.58403 305
10.60415 288
10.62426 260
10.64438 250
10.66449 253
10.6846 276
10.70472 293
10.72483 226
10.74494 300
10.76506 255
10.78517 256
10.80529 279
10.8254 278
10.84551 248
10.86563 230
10.88574 285
10.90585 257
10.92597 275
10.94608 292
10.9662 236
10.98631 270
11.00642 239
11.02654 250
11.04665 263
11.06676 260
11.08688 277
11.10699 296
11.1271 245
11.14722 269
11.16733 276
11.18745 257
11.20756 246
11.22767 281
11.24779 257
11.2679 240
11.28801 253
11.30813 237
11.32824 247
11.34836 260
11.36847 252
11.38858 250
11.4087 274
11.42881 267
11.44892 264
11.46904 273
11.48915 245
11.50927 262
11.52938 287
11.54949 244
11.56961 285
11.58972 268
11.60983 237
11.62995 276
11.65006 251
11.67017 293
11.69029 277
11.7104 268
11.73052 251
11.75063 278
11.77074 258
11.79086 271
11.81097 270
11.83108 243
11.8512 283
11.87131 257
11.89143 312
11.91154 279
11.93165 274
11.95177 277
11.97188 257
11.99199 293
12.01211 264
12.03222 298
12.05234 290
12.07245 264
12.09256 260
12.11268 258
12.13279 285
12.1529 280
12.17302 264
12.19313 277
12.21324 286
12.23336 305
12.25347 266
12.27359 277
12.2937 288
12.31381 267
12.33393 259
12.35404 270
12.37415 247
12.39427 280
12.41438 287
12.4345 267
12.45461 289
12.47472 291
12.49484 259
12.51495 237
12.53506 249
12.55518 258
12.57529 269
12.5954 246
12.61552 272
12.63563 258
12.65575 260
12.67586 270
12.69597 233
12.71609 249
12.7362 221
12.75631 252
12.77643 243
12.79654 261
12.81666 250
12.83677 246
12.85688 247
12.877 235
12.89711 252
12.91722 243
12.93734 242
12.95745 238
12.97757 249
12.99768 249
13.01779 224
13.03791 281
13.05802 224
13.07813 252
13.09825 258
13.11836 249
13.13847 260
13.15859 207
13.1787 232
13.19882 232
13.21893 227
13.23904 248
13.25916 261
13.27927 253
13.29938 228
13.3195 214
13.33961 235
13.35973 233
13.37984 270
13.39995 262
13.42007 228
13.44018 223
13.46029 251
13.48041 225
13.50052 249
13.52064 241
13.54075 214
13.56086 228
13.58098 224
13.60109 239
13.6212 244
13.64132 238
13.66143 245
13.68154 220
13.70166 244
13.72177 222
13.74189 252
13.762 244
13.78211 251
13.80223 273
13.82234 258
13.84245 263
13.86257 227
13.88268 245
13.9028 261
13.92291 227
13.94302 223
13.96314 230
13.98325 214
14.00336 257
14.02348 191
14.04359 247
14.06371 231
14.08382 220
14.10393 223
14.12405 231
14.14416 224
14.16427 232
14.18439 246
14.2045 239
14.22461 220
14.24473 210
14.26484 208
14.28496 195
14.30507 197
14.32518 229
14.3453 212
14.36541 203
14.38552 226
14.40564 215
14.42575 213
14.44587 220
14.46598 235
14.48609 198
14.50621 207
14.52632 210
14.54643 228
14.56655 218
14.58666 189
14.60677 213
14.62689 237
14.647 227
14.66712 227
14.68723 234
14.70734 213
14.72746 248
14.74757 173
14.76768 221
14.7878 216
14.80791 211
14.82803 218
14.84814 246
14.86825 233
14.88837 196
14.90848 226
14.92859 213
14.94871 212
14.96882 198
14.98894 230
15.00905 230
15.02916 217
15.04928 216
15.06939 210
15.0895 216
15.10962 196
15.12973 225
15.14984 214
15.16996 206
15.19007 213
15.21019 209
15.2303 199
15.25041 212
15.27053 197
15.29064 221
15.31075 227
15.33087 247
15.35098 199
15.3711 243
15.39121 214
15.41132 198
15.43144 232
15.45155 228
15.47166 203
15.49178 206
15.51189 171
15.53201 203
15.55212 222
15.57223 199
15.59235 218
15.61246 205
15.63257 232
15.65269 216
15.6728 210
15.69291 223
15.71303 192
15.73314 209
15.75326 216
15.77337 233
15.79348 227
15.8136 195
15.83371 190
15.85382 196
15.87394 215
15.89405 227
15.91417 203
15.93428 214
15.95439 220
15.97451 232
15.99462 207
16.01473 200
16.03485 224
16.05496 208
16.07508 212
16.09519 217
16.1153 243
16.13542 197
16.15553 212
16.17564 184
16.19576 195
16.21587 202
16.23598 172
16.2561 212
16.27621 212
16.29633 217
16.31644 207
16.33655 219
16.35667 208
16.37678 180
16.39689 207
16.41701 211
16.43712 212
16.45724 183
16.47735 191
16.49746 197
16.51758 207
16.53769 195
16.5578 177
16.57792 192
16.59803 203
16.61814 223
16.63826 205
16.65837 188
16.67849 198
16.6986 205
16.71871 197
16.73883 214
16.75894 191
16.77905 209
16.79917 214
16.81928 205
16.8394 186
16.85951 216
16.87962 208
16.89974 222
16.91985 198
16.93996 199
16.96008 213
16.98019 220
17.00031 194
17.02042 210
17.04053 192
17.06065 200
17.08076 198
17.10087 211
17.12099 190
17.1411 178
17.16121 227
17.18133 216
17.20144 196
17.22156 215
17.24167 212
17.26178 214
17.2819 188
17.30201 191
17.32212 185
17.34224 213
17.36235 217
17.38247 239
17.40258 220
17.42269 200
17.44281 201
17.46292 214
17.48303 185
17.50315 207
17.52326 210
17.54338 212
17.56349 220
17.5836 193
17.60372 208
17.62383 227
17.64394 199
17.66406 216
17.68417 225
17.70428 264
17.7244 222
17.74451 244
17.76463 243
17.78474 210
17.80485 219
17.82497 214
17.84508 218
17.86519 203
17.88531 226
17.90542 191
17.92554 201
17.94565 188
17.96576 188
17.98588 210
18.00599 226
18.0261 195
18.04622 218
18.06633 204
18.08645 202
18.10656 231
18.12667 204
18.14679 188
18.1669 206
18.18701 213
18.20713 214
18.22724 237
18.24735 221
18.26747 206
18.28758 196
18.3077 185
18.32781 224
18.34792 199
18.36804 211
18.38815 201
18.40826 182
18.42838 232
18.44849 193
18.46861 229
18.48872 204
18.50883 201
18.52895 179
18.54906 234
18.56917 221
18.58929 210
18.6094 230
18.62951 202
18.64963 195
18.66974 238
18.68986 198
18.70997 187
18.73008 237
18.7502 238
18.77031 218
18.79042 233
18.81054 242
18.83065 213
18.85077 215
18.87088 215
18.89099 232
18.91111 236
18.93122 221
18.95133 196
18.97145 262
18.99156 218
19.01168 224
19.03179 215
19.0519 211
19.07202 212
19.09213 241
19.11224 201
19.13236 228
19.15247 209
19.17258 243
19.1927 243
19.21281 232
19.23293 231
19.25304 227
19.27315 230
19.29327 228
19.31338 239
19.33349 243
19.35361 236
19.37372 246
19.39384 246
19.41395 243
19.43406 232
19.45418 259
19.47429 281
19.4944 219
19.51452 271
19.53463 253
19.55475 297
19.57486 267
19.59497 296
19.61509 299
19.6352 325
19.65531 301
19.67543 384
19.69554 331
19.71565 379
19.73577 381
19.75588 381
19.776 406
19.79611 392
19.81622 401
19.83634 421
19.85645 422
19.87656 391
19.89668 340
19.91679 358
19.93691 374
19.95702 314
19.97713 356
19.99725 335
20.01736 371
20.03747 350
20.05759 349
20.0777 341
20.09782 336
20.11793 383
20.13804 341
20.15816 358
20.17827 374
20.19838 348
20.2185 311
20.23861 367
20.25872 323
20.27884 368
20.29895 385
20.31907 346
20.33918 332
20.35929 383
20.37941 387
20.39952 434
20.41963 446
20.43975 404
20.45986 478
20.47998 466
20.50009 473
20.5202 501
20.54032 517
20.56043 563
20.58054 642
20.60066 672
20.62077 783
20.64088 998
20.661 1249
20.68111 1513
20.70123 1915
20.72134 2403
20.74145 3309
20.76157 4295
20.78168 5324
20.80179 6575
20.82191 6938
20.84202 6834
20.86214 5832
20.88225 4482
20.90236 3162
20.92248 2076
20.94259 1334
20.9627 891
20.98282 704
21.00293 593
21.02305 538
21.04316 498
21.06327 472
21.08339 503
21.1035 408
21.12361 476
21.14373 414
21.16384 377
21.18395 358
21.20407 389
21.22418 373
21.2443 386
21.26441 337
21.28452 353
21.30464 340
21.32475 343
21.34486 298
21.36498 283
21.38509 326
21.40521 325
21.42532 301
21.44543 287
21.46555 314
21.48566 336
21.50577 359
21.52589 343
21.546 337
21.56612 301
21.58623 265
21.60634 287
21.62646 253
21.64657 322
21.66668 303
21.6868 266
21.70691 313
21.72702 271
21.74714 297
21.76725 299
21.78737 282
21.80748 270
21.82759 291
21.84771 269
21.86782 287
21.88793 269
21.90805 260
21.92816 297
21.94828 291
21.96839 305
21.9885 306
22.00862 307
22.02873 312
22.04884 297
22.06896 291
22.08907 302
22.10919 329
22.1293 320
22.14941 279
22.16953 286
22.18964 279
22.20975 284
22.22987 276
22.24998 276
22.27009 291
22.29021 281
22.31032 264
22.33044 283
22.35055 272
22.37066 276
22.39078 263
22.41089 298
22.431 259
22.45112 293
22.47123 262
22.49135 292
22.51146 280
22.53157 299
22.55169 260
22.5718 282
22.59191 257
22.61203 257
22.63214 288
22.65225 259
22.67237 255
22.69248 269
22.7126 280
22.73271 293
22.75282 272
22.77294 279
22.79305 274
22.81316 295
22.83328 276
22.85339 284
22.87351 279
22.89362 253
22.91373 274
22.93385 286
22.95396 287
22.97407 271
22.99419 271
23.0143 278
23.03442 301
23.05453 256
23.07464 274
23.09476 251
23.11487 245
23.13498 261
23.1551 251
23.17521 262
23.19532 279
23.21544 285
23.23555 292
23.25567 265
23.27578 248
23.29589 242
23.31601 281
23.33612 255
23.35623 250
23.37635 248
23.39646 275
23.41658 271
23.43669 275
23.4568 279
23.47692 301
23.49703 293
23.51714 297
23.53726 263
23.55737 284
23.57749 278
23.5976 249
23.61771 275
23.63783 275
23.65794 306
23.67805 261
23.69817 297
23.71828 284
23.73839 279
23.75851 250
23.77862 310
23.79874 269
23.81885 322
23.83896 307
23.85908 318
23.87919 335
23.8993 296
23.91942 294
23.93953 325
23.95965 316
23.97976 364
23.99987 370
24.01999 294
24.0401 316
24.06021 292
24.08033 276
24.10044 294
24.12056 283
24.14067 307
24.16078 279
24.1809 273
24.20101 279
24.22112 291
24.24124 300
24.26135 277
24.28146 275
24.30158 281
24.32169 266
24.34181 286
24.36192 278
24.38203 252
24.40215 288
24.42226 262
24.44237 244
24.46249 303
24.4826 258
24.50272 265
24.52283 255
24.54294 255
24.56306 285
24.58317 262
24.60328 277
24.6234 290
24.64351 277
24.66362 333
24.68374 282
24.70385 264
24.72397 255
24.74408 273
24.76419 264
24.78431 296
24.80442 253
24.82453 257
24.84465 314
24.86476 309
24.88488 302
24.90499 252
24.9251 308
24.94522 279
24.96533 298
24.98544 292
25.00556 295
25.02567 287
25.04579 349
25.0659 288
25.08601 274
25.10613 293
25.12624 298
25.14635 278
25.16647 308
25.18658 328
25.20669 302
25.22681 335
25.24692 311
25.26704 286
25.28715 298
25.30726 321
25.32738 320
25.34749 362
25.3676 316
25.38772 307
25.40783 366
25.42795 308
25.44806 350
25.46817 331
25.48829 345
25.5084 392
25.52851 354
25.54863 327
25.56874 386
25.58886 420
25.60897 375
25.62908 382
25.6492 439
25.66931 396
25.68942 428
25.70954 444
25.72965 472
25.74976 482
25.76988 466
25.78999 433
25.81011 517
25.83022 478
25.85033 483
25.87045 521
25.89056 526
25.91067 539
25.93079 543
25.9509 497
25.97102 573
25.99113 596
26.01124 525
26.03136 601
26.05147 629
26.07158 675
26.0917 684
26.11181 696
26.13193 765
26.15204 871
26.17215 917
26.19227 985
26.21238 1078
26.23249 1185
26.25261 1248
26.27272 1333
26.29283 1632
26.31295 1735
26.33306 2046
26.35318 2413
26.37329 2885
26.3934 3476
26.41352 4285
26.43363 5447
26.45374 6897
26.47386 8868
26.49397 11887
26.51409 15102
26.5342 19539
26.55431 23776
26.57443 28572
26.59454 31440
26.61465 31901
26.63477 28854
26.65488 22514
26.67499 16817
26.69511 12844
26.71522 8309
26.73534 4837
26.75545 2931
26.77556 1991
26.79568 1731
26.81579 1521
26.8359 1410
26.85602 1214
26.87613 1124
26.89625 1102
26.91636 975
26.93647 863
26.95659 839
26.9767 693
26.99681 715
27.01693 695
27.03704 618
27.05716 604
27.07727 534
27.09738 547
27.1175 546
27.13761 459
27.15772 519
27.17784 522
27.19795 517
27.21806 463
27.23818 492
27.25829 501
27.27841 455
27.29852 459
27.31863 477
27.33875 511
27.35886 486
27.37897 482
27.39909 505
27.4192 491
27.43932 479
27.45943 475
27.47954 443
27.49966 405
27.51977 388
27.53988 429
27.56 430
27.58011 400
27.60023 375
27.62034 393
27.64045 383
27.66057 394
27.68068 415
27.70079 421
27.72091 415
27.74102 420
27.76113 420
27.78125 397
27.80136 399
27.82148 441
27.84159 429
27.8617 356
27.88182 378
27.90193 398
27.92204 408
27.94216 375
27.96227 351
27.98239 341
28.0025 382
28.02261 345
28.04273 340
28.06284 327
28.08295 350
28.10307 283
28.12318 288
28.1433 290
28.16341 334
28.18352 339
28.20364 324
28.22375 320
28.24386 309
28.26398 354
28.28409 277
28.3042 316
28.32432 282
28.34443 321
28.36455 266
28.38466 320
28.40477 272
28.42489 292
28.445 321
28.46511 301
28.48523 318
28.50534 341
28.52546 338
28.54557 292
28.56568 330
28.5858 340
28.60591 254
28.62602 309
28.64614 298
28.66625 290
28.68636 300
28.70648 317
28.72659 285
28.74671 243
28.76682 266
28.78693 279
28.80705 289
28.82716 303
28.84727 266
28.86739 294
28.8875 292
28.90762 262
28.92773 297
28.94784 271
28.96796 249
28.98807 249
29.00818 263
29.0283 262
29.04841 262
29.06853 265
29.08864 318
29.10875 294
29.12887 278
29.14898 313
29.16909 298
29.18921 246
29.20932 291
29.22943 275
29.24955 271
29.26966 256
29.28978 235
29.30989 248
29.33 283
29.35012 269
29.37023 267
29.39034 214
29.41046 271
29.43057 246
29.45069 303
29.4708 270
29.49091 268
29.51103 245
29.53114 281
29.55125 245
29.57137 259
29.59148 267
29.6116 259
29.63171 266
29.65182 324
29.67194 287
29.69205 299
29.71216 265
29.73228 297
29.75239 276
29.7725 293
29.79262 269
29.81273 302
29.83285 292
29.85296 304
29.87307 260
29.89319 264
29.9133 305
29.93341 257
29.95353 261
29.97364 276
29.99376 294
30.01387 258
30.03398 276
30.0541 248
30.07421 278
30.09432 279
30.11444 257
30.13455 294
30.15467 274
30.17478 264
30.19489 259
30.21501 263
30.23512 275
30.25523 267
30.27535 264
30.29546 272
30.31557 282
30.33569 260
30.3558 262
30.37592 264
30.39603 265
30.41614 243
30.43626 258
30.45637 263
30.47648 249
30.4966 230
30.51671 267
30.53683 231
30.55694 256
30.57705 252
30.59717 234
30.61728 250
30.63739 242
30.65751 225
30.67762 267
30.69773 240
30.71785 244
30.73796 249
30.75808 248
30.77819 258
30.7983 268
30.81842 228
30.83853 234
30.85864 243
30.87876 265
30.89887 242
30.91899 269
30.9391 240
30.95921 242
30.97933 212
30.99944 253
31.01955 238
31.03967 241
31.05978 229
31.0799 235
31.10001 248
31.12012 239
31.14024 244
31.16035 258
31.18046 278
31.20058 241
31.22069 255
31.2408 264
31.26092 226
31.28103 258
31.30115 244
31.32126 246
31.34137 209
31.36149 236
31.3816 241
31.40171 232
31.42183 225
31.44194 213
31.46206 215
31.48217 219
31.50228 184
31.5224 221
31.54251 210
31.56262 226
31.58274 220
31.60285 223
31.62297 223
31.64308 192
31.66319 208
31.68331 222
31.70342 240
31.72353 205
31.74365 242
31.76376 210
31.78387 236
31.80399 227
31.8241 217
31.84422 217
31.86433 201
31.88444 253
31.90456 212
31.92467 231
31.94478 258
31.9649 271
31.98501 256
32.00513 243
32.02524 192
32.04535 210
32.06547 233
32.08558 206
32.10569 232
32.12581 247
32.14592 195
32.16604 240
32.18615 246
32.20626 220
32.22638 219
32.24649 223
32.2666 234
32.28672 229
32.30683 213
32.32694 232
32.34706 214
32.36717 249
32.38729 189
32.4074 225
32.42751 200
32.44763 227
32.46774 205
32.48785 198
32.50797 231
32.52808 217
32.5482 214
32.56831 221
32.58842 229
32.60854 240
32.62865 218
32.64876 227
32.66888 226
32.68899 219
32.7091 208
32.72922 196
32.74933 218
32.76945 247
32.78956 210
32.80967 253
32.82979 233
32.8499 213
32.87001 211
32.89013 248
32.91024 208
32.93036 213
32.95047 217
32.97058 250
32.9907 251
33.01081 234
33.03092 257
33.05104 249
33.07115 249
33.09127 231
33.11138 230
33.13149 223
33.15161 228
33.17172 237
33.19183 210
33.21195 243
33.23206 226
33.25217 230
33.27229 234
33.2924 215
33.31252 218
33.33263 244
33.35274 216
33.37286 194
33.39297 194
33.41308 210
33.4332 195
33.45331 204
33.47343 203
33.49354 202
33.51365 204
33.53377 176
33.55388 228
33.57399 222
33.59411 237
33.61422 217
33.63434 221
33.65445 193
33.67456 198
33.69468 194
33.71479 186
33.7349 190
33.75502 201
33.77513 204
33.79524 179
33.81536 189
33.83547 226
33.85559 206
33.8757 251
33.89581 186
33.91593 204
33.93604 223
33.95615 205
33.97627 199
33.99638 204
34.0165 230
34.03661 187
34.05672 234
34.07684 196
34.09695 212
34.11706 248
34.13718 217
34.15729 226
34.17741 237
34.19752 259
34.21763 213
34.23775 220
34.25786 230
34.27797 239
34.29809 229
34.3182 250
34.33831 215
34.35843 254
34.37854 265
34.39866 241
34.41877 251
34.43888 211
34.459 259
34.47911 232
34.49922 244
34.51934 258
34.53945 265
34.55957 261
34.57968 297
34.59979 268
34.61991 260
34.64002 290
34.66013 289
34.68025 319
34.70036 330
34.72047 310
34.74059 303
34.7607 342
34.78082 338
34.80093 334
34.82104 322
34.84116 354
34.86127 314
34.88138 352
34.9015 314
34.92161 332
34.94173 344
34.96184 298
34.98195 307
35.00207 299
35.02218 277
35.04229 283
35.06241 273
35.08252 295
35.10264 321
35.12275 289
35.14286 299
35.16298 268
35.18309 276
35.2032 251
35.22332 295
35.24343 276
35.26354 271
35.28366 257
35.30377 274
35.32389 270
35.344 276
35.36411 269
35.38423 281
35.40434 308
35.42445 268
35.44457 268
35.46468 279
35.4848 274
35.50491 301
35.52502 229
35.54514 257
35.56525 319
35.58536 257
35.60548 238
35.62559 258
35.64571 288
35.66582 271
35.68593 279
35.70605 213
35.72616 256
35.74627 271
35.76639 278
35.7865 286
35.80661 257
35.82673 279
35.84684 247
35.86696 254
35.88707 260
35.90718 266
35.9273 279
35.94741 291
35.96752 279
35.98764 273
36.00775 260
36.02787 298
36.04798 292
36.06809 314
36.08821 308
36.10832 308
36.12843 317
36.14855 347
36.16866 310
36.18878 339
36.20889 360
36.229 353
36.24912 398
36.26923 469
36.28934 485
36.30946 575
36.32957 725
36.34968 725
36.3698 935
36.38991 1140
36.41003 1330
36.43014 1520
36.45025 1802
36.47037 2041
36.49048 2229
36.51059 2095
36.53071 1987
36.55082 1640
36.57094 1360
36.59105 1211
36.61116 1119
36.63128 887
36.65139 594
36.6715 446
36.69162 376
36.71173 333
36.73184 324
36.75196 339
36.77207 309
36.79219 299
36.8123 285
36.83241 252
36.85253 297
36.87264 278
36.89275 270
36.91287 270
36.93298 242
36.9531 247
36.97321 253
36.99332 240
37.01344 260
37.03355 279
37.05366 263
37.07378 222
37.09389 238
37.11401 250
37.13412 242
37.15423 246
37.17435 236
37.19446 230
37.21457 240
37.23469 241
37.2548 246
37.27491 212
37.29503 225
37.31514 216
37.33526 216
37.35537 239
37.37548 254
37.3956 220
37.41571 242
37.43582 248
37.45594 224
37.47605 235
37.49617 249
37.51628 245
37.53639 199
37.55651 225
37.57662 264
37.59673 244
37.61685 229
37.63696 256
37.65708 220
37.67719 238
37.6973 243
37.71742 249
37.73753 241
37.75764 235
37.77776 222
37.79787 208
37.81798 254
37.8381 251
37.85821 238
37.87833 220
37.89844 209
37.91855 219
37.93867 246
37.95878 241
37.97889 205
37.99901 250
38.01912 217
38.03924 194
38.05935 225
38.07946 246
38.09958 255
38.11969 214
38.1398 235
38.15992 208
38.18003 237
38.20015 259
38.22026 247
38.24037 228
38.26049 276
38.2806 259
38.30071 223
38.32083 240
38.34094 246
38.36105 224
38.38117 256
38.40128 255
38.4214 239
38.44151 223
38.46162 250
38.48174 253
38.50185 224
38.52196 201
38.54208 234
38.56219 235
38.58231 225
38.60242 252
38.62253 239
38.64265 191
38.66276 222
38.68287 231
38.70299 250
38.7231 233
38.74321 248
38.76333 236
38.78344 200
38.80356 201
38.82367 241
38.84378 243
38.8639 244
38.88401 238
38.90412 221
38.92424 251
38.94435 235
38.96447 261
38.98458 246
39.00469 297
39.02481 283
39.04492 255
39.06503 295
39.08515 285
39.10526 337
39.12538 333
39.14549 357
39.1656 404
39.18572 459
39.20583 441
39.22594 576
39.24606 598
39.26617 719
39.28628 831
39.3064 1019
39.32651 1161
39.34663 1353
39.36674 1624
39.38685 1838
39.40697 1985
39.42708 2059
39.44719 1942
39.46731 1660
39.48742 1269
39.50754 1183
39.52765 1071
39.54776 863
39.56788 709
39.58799 554
39.6081 438
39.62822 326
39.64833 318
39.66845 312
39.68856 305
39.70867 302
39.72879 289
39.7489 299
39.76901 247
39.78913 258
39.80924 243
39.82935 282
39.84947 283
39.86958 252
39.8897 286
39.90981 240
39.92992 297
39.95004 273
39.97015 295
39.99026 282
40.01038 353
40.03049 364
40.05061 366
40.07072 388
40.09083 456
40.11095 534
40.13106 617
40.15117 708
40.17129 782
40.1914 874
40.21152 954
40.23163 1096
40.25174 1044
40.27186 973
40.29197 854
40.31208 715
40.3322 695
40.35231 620
40.37242 549
40.39254 456
40.41265 303
40.43277 301
40.45288 268
40.47299 261
40.49311 243
40.51322 220
40.53333 249
40.55345 228
40.57356 217
40.59368 229
40.61379 245
40.6339 228
40.65402 230
40.67413 213
40.69424 232
40.71436 218
40.73447 216
40.75458 221
40.7747 236
40.79481 218
40.81493 234
40.83504 209
40.85515 227
40.87527 234
40.89538 228
40.91549 215
40.93561 223
40.95572 227
40.97584 226
40.99595 211
41.01606 213
41.03618 179
41.05629 228
41.0764 216
41.09652 222
41.11663 203
41.13675 224
41.15686 256
41.17697 203
41.19709 232
41.2172 238
41.23731 218
41.25743 193
41.27754 226
41.29765 264
41.31777 224
41.33788 230
41.358 220
41.37811 229
41.39822 234
41.41834 227
41.43845 245
41.45856 220
41.47868 241
41.49879 230
41.51891 200
41.53902 236
41.55913 208
41.57925 246
41.59936 219
41.61947 238
41.63959 243
41.6597 225
41.67982 240
41.69993 232
41.72004 221
41.74016 233
41.76027 238
41.78038 243
41.8005 231
41.82061 240
41.84072 220
41.86084 216
41.88095 245
41.90107 259
41.92118 232
41.94129 267
41.96141 244
41.98152 225
42.00163 260
42.02175 270
42.04186 244
42.06198 268
42.08209 303
42.1022 321
42.12232 330
42.14243 356
42.16254 384
42.18266 383
42.20277 454
42.22289 495
42.243 573
42.26311 654
42.28323 764
42.30334 867
42.32345 1036
42.34357 1161
42.36368 1335
42.38379 1477
42.40391 1516
42.42402 1393
42.44414 1250
42.46425 993
42.48436 889
42.50448 799
42.52459 792
42.5447 682
42.56482 514
42.58493 356
42.60505 285
42.62516 304
42.64527 268
42.66539 259
42.6855 247
42.70561 249
42.72573 223
42.74584 220
42.76595 224
42.78607 240
42.80618 216
42.8263 201
42.84641 229
42.86652 203
42.88664 203
42.90675 203
42.92686 198
42.94698 206
42.96709 197
42.98721 193
43.00732 194
43.02743 218
43.04755 224
43.06766 209
43.08777 198
43.10789 170
43.128 183
43.14812 184
43.16823 191
43.18834 195
43.20846 206
43.22857 205
43.24868 197
43.2688 179
43.28891 199
43.30902 190
43.32914 205
43.34925 174
43.36937 178
43.38948 199
43.40959 195
43.42971 187
43.44982 182
43.46993 195
43.49005 185
43.51016 190
43.53028 198
43.55039 211
43.5705 160
43.59062 190
43.61073 170
43.63084 163
43.65096 172
43.67107 174
43.69119 200
43.7113 192
43.73141 187
43.75153 190
43.77164 194
43.79175 204
43.81187 193
43.83198 185
43.85209 184
43.87221 193
43.89232 187
43.91244 211
43.93255 185
43.95266 203
43.97278 200
43.99289 192
44.013 211
44.03312 173
44.05323 195
44.07335 203
44.09346 204
44.11357 181
44.13369 191
44.1538 184
44.17391 192
44.19403 185
44.21414 192
44.23426 191
44.25437 196
44.27448 174
44.2946 193
44.31471 191
44.33482 179
44.35494 188
44.37505 192
44.39516 214
44.41528 182
44.43539 172
44.45551 197
44.47562 160
44.49573 211
44.51585 197
44.53596 201
44.55607 198
44.57619 217
44.5963 192
44.61642 186
44.63653 200
44.65664 218
44.67676 189
44.69687 174
44.71698 176
44.7371 188
44.75721 193
44.77732 186
44.79744 190
44.81755 188
44.83767 173
44.85778 189
44.87789 201
44.89801 199
44.91812 194
44.93823 225
44.95835 180
44.97846 195
44.99858 190
45.01869 190
45.0388 187
45.05892 179
45.07903 195
45.09914 199
45.11926 207
45.13937 196
45.15949 202
45.1796 212
45.19971 219
45.21983 192
45.23994 194
45.26005 229
45.28017 202
45.30028 247
45.32039 236
45.34051 232
45.36062 220
45.38074 271
45.40085 246
45.42096 260
45.44108 280
45.46119 279
45.4813 317
45.50142 295
45.52153 344
45.54165 365
45.56176 372
45.58187 438
45.60199 497
45.6221 530
45.64221 613
45.66233 745
45.68244 798
45.70256 857
45.72267 1029
45.74278 990
45.7629 973
45.78301 860
45.80312 772
45.82324 668
45.84335 596
45.86346 597
45.88358 500
45.90369 442
45.92381 380
45.94392 283
45.96403 239
45.98415 236
46.00426 216
46.02437 230
46.04449 235
46.0646 211
46.08472 204
46.10483 205
46.12494 218
46.14506 224
46.16517 212
46.18528 213
46.2054 207
46.22551 178
46.24563 189
46.26574 169
46.28585 191
46.30597 206
46.32608 184
46.34619 169
46.36631 178
46.38642 182
46.40653 207
46.42665 196
46.44676 159
46.46688 176
46.48699 180
46.5071 159
46.52722 187
46.54733 195
46.56744 176
46.58756 168
46.60767 187
46.62779 192
46.6479 188
46.66801 165
46.68813 167
46.70824 190
46.72835 174
46.74847 199
46.76858 167
46.78869 162
46.80881 155
46.82892 155
46.84904 168
46.86915 185
46.88926 145
46.90938 180
46.92949 180
46.9496 172
46.96972 173
46.98983 179
47.00995 174
47.03006 185
47.05017 178
47.07029 193
47.0904 188
47.11051 187
47.13063 171
47.15074 160
47.17086 173
47.19097 169
47.21108 179
47.2312 160
47.25131 176
47.27142 164
47.29154 186
47.31165 165
47.33176 170
47.35188 165
47.37199 166
47.39211 175
47.41222 165
47.43233 158
47.45245 193
47.47256 153
47.49267 187
47.51279 157
47.5329 179
47.55302 160
47.57313 169
47.59324 171
47.61336 154
47.63347 175
47.65358 185
47.6737 180
47.69381 161
47.71393 169
47.73404 160
47.75415 186
47.77427 165
47.79438 194
47.81449 194
47.83461 170
47.85472 182
47.87483 187
47.89495 189
47.91506 173
47.93518 180
47.95529 192
47.9754 175
47.99552 200
48.01563 187
48.03574 159
48.05586 186
48.07597 187
48.09609 177
48.1162 179
48.13631 149
48.15643 159
48.17654 153
48.19665 178
48.21677 197
48.23688 196
48.257 200
48.27711 182
48.29722 167
48.31734 201
48.33745 194
48.35756 198
48.37768 180
48.39779 194
48.4179 210
48.43802 177
48.45813 170
48.47825 177
48.49836 193
48.51847 166
48.53859 205
48.5587 198
48.57881 184
48.59893 192
48.61904 172
48.63916 190
48.65927 194
48.67938 193
48.6995 170
48.71961 181
48.73972 196
48.75984 199
48.77995 177
48.80006 193
48.82018 176
48.84029 165
48.86041 199
48.88052 175
48.90063 187
48.92075 185
48.94086 217
48.96097 185
48.98109 184
49.0012 185
49.02132 178
49.04143 190
49.06154 202
49.08166 175
49.10177 163
49.12188 194
49.142 178
49.16211 189
49.18223 208
49.20234 202
49.22245 239
49.24257 194
49.26268 218
49.28279 196
49.30291 194
49.32302 206
49.34313 214
49.36325 219
49.38336 229
49.40348 192
49.42359 206
49.4437 205
49.46382 208
49.48393 234
49.50404 248
49.52416 241
49.54427 242
49.56439 260
49.5845 246
49.60461 278
49.62473 297
49.64484 234
49.66495 303
49.68507 297
49.70518 328
49.7253 352
49.74541 345
49.76552 418
49.78564 416
49.80575 548
49.82586 557
49.84598 639
49.86609 734
49.8862 834
49.90632 1001
49.92643 1178
49.94655 1308
49.96666 1501
49.98677 1860
50.00689 2119
50.027 2514
50.04711 2780
50.06723 3082
50.08734 3152
50.10746 3006
50.12757 2547
50.14768 2144
50.1678 1800
50.18791 1688
50.20802 1614
50.22814 1523
50.24825 1267
50.26837 976
50.28848 688
50.30859 501
50.32871 394
50.34882 371
50.36893 322
50.38905 331
50.40916 312
50.42927 299
50.44939 311
50.4695 281
50.48962 293
50.50973 253
50.52984 309
50.54996 285
50.57007 280
50.59018 270
50.6103 258
50.63041 254
50.65053 232
50.67064 252
50.69075 250
50.71087 225
50.73098 221
50.75109 195
50.77121 212
50.79132 197
50.81143 179
50.83155 211
50.85166 198
50.87178 167
50.89189 180
50.912 178
50.93212 212
50.95223 175
50.97234 188
50.99246 184
51.01257 188
51.03269 194
51.0528 162
51.07291 181
51.09303 174
51.11314 176
51.13325 197
51.15337 167
51.17348 177
51.1936 172
51.21371 165
51.23382 163
51.25394 157
51.27405 188
51.29416 162
51.31428 164
51.33439 156
51.3545 169
51.37462 162
51.39473 180
51.41485 173
51.43496 184
51.45507 178
51.47519 158
51.4953 160
51.51541 194
51.53553 154
51.55564 150
51.57576 151
51.59587 182
51.61598 163
51.6361 175
51.65621 171
51.67632 153
51.69644 175
51.71655 169
51.73667 166
51.75678 137
51.77689 147
51.79701 158
51.81712 175
51.83723 175
51.85735 153
51.87746 169
51.89757 162
51.91769 192
51.9378 169
51.95792 163
51.97803 160
51.99814 151
52.01826 159
52.03837 156
52.05848 169
52.0786 157
52.09871 175
52.11883 162
52.13894 182
52.15905 166
52.17917 196
52.19928 178
52.21939 149
52.23951 156
52.25962 162
52.27974 149
52.29985 182
52.31996 170
52.34008 190
52.36019 170
52.3803 143
52.40042 170
52.42053 168
52.44064 172
52.46076 175
52.48087 166
52.50099 200
52.5211 153
52.54121 181
52.56133 160
52.58144 179
52.60155 180
52.62167 165
52.64178 171
52.6619 158
52.68201 162
52.70212 192
52.72224 172
52.74235 160
52.76246 162
52.78258 170
52.80269 173
52.8228 161
52.84292 177
52.86303 176
52.88315 182
52.90326 177
52.92337 171
52.94349 176
52.9636 193
52.98371 149
53.00383 182
53.02394 182
53.04406 166
53.06417 199
53.08428 195
53.1044 167
53.12451 179
53.14462 152
53.16474 203
53.18485 188
53.20497 176
53.22508 174
53.24519 186
53.26531 187
53.28542 189
53.30553 184
53.32565 196
53.34576 190
53.36587 185
53.38599 215
53.4061 193
53.42622 178
53.44633 198
53.46644 175
53.48656 194
53.50667 159
53.52678 187
53.5469 210
53.56701 174
53.58713 192
53.60724 183
53.62735 167
53.64747 224
53.66758 191
53.68769 204
53.70781 175
53.72792 164
53.74804 202
53.76815 183
53.78826 226
53.80838 203
53.82849 185
53.8486 183
53.86872 196
53.88883 206
53.90894 203
53.92906 202
53.94917 214
53.96929 200
53.9894 207
54.00951 219
54.02963 201
54.04974 197
54.06985 200
54.08997 207
54.11008 199
54.1302 219
54.15031 219
54.17042 221
54.19054 218
54.21065 214
54.23076 222
54.25088 218
54.27099 240
54.29111 231
54.31122 225
54.33133 213
54.35145 222
54.37156 219
54.39167 225
54.41179 250
54.4319 221
54.45201 267
54.47213 224
54.49224 242
54.51236 264
54.53247 308
54.55258 314
54.5727 348
54.59281 354
54.61292 369
54.63304 423
54.65315 456
54.67327 514
54.69338 585
54.71349 635
54.73361 726
54.75372 825
54.77383 908
54.79395 1006
54.81406 1014
54.83417 1037
54.85429 953
54.8744 821
54.89452 673
54.91463 598
54.93474 625
54.95486 604
54.97497 582
54.99508 612
55.0152 524
55.03531 441
55.05543 373
55.07554 334
55.09565 334
55.11577 410
55.13588 383
55.15599 383
55.17611 399
55.19622 451
55.21634 467
55.23645 527
55.25656 525
55.27668 577
55.29679 512
55.3169 444
55.33702 401
55.35713 402
55.37724 370
55.39736 343
55.41747 338
55.43759 352
55.4577 326
55.47781 262
55.49793 242
55.51804 231
55.53815 203
55.55827 246
55.57838 203
55.5985 202
55.61861 208
55.63872 212
55.65884 206
55.67895 182
55.69906 209
55.71918 193
55.73929 212
55.75941 184
55.77952 189
55.79963 203
55.81975 206
55.83986 186
55.85997 190
55.88009 190
55.9002 196
55.92031 176
55.94043 189
55.96054 201
55.98066 176
56.00077 206
56.02088 216
56.041 157
56.06111 164
56.08122 181
56.10134 179
56.12145 176
56.14157 172
56.16168 187
56.18179 156
56.20191 170
56.22202 186
56.24213 191
56.26225 168
56.28236 167
56.30248 165
56.32259 155
56.3427 189
56.36282 166
56.38293 139
56.40304 177
56.42316 146
56.44327 175
56.46338 184
56.4835 168
56.50361 182
56.52373 179
56.54384 186
56.56395 160
56.58407 160
56.60418 166
56.62429 189
56.64441 155
56.66452 177
56.68464 179
56.70475 189
56.72486 177
56.74498 188
56.76509 168
56.7852 194
56.80532 198
56.82543 170
56.84554 177
56.86566 184
56.88577 187
56.90589 174
56.926 198
56.94611 174
56.96623 202
56.98634 193
57.00645 160
57.02657 175
57.04668 158
57.0668 208
57.08691 198
57.10702 212
57.12714 189
57.14725 223
57.16736 198
57.18748 221
57.20759 216
57.22771 205
57.24782 186
57.26793 228
57.28805 177
57.30816 195
57.32827 205
57.34839 165
57.3685 199
57.38861 168
57.40873 189
57.42884 182
57.44896 179
57.46907 173
57.48918 199
57.5093 176
57.52941 171
57.54952 174
57.56964 190
57.58975 187
57.60987 171
57.62998 177
57.65009 182
57.67021 180
57.69032 194
57.71043 169
57.73055 157
57.75066 163
57.77078 167
57.79089 158
57.811 172
57.83112 173
57.85123 171
57.87134 170
57.89146 189
57.91157 149
57.93168 166
57.9518 181
57.97191 170
57.99203 159
58.01214 155
58.03225 185
58.05237 150
58.07248 170
58.09259 164
58.11271 175
58.13282 174
58.15294 178
58.17305 170
58.19316 165
58.21328 172
58.23339 171
58.2535 173
58.27362 142
58.29373 149
58.31385 187
58.33396 178
58.35407 187
58.37419 176
58.3943 193
58.41441 198
58.43453 178
58.45464 186
58.47475 175
58.49487 187
58.51498 165
58.5351 160
58.55521 165
58.57532 172
58.59544 160
58.61555 171
58.63566 165
58.65578 161
58.67589 168
58.69601 167
58.71612 171
58.73623 164
58.75635 171
58.77646 181
58.79657 184
58.81669 145
58.8368 176
58.85691 172
58.87703 173
58.89714 165
58.91726 199
58.93737 180
58.95748 175
58.9776 189
58.99771 204
59.01782 179
59.03794 168
59.05805 207
59.07817 177
59.09828 163
59.11839 181
59.13851 186
59.15862 180
59.17873 186
59.19885 190
59.21896 186
59.23908 198
59.25919 195
59.2793 221
59.29942 184
59.31953 187
59.33964 197
59.35976 220
59.37987 214
59.39998 233
59.4201 232
59.44021 276
59.46033 210
59.48044 249
59.50055 291
59.52067 301
59.54078 311
59.56089 333
59.58101 366
59.60112 418
59.62124 427
59.64135 482
59.66146 548
59.68158 601
59.70169 688
59.7218 751
59.74192 862
59.76203 915
59.78215 1084
59.80226 1300
59.82237 1472
59.84249 1657
59.8626 1809
59.88271 1971
59.90283 1938
59.92294 1854
59.94305 1546
59.96317 1359
59.98328 1120
60.0034 1025
60.02351 1002
60.04362 1084
60.06374 985
60.08385 945
60.10396 791
60.12408 555
60.14419 445
60.16431 349
60.18442 291
60.20453 278
60.22465 248
60.24476 254
60.26487 226
60.28499 218
60.3051 204
60.32522 218
60.34533 214
60.36544 205
60.38556 193
60.40567 202
60.42578 188
60.4459 183
60.46601 203
60.48612 188
60.50624 197
60.52635 191
60.54647 223
60.56658 180
60.58669 190
60.60681 173
60.62692 197
60.64703 202
60.66715 218
60.68726 214
60.70738 190
60.72749 165
60.7476 183
60.76772 162
60.78783 168
60.80794 186
60.82806 193
60.84817 189
60.86828 194
60.8884 144
60.90851 179
60.92863 191
60.94874 187
60.96885 159
60.98897 170
61.00908 175
61.02919 209
61.04931 166
61.06942 165
61.08954 189
61.10965 199
61.12976 193
61.14988 178
61.16999 192
61.1901 178
61.21022 183
61.23033 172
61.25045 168
61.27056 190
61.29067 178
61.31079 186
61.3309 196
61.35101 192
61.37113 180
61.39124 171
61.41135 184
61.43147 190
61.45158 185
61.4717 192
61.49181 207
61.51192 180
61.53204 191
61.55215 191
61.57226 190
61.59238 214
61.61249 186
61.63261 194
61.65272 198
61.67283 226
61.69295 180
61.71306 193
61.73317 209
61.75329 199
61.7734 196
61.79352 189
61.81363 197
61.83374 201
61.85386 214
61.87397 209
61.89408 189
61.9142 204
61.93431 210
61.95442 200
61.97454 196
61.99465 183
62.01477 188
62.03488 172
62.05499 186
62.07511 198
62.09522 199
62.11533 200
62.13545 192
62.15556 194
62.17568 179
62.19579 188
62.2159 194
62.23602 228
62.25613 185
62.27624 207
62.29636 166
62.31647 179
62.33659 169
62.3567 176
62.37681 192
62.39693 194
62.41704 176
62.43715 182
62.45727 172
62.47738 152
62.49749 172
62.51761 175
62.53772 183
62.55784 185
62.57795 163
62.59806 153
62.61818 165
62.63829 181
62.6584 181
62.67852 182
62.69863 160
62.71875 170
62.73886 155
62.75897 148
62.77909 211
62.7992 161
62.81931 177
62.83943 171
62.85954 148
62.87965 170
62.89977 174
62.91988 153
62.94 167
62.96011 154
62.98022 162
63.00034 156
63.02045 158
63.04056 165
63.06068 173
63.08079 159
63.10091 180
63.12102 156
63.14113 158
63.16125 160
63.18136 163
63.20147 165
63.22159 156
63.2417 171
63.26182 176
63.28193 176
63.30204 165
63.32216 155
63.34227 157
63.36238 178
63.3825 168
63.40261 155
63.42272 164
63.44284 166
63.46295 173
63.48307 172
63.50318 183
63.52329 189
63.54341 153
63.56352 196
63.58363 187
63.60375 184
63.62386 199
63.64398 215
63.66409 215
63.6842 232
63.70432 225
63.72443 217
63.74454 224
63.76466 245
63.78477 276
63.80489 260
63.825 299
63.84511 322
63.86523 354
63.88534 386
63.90545 424
63.92557 439
63.94568 489
63.96579 450
63.98591 460
64.00602 448
64.02614 387
64.04625 336
64.06636 309
64.08648 343
64.10659 286
64.1267 321
64.14682 340
64.16693 294
64.18705 272
64.20716 259
64.22727 189
64.24739 201
64.2675 173
64.28761 192
64.30773 198
64.32784 173
64.34796 168
64.36807 173
64.38818 181
64.4083 158
64.42841 169
64.44852 156
64.46864 145
64.48875 166
64.50886 154
64.52898 166
64.54909 144
64.56921 156
64.58932 164
64.60943 157
64.62955 146
64.64966 163
64.66977 160
64.68989 175
64.71 180
64.73012 162
64.75023 154
64.77034 160
64.79046 140
64.81057 168
64.83068 150
64.8508 159
64.87091 145
64.89102 146
64.91114 152
64.93125 152
64.95137 151
64.97148 153
64.99159 156
65.01171 144
65.03182 168
65.05193 150
65.07205 161
65.09216 153
65.11228 170
65.13239 165
65.1525 162
65.17262 165
65.19273 150
65.21284 168
65.23296 172
65.25307 163
65.27319 169
65.2933 141
65.31341 171
65.33353 154
65.35364 172
65.37375 154
65.39387 173
65.41398 160
65.43409 155
65.45421 174
65.47432 163
65.49444 166
65.51455 200
65.53466 198
65.55478 180
65.57489 193
65.595 188
65.61512 196
65.63523 218
65.65535 261
65.67546 232
65.69557 233
65.71569 240
65.7358 191
65.75591 209
65.77603 218
65.79614 209
65.81626 224
65.83637 183
65.85648 207
65.8766 184
65.89671 185
65.91682 216
65.93694 168
65.95705 176
65.97716 187
65.99728 164
66.01739 156
66.03751 173
66.05762 170
66.07773 160
66.09785 165
66.11796 155
66.13807 176
66.15819 181
66.1783 168
66.19842 158
66.21853 158
66.23864 174
66.25876 165
66.27887 168
66.29898 150
66.3191 169
66.33921 184
66.35933 176
66.37944 160
66.39955 160
66.41967 161
66.43978 156
66.45989 152
66.48001 186
66.50012 155
66.52023 150
66.54035 147
66.56046 182
66.58058 165
66.60069 164
66.6208 171
66.64092 126
66.66103 144
66.68114 176
66.70126 172
66.72137 152
66.74149 150
66.7616 167
66.78171 153
66.80183 174
66.82194 168
66.84205 173
66.86217 169
66.88228 166
66.90239 176
66.92251 192
66.94262 163
66.96274 138
66.98285 200
67.00296 162
67.02308 189
67.04319 167
67.0633 180
67.08342 173
67.10353 191
67.12365 165
67.14376 190
67.16387 199
67.18399 211
67.2041 208
67.22421 217
67.24433 198
67.26444 230
67.28456 267
67.30467 238
67.32478 264
67.3449 273
67.36501 296
67.38512 336
67.40524 319
67.42535 377
67.44546 370
67.46558 441
67.48569 476
67.50581 544
67.52592 592
67.54603 677
67.56615 742
67.58626 862
67.60637 959
67.62649 1085
67.6466 1157
67.66672 1188
67.68683 1204
67.70694 1209
67.72706 1024
67.74717 886
67.76728 828
67.7874 795
67.80751 801
67.82763 862
67.84774 922
67.86785 1001
67.88797 957
67.90808 1017
67.92819 1023
67.94831 1021
67.96842 1054
67.98853 1138
68.00865 1277
68.02876 1336
68.04888 1458
68.06899 1568
68.0891 1671
68.10922 1467
68.12933 1477
68.14944 1355
68.16956 1293
68.18967 1272
68.20979 1324
68.2299 1429
68.25001 1346
68.27013 1372
68.29024 1173
68.31035 1037
68.33047 874
68.35058 740
68.3707 616
68.39081 585
68.41092 592
68.43104 528
68.45115 532
68.47126 505
68.49138 442
68.51149 340
68.5316 280
68.55172 254
68.57183 245
68.59195 253
68.61206 189
68.63217 209
68.65229 213
68.6724 223
68.69251 189
68.71263 190
68.73274 176
68.75286 206
68.77297 192
68.79308 181
68.8132 217
68.83331 187
68.85342 196
68.87354 179
68.89365 184
68.91376 166
68.93388 181
68.95399 161
68.97411 182
68.99422 176
69.01433 184
69.03445 170
69.05456 183
69.07467 154
69.09479 158
69.1149 161
69.13502 189
69.15513 176
69.17524 154
69.19536 182
69.21547 146
69.23558 166
69.2557 169
69.27581 184
69.29593 145
69.31604 161
69.33615 162
69.35627 156
69.37638 164
69.39649 155
69.41661 183
69.43672 187
69.45683 148
69.47695 158
69.49706 174
69.51718 157
69.53729 162
69.5574 161
69.57752 171
69.59763 146
69.61774 173
69.63786 149
69.65797 162
69.67809 155
69.6982 143
69.71831 150
69.73843 168
69.75854 161
69.77865 160
69.79877 153
69.81888 157
69.839 143
69.85911 161
69.87922 142
69.89934 144
69.91945 172
69.93956 156
69.95968 159
69.97979 152
69.9999 163
70.02002 146
70.04013 151
70.06025 168
70.08036 146
70.10047 163
70.12059 156
70.1407 143
70.16081 163
70.18093 158
70.20104 136
70.22116 152
70.24127 152
70.26138 141
70.2815 140
70.30161 151
70.32172 134
70.34184 128
70.36195 164
70.38207 142
70.40218 170
70.42229 160
70.44241 145
70.46252 146
70.48263 166
70.50275 146
70.52286 139
70.54297 137
70.56309 139
70.5832 173
70.60332 142
70.62343 141
70.64354 143
70.66366 148
70.68377 156
70.70388 142
70.724 127
70.74411 150
70.76423 143
70.78434 153
70.80445 151
70.82457 134
70.84468 167
70.86479 147
70.88491 163
70.90502 140
70.92513 111
70.94525 138
70.96536 139
70.98548 159
71.00559 139
71.0257 144
71.04582 156
71.06593 133
71.08604 147
71.10616 124
71.12627 159
71.14639 137
71.1665 147
71.18661 129
71.20673 167
71.22684 191
71.24695 163
71.26707 174
71.28718 149
71.3073 145
71.32741 135
71.34752 140
71.36764 143
71.38775 133
71.40786 156
71.42798 167
71.44809 146
71.4682 137
71.48832 143
71.50843 158
71.52855 158
71.54866 122
71.56877 145
71.58889 164
71.609 157
71.62911 158
71.64923 135
71.66934 145
71.68946 140
71.70957 156
71.72968 149
71.7498 155
71.76991 158
71.79002 156
71.81014 145
71.83025 155
71.85037 140
71.87048 154
71.89059 170
71.91071 154
71.93082 146
71.95093 143
71.97105 132
71.99116 165
72.01127 148
72.03139 159
72.0515 146
72.07162 159
72.09173 131
72.11184 165
72.13196 151
72.15207 138
72.17218 152
72.1923 146
72.21241 140
72.23253 142
72.25264 138
72.27275 141
72.29287 158
72.31298 160
72.33309 134
72.35321 143
72.37332 157
72.39344 175
72.41355 141
72.43366 146
72.45378 138
72.47389 167
72.494 160
72.51412 156
72.53423 145
72.55434 147
72.57446 150
72.59457 129
72.61469 159
72.6348 148
72.65491 168
72.67503 153
72.69514 168
72.71525 161
72.73537 151
72.75548 144
72.7756 171
72.79571 175
72.81582 165
72.83594 143
72.85605 153
72.87616 140
72.89628 173
72.91639 167
72.9365 166
72.95662 169
72.97673 185
72.99685 174
73.01696 193
73.03707 185
73.05719 211
73.0773 210
73.09741 200
73.11753 201
73.13764 226
73.15776 213
73.17787 248
73.19798 252
73.2181 246
73.23821 287
73.25832 317
73.27844 342
73.29855 366
73.31867 374
73.33878 441
73.35889 435
73.37901 458
73.39912 473
73.41923 479
73.43935 441
73.45946 387
73.47957 344
73.49969 297
73.5198 286
73.53992 309
73.56003 310
73.58014 308
73.60026 297
73.62037 310
73.64048 294
73.6606 287
73.68071 215
73.70083 188
73.72094 221
73.74105 164
73.76117 173
73.78128 166
73.80139 143
73.82151 180
73.84162 143
73.86174 153
73.88185 170
73.90196 168
73.92208 163
73.94219 161
73.9623 162
73.98242 178
74.00253 168
74.02264 151
74.04276 147
74.06287 175
74.08299 145
74.1031 146
74.12321 174
74.14333 143
74.16344 138
74.18355 147
74.20367 169
74.22378 149
74.2439 152
74.26401 151
74.28412 134
74.30424 151
74.32435 145
74.34446 137
74.36458 153
74.38469 153
74.40481 154
74.42492 163
74.44503 162
74.46515 135
74.48526 143
74.50537 146
74.52549 146
74.5456 144
74.56571 137
74.58583 136
74.60594 142
74.62606 143
74.64617 150
74.66628 126
74.6864 138
74.70651 161
74.72662 146
74.74674 153
74.76685 153
74.78697 151
74.80708 170
74.82719 146
74.84731 152
74.86742 149
74.88753 167
74.90765 152
74.92776 157
74.94787 130
74.96799 131
74.9881 128
75.00822 171
