3.00117 21257
3.02128 20577
3.0414 20122
3.06151 19251
3.08162 18845
3.10174 18583
3.12185 18054
3.14197 17621
3.16208 16487
3.18219 16677
3.20231 16115
3.22242 14878
3.24253 15273
3.26265 14278
3.28276 14110
3.30288 13742
3.32299 12976
3.3431 12954
3.36322 12312
3.38333 12054
3.40344 11488
3.42356 11119
3.44367 10952
3.46379 10525
3.4839 10153
3.50401 10087
3.52413 9468
3.54424 9338
3.56435 8806
3.58447 8664
3.60458 8296
3.62469 7745
3.64481 7843
3.66492 7248
3.68504 7086
3.70515 6827
3.72526 6361
3.74538 6284
3.76549 5931
3.7856 5854
3.80572 5680
3.82583 5268
3.84595 5071
3.86606 4808
3.88617 4756
3.90629 4770
3.9264 4192
3.94651 4143
3.96663 3778
3.98674 3864
4.00686 3656
4.02697 3389
4.04708 3246
4.0672 3173
4.08731 3084
4.10742 2986
4.12754 2758
4.14765 2591
4.16776 2535
4.18788 2434
4.20799 2419
4.22811 2223
4.24822 2211
4.26833 2026
4.28845 1986
4.30856 1940
4.32867 1745
4.34879 1787
4.3689 1718
4.38902 1717
4.40913 1720
4.42924 1488
4.44936 1536
4.46947 1477
4.48958 1473
4.5097 1509
4.52981 1261
4.54992 1365
4.57004 1361
4.59015 1334
4.61027 1385
4.63038 1217
4.65049 1210
4.67061 1168
4.69072 1240
4.71083 1172
4.73095 1078
4.75106 1070
4.77118 1056
4.79129 989
4.8114 1011
4.83152 934
4.85163 952
4.87174 900
4.89186 873
4.91197 862
4.93209 723
4.9522 865
4.97231 805
4.99243 793
5.01254 826
5.03265 756
5.05277 685
5.07288 797
5.09299 713
5.11311 719
5.13322 699
5.15334 699
5.17345 630
5.19356 656
5.21368 643
5.23379 598
5.2539 585
5.27402 612
5.29413 581
5.31425 567
5.33436 537
5.35447 525
5.37459 574
5.3947 534
5.41481 510
5.43493 493
5.45504 465
5.47516 435
5.49527 477
5.51538 492
5.5355 480
5.55561 472
5.57572 424
5.59584 452
5.61595 416
5.63606 406
5.65618 400
5.67629 397
5.69641 457
5.71652 360
5.73663 380
5.75675 370
5.77686 353
5.79697 343
5.81709 386
5.8372 333
5.85732 365
5.87743 344
5.89754 350
5.91766 319
5.93777 321
5.95788 340
5.978 321
5.99811 335
6.01823 321
6.03834 324
6.05845 336
6.07857 328
6.09868 335
6.11879 274
6.13891 316
6.15902 333
6.17913 304
6.19925 300
6.21936 292
6.23948 295
6.25959 277
6.2797 266
6.29982 311
6.31993 304
6.34004 302
6.36016 300
6.38027 295
6.40039 333
6.4205 310
6.44061 285
6.46073 289
6.48084 265
6.50095 268
6.52107 302
6.54118 275
6.56129 258
6.58141 292
6.60152 267
6.62164 286
6.64175 274
6.66186 279
6.68198 305
6.70209 238
6.7222 305
6.74232 295
6.76243 280
6.78255 271
6.80266 248
6.82277 266
6.84289 268
6.863 274
6.88311 243
6.90323 244
6.92334 254
6.94346 253
6.96357 270
6.98368 301
7.0038 299
7.02391 246
7.04402 254
7.06414 250
7.08425 264
7.10436 242
7.12448 260
7.14459 253
7.16471 263
7.18482 220
7.20493 237
7.22505 271
7.24516 246
7.26527 259
7.28539 254
7.3055 280
7.32562 276
7.34573 265
7.36584 285
7.38596 242
7.40607 287
7.42618 259
7.4463 242
7.46641 267
7.48653 261
7.50664 282
7.52675 249
7.54687 247
7.56698 271
7.58709 266
7.60721 248
7.62732 260
7.64743 250
7.66755 265
7.68766 254
7.70778 269
7.72789 273
7.748 249
7.76812 246
7.78823 260
7.80834 259
7.82846 248
7.84857 266
7.86869 251
7.8888 275
7.90891 276
7.92903 305
7.94914 227
7.96925 275
7.98937 276
8.00948 267
8.0296 253
8.04971 308
8.06982 272
8.08994 277
8.11005 274
8.13016 298
8.15028 237
8.17039 270
8.1905 260
8.21062 249
8.23073 291
8.25085 248
8.27096 271
8.29107 234
8.31119 270
8.3313 276
8.35141 245
8.37153 294
8.39164 251
8.41176 294
8.43187 266
8.45198 245
8.4721 250
8.49221 279
8.51232 236
8.53244 256
8.55255 249
8.57266 263
8.59278 257
8.61289 278
8.63301 260
8.65312 262
8.67323 274
8.69335 275
8.71346 289
8.73357 261
8.75369 284
8.7738 269
8.79392 296
8.81403 283
8.83414 281
8.85426 257
8.87437 289
8.89448 268
8.9146 282
8.93471 246
8.95483 257
8.97494 269
8.99505 247
9.01517 261
9.03528 270
9.05539 246
9.07551 269
9.09562 246
9.11573 270
9.13585 257
9.15596 257
9.17608 267
9.19619 250
9.2163 245
9.23642 276
9.25653 268
9.27664 255
9.29676 254
9.31687 266
9.33699 262
9.3571 273
9.37721 254
9.39733 263
9.41744 279
9.43755 271
9.45767 277
9.47778 253
9.4979 272
9.51801 273
9.53812 272
9.55824 262
9.57835 256
9.59846 269
9.61858 230
9.63869 241
9.6588 251
9.67892 282
9.69903 247
9.71915 280
9.73926 294
9.75937 264
9.77949 271
9.7996 282
9.81971 236
9.83983 274
9.85994 237
9.88006 260
9.90017 264
9.92028 241
9.9404 267
9.96051 270
9.98062 291
10.00074 244
10.02085 294
10.04097 269
10.06108 267
10.08119 286
10.10131 265
10.12142 273
10.14153 246
10.16165 272
10.18176 257
10.20187 252
10.22199 259
10.2421 267
10.26222 281
10.28233 239
10.30244 268
10.32256 244
10.34267 246
10.36278 280
10.3829 260
10.40301 286
10.42313 247
10.44324 292
10.46335 241
10.48347 251
10.50358 282
10.52369 280
10.54381 258
10.56392 249
10.58403 254
10.60415 269
10.62426 278
10.64438 291
10.66449 269
10.6846 293
10.70472 281
10.72483 270
10.74494 282
10.76506 280
10.78517 267
10.80529 262
10.8254 286
10.84551 284
10.86563 284
10.88574 278
10.90585 268
10.92597 327
10.94608 309
10.9662 291
10.98631 290
11.00642 275
11.02654 293
11.04665 309
11.06676 308
11.08688 297
11.10699 294
11.1271 270
11.14722 288
11.16733 277
11.18745 299
11.20756 283
11.22767 300
11.24779 294
11.2679 287
11.28801 273
11.30813 316
11.32824 294
11.34836 313
11.36847 319
11.38858 311
11.4087 283
11.42881 283
11.44892 325
11.46904 313
11.48915 293
11.50927 345
11.52938 320
11.54949 342
11.56961 302
11.58972 340
11.60983 332
11.62995 343
11.65006 311
11.67017 359
11.69029 333
11.7104 427
11.73052 396
11.75063 407
11.77074 381
11.79086 369
11.81097 409
11.83108 442
11.8512 428
11.87131 417
11.89143 474
11.91154 479
11.93165 477
11.95177 533
11.97188 552
11.99199 556
12.01211 578
12.03222 573
12.05234 635
12.07245 650
12.09256 659
12.11268 693
12.13279 727
12.1529 736
12.17302 765
12.19313 864
12.21324 861
12.23336 862
12.25347 834
12.27359 813
12.2937 819
12.31381 801
12.33393 805
12.35404 820
12.37415 693
12.39427 738
12.41438 634
12.4345 631
12.45461 585
12.47472 521
12.49484 538
12.51495 452
12.53506 441
12.55518 416
12.57529 449
12.5954 409
12.61552 397
12.63563 372
12.65575 407
12.67586 319
12.69597 313
12.71609 291
12.7362 302
12.75631 323
12.77643 288
12.79654 330
12.81666 318
12.83677 269
12.85688 294
12.877 294
12.89711 271
12.91722 297
12.93734 293
12.95745 270
12.97757 277
12.99768 268
13.01779 286
13.03791 316
13.05802 288
13.07813 281
13.09825 342
13.11836 301
13.13847 292
13.15859 297
13.1787 276
13.19882 252
13.21893 284
13.23904 242
13.25916 252
13.27927 248
13.29938 244
13.3195 278
13.33961 275
13.35973 261
13.37984 254
13.39995 272
13.42007 273
13.44018 254
13.46029 289
13.48041 241
13.50052 257
13.52064 275
13.54075 358
13.56086 306
13.58098 328
13.60109 356
13.6212 330
13.64132 299
13.66143 332
13.68154 291
13.70166 242
13.72177 247
13.74189 262
13.762 229
13.78211 252
13.80223 209
13.82234 226
13.84245 241
13.86257 241
13.88268 223
13.9028 226
13.92291 256
13.94302 256
13.96314 252
13.98325 246
14.00336 220
14.02348 212
14.04359 225
14.06371 220
14.08382 196
14.10393 206
14.12405 182
14.14416 232
14.16427 226
14.18439 206
14.2045 195
14.22461 231
14.24473 185
14.26484 241
14.28496 230
14.30507 223
14.32518 261
14.3453 194
14.36541 183
14.38552 201
14.40564 213
14.42575 212
14.44587 214
14.46598 199
14.48609 184
14.50621 232
14.52632 233
14.54643 233
14.56655 215
14.58666 193
14.60677 212
14.62689 203
14.647 204
14.66712 224
14.68723 199
14.70734 222
14.72746 215
14.74757 195
14.76768 228
14.7878 264
14.80791 240
14.82803 261
14.84814 265
14.86825 269
14.88837 276
14.90848 252
14.92859 218
14.94871 275
14.96882 231
14.98894 214
15.00905 229
15.02916 241
15.04928 234
15.06939 224
15.0895 229
15.10962 249
15.12973 230
15.14984 224
15.16996 241
15.19007 233
15.21019 267
15.2303 224
15.25041 200
15.27053 213
15.29064 233
15.31075 230
15.33087 226
15.35098 208
15.3711 216
15.39121 233
15.41132 192
15.43144 193
15.45155 218
15.47166 209
15.49178 219
15.51189 201
15.53201 204
15.55212 159
15.57223 193
15.59235 179
15.61246 199
15.63257 187
15.65269 223
15.6728 197
15.69291 210
15.71303 188
15.73314 183
15.75326 185
15.77337 196
15.79348 196
15.8136 216
15.83371 198
15.85382 198
15.87394 213
15.89405 181
15.91417 218
15.93428 209
15.95439 188
15.97451 202
15.99462 187
16.01473 192
16.03485 182
16.05496 177
16.07508 200
16.09519 202
16.1153 221
16.13542 215
16.15553 215
16.17564 182
16.19576 199
16.21587 191
16.23598 205
16.2561 192
16.27621 199
16.29633 186
16.31644 231
16.33655 203
16.35667 208
16.37678 188
16.39689 200
16.41701 210
16.43712 203
16.45724 194
16.47735 226
16.49746 191
16.51758 190
16.53769 185
16.5578 189
16.57792 181
16.59803 193
16.61814 204
16.63826 196
16.65837 190
16.67849 201
16.6986 197
16.71871 175
16.73883 193
16.75894 205
16.77905 210
16.79917 177
16.81928 229
16.8394 204
16.85951 197
16.87962 180
16.89974 199
16.91985 183
16.93996 180
16.96008 188
16.98019 214
17.00031 202
17.02042 203
17.04053 200
17.06065 200
17.08076 205
17.10087 176
17.12099 210
17.1411 193
17.16121 180
17.18133 194
17.20144 185
17.22156 189
17.24167 193
17.26178 200
17.2819 191
17.30201 195
17.32212 225
17.34224 211
17.36235 226
17.38247 153
17.40258 188
17.42269 182
17.44281 208
17.46292 205
17.48303 224
17.50315 203
17.52326 205
17.54338 229
17.56349 217
17.5836 205
17.60372 203
17.62383 191
17.64394 202
17.66406 193
17.68417 217
17.70428 192
17.7244 217
17.74451 209
17.76463 205
17.78474 213
17.80485 189
17.82497 187
17.84508 207
17.86519 180
17.88531 188
17.90542 181
17.92554 205
17.94565 206
17.96576 203
17.98588 191
18.00599 218
18.0261 220
18.04622 210
18.06633 244
18.08645 208
18.10656 238
18.12667 194
18.14679 208
18.1669 202
18.18701 208
18.20713 202
18.22724 223
18.24735 225
18.26747 218
18.28758 205
18.3077 239
18.32781 220
18.34792 214
18.36804 209
18.38815 188
18.40826 210
18.42838 206
18.44849 215
18.46861 207
18.48872 214
18.50883 194
18.52895 219
18.54906 207
18.56917 196
18.58929 193
18.6094 196
18.62951 175
18.64963 207
18.66974 210
18.68986 216
18.70997 206
18.73008 194
18.7502 202
18.77031 216
18.79042 211
18.81054 200
18.83065 195
18.85077 206
18.87088 211
18.89099 190
18.91111 206
18.93122 208
18.95133 242
18.97145 196
18.99156 220
19.01168 180
19.03179 227
19.0519 220
19.07202 222
19.09213 234
19.11224 231
19.13236 210
19.15247 216
19.17258 235
19.1927 220
19.21281 223
19.23293 266
19.25304 263
19.27315 230
19.29327 283
19.31338 256
19.33349 278
19.35361 241
19.37372 233
19.39384 192
19.41395 235
19.43406 237
19.45418 259
19.47429 262
19.4944 251
19.51452 296
19.53463 272
19.55475 312
19.57486 329
19.59497 312
19.61509 331
19.6352 353
19.65531 357
19.67543 396
19.69554 473
19.71565 459
19.73577 505
19.75588 570
19.776 563
19.79611 621
19.81622 671
19.83634 654
19.85645 762
19.87656 716
19.89668 705
19.91679 715
19.93691 678
19.95702 686
19.97713 612
19.99725 646
20.01736 671
20.03747 571
20.05759 618
20.0777 557
20.09782 623
20.11793 645
20.13804 594
20.15816 624
20.17827 594
20.19838 622
20.2185 601
20.23861 603
20.25872 636
20.27884 633
20.29895 627
20.31907 633
20.33918 571
20.35929 666
20.37941 591
20.39952 607
20.41963 654
20.43975 607
20.45986 647
20.47998 639
20.50009 735
20.5202 663
20.54032 708
20.56043 759
20.58054 779
20.60066 812
20.62077 889
20.64088 1078
20.661 1247
20.68111 1528
20.70123 1880
20.72134 2334
20.74145 2676
20.76157 3223
20.78168 3387
20.80179 3461
20.82191 3372
20.84202 3032
20.86214 2746
20.88225 2250
20.90236 1972
20.92248 1627
20.94259 1552
20.9627 1404
20.98282 1242
21.00293 1258
21.02305 1096
21.04316 911
21.06327 912
21.08339 720
21.1035 681
21.12361 653
21.14373 614
21.16384 540
21.18395 586
21.20407 537
21.22418 575
21.2443 528
21.26441 568
21.28452 499
21.30464 521
21.32475 551
21.34486 512
21.36498 479
21.38509 536
21.40521 534
21.42532 459
21.44543 489
21.46555 467
21.48566 481
21.50577 442
21.52589 481
21.546 486
21.56612 429
21.58623 449
21.60634 462
21.62646 407
21.64657 440
21.66668 400
21.6868 433
21.70691 420
21.72702 385
21.74714 468
21.76725 435
21.78737 412
21.80748 439
21.82759 458
21.84771 394
21.86782 433
21.88793 452
21.90805 455
21.92816 461
21.94828 437
21.96839 474
21.9885 419
22.00862 428
22.02873 445
22.04884 422
22.06896 417
22.08907 463
22.10919 441
22.1293 456
22.14941 446
22.16953 519
22.18964 525
22.20975 500
22.22987 526
22.24998 508
22.27009 532
22.29021 484
22.31032 495
22.33044 413
22.35055 440
22.37066 412
22.39078 405
22.41089 424
22.431 384
22.45112 423
22.47123 416
22.49135 434
22.51146 453
22.53157 431
22.55169 375
22.5718 411
22.59191 441
22.61203 413
22.63214 351
22.65225 390
22.67237 368
22.69248 372
22.7126 399
22.73271 382
22.75282 371
22.77294 383
22.79305 358
22.81316 348
22.83328 371
22.85339 373
22.87351 432
22.89362 392
22.91373 382
22.93385 407
22.95396 437
22.97407 438
22.99419 500
23.0143 525
23.03442 539
23.05453 613
23.07464 588
23.09476 634
23.11487 682
23.13498 694
23.1551 653
23.17521 632
23.19532 586
23.21544 549
23.23555 491
23.25567 428
23.27578 418
23.29589 426
23.31601 418
23.33612 405
23.35623 379
23.37635 380
23.39646 430
23.41658 372
23.43669 375
23.4568 373
23.47692 390
23.49703 431
23.51714 385
23.53726 395
23.55737 394
23.57749 392
23.5976 412
23.61771 375
23.63783 384
23.65794 423
23.67805 387
23.69817 384
23.71828 406
23.73839 412
23.75851 463
23.77862 440
23.79874 525
23.81885 563
23.83896 562
23.85908 582
23.87919 626
23.8993 690
23.91942 731
23.93953 732
23.95965 737
23.97976 632
23.99987 629
24.01999 553
24.0401 495
24.06021 445
24.08033 444
24.10044 449
24.12056 484
24.14067 448
24.16078 440
24.1809 526
24.20101 491
24.22112 529
24.24124 528
24.26135 552
24.28146 520
24.30158 547
24.32169 494
24.34181 509
24.36192 519
24.38203 520
24.40215 487
24.42226 500
24.44237 495
24.46249 470
24.4826 515
24.50272 569
24.52283 543
24.54294 585
24.56306 643
24.58317 669
24.60328 664
24.6234 659
24.64351 703
24.66362 718
24.68374 767
24.70385 757
24.72397 741
24.74408 802
24.76419 714
24.78431 757
24.80442 757
24.82453 753
24.84465 750
24.86476 731
24.88488 646
24.90499 714
24.9251 673
24.94522 649
24.96533 613
24.98544 598
25.00556 537
25.02567 520
25.04579 507
25.0659 503
25.08601 510
25.10613 473
25.12624 447
25.14635 472
25.16647 425
25.18658 450
25.20669 425
25.22681 419
25.24692 449
25.26704 455
25.28715 467
25.30726 494
25.32738 479
25.34749 509
25.3676 528
25.38772 585
25.40783 694
25.42795 783
25.44806 727
25.46817 753
25.48829 777
25.5084 793
25.52851 768
25.54863 806
25.56874 766
25.58886 789
25.60897 725
25.62908 682
25.6492 657
25.66931 635
25.68942 568
25.70954 546
25.72965 541
25.74976 476
25.76988 452
25.78999 437
25.81011 423
25.83022 444
25.85033 448
25.87045 462
25.89056 470
25.91067 444
25.93079 473
25.9509 460
25.97102 483
25.99113 513
26.01124 497
26.03136 516
26.05147 573
26.07158 546
26.0917 580
26.11181 646
26.13193 678
26.15204 737
26.17215 749
26.19227 800
26.21238 839
26.23249 988
26.25261 1043
26.27272 1161
26.29283 1372
26.31295 1538
26.33306 1809
26.35318 2133
26.37329 2438
26.3934 2957
26.41352 3546
26.43363 4523
26.45374 5749
26.47386 7223
26.49397 9048
26.51409 11267
26.5342 12766
26.55431 13928
26.57443 14141
26.59454 13315
26.61465 11764
26.63477 10031
26.65488 7885
26.67499 5826
26.69511 4119
26.71522 2887
26.73534 1942
26.75545 1534
26.77556 1207
26.79568 1065
26.81579 1034
26.8359 976
26.85602 950
26.87613 958
26.89625 976
26.91636 1049
26.93647 1030
26.95659 1157
26.9767 1053
26.99681 1178
27.01693 1118
27.03704 1075
27.05716 911
27.07727 900
27.09738 773
27.1175 807
27.13761 720
27.15772 727
27.17784 762
27.19795 873
27.21806 892
27.23818 1014
27.25829 1139
27.27841 1263
27.29852 1400
27.31863 1609
27.33875 1742
27.35886 1773
27.37897 1790
27.39909 1609
27.4192 1571
27.43932 1437
27.45943 1177
27.47954 1095
27.49966 912
27.51977 750
27.53988 670
27.56 601
27.58011 533
27.60023 474
27.62034 435
27.64045 400
27.66057 424
27.68068 372
27.70079 398
27.72091 387
27.74102 350
27.76113 385
27.78125 381
27.80136 349
27.82148 379
27.84159 361
27.8617 337
27.88182 408
27.90193 399
27.92204 395
27.94216 362
27.96227 376
27.98239 339
28.0025 311
28.02261 314
28.04273 337
28.06284 306
28.08295 311
28.10307 283
28.12318 270
28.1433 312
28.16341 297
28.18352 299
28.20364 294
28.22375 300
28.24386 281
28.26398 302
28.28409 340
28.3042 262
28.32432 304
28.34443 261
28.36455 286
28.38466 280
28.40477 294
28.42489 275
28.445 279
28.46511 283
28.48523 272
28.50534 300
28.52546 284
28.54557 305
28.56568 298
28.5858 279
28.60591 263
28.62602 266
28.64614 282
28.66625 277
28.68636 272
28.70648 260
28.72659 272
28.74671 265
28.76682 268
28.78693 270
28.80705 280
28.82716 264
28.84727 288
28.86739 297
28.8875 280
28.90762 284
28.92773 281
28.94784 289
28.96796 293
28.98807 265
29.00818 292
29.0283 260
29.04841 277
29.06853 253
29.08864 278
29.10875 286
29.12887 288
29.14898 285
29.16909 315
29.18921 287
29.20932 297
29.22943 316
29.24955 338
29.26966 339
29.28978 400
29.30989 403
29.33 465
29.35012 482
29.37023 510
29.39034 478
29.41046 441
29.43057 440
29.45069 406
29.4708 420
29.49091 348
29.51103 318
29.53114 298
29.55125 292
29.57137 301
29.59148 292
29.6116 271
29.63171 287
29.65182 272
29.67194 310
29.69205 340
29.71216 272
29.73228 296
29.75239 321
29.7725 306
29.79262 297
29.81273 327
29.83285 310
29.85296 281
29.87307 323
29.89319 320
29.9133 360
29.93341 348
29.95353 376
29.97364 360
29.99376 406
30.01387 443
30.03398 458
30.0541 487
30.07421 514
30.09432 537
30.11444 550
30.13455 562
30.15467 584
30.17478 555
30.19489 496
30.21501 429
30.23512 404
30.25523 327
30.27535 352
30.29546 327
30.31557 311
30.33569 276
30.3558 284
30.37592 274
30.39603 297
30.41614 245
30.43626 278
30.45637 301
30.47648 307
30.4966 291
30.51671 333
30.53683 340
30.55694 341
30.57705 403
30.59717 424
30.61728 417
30.63739 499
30.65751 532
30.67762 539
30.69773 490
30.71785 511
30.73796 464
30.75808 462
30.77819 469
30.7983 434
30.81842 430
30.83853 422
30.85864 403
30.87876 366
30.89887 340
30.91899 347
30.9391 292
30.95921 280
30.97933 262
30.99944 264
31.01955 244
31.03967 240
31.05978 252
31.0799 258
31.10001 238
31.12012 258
31.14024 244
31.16035 229
31.18046 240
31.20058 248
31.22069 214
31.2408 242
31.26092 242
31.28103 225
31.30115 201
31.32126 214
31.34137 252
31.36149 224
31.3816 219
31.40171 213
31.42183 245
31.44194 236
31.46206 243
31.48217 197
31.50228 238
31.5224 203
31.54251 200
31.56262 214
31.58274 222
31.60285 215
31.62297 228
31.64308 230
31.66319 247
31.68331 244
31.70342 247
31.72353 217
31.74365 244
31.76376 228
31.78387 231
31.80399 227
31.8241 229
31.84422 234
31.86433 221
31.88444 233
31.90456 256
31.92467 271
31.94478 247
31.9649 282
31.98501 274
32.00513 273
32.02524 275
32.04535 311
32.06547 338
32.08558 311
32.10569 298
32.12581 293
32.14592 271
32.16604 253
32.18615 293
32.20626 271
32.22638 289
32.24649 305
32.2666 283
32.28672 313
32.30683 304
32.32694 375
32.34706 356
32.36717 332
32.38729 353
32.4074 341
32.42751 324
32.44763 323
32.46774 288
32.48785 295
32.50797 251
32.52808 247
32.5482 266
32.56831 239
32.58842 239
32.60854 211
32.62865 218
32.64876 233
32.66888 223
32.68899 224
32.7091 210
32.72922 237
32.74933 229
32.76945 251
32.78956 237
32.80967 240
32.82979 212
32.8499 241
32.87001 249
32.89013 240
32.91024 254
32.93036 268
32.95047 293
32.97058 282
32.9907 303
33.01081 272
33.03092 290
33.05104 275
33.07115 301
33.09127 268
33.11138 280
33.13149 299
33.15161 251
33.17172 248
33.19183 276
33.21195 234
33.23206 254
33.25217 257
33.27229 255
33.2924 237
33.31252 247
33.33263 221
33.35274 225
33.37286 230
33.39297 208
33.41308 233
33.4332 232
33.45331 202
33.47343 239
33.49354 223
33.51365 208
33.53377 218
33.55388 234
33.57399 210
33.59411 216
33.61422 237
33.63434 196
33.65445 230
33.67456 250
33.69468 222
33.71479 216
33.7349 194
33.75502 215
33.77513 215
33.79524 234
33.81536 217
33.83547 242
33.85559 228
33.8757 250
33.89581 257
33.91593 269
33.93604 270
33.95615 277
33.97627 299
33.99638 315
34.0165 314
34.03661 350
34.05672 373
34.07684 425
34.09695 398
34.11706 442
34.13718 460
34.15729 445
34.17741 410
34.19752 375
34.21763 353
34.23775 373
34.25786 359
34.27797 324
34.29809 343
34.3182 270
34.33831 287
34.35843 284
34.37854 278
34.39866 282
34.41877 337
34.43888 319
34.459 334
34.47911 323
34.49922 366
34.51934 351
34.53945 373
34.55957 364
34.57968 386
34.59979 396
34.61991 387
34.64002 396
34.66013 394
34.68025 393
34.70036 437
34.72047 414
34.74059 433
34.7607 445
34.78082 467
34.80093 499
34.82104 509
34.84116 506
34.86127 511
34.88138 463
34.9015 534
34.92161 501
34.94173 470
34.96184 511
34.98195 464
35.00207 504
35.02218 469
35.04229 480
35.06241 512
35.08252 476
35.10264 471
35.12275 467
35.14286 439
35.16298 442
35.18309 443
35.2032 403
35.22332 467
35.24343 477
35.26354 441
35.28366 471
35.30377 432
35.32389 459
35.344 499
35.36411 577
35.38423 487
35.40434 524
35.42445 557
35.44457 601
35.46468 583
35.4848 477
35.50491 557
35.52502 561
35.54514 539
35.56525 481
35.58536 477
35.60548 478
35.62559 507
35.64571 483
35.66582 450
35.68593 438
35.70605 400
35.72616 423
35.74627 446
35.76639 444
35.7865 458
35.80661 467
35.82673 439
35.84684 472
35.86696 456
35.88707 416
35.90718 475
35.9273 430
35.94741 450
35.96752 377
35.98764 414
36.00775 376
36.02787 357
36.04798 368
36.06809 377
36.08821 389
36.10832 364
36.12843 366
36.14855 401
36.16866 379
36.18878 399
36.20889 392
36.229 420
36.24912 408
36.26923 458
36.28934 543
36.30946 573
36.32957 601
36.34968 659
36.3698 798
36.38991 891
36.41003 1078
36.43014 1137
36.45025 1268
36.47037 1132
36.49048 1157
36.51059 1065
36.53071 995
36.55082 849
36.57094 759
36.59105 615
36.61116 563
36.63128 474
36.65139 459
36.6715 401
36.69162 389
36.71173 342
36.73184 366
36.75196 398
36.77207 378
36.79219 348
36.8123 362
36.83241 400
36.85253 423
36.87264 412
36.89275 389
36.91287 414
36.93298 417
36.9531 397
36.97321 390
36.99332 406
37.01344 368
37.03355 366
37.05366 399
37.07378 303
37.09389 333
37.11401 328
37.13412 357
37.15423 331
37.17435 330
37.19446 371
37.21457 320
37.23469 299
37.2548 300
37.27491 313
37.29503 313
37.31514 321
37.33526 317
37.35537 348
37.37548 346
37.3956 323
37.41571 308
37.43582 313
37.45594 320
37.47605 358
37.49617 369
37.51628 363
37.53639 387
37.55651 349
37.57662 352
37.59673 392
37.61685 343
37.63696 358
37.65708 340
37.67719 338
37.6973 316
37.71742 340
37.73753 331
37.75764 351
37.77776 348
37.79787 349
37.81798 332
37.8381 355
37.85821 313
37.87833 336
37.89844 337
37.91855 331
37.93867 330
37.95878 356
37.97889 356
37.99901 390
38.01912 354
38.03924 358
38.05935 379
38.07946 365
38.09958 345
38.11969 380
38.1398 417
38.15992 400
38.18003 427
38.20015 411
38.22026 442
38.24037 448
38.26049 470
38.2806 464
38.30071 468
38.32083 443
38.34094 485
38.36105 477
38.38117 489
38.40128 527
38.4214 507
38.44151 487
38.46162 510
38.48174 511
38.50185 470
38.52196 430
38.54208 458
38.56219 407
38.58231 426
38.60242 403
38.62253 390
38.64265 344
38.66276 391
38.68287 349
38.70299 353
38.7231 341
38.74321 362
38.76333 360
38.78344 358
38.80356 346
38.82367 386
38.84378 365
38.8639 347
38.88401 374
38.90412 360
38.92424 394
38.94435 374
38.96447 372
38.98458 378
39.00469 385
39.02481 375
39.04492 417
39.06503 413
39.08515 401
39.10526 425
39.12538 446
39.14549 426
39.1656 420
39.18572 472
39.20583 533
39.22594 564
39.24606 608
39.26617 686
39.28628 822
39.3064 848
39.32651 985
39.34663 1003
39.36674 1065
39.38685 1065
39.40697 1101
39.42708 1009
39.44719 932
39.46731 791
39.48742 729
39.50754 625
39.52765 577
39.54776 445
39.56788 428
39.58799 357
39.6081 316
39.62822 310
39.64833 330
39.66845 258
39.68856 327
39.70867 297
39.72879 279
39.7489 257
39.76901 304
39.78913 271
39.80924 270
39.82935 323
39.84947 263
39.86958 275
39.8897 280
39.90981 290
39.92992 306
39.95004 326
39.97015 321
39.99026 327
40.01038 366
40.03049 377
40.05061 370
40.07072 398
40.09083 433
40.11095 493
40.13106 570
40.15117 529
40.17129 609
40.1914 650
40.21152 651
40.23163 634
40.25174 614
40.27186 605
40.29197 547
40.31208 468
40.3322 446
40.35231 409
40.37242 359
40.39254 344
40.41265 322
40.43277 302
40.45288 296
40.47299 264
40.49311 280
40.51322 313
40.53333 277
40.55345 304
40.57356 234
40.59368 242
40.61379 268
40.6339 259
40.65402 248
40.67413 264
40.69424 265
40.71436 265
40.73447 256
40.75458 241
40.7747 249
40.79481 273
40.81493 290
40.83504 303
40.85515 237
40.87527 257
40.89538 251
40.91549 252
40.93561 275
40.95572 282
40.97584 247
40.99595 252
41.01606 263
41.03618 259
41.05629 270
41.0764 288
41.09652 256
41.11663 234
41.13675 282
41.15686 256
41.17697 237
41.19709 243
41.2172 244
41.23731 254
41.25743 280
41.27754 280
41.29765 270
41.31777 271
41.33788 262
41.358 286
41.37811 253
41.39822 283
41.41834 272
41.43845 283
41.45856 256
41.47868 277
41.49879 312
41.51891 297
41.53902 336
41.55913 329
41.57925 383
41.59936 380
41.61947 429
41.63959 430
41.6597 460
41.67982 481
41.69993 497
41.72004 498
41.74016 448
41.76027 472
41.78038 407
41.8005 429
41.82061 421
41.84072 350
41.86084 330
41.88095 306
41.90107 273
41.92118 291
41.94129 291
41.96141 244
41.98152 219
42.00163 236
42.02175 262
42.04186 268
42.06198 253
42.08209 265
42.1022 280
42.12232 291
42.14243 324
42.16254 344
42.18266 342
42.20277 381
42.22289 401
42.243 516
42.26311 577
42.28323 643
42.30334 677
42.32345 772
42.34357 773
42.36368 812
42.38379 776
42.40391 755
42.42402 702
42.44414 654
42.46425 582
42.48436 498
42.50448 449
42.52459 416
42.5447 357
42.56482 329
42.58493 306
42.60505 297
42.62516 316
42.64527 281
42.66539 288
42.6855 299
42.70561 287
42.72573 271
42.74584 273
42.76595 259
42.78607 256
42.80618 254
42.8263 244
42.84641 246
42.86652 235
42.88664 210
42.90675 223
42.92686 221
42.94698 207
42.96709 248
42.98721 217
43.00732 248
43.02743 236
43.04755 241
43.06766 243
43.08777 249
43.10789 244
43.128 235
43.14812 223
43.16823 227
43.18834 229
43.20846 241
43.22857 224
43.24868 214
43.2688 223
43.28891 209
43.30902 224
43.32914 232
43.34925 211
43.36937 226
43.38948 230
43.40959 251
43.42971 220
43.44982 230
43.46993 218
43.49005 217
43.51016 226
43.53028 227
43.55039 237
43.5705 237
43.59062 216
43.61073 263
43.63084 210
43.65096 220
43.67107 213
43.69119 215
43.7113 184
43.73141 220
43.75153 211
43.77164 217
43.79175 195
43.81187 221
43.83198 220
43.85209 221
43.87221 246
43.89232 232
43.91244 261
43.93255 225
43.95266 229
43.97278 210
43.99289 214
44.013 241
44.03312 235
44.05323 217
44.07335 231
44.09346 241
44.11357 210
44.13369 216
44.1538 241
44.17391 226
44.19403 233
44.21414 249
44.23426 216
44.25437 225
44.27448 230
44.2946 226
44.31471 226
44.33482 221
44.35494 207
44.37505 221
44.39516 207
44.41528 190
44.43539 227
44.45551 224
44.47562 236
44.49573 224
44.51585 233
44.53596 249
44.55607 229
44.57619 234
44.5963 270
44.61642 262
44.63653 234
44.65664 232
44.67676 251
44.69687 231
44.71698 213
44.7371 227
44.75721 222
44.77732 195
44.79744 239
44.81755 242
44.83767 210
44.85778 216
44.87789 218
44.89801 209
44.91812 239
44.93823 201
44.95835 240
44.97846 233
44.99858 209
45.01869 213
45.0388 236
45.05892 231
45.07903 220
45.09914 244
45.11926 241
45.13937 248
45.15949 235
45.1796 278
45.19971 266
45.21983 269
45.23994 263
45.26005 260
45.28017 262
45.30028 275
45.32039 322
45.34051 319
45.36062 311
45.38074 355
45.40085 351
45.42096 339
45.44108 357
45.46119 357
45.4813 415
45.50142 402
45.52153 387
45.54165 414
45.56176 467
45.58187 521
45.60199 505
45.6221 573
45.64221 584
45.66233 606
45.68244 653
45.70256 631
45.72267 639
45.74278 601
45.7629 554
45.78301 539
45.80312 506
45.82324 415
45.84335 433
45.86346 374
45.88358 382
45.90369 306
45.92381 311
45.94392 261
45.96403 280
45.98415 267
46.00426 261
46.02437 267
46.04449 257
46.0646 259
46.08472 275
46.10483 249
46.12494 293
46.14506 275
46.16517 260
46.18528 299
46.2054 248
46.22551 261
46.24563 262
46.26574 262
46.28585 254
46.30597 275
46.32608 241
46.34619 248
46.36631 252
46.38642 221
46.40653 217
46.42665 231
46.44676 230
46.46688 250
46.48699 226
46.5071 218
46.52722 218
46.54733 234
46.56744 222
46.58756 237
46.60767 232
46.62779 243
46.6479 228
46.66801 227
46.68813 236
46.70824 236
46.72835 249
46.74847 225
46.76858 227
46.78869 256
46.80881 221
46.82892 223
46.84904 250
46.86915 231
46.88926 245
46.90938 285
46.92949 250
46.9496 273
46.96972 282
46.98983 295
47.00995 283
47.03006 302
47.05017 289
47.07029 301
47.0904 303
47.11051 284
47.13063 289
47.15074 270
47.17086 269
47.19097 278
47.21108 285
47.2312 271
47.25131 272
47.27142 254
47.29154 237
47.31165 285
47.33176 249
47.35188 270
47.37199 255
47.39211 226
47.41222 272
47.43233 286
47.45245 236
47.47256 252
47.49267 217
47.51279 231
47.5329 260
47.55302 266
47.57313 214
47.59324 211
47.61336 217
47.63347 222
47.65358 192
47.6737 221
47.69381 205
47.71393 207
47.73404 211
47.75415 240
47.77427 238
47.79438 216
47.81449 222
47.83461 213
47.85472 224
47.87483 218
47.89495 217
47.91506 239
47.93518 217
47.95529 209
47.9754 251
47.99552 218
48.01563 223
48.03574 225
48.05586 236
48.07597 229
48.09609 209
48.1162 222
48.13631 237
48.15643 226
48.17654 220
48.19665 212
48.21677 221
48.23688 222
48.257 209
48.27711 227
48.29722 249
48.31734 216
48.33745 206
48.35756 204
48.37768 246
48.39779 223
48.4179 198
48.43802 228
48.45813 209
48.47825 207
48.49836 198
48.51847 205
48.53859 252
48.5587 278
48.57881 252
48.59893 241
48.61904 188
48.63916 237
48.65927 262
48.67938 258
48.6995 254
48.71961 278
48.73972 254
48.75984 291
48.77995 261
48.80006 283
48.82018 257
48.84029 283
48.86041 296
48.88052 283
48.90063 297
48.92075 273
48.94086 310
48.96097 260
48.98109 279
49.0012 292
49.02132 263
49.04143 263
49.06154 281
49.08166 271
49.10177 273
49.12188 243
49.142 242
49.16211 236
49.18223 234
49.20234 246
49.22245 244
49.24257 257
49.26268 241
49.28279 259
49.30291 248
49.32302 230
49.34313 273
49.36325 232
49.38336 276
49.40348 205
49.42359 241
49.4437 241
49.46382 239
49.48393 266
49.50404 266
49.52416 241
49.54427 258
49.56439 253
49.5845 244
49.60461 268
49.62473 279
49.64484 271
49.66495 285
49.68507 290
49.70518 312
49.7253 348
49.74541 352
49.76552 351
49.78564 413
49.80575 442
49.82586 494
49.84598 549
49.86609 570
49.8862 673
49.90632 792
49.92643 860
49.94655 990
49.96666 1187
49.98677 1341
50.00689 1493
50.027 1492
50.04711 1571
50.06723 1599
50.08734 1490
50.10746 1315
50.12757 1165
50.14768 1075
50.1678 999
50.18791 894
50.20802 771
50.22814 718
50.24825 587
50.26837 539
50.28848 484
50.30859 418
50.32871 473
50.34882 463
50.36893 455
50.38905 513
50.40916 515
50.42927 520
50.44939 504
50.4695 520
50.48962 525
50.50973 465
50.52984 473
50.54996 439
50.57007 428
50.59018 358
50.6103 403
50.63041 408
50.65053 354
50.67064 339
50.69075 322
50.71087 329
50.73098 328
50.75109 329
50.77121 345
50.79132 313
50.81143 313
50.83155 271
50.85166 307
50.87178 299
50.89189 306
50.912 282
50.93212 295
50.95223 271
50.97234 264
50.99246 260
51.01257 264
51.03269 226
51.0528 243
51.07291 219
51.09303 231
51.11314 229
51.13325 234
51.15337 221
51.17348 189
51.1936 185
51.21371 217
51.23382 202
51.25394 191
51.27405 214
51.29416 185
51.31428 190
51.33439 189
51.3545 194
51.37462 205
51.39473 194
51.41485 208
51.43496 183
51.45507 202
51.47519 193
51.4953 205
51.51541 212
51.53553 219
51.55564 212
51.57576 244
51.59587 200
51.61598 212
51.6361 202
51.65621 204
51.67632 228
51.69644 188
51.71655 194
51.73667 181
51.75678 182
51.77689 218
51.79701 183
51.81712 189
51.83723 182
51.85735 172
51.87746 164
51.89757 197
51.91769 197
51.9378 183
51.95792 209
51.97803 191
51.99814 179
52.01826 192
52.03837 202
52.05848 178
52.0786 199
52.09871 201
52.11883 155
52.13894 208
52.15905 173
52.17917 195
52.19928 168
52.21939 193
52.23951 173
52.25962 199
52.27974 193
52.29985 184
52.31996 185
52.34008 196
52.36019 242
52.3803 218
52.40042 199
52.42053 207
52.44064 204
52.46076 222
52.48087 237
52.50099 236
52.5211 178
52.54121 207
52.56133 217
52.58144 225
52.60155 221
52.62167 222
52.64178 219
52.6619 208
52.68201 238
52.70212 203
52.72224 190
52.74235 216
52.76246 192
52.78258 206
52.80269 185
52.8228 183
52.84292 215
52.86303 195
52.88315 192
52.90326 213
52.92337 206
52.94349 203
52.9636 206
52.98371 192
53.00383 209
53.02394 183
53.04406 201
53.06417 174
53.08428 206
53.1044 200
53.12451 194
53.14462 174
53.16474 225
53.18485 215
53.20497 208
53.22508 213
53.24519 228
53.26531 208
53.28542 194
53.30553 219
53.32565 216
53.34576 219
53.36587 212
53.38599 185
53.4061 190
53.42622 217
53.44633 223
53.46644 228
53.48656 221
53.50667 225
53.52678 228
53.5469 222
53.56701 227
53.58713 212
53.60724 223
53.62735 214
53.64747 261
53.66758 206
53.68769 251
53.70781 247
53.72792 230
53.74804 231
53.76815 263
53.78826 245
53.80838 247
53.82849 248
53.8486 253
53.86872 246
53.88883 256
53.90894 269
53.92906 246
53.94917 258
53.96929 250
53.9894 244
54.00951 283
54.02963 260
54.04974 278
54.06985 258
54.08997 296
54.11008 291
54.1302 302
54.15031 309
54.17042 270
54.19054 272
54.21065 283
54.23076 290
54.25088 299
54.27099 261
54.29111 308
54.31122 293
54.33133 265
54.35145 292
54.37156 283
54.39167 278
54.41179 345
54.4319 291
54.45201 297
54.47213 307
54.49224 291
54.51236 328
54.53247 307
54.55258 356
54.5727 393
54.59281 375
54.61292 392
54.63304 407
54.65315 454
54.67327 522
54.69338 474
54.71349 562
54.73361 582
54.75372 647
54.77383 677
54.79395 658
54.81406 647
54.83417 637
54.85429 545
54.8744 545
54.89452 495
54.91463 480
54.93474 477
54.95486 493
54.97497 425
54.99508 376
55.0152 394
55.03531 362
55.05543 378
55.07554 362
55.09565 431
55.11577 370
55.13588 418
55.15599 430
55.17611 421
55.19622 442
55.21634 458
55.23645 479
55.25656 444
55.27668 444
55.29679 397
55.3169 410
55.33702 427
55.35713 391
55.37724 409
55.39736 441
55.41747 344
55.43759 370
55.4577 343
55.47781 354
55.49793 305
55.51804 317
55.53815 319
55.55827 274
55.57838 289
55.5985 289
55.61861 306
55.63872 297
55.65884 276
55.67895 260
55.69906 257
55.71918 264
55.73929 245
55.75941 255
55.77952 264
55.79963 272
55.81975 246
55.83986 244
55.85997 242
55.88009 250
55.9002 266
55.92031 239
55.94043 229
55.96054 236
55.98066 235
56.00077 259
56.02088 239
56.041 233
56.06111 216
56.08122 224
56.10134 218
56.12145 243
56.14157 255
56.16168 228
56.18179 246
56.20191 267
56.22202 214
56.24213 244
56.26225 218
56.28236 240
56.30248 242
56.32259 247
56.3427 246
56.36282 236
56.38293 219
56.40304 249
56.42316 237
56.44327 245
56.46338 244
56.4835 255
56.50361 245
56.52373 224
56.54384 256
56.56395 266
56.58407 265
56.60418 259
56.62429 257
56.64441 259
56.66452 254
56.68464 267
56.70475 231
56.72486 274
56.74498 251
56.76509 254
56.7852 233
56.80532 244
56.82543 217
56.84554 236
56.86566 253
56.88577 243
56.90589 237
56.926 232
56.94611 199
56.96623 222
56.98634 232
57.00645 209
57.02657 260
57.04668 250
57.0668 235
57.08691 268
57.10702 232
57.12714 237
57.14725 240
57.16736 241
57.18748 250
57.20759 256
57.22771 246
57.24782 256
57.26793 228
57.28805 244
57.30816 263
57.32827 276
57.34839 226
57.3685 255
57.38861 217
57.40873 234
57.42884 226
57.44896 231
57.46907 218
57.48918 206
57.5093 239
57.52941 205
57.54952 214
57.56964 220
57.58975 222
57.60987 215
57.62998 216
57.65009 214
57.67021 199
57.69032 196
57.71043 222
57.73055 233
57.75066 198
57.77078 196
57.79089 230
57.811 195
57.83112 205
57.85123 223
57.87134 229
57.89146 189
57.91157 220
57.93168 204
57.9518 218
57.97191 231
57.99203 218
58.01214 210
58.03225 225
58.05237 250
58.07248 237
58.09259 242
58.11271 207
58.13282 221
58.15294 249
58.17305 229
58.19316 205
58.21328 217
58.23339 233
58.2535 221
58.27362 234
58.29373 234
58.31385 225
58.33396 206
58.35407 210
58.37419 201
58.3943 239
58.41441 220
58.43453 249
58.45464 230
58.47475 251
58.49487 223
58.51498 244
58.5351 235
58.55521 249
58.57532 225
58.59544 254
58.61555 236
58.63566 245
58.65578 245
58.67589 230
58.69601 224
58.71612 238
58.73623 207
58.75635 220
58.77646 226
58.79657 208
58.81669 223
58.8368 207
58.85691 228
58.87703 178
58.89714 189
58.91726 222
58.93737 207
58.95748 183
58.9776 210
58.99771 216
59.01782 195
59.03794 193
59.05805 198
59.07817 200
59.09828 238
59.11839 220
59.13851 204
59.15862 191
59.17873 206
59.19885 208
59.21896 238
59.23908 201
59.25919 222
59.2793 232
59.29942 252
59.31953 239
59.33964 231
59.35976 242
59.37987 257
59.39998 240
59.4201 301
59.44021 275
59.46033 257
59.48044 305
59.50055 316
59.52067 278
59.54078 327
59.56089 302
59.58101 328
59.60112 383
59.62124 372
59.64135 399
59.66146 460
59.68158 500
59.70169 502
59.7218 595
59.74192 730
59.76203 760
59.78215 863
59.80226 982
59.82237 1053
59.84249 1109
59.8626 1098
59.88271 1091
59.90283 959
59.92294 905
59.94305 808
59.96317 707
59.98328 665
60.0034 675
60.02351 621
60.04362 667
60.06374 544
60.08385 490
60.10396 444
60.12408 358
60.14419 348
60.16431 290
60.18442 292
60.20453 268
60.22465 271
60.24476 272
60.26487 214
60.28499 234
60.3051 222
60.32522 250
60.34533 231
60.36544 237
60.38556 244
60.40567 213
60.42578 216
60.4459 222
60.46601 226
60.48612 222
60.50624 201
60.52635 212
60.54647 214
60.56658 218
60.58669 234
60.60681 202
60.62692 229
60.64703 227
60.66715 225
60.68726 218
60.70738 217
60.72749 238
60.7476 227
60.76772 224
60.78783 196
60.80794 230
60.82806 215
60.84817 230
60.86828 218
60.8884 245
60.90851 241
60.92863 246
60.94874 268
60.96885 241
60.98897 256
61.00908 298
61.02919 287
61.04931 294
61.06942 263
61.08954 294
61.10965 266
61.12976 285
61.14988 268
61.16999 271
61.1901 269
61.21022 218
61.23033 251
61.25045 242
61.27056 229
61.29067 228
61.31079 218
61.3309 236
61.35101 250
61.37113 205
61.39124 206
61.41135 214
61.43147 258
61.45158 214
61.4717 226
61.49181 226
61.51192 211
61.53204 222
61.55215 218
61.57226 233
61.59238 187
61.61249 204
61.63261 232
61.65272 237
61.67283 214
61.69295 231
61.71306 226
61.73317 231
61.75329 238
61.7734 199
61.79352 218
61.81363 253
61.83374 221
61.85386 261
61.87397 275
61.89408 235
61.9142 281
61.93431 258
61.95442 314
61.97454 320
61.99465 284
62.01477 325
62.03488 313
62.05499 300
62.07511 339
62.09522 385
62.11533 360
62.13545 390
62.15556 393
62.17568 403
62.19579 365
62.2159 395
62.23602 371
62.25613 418
62.27624 381
62.29636 383
62.31647 346
62.33659 369
62.3567 371
62.37681 348
62.39693 384
62.41704 346
62.43715 330
62.45727 312
62.47738 352
62.49749 324
62.51761 307
62.53772 306
62.55784 307
62.57795 266
62.59806 314
62.61818 291
62.63829 297
62.6584 303
62.67852 291
62.69863 284
62.71875 281
62.73886 309
62.75897 269
62.77909 260
62.7992 287
62.81931 260
62.83943 277
62.85954 279
62.87965 259
62.89977 295
62.91988 277
62.94 294
62.96011 258
62.98022 293
63.00034 331
63.02045 259
63.04056 288
63.06068 290
63.08079 277
63.10091 281
63.12102 253
63.14113 252
63.16125 222
63.18136 287
63.20147 262
63.22159 259
63.2417 240
63.26182 268
63.28193 238
63.30204 236
63.32216 266
63.34227 216
63.36238 237
63.3825 245
63.40261 276
63.42272 245
63.44284 245
63.46295 271
63.48307 249
63.50318 254
63.52329 243
63.54341 240
63.56352 281
63.58363 289
63.60375 265
63.62386 274
63.64398 283
63.66409 293
63.6842 323
63.70432 329
63.72443 336
63.74454 346
63.76466 338
63.78477 369
63.80489 373
63.825 394
63.84511 409
63.86523 359
63.88534 403
63.90545 406
63.92557 484
63.94568 438
63.96579 412
63.98591 404
64.00602 404
64.02614 363
64.04625 368
64.06636 342
64.08648 342
64.10659 322
64.1267 358
64.14682 303
64.16693 259
64.18705 277
64.20716 246
64.22727 226
64.24739 230
64.2675 237
64.28761 226
64.30773 220
64.32784 219
64.34796 201
64.36807 178
64.38818 204
64.4083 187
64.42841 205
64.44852 196
64.46864 205
64.48875 205
64.50886 188
64.52898 199
64.54909 216
64.56921 184
64.58932 215
64.60943 181
64.62955 184
64.64966 195
64.66977 205
64.68989 178
64.71 205
64.73012 208
64.75023 192
64.77034 209
64.79046 218
64.81057 208
64.83068 210
64.8508 186
64.87091 210
64.89102 229
64.91114 226
64.93125 221
64.95137 234
64.97148 224
64.99159 234
65.01171 246
65.03182 217
65.05193 259
65.07205 236
65.09216 251
65.11228 225
65.13239 240
65.1525 235
65.17262 219
65.19273 239
65.21284 245
65.23296 246
65.25307 242
65.27319 249
65.2933 216
65.31341 267
65.33353 235
65.35364 222
65.37375 235
65.39387 197
65.41398 241
65.43409 200
65.45421 215
65.47432 196
65.49444 213
65.51455 230
65.53466 252
65.55478 210
65.57489 216
65.595 244
65.61512 235
65.63523 226
65.65535 239
65.67546 236
65.69557 243
65.71569 208
65.7358 218
65.75591 207
65.77603 197
65.79614 224
65.81626 194
65.83637 208
65.85648 242
65.8766 203
65.89671 222
65.91682 206
65.93694 229
65.95705 209
65.97716 217
65.99728 197
66.01739 198
66.03751 218
66.05762 224
66.07773 212
66.09785 236
66.11796 218
66.13807 208
66.15819 259
66.1783 218
66.19842 242
66.21853 242
66.23864 245
66.25876 226
66.27887 252
66.29898 238
66.3191 235
66.33921 207
66.35933 239
66.37944 243
66.39955 257
66.41967 226
66.43978 221
66.45989 210
66.48001 224
66.50012 236
66.52023 191
66.54035 226
66.56046 211
66.58058 209
66.60069 208
66.6208 216
66.64092 210
66.66103 212
66.68114 214
66.70126 229
66.72137 190
66.74149 195
66.7616 226
66.78171 215
66.80183 210
66.82194 219
66.84205 208
66.86217 205
66.88228 220
66.90239 263
66.92251 209
66.94262 218
66.96274 231
66.98285 217
67.00296 217
67.02308 205
67.04319 211
67.0633 225
67.08342 216
67.10353 220
67.12365 211
67.14376 238
67.16387 226
67.18399 248
67.2041 242
67.22421 256
67.24433 251
67.26444 235
67.28456 270
67.30467 259
67.32478 259
67.3449 276
67.36501 283
67.38512 309
67.40524 260
67.42535 322
67.44546 348
67.46558 374
67.48569 423
67.50581 469
67.52592 523
67.54603 543
67.56615 588
67.58626 613
67.60637 672
67.62649 715
67.6466 754
67.66672 760
67.68683 694
67.70694 608
67.72706 604
67.74717 568
67.76728 565
67.7874 638
67.80751 570
67.82763 664
67.84774 623
67.86785 660
67.88797 627
67.90808 682
67.92819 700
67.94831 750
67.96842 822
67.98853 859
68.00865 896
68.02876 932
68.04888 987
68.06899 989
68.0891 884
68.10922 927
68.12933 851
68.14944 818
68.16956 869
68.18967 886
68.20979 906
68.2299 857
68.25001 839
68.27013 734
68.29024 625
68.31035 620
68.33047 518
68.35058 460
68.3707 431
68.39081 446
68.41092 420
68.43104 389
68.45115 388
68.47126 346
68.49138 297
68.51149 257
68.5316 229
68.55172 259
68.57183 243
68.59195 248
68.61206 209
68.63217 226
68.65229 228
68.6724 227
68.69251 226
68.71263 255
68.73274 229
68.75286 210
68.77297 213
68.79308 203
68.8132 212
68.83331 214
68.85342 203
68.87354 214
68.89365 222
68.91376 203
68.93388 208
68.95399 220
68.97411 192
68.99422 204
69.01433 195
69.03445 188
69.05456 186
69.07467 174
69.09479 194
69.1149 189
69.13502 194
69.15513 188
69.17524 191
69.19536 205
69.21547 168
69.23558 181
69.2557 175
69.27581 169
69.29593 205
69.31604 186
69.33615 202
69.35627 194
69.37638 196
69.39649 182
69.41661 201
69.43672 188
69.45683 181
69.47695 175
69.49706 185
69.51718 184
69.53729 193
69.5574 170
69.57752 184
69.59763 188
69.61774 183
69.63786 183
69.65797 191
69.67809 202
69.6982 191
69.71831 211
69.73843 204
69.75854 200
69.77865 193
69.79877 176
69.81888 184
69.839 195
69.85911 199
69.87922 209
69.89934 217
69.91945 191
69.93956 194
69.95968 171
69.97979 166
69.9999 224
70.02002 178
70.04013 206
70.06025 190
70.08036 176
70.10047 204
70.12059 199
70.1407 220
70.16081 194
70.18093 206
70.20104 190
70.22116 206
70.24127 218
70.26138 201
70.2815 182
70.30161 174
70.32172 193
70.34184 181
70.36195 179
70.38207 229
70.40218 197
70.42229 192
70.44241 202
70.46252 182
70.48263 208
70.50275 190
70.52286 187
70.54297 191
70.56309 199
70.5832 201
70.60332 198
70.62343 212
70.64354 195
70.66366 191
70.68377 207
70.70388 213
70.724 188
70.74411 219
70.76423 240
70.78434 198
70.80445 206
70.82457 178
70.84468 199
70.86479 211
70.88491 172
70.90502 191
70.92513 174
70.94525 185
70.96536 194
70.98548 191
71.00559 179
71.0257 175
71.04582 164
71.06593 187
71.08604 202
71.10616 206
71.12627 190
71.14639 201
71.1665 208
71.18661 198
71.20673 207
71.22684 191
71.24695 198
71.26707 169
71.28718 195
71.3073 209
71.32741 193
71.34752 214
71.36764 205
71.38775 206
71.40786 232
71.42798 217
71.44809 202
71.4682 223
71.48832 224
71.50843 204
71.52855 233
71.54866 192
71.56877 232
71.58889 227
71.609 237
71.62911 213
71.64923 206
71.66934 213
71.68946 218
71.70957 219
71.72968 231
71.7498 220
71.76991 246
71.79002 199
71.81014 222
71.83025 215
71.85037 244
71.87048 213
71.89059 206
71.91071 224
71.93082 206
71.95093 262
71.97105 247
71.99116 226
72.01127 230
72.03139 233
72.0515 201
72.07162 245
72.09173 229
72.11184 210
72.13196 228
72.15207 235
72.17218 244
72.1923 232
72.21241 212
72.23253 230
72.25264 235
72.27275 238
72.29287 224
72.31298 216
72.33309 215
72.35321 225
72.37332 211
72.39344 231
72.41355 207
72.43366 208
72.45378 207
72.47389 224
72.494 207
72.51412 204
72.53423 203
72.55434 188
72.57446 220
72.59457 181
72.61469 191
72.6348 196
72.65491 226
72.67503 184
72.69514 203
72.71525 199
72.73537 216
72.75548 202
72.7756 190
72.79571 226
72.81582 217
72.83594 218
72.85605 242
72.87616 234
72.89628 214
72.91639 243
72.9365 251
72.95662 254
72.97673 247
72.99685 243
73.01696 270
73.03707 257
73.05719 287
73.0773 281
73.09741 271
73.11753 261
73.13764 275
73.15776 282
73.17787 281
73.19798 330
73.2181 318
73.23821 347
73.25832 318
73.27844 383
73.29855 367
73.31867 373
73.33878 401
73.35889 394
73.37901 420
73.39912 403
73.41923 366
73.43935 360
73.45946 323
73.47957 337
73.49969 319
73.5198 341
73.53992 340
73.56003 352
73.58014 328
73.60026 292
73.62037 310
73.64048 267
73.6606 273
73.68071 278
73.70083 262
73.72094 249
73.74105 251
73.76117 226
73.78128 220
73.80139 220
73.82151 231
73.84162 223
73.86174 214
73.88185 199
73.90196 206
73.92208 207
73.94219 208
73.9623 194
73.98242 214
74.00253 212
74.02264 190
74.04276 216
74.06287 213
74.08299 206
74.1031 212
74.12321 193
74.14333 183
74.16344 241
74.18355 245
74.20367 204
74.22378 219
74.2439 199
74.26401 213
74.28412 199
74.30424 216
74.32435 184
74.34446 175
74.36458 223
74.38469 210
74.40481 220
74.42492 220
74.44503 212
74.46515 201
74.48526 223
74.50537 231
74.52549 207
74.5456 196
74.56571 220
74.58583 226
74.60594 227
74.62606 208
74.64617 211
74.66628 247
74.6864 197
74.70651 214
74.72662 207
74.74674 216
74.76685 205
74.78697 229
74.80708 196
74.82719 235
74.84731 207
74.86742 239
74.88753 233
74.90765 214
74.92776 236
74.94787 229
74.96799 227
74.9881 225
75.00822 252
