3.00117 21841
3.02128 20960
3.0414 20706
3.06151 20154
3.08162 19136
3.10174 19091
3.12185 18170
3.14197 17868
3.16208 17220
3.18219 16523
3.20231 16552
3.22242 15742
3.24253 15612
3.26265 14828
3.28276 14231
3.30288 14023
3.32299 13525
3.3431 13530
3.36322 12838
3.38333 12327
3.40344 12230
3.42356 11412
3.44367 11285
3.46379 10934
3.4839 10305
3.50401 10109
3.52413 9720
3.54424 9347
3.56435 9037
3.58447 8652
3.60458 8495
3.62469 7947
3.64481 7843
3.66492 7434
3.68504 7177
3.70515 7068
3.72526 6409
3.74538 6502
3.76549 6091
3.7856 5786
3.80572 5825
3.82583 5513
3.84595 5257
3.86606 4861
3.88617 4658
3.90629 4677
3.9264 4343
3.94651 4262
3.96663 3777
3.98674 3807
4.00686 3646
4.02697 3401
4.04708 3350
4.0672 3143
4.08731 2991
4.10742 2878
4.12754 2759
4.14765 2723
4.16776 2447
4.18788 2330
4.20799 2315
4.22811 2244
4.24822 2218
4.26833 1878
4.28845 1878
4.30856 1917
4.32867 1830
4.34879 1765
4.3689 1665
4.38902 1527
4.40913 1669
4.42924 1495
4.44936 1426
4.46947 1373
4.48958 1303
4.5097 1372
4.52981 1346
4.54992 1282
4.57004 1224
4.59015 1128
4.61027 1154
4.63038 1210
4.65049 1060
4.67061 1090
4.69072 1063
4.71083 1074
4.73095 1113
4.75106 924
4.77118 957
4.79129 905
4.8114 965
4.83152 972
4.85163 825
4.87174 860
4.89186 809
4.91197 800
4.93209 758
4.9522 731
4.97231 730
4.99243 731
5.01254 712
5.03265 727
5.05277 604
5.07288 687
5.09299 633
5.11311 663
5.13322 656
5.15334 525
5.17345 538
5.19356 530
5.21368 533
5.23379 531
5.2539 475
5.27402 469
5.29413 457
5.31425 538
5.33436 520
5.35447 432
5.37459 445
5.3947 455
5.41481 450
5.43493 498
5.45504 395
5.47516 410
5.49527 390
5.51538 371
5.5355 328
5.55561 376
5.57572 350
5.59584 419
5.61595 348
5.63606 369
5.65618 316
5.67629 317
5.69641 280
5.71652 291
5.73663 296
5.75675 285
5.77686 291
5.79697 320
5.81709 301
5.8372 286
5.85732 264
5.87743 258
5.89754 294
5.91766 222
5.93777 229
5.95788 262
5.978 257
5.99811 243
6.01823 294
6.03834 260
6.05845 224
6.07857 225
6.09868 249
6.11879 264
6.13891 264
6.15902 200
6.17913 199
6.19925 227
6.21936 224
6.23948 234
6.25959 211
6.2797 236
6.29982 234
6.31993 226
6.34004 229
6.36016 193
6.38027 237
6.40039 238
6.4205 199
6.44061 224
6.46073 219
6.48084 212
6.50095 190
6.52107 205
6.54118 184
6.56129 205
6.58141 197
6.60152 210
6.62164 207
6.64175 228
6.66186 206
6.68198 224
6.70209 222
6.7222 204
6.74232 210
6.76243 197
6.78255 229
6.80266 219
6.82277 179
6.84289 202
6.863 219
6.88311 183
6.90323 215
6.92334 216
6.94346 194
6.96357 171
6.98368 197
7.0038 205
7.02391 204
7.04402 191
7.06414 198
7.08425 212
7.10436 193
7.12448 162
7.14459 200
7.16471 195
7.18482 188
7.20493 200
7.22505 212
7.24516 194
7.26527 190
7.28539 199
7.3055 192
7.32562 214
7.34573 208
7.36584 199
7.38596 205
7.40607 236
7.42618 190
7.4463 231
7.46641 216
7.48653 188
7.50664 186
7.52675 185
7.54687 171
7.56698 204
7.58709 195
7.60721 220
7.62732 170
7.64743 231
7.66755 222
7.68766 200
7.70778 233
7.72789 201
7.748 214
7.76812 231
7.78823 195
7.80834 198
7.82846 198
7.84857 222
7.86869 222
7.8888 202
7.90891 230
7.92903 186
7.94914 194
7.96925 211
7.98937 231
8.00948 228
8.0296 204
8.04971 203
8.06982 208
8.08994 218
8.11005 216
8.13016 226
8.15028 215
8.17039 215
8.1905 211
8.21062 202
8.23073 225
8.25085 204
8.27096 170
8.29107 242
8.31119 203
8.3313 225
8.35141 222
8.37153 232
8.39164 225
8.41176 193
8.43187 208
8.45198 181
8.4721 227
8.49221 210
8.51232 216
8.53244 229
8.55255 224
8.57266 231
8.59278 222
8.61289 227
8.63301 208
8.65312 215
8.67323 249
8.69335 240
8.71346 214
8.73357 215
8.75369 222
8.7738 224
8.79392 227
8.81403 210
8.83414 230
8.85426 254
8.87437 238
8.89448 227
8.9146 223
8.93471 190
8.95483 231
8.97494 233
8.99505 215
9.01517 222
9.03528 231
9.05539 209
9.07551 200
9.09562 168
9.11573 242
9.13585 229
9.15596 223
9.17608 236
9.19619 234
9.2163 211
9.23642 196
9.25653 227
9.27664 200
9.29676 215
9.31687 215
9.33699 216
9.3571 216
9.37721 217
9.39733 216
9.41744 248
9.43755 236
9.45767 216
9.47778 218
9.4979 201
9.51801 236
9.53812 228
9.55824 233
9.57835 239
9.59846 233
9.61858 236
9.63869 232
9.6588 232
9.67892 239
9.69903 254
9.71915 219
9.73926 242
9.75937 225
9.77949 218
9.7996 253
9.81971 245
9.83983 227
9.85994 231
9.88006 226
9.90017 237
9.92028 245
9.9404 233
9.96051 217
9.98062 236
10.00074 242
10.02085 243
10.04097 234
10.06108 249
10.08119 217
10.10131 239
10.12142 210
10.14153 243
10.16165 214
10.18176 225
10.20187 224
10.22199 238
10.2421 214
10.26222 232
10.28233 245
10.30244 206
10.32256 193
10.34267 231
10.36278 237
10.3829 249
10.40301 231
10.42313 251
10.44324 224
10.46335 254
10.48347 263
10.50358 285
10.52369 261
10.54381 232
10.56392 247
10.58403 259
10.60415 240
10.62426 239
10.64438 247
10.66449 230
10.6846 236
10.70472 264
10.72483 247
10.74494 241
10.76506 233
10.78517 265
10.80529 237
10.8254 241
10.84551 219
10.86563 207
10.88574 212
10.90585 197
10.92597 225
10.94608 241
10.9662 209
10.98631 252
11.00642 232
11.02654 204
11.04665 226
11.06676 241
11.08688 217
11.10699 214
11.1271 245
11.14722 208
11.16733 210
11.18745 238
11.20756 201
11.22767 234
11.24779 209
11.2679 271
11.28801 214
11.30813 269
11.32824 210
11.34836 231
11.36847 215
11.38858 238
11.4087 212
11.42881 220
11.44892 231
11.46904 219
11.48915 226
11.50927 215
11.52938 232
11.54949 226
11.56961 231
11.58972 234
11.60983 215
11.62995 236
11.65006 205
11.67017 225
11.69029 199
11.7104 208
11.73052 201
11.75063 267
11.77074 234
11.79086 212
11.81097 256
11.83108 259
11.8512 241
11.87131 248
11.89143 231
11.91154 235
11.93165 243
11.95177 263
11.97188 240
11.99199 257
12.01211 240
12.03222 285
12.05234 243
12.07245 291
12.09256 239
12.11268 263
12.13279 259
12.1529 284
12.17302 235
12.19313 230
12.21324 266
12.23336 304
12.25347 311
12.27359 271
12.2937 299
12.31381 255
12.33393 296
12.35404 285
12.37415 250
12.39427 280
12.41438 268
12.4345 259
12.45461 256
12.47472 238
12.49484 235
12.51495 233
12.53506 226
12.55518 223
12.57529 238
12.5954 229
12.61552 247
12.63563 242
12.65575 203
12.67586 239
12.69597 230
12.71609 232
12.7362 236
12.75631 214
12.77643 237
12.79654 203
12.81666 218
12.83677 228
12.85688 202
12.877 216
12.89711 223
12.91722 237
12.93734 210
12.95745 212
12.97757 225
12.99768 207
13.01779 202
13.03791 242
13.05802 209
13.07813 215
13.09825 211
13.11836 228
13.13847 216
13.15859 198
13.1787 221
13.19882 195
13.21893 227
13.23904 195
13.25916 223
13.27927 222
13.29938 197
13.3195 191
13.33961 212
13.35973 204
13.37984 197
13.39995 223
13.42007 212
13.44018 197
13.46029 228
13.48041 178
13.50052 178
13.52064 204
13.54075 212
13.56086 213
13.58098 201
13.60109 198
13.6212 232
13.64132 205
13.66143 235
13.68154 225
13.70166 199
13.72177 216
13.74189 222
13.762 238
13.78211 198
13.80223 258
13.82234 211
13.84245 199
13.86257 181
13.88268 219
13.9028 210
13.92291 176
13.94302 206
13.96314 217
13.98325 215
14.00336 193
14.02348 212
14.04359 198
14.06371 213
14.08382 220
14.10393 208
14.12405 189
14.14416 189
14.16427 201
14.18439 204
14.2045 207
14.22461 212
14.24473 196
14.26484 212
14.28496 216
14.30507 211
14.32518 205
14.3453 208
14.36541 209
14.38552 190
14.40564 208
14.42575 208
14.44587 192
14.46598 172
14.48609 178
14.50621 190
14.52632 191
14.54643 202
14.56655 177
14.58666 176
14.60677 203
14.62689 214
14.647 177
14.66712 198
14.68723 210
14.70734 186
14.72746 189
14.74757 170
14.76768 208
14.7878 180
14.80791 192
14.82803 226
14.84814 197
14.86825 203
14.88837 195
14.90848 183
14.92859 200
14.94871 220
14.96882 202
14.98894 196
15.00905 186
15.02916 215
15.04928 180
15.06939 234
15.0895 176
15.10962 196
15.12973 224
15.14984 205
15.16996 211
15.19007 193
15.21019 209
15.2303 194
15.25041 192
15.27053 195
15.29064 203
15.31075 170
15.33087 170
15.35098 161
15.3711 217
15.39121 159
15.41132 200
15.43144 182
15.45155 215
15.47166 167
15.49178 188
15.51189 172
15.53201 196
15.55212 186
15.57223 174
15.59235 174
15.61246 212
15.63257 217
15.65269 203
15.6728 179
15.69291 184
15.71303 192
15.73314 169
15.75326 196
15.77337 221
15.79348 193
15.8136 182
15.83371 196
15.85382 185
15.87394 180
15.89405 170
15.91417 188
15.93428 172
15.95439 185
15.97451 195
15.99462 180
16.01473 189
16.03485 200
16.05496 161
16.07508 176
16.09519 172
16.1153 186
16.13542 184
16.15553 160
16.17564 207
16.19576 179
16.21587 187
16.23598 213
16.2561 172
16.27621 191
16.29633 188
16.31644 194
16.33655 181
16.35667 219
16.37678 166
16.39689 183
16.41701 167
16.43712 171
16.45724 179
16.47735 219
16.49746 180
16.51758 203
16.53769 206
16.5578 185
16.57792 173
16.59803 183
16.61814 194
16.63826 191
16.65837 165
16.67849 196
16.6986 185
16.71871 171
16.73883 182
16.75894 172
16.77905 191
16.79917 204
16.81928 152
16.8394 192
16.85951 151
16.87962 189
16.89974 170
16.91985 193
16.93996 216
16.96008 196
16.98019 182
17.00031 183
17.02042 182
17.04053 186
17.06065 182
17.08076 176
17.10087 171
17.12099 186
17.1411 177
17.16121 197
17.18133 173
17.20144 156
17.22156 184
17.24167 175
17.26178 187
17.2819 185
17.30201 190
17.32212 209
17.34224 189
17.36235 183
17.38247 195
17.40258 197
17.42269 186
17.44281 174
17.46292 197
17.48303 168
17.50315 164
17.52326 179
17.54338 177
17.56349 201
17.5836 176
17.60372 155
17.62383 150
17.64394 155
17.66406 202
17.68417 140
17.70428 201
17.7244 158
17.74451 168
17.76463 177
17.78474 202
17.80485 182
17.82497 164
17.84508 155
17.86519 165
17.88531 169
17.90542 173
17.92554 184
17.94565 176
17.96576 159
17.98588 172
18.00599 169
18.0261 176
18.04622 196
18.06633 172
18.08645 175
18.10656 202
18.12667 166
18.14679 199
18.1669 174
18.18701 189
18.20713 180
18.22724 185
18.24735 160
18.26747 176
18.28758 170
18.3077 167
18.32781 166
18.34792 182
18.36804 163
18.38815 175
18.40826 207
18.42838 187
18.44849 202
18.46861 196
18.48872 192
18.50883 173
18.52895 185
18.54906 209
18.56917 177
18.58929 183
18.6094 151
18.62951 181
18.64963 201
18.66974 203
18.68986 159
18.70997 218
18.73008 199
18.7502 211
18.77031 209
18.79042 179
18.81054 221
18.83065 218
18.85077 213
18.87088 180
18.89099 222
18.91111 182
18.93122 170
18.95133 186
18.97145 164
18.99156 198
19.01168 154
19.03179 188
19.0519 156
19.07202 165
19.09213 205
19.11224 179
19.13236 202
19.15247 188
19.17258 175
19.1927 188
19.21281 179
19.23293 211
19.25304 189
19.27315 209
19.29327 191
19.31338 208
19.33349 180
19.35361 181
19.37372 207
19.39384 188
19.41395 188
19.43406 203
19.45418 208
19.47429 211
19.4944 214
19.51452 232
19.53463 211
19.55475 223
19.57486 203
19.59497 238
19.61509 226
19.6352 213
19.65531 199
19.67543 238
19.69554 197
19.71565 244
19.73577 260
19.75588 252
19.776 266
19.79611 273
19.81622 275
19.83634 237
19.85645 291
19.87656 300
19.89668 286
19.91679 264
19.93691 284
19.95702 286
19.97713 303
19.99725 271
20.01736 282
20.03747 303
20.05759 278
20.0777 307
20.09782 271
20.11793 272
20.13804 268
20.15816 275
20.17827 290
20.19838 292
20.2185 286
20.23861 295
20.25872 312
20.27884 294
20.29895 346
20.31907 269
20.33918 326
20.35929 332
20.37941 343
20.39952 359
20.41963 371
20.43975 403
20.45986 434
20.47998 371
20.50009 411
20.5202 468
20.54032 486
20.56043 504
20.58054 598
20.60066 632
20.62077 807
20.64088 984
20.661 1150
20.68111 1502
20.70123 1894
20.72134 2436
20.74145 3277
20.76157 3913
20.78168 5074
20.80179 5954
20.82191 7211
20.84202 7333
20.86214 6851
20.88225 5351
20.90236 3931
20.92248 2599
20.94259 1588
20.9627 1001
20.98282 728
21.00293 594
21.02305 514
21.04316 521
21.06327 480
21.08339 473
21.1035 408
21.12361 383
21.14373 384
21.16384 344
21.18395 359
21.20407 315
21.22418 297
21.2443 292
21.26441 308
21.28452 308
21.30464 299
21.32475 298
21.34486 287
21.36498 298
21.38509 286
21.40521 287
21.42532 267
21.44543 276
21.46555 299
21.48566 265
21.50577 275
21.52589 254
21.546 276
21.56612 264
21.58623 273
21.60634 258
21.62646 250
21.64657 242
21.66668 274
21.6868 256
21.70691 260
21.72702 252
21.74714 274
21.76725 294
21.78737 275
21.80748 259
21.82759 275
21.84771 281
21.86782 291
21.88793 311
21.90805 298
21.92816 312
21.94828 285
21.96839 327
21.9885 299
22.00862 313
22.02873 297
22.04884 257
22.06896 269
22.08907 267
22.10919 271
22.1293 213
22.14941 256
22.16953 283
22.18964 232
22.20975 267
22.22987 234
22.24998 265
22.27009 245
22.29021 250
22.31032 249
22.33044 258
22.35055 244
22.37066 237
22.39078 253
22.41089 251
22.431 262
22.45112 262
22.47123 217
22.49135 237
22.51146 219
22.53157 264
22.55169 251
22.5718 241
22.59191 218
22.61203 233
22.63214 249
22.65225 230
22.67237 248
22.69248 231
22.7126 249
22.73271 210
22.75282 248
22.77294 248
22.79305 271
22.81316 241
22.83328 263
22.85339 251
22.87351 246
22.89362 269
22.91373 252
22.93385 271
22.95396 259
22.97407 249
22.99419 254
23.0143 268
23.03442 269
23.05453 238
23.07464 245
23.09476 239
23.11487 240
23.13498 234
23.1551 245
23.17521 247
23.19532 249
23.21544 267
23.23555 230
23.25567 225
23.27578 231
23.29589 253
23.31601 234
23.33612 258
23.35623 255
23.37635 244
23.39646 244
23.41658 276
23.43669 236
23.4568 224
23.47692 262
23.49703 259
23.51714 242
23.53726 278
23.55737 246
23.57749 287
23.5976 322
23.61771 268
23.63783 226
23.65794 248
23.67805 242
23.69817 267
23.71828 231
23.73839 236
23.75851 280
23.77862 227
23.79874 278
23.81885 287
23.83896 281
23.85908 308
23.87919 312
23.8993 332
23.91942 314
23.93953 267
23.95965 345
23.97976 323
23.99987 325
24.01999 302
24.0401 283
24.06021 235
24.08033 275
24.10044 200
24.12056 248
24.14067 226
24.16078 236
24.1809 250
24.20101 253
24.22112 271
24.24124 245
24.26135 263
24.28146 259
24.30158 267
24.32169 290
24.34181 250
24.36192 247
24.38203 244
24.40215 260
24.42226 222
24.44237 273
24.46249 216
24.4826 217
24.50272 236
24.52283 225
24.54294 286
24.56306 231
24.58317 236
24.60328 236
24.6234 251
24.64351 255
24.66362 289
24.68374 271
24.70385 279
24.72397 251
24.74408 231
24.76419 263
24.78431 262
24.80442 271
24.82453 281
24.84465 273
24.86476 305
24.88488 279
24.90499 304
24.9251 254
24.94522 240
24.96533 237
24.98544 246
25.00556 247
25.02567 266
25.04579 248
25.0659 248
25.08601 282
25.10613 247
25.12624 234
25.14635 251
25.16647 250
25.18658 246
25.20669 245
25.22681 239
25.24692 268
25.26704 278
25.28715 250
25.30726 268
25.32738 274
25.34749 251
25.3676 275
25.38772 283
25.40783 276
25.42795 261
25.44806 294
25.46817 271
25.48829 291
25.5084 328
25.52851 350
25.54863 332
25.56874 309
25.58886 357
25.60897 362
25.62908 384
25.6492 392
25.66931 361
25.68942 406
25.70954 399
25.72965 448
25.74976 374
25.76988 457
25.78999 435
25.81011 434
25.83022 423
25.85033 465
25.87045 426
25.89056 455
25.91067 454
25.93079 485
25.9509 457
25.97102 521
25.99113 524
26.01124 494
26.03136 507
26.05147 582
26.07158 592
26.0917 632
26.11181 701
26.13193 680
26.15204 695
26.17215 802
26.19227 853
26.21238 960
26.23249 1045
26.25261 1088
26.27272 1342
26.29283 1417
26.31295 1595
26.33306 1941
26.35318 2405
26.37329 2849
26.3934 3660
26.41352 4561
26.43363 5747
26.45374 7329
26.47386 9384
26.49397 11652
26.51409 14718
26.5342 18082
26.55431 22614
26.57443 27418
26.59454 31977
26.61465 33518
26.63477 31023
26.65488 24851
26.67499 18988
26.69511 14394
26.71522 9883
26.73534 5697
26.75545 3110
26.77556 2207
26.79568 1619
26.81579 1420
26.8359 1289
26.85602 1203
26.87613 1131
26.89625 1057
26.91636 991
26.93647 855
26.95659 887
26.9767 759
26.99681 727
27.01693 748
27.03704 676
27.05716 612
27.07727 560
27.09738 547
27.1175 495
27.13761 484
27.15772 478
27.17784 474
27.19795 458
27.21806 421
27.23818 399
27.25829 461
27.27841 468
27.29852 440
27.31863 488
27.33875 503
27.35886 491
27.37897 515
27.39909 509
27.4192 558
27.43932 568
27.45943 546
27.47954 536
27.49966 540
27.51977 464
27.53988 459
27.56 436
27.58011 398
27.60023 376
27.62034 386
27.64045 356
27.66057 374
27.68068 412
27.70079 394
27.72091 405
27.74102 417
27.76113 454
27.78125 444
27.80136 435
27.82148 411
27.84159 418
27.8617 409
27.88182 377
27.90193 405
27.92204 393
27.94216 382
27.96227 377
27.98239 405
28.0025 386
28.02261 353
28.04273 334
28.06284 313
28.08295 285
28.10307 317
28.12318 301
28.1433 262
28.16341 296
28.18352 281
28.20364 263
28.22375 286
28.24386 313
28.26398 278
28.28409 309
28.3042 301
28.32432 316
28.34443 257
28.36455 318
28.38466 253
28.40477 255
28.42489 276
28.445 242
28.46511 257
28.48523 232
28.50534 277
28.52546 278
28.54557 277
28.56568 255
28.5858 244
28.60591 271
28.62602 252
28.64614 272
28.66625 260
28.68636 230
28.70648 247
28.72659 243
28.74671 266
28.76682 247
28.78693 238
28.80705 275
28.82716 262
28.84727 248
28.86739 217
28.8875 260
28.90762 252
28.92773 212
28.94784 254
28.96796 226
28.98807 246
29.00818 236
29.0283 222
29.04841 262
29.06853 229
29.08864 240
29.10875 262
29.12887 255
29.14898 246
29.16909 224
29.18921 268
29.20932 236
29.22943 224
29.24955 249
29.26966 255
29.28978 264
29.30989 231
29.33 245
29.35012 220
29.37023 242
29.39034 244
29.41046 240
29.43057 249
29.45069 237
29.4708 255
29.49091 248
29.51103 248
29.53114 233
29.55125 211
29.57137 238
29.59148 228
29.6116 230
29.63171 264
29.65182 270
29.67194 250
29.69205 239
29.71216 267
29.73228 278
29.75239 249
29.7725 243
29.79262 249
29.81273 258
29.83285 283
29.85296 258
29.87307 253
29.89319 258
29.9133 226
29.93341 193
29.95353 234
29.97364 249
29.99376 236
30.01387 226
30.03398 247
30.0541 227
30.07421 266
30.09432 248
30.11444 230
30.13455 223
30.15467 249
30.17478 245
30.19489 291
30.21501 270
30.23512 260
30.25523 258
30.27535 231
30.29546 248
30.31557 247
30.33569 236
30.3558 271
30.37592 240
30.39603 256
30.41614 233
30.43626 237
30.45637 253
30.47648 211
30.4966 220
30.51671 230
30.53683 221
30.55694 205
30.57705 229
30.59717 213
30.61728 231
30.63739 198
30.65751 232
30.67762 225
30.69773 224
30.71785 207
30.73796 216
30.75808 268
30.77819 274
30.7983 232
30.81842 240
30.83853 238
30.85864 232
30.87876 229
30.89887 249
30.91899 207
30.9391 194
30.95921 180
30.97933 222
30.99944 187
31.01955 185
31.03967 197
31.05978 188
31.0799 223
31.10001 197
31.12012 194
31.14024 181
31.16035 193
31.18046 181
31.20058 166
31.22069 188
31.2408 205
31.26092 207
31.28103 190
31.30115 186
31.32126 195
31.34137 199
31.36149 207
31.3816 190
31.40171 203
31.42183 222
31.44194 205
31.46206 200
31.48217 212
31.50228 182
31.5224 192
31.54251 187
31.56262 173
31.58274 200
31.60285 197
31.62297 200
31.64308 199
31.66319 185
31.68331 188
31.70342 152
31.72353 202
31.74365 169
31.76376 204
31.78387 195
31.80399 187
31.8241 173
31.84422 173
31.86433 192
31.88444 198
31.90456 202
31.92467 196
31.94478 194
31.9649 210
31.98501 176
32.00513 192
32.02524 181
32.04535 189
32.06547 195
32.08558 207
32.10569 197
32.12581 210
32.14592 188
32.16604 193
32.18615 187
32.20626 192
32.22638 191
32.24649 216
32.2666 169
32.28672 213
32.30683 214
32.32694 163
32.34706 212
32.36717 221
32.38729 201
32.4074 186
32.42751 209
32.44763 200
32.46774 212
32.48785 192
32.50797 168
32.52808 206
32.5482 198
32.56831 222
32.58842 239
32.60854 168
32.62865 192
32.64876 196
32.66888 169
32.68899 177
32.7091 174
32.72922 196
32.74933 184
32.76945 198
32.78956 187
32.80967 173
32.82979 161
32.8499 183
32.87001 205
32.89013 211
32.91024 179
32.93036 189
32.95047 157
32.97058 181
32.9907 191
33.01081 204
33.03092 162
33.05104 179
33.07115 189
33.09127 168
33.11138 190
33.13149 162
33.15161 179
33.17172 170
33.19183 178
33.21195 153
33.23206 148
33.25217 156
33.27229 153
33.2924 194
33.31252 185
33.33263 140
33.35274 159
33.37286 157
33.39297 146
33.41308 150
33.4332 183
33.45331 138
33.47343 164
33.49354 163
33.51365 180
33.53377 187
33.55388 183
33.57399 164
33.59411 190
33.61422 160
33.63434 159
33.65445 163
33.67456 153
33.69468 180
33.71479 173
33.7349 172
33.75502 169
33.77513 184
33.79524 180
33.81536 154
33.83547 192
33.85559 139
33.8757 181
33.89581 141
33.91593 171
33.93604 160
33.95615 164
33.97627 176
33.99638 166
34.0165 159
34.03661 155
34.05672 163
34.07684 153
34.09695 185
34.11706 166
34.13718 194
34.15729 209
34.17741 179
34.19752 179
34.21763 169
34.23775 166
34.25786 165
34.27797 187
34.29809 172
34.3182 173
34.33831 190
34.35843 196
34.37854 218
34.39866 190
34.41877 197
34.43888 158
34.459 208
34.47911 191
34.49922 178
34.51934 187
34.53945 182
34.55957 199
34.57968 209
34.59979 210
34.61991 173
34.64002 207
34.66013 191
34.68025 205
34.70036 210
34.72047 208
34.74059 200
34.7607 183
34.78082 207
34.80093 189
34.82104 189
34.84116 193
34.86127 226
34.88138 196
34.9015 245
34.92161 233
34.94173 222
34.96184 217
34.98195 186
35.00207 193
35.02218 217
35.04229 220
35.06241 208
35.08252 203
35.10264 206
35.12275 229
35.14286 218
35.16298 191
35.18309 221
35.2032 225
35.22332 205
35.24343 236
35.26354 241
35.28366 236
35.30377 229
35.32389 251
35.344 236
35.36411 223
35.38423 213
35.40434 224
35.42445 231
35.44457 237
35.46468 235
35.4848 232
35.50491 248
35.52502 263
35.54514 228
35.56525 235
35.58536 229
35.60548 228
35.62559 202
35.64571 254
35.66582 231
35.68593 211
35.70605 219
35.72616 208
35.74627 205
35.76639 201
35.7865 219
35.80661 234
35.82673 259
35.84684 212
35.86696 223
35.88707 225
35.90718 223
35.9273 186
35.94741 240
35.96752 222
35.98764 244
36.00775 254
36.02787 240
36.04798 233
36.06809 243
36.08821 229
36.10832 266
36.12843 263
36.14855 302
36.16866 260
36.18878 277
36.20889 304
36.229 337
36.24912 392
36.26923 440
36.28934 473
36.30946 533
36.32957 621
36.34968 733
36.3698 893
36.38991 1067
36.41003 1243
36.43014 1447
36.45025 1733
36.47037 2029
36.49048 2235
36.51059 2382
36.53071 2240
36.55082 1809
36.57094 1451
36.59105 1277
36.61116 1111
36.63128 976
36.65139 646
36.6715 414
36.69162 320
36.71173 278
36.73184 284
36.75196 313
36.77207 230
36.79219 245
36.8123 260
36.83241 233
36.85253 240
36.87264 217
36.89275 245
36.91287 230
36.93298 208
36.9531 212
36.97321 191
36.99332 196
37.01344 209
37.03355 191
37.05366 198
37.07378 214
37.09389 205
37.11401 217
37.13412 187
37.15423 183
37.17435 194
37.19446 168
37.21457 185
37.23469 172
37.2548 198
37.27491 181
37.29503 184
37.31514 195
37.33526 170
37.35537 167
37.37548 185
37.3956 182
37.41571 161
37.43582 143
37.45594 189
37.47605 178
37.49617 188
37.51628 204
37.53639 188
37.55651 188
37.57662 205
37.59673 195
37.61685 183
37.63696 179
37.65708 170
37.67719 187
37.6973 174
37.71742 201
37.73753 193
37.75764 206
37.77776 190
37.79787 160
37.81798 203
37.8381 199
37.85821 199
37.87833 191
37.89844 195
37.91855 169
37.93867 167
37.95878 187
37.97889 209
37.99901 166
38.01912 192
38.03924 175
38.05935 160
38.07946 200
38.09958 193
38.11969 198
38.1398 195
38.15992 192
38.18003 203
38.20015 205
38.22026 182
38.24037 242
38.26049 219
38.2806 203
38.30071 215
38.32083 185
38.34094 226
38.36105 193
38.38117 243
38.40128 183
38.4214 234
38.44151 185
38.46162 232
38.48174 212
38.50185 225
38.52196 211
38.54208 195
38.56219 195
38.58231 200
38.60242 179
38.62253 194
38.64265 181
38.66276 154
38.68287 191
38.70299 184
38.7231 179
38.74321 165
38.76333 202
38.78344 156
38.80356 189
38.82367 186
38.84378 225
38.8639 206
38.88401 193
38.90412 220
38.92424 210
38.94435 230
38.96447 211
38.98458 230
39.00469 248
39.02481 263
39.04492 234
39.06503 252
39.08515 289
39.10526 305
39.12538 335
39.14549 348
39.1656 396
39.18572 419
39.20583 482
39.22594 547
39.24606 577
39.26617 732
39.28628 846
39.3064 980
39.32651 1165
39.34663 1331
39.36674 1564
39.38685 1729
39.40697 2033
39.42708 2273
39.44719 2142
39.46731 1711
39.48742 1463
39.50754 1265
39.52765 1118
39.54776 995
39.56788 745
39.58799 539
39.6081 396
39.62822 312
39.64833 278
39.66845 271
39.68856 254
39.70867 264
39.72879 228
39.7489 230
39.76901 261
39.78913 238
39.80924 187
39.82935 219
39.84947 213
39.86958 200
39.8897 238
39.90981 232
39.92992 248
39.95004 260
39.97015 264
39.99026 305
40.01038 302
40.03049 300
40.05061 355
40.07072 397
40.09083 461
40.11095 557
40.13106 571
40.15117 679
40.17129 817
40.1914 854
40.21152 1039
40.23163 1143
40.25174 1174
40.27186 1109
40.29197 917
40.31208 802
40.3322 677
40.35231 637
40.37242 633
40.39254 487
40.41265 353
40.43277 256
40.45288 241
40.47299 212
40.49311 219
40.51322 192
40.53333 188
40.55345 205
40.57356 214
40.59368 227
40.61379 178
40.6339 204
40.65402 184
40.67413 200
40.69424 187
40.71436 191
40.73447 181
40.75458 180
40.7747 166
40.79481 176
40.81493 189
40.83504 166
40.85515 169
40.87527 176
40.89538 173
40.91549 187
40.93561 196
40.95572 176
40.97584 177
40.99595 180
41.01606 175
41.03618 198
41.05629 183
41.0764 198
41.09652 192
41.11663 195
41.13675 216
41.15686 174
41.17697 193
41.19709 190
41.2172 204
41.23731 199
41.25743 191
41.27754 186
41.29765 203
41.31777 196
41.33788 191
41.358 178
41.37811 194
41.39822 184
41.41834 174
41.43845 191
41.45856 159
41.47868 168
41.49879 182
41.51891 199
41.53902 175
41.55913 171
41.57925 182
41.59936 214
41.61947 190
41.63959 203
41.6597 188
41.67982 218
41.69993 232
41.72004 246
41.74016 226
41.76027 226
41.78038 192
41.8005 214
41.82061 215
41.84072 199
41.86084 194
41.88095 200
41.90107 181
41.92118 228
41.94129 181
41.96141 209
41.98152 219
42.00163 228
42.02175 225
42.04186 246
42.06198 234
42.08209 264
42.1022 265
42.12232 281
42.14243 299
42.16254 329
42.18266 362
42.20277 449
42.22289 458
42.243 576
42.26311 637
42.28323 751
42.30334 819
42.32345 979
42.34357 1187
42.36368 1321
42.38379 1496
42.40391 1643
42.42402 1606
42.44414 1356
42.46425 1121
42.48436 967
42.50448 926
42.52459 774
42.5447 675
42.56482 535
42.58493 347
42.60505 296
42.62516 252
42.64527 238
42.66539 227
42.6855 198
42.70561 211
42.72573 209
42.74584 213
42.76595 214
42.78607 188
42.80618 199
42.8263 191
42.84641 186
42.86652 194
42.88664 153
42.90675 171
42.92686 172
42.94698 145
42.96709 148
42.98721 168
43.00732 174
43.02743 173
43.04755 182
43.06766 169
43.08777 174
43.10789 171
43.128 167
43.14812 176
43.16823 164
43.18834 161
43.20846 157
43.22857 176
43.24868 171
43.2688 178
43.28891 164
43.30902 182
43.32914 172
43.34925 167
43.36937 150
43.38948 210
43.40959 164
43.42971 155
43.44982 164
43.46993 165
43.49005 149
43.51016 158
43.53028 145
43.55039 160
43.5705 158
43.59062 151
43.61073 171
43.63084 152
43.65096 182
43.67107 170
43.69119 176
43.7113 178
43.73141 165
43.75153 163
43.77164 162
43.79175 160
43.81187 159
43.83198 160
43.85209 138
43.87221 150
43.89232 178
43.91244 160
43.93255 157
43.95266 160
43.97278 154
43.99289 148
44.013 186
44.03312 165
44.05323 177
44.07335 172
44.09346 145
44.11357 163
44.13369 160
44.1538 161
44.17391 172
44.19403 178
44.21414 161
44.23426 164
44.25437 156
44.27448 179
44.2946 157
44.31471 168
44.33482 162
44.35494 169
44.37505 160
44.39516 167
44.41528 176
44.43539 178
44.45551 161
44.47562 147
44.49573 165
44.51585 171
44.53596 178
44.55607 179
44.57619 176
44.5963 160
44.61642 162
44.63653 176
44.65664 164
44.67676 170
44.69687 163
44.71698 134
44.7371 151
44.75721 146
44.77732 169
44.79744 184
44.81755 160
44.83767 146
44.85778 178
44.87789 168
44.89801 160
44.91812 172
44.93823 166
44.95835 175
44.97846 177
44.99858 173
45.01869 170
45.0388 154
45.05892 179
45.07903 175
45.09914 170
45.11926 186
45.13937 191
45.15949 171
45.1796 187
45.19971 157
45.21983 179
45.23994 183
45.26005 158
45.28017 187
45.30028 188
45.32039 163
45.34051 183
45.36062 193
45.38074 224
45.40085 201
45.42096 215
45.44108 219
45.46119 228
45.4813 247
45.50142 274
45.52153 331
45.54165 329
45.56176 362
45.58187 425
45.60199 467
45.6221 551
45.64221 622
45.66233 706
45.68244 764
45.70256 872
45.72267 1012
45.74278 1064
45.7629 1041
45.78301 968
45.80312 763
45.82324 668
45.84335 572
45.86346 607
45.88358 569
45.90369 472
45.92381 367
45.94392 295
45.96403 206
45.98415 220
46.00426 188
46.02437 199
46.04449 171
46.0646 172
46.08472 171
46.10483 174
46.12494 153
46.14506 165
46.16517 171
46.18528 167
46.2054 167
46.22551 157
46.24563 165
46.26574 149
46.28585 170
46.30597 158
46.32608 178
46.34619 161
46.36631 156
46.38642 164
46.40653 161
46.42665 151
46.44676 148
46.46688 151
46.48699 144
46.5071 161
46.52722 152
46.54733 169
46.56744 156
46.58756 146
46.60767 169
46.62779 163
46.6479 156
46.66801 158
46.68813 160
46.70824 132
46.72835 153
46.74847 145
46.76858 162
46.78869 143
46.80881 147
46.82892 149
46.84904 136
46.86915 157
46.88926 160
46.90938 144
46.92949 137
46.9496 158
46.96972 174
46.98983 145
47.00995 167
47.03006 156
47.05017 143
47.07029 172
47.0904 152
47.11051 150
47.13063 161
47.15074 167
47.17086 145
47.19097 163
47.21108 135
47.2312 161
47.25131 170
47.27142 153
47.29154 171
47.31165 143
47.33176 172
47.35188 185
47.37199 183
47.39211 160
47.41222 147
47.43233 162
47.45245 151
47.47256 171
47.49267 182
47.51279 152
47.5329 157
47.55302 153
47.57313 143
47.59324 166
47.61336 149
47.63347 142
47.65358 140
47.6737 154
47.69381 172
47.71393 132
47.73404 161
47.75415 149
47.77427 155
47.79438 144
47.81449 126
47.83461 149
47.85472 135
47.87483 143
47.89495 141
47.91506 137
47.93518 163
47.95529 159
47.9754 165
47.99552 115
48.01563 157
48.03574 157
48.05586 176
48.07597 138
48.09609 139
48.1162 141
48.13631 138
48.15643 153
48.17654 142
48.19665 143
48.21677 161
48.23688 168
48.257 165
48.27711 177
48.29722 191
48.31734 164
48.33745 172
48.35756 147
48.37768 150
48.39779 149
48.4179 165
48.43802 160
48.45813 176
48.47825 162
48.49836 160
48.51847 171
48.53859 144
48.5587 159
48.57881 152
48.59893 164
48.61904 162
48.63916 142
48.65927 172
48.67938 141
48.6995 166
48.71961 159
48.73972 162
48.75984 183
48.77995 178
48.80006 162
48.82018 173
48.84029 165
48.86041 164
48.88052 151
48.90063 173
48.92075 188
48.94086 170
48.96097 163
48.98109 171
49.0012 166
49.02132 161
49.04143 167
49.06154 158
49.08166 172
49.10177 184
49.12188 151
49.142 165
49.16211 161
49.18223 178
49.20234 174
49.22245 177
49.24257 178
49.26268 176
49.28279 180
49.30291 159
49.32302 193
49.34313 157
49.36325 177
49.38336 182
49.40348 185
49.42359 180
49.4437 187
49.46382 176
49.48393 171
49.50404 208
49.52416 229
49.54427 200
49.56439 213
49.5845 219
49.60461 254
49.62473 248
49.64484 246
49.66495 287
49.68507 315
49.70518 310
49.7253 347
49.74541 374
49.76552 401
49.78564 442
49.80575 504
49.82586 573
49.84598 708
49.86609 746
49.8862 880
49.90632 1007
49.92643 1133
49.94655 1414
49.96666 1561
49.98677 1798
50.00689 2190
50.027 2454
50.04711 2866
50.06723 3118
50.08734 3377
50.10746 3191
50.12757 2973
50.14768 2357
50.1678 1849
50.18791 1788
50.20802 1707
50.22814 1611
50.24825 1477
50.26837 1145
50.28848 781
50.30859 506
50.32871 397
50.34882 357
50.36893 345
50.38905 299
50.40916 286
50.42927 284
50.44939 296
50.4695 310
50.48962 273
50.50973 295
50.52984 285
50.54996 310
50.57007 305
50.59018 297
50.6103 263
50.63041 235
50.65053 243
50.67064 240
50.69075 229
50.71087 229
50.73098 239
50.75109 186
50.77121 191
50.79132 195
50.81143 178
50.83155 213
50.85166 184
50.87178 173
50.89189 175
50.912 193
50.93212 168
50.95223 156
50.97234 167
50.99246 152
51.01257 161
51.03269 158
51.0528 146
51.07291 158
51.09303 147
51.11314 159
51.13325 175
51.15337 171
51.17348 175
51.1936 158
51.21371 152
51.23382 153
51.25394 167
51.27405 173
51.29416 165
51.31428 151
51.33439 167
51.3545 149
51.37462 160
51.39473 149
51.41485 160
51.43496 152
51.45507 153
51.47519 139
51.4953 146
51.51541 153
51.53553 158
51.55564 141
51.57576 142
51.59587 138
51.61598 140
51.6361 141
51.65621 166
51.67632 152
51.69644 134
51.71655 130
51.73667 138
51.75678 140
51.77689 139
51.79701 123
51.81712 129
51.83723 133
51.85735 155
51.87746 127
51.89757 142
51.91769 151
51.9378 153
51.95792 133
51.97803 149
51.99814 148
52.01826 159
52.03837 142
52.05848 135
52.0786 146
52.09871 142
52.11883 135
52.13894 143
52.15905 153
52.17917 125
52.19928 145
52.21939 159
52.23951 154
52.25962 186
52.27974 148
52.29985 136
52.31996 167
52.34008 136
52.36019 152
52.3803 140
52.40042 155
52.42053 135
52.44064 155
52.46076 133
52.48087 135
52.50099 149
52.5211 165
52.54121 142
52.56133 177
52.58144 154
52.60155 149
52.62167 152
52.64178 163
52.6619 165
52.68201 147
52.70212 133
52.72224 148
52.74235 127
52.76246 132
52.78258 138
52.80269 132
52.8228 137
52.84292 149
52.86303 138
52.88315 162
52.90326 130
52.92337 127
52.94349 153
52.9636 153
52.98371 160
53.00383 153
53.02394 151
53.04406 169
53.06417 182
53.08428 167
53.1044 154
53.12451 141
53.14462 165
53.16474 171
53.18485 143
53.20497 168
53.22508 180
53.24519 178
53.26531 170
53.28542 160
53.30553 177
53.32565 159
53.34576 158
53.36587 211
53.38599 163
53.4061 176
53.42622 175
53.44633 174
53.46644 166
53.48656 173
53.50667 165
53.52678 177
53.5469 168
53.56701 187
53.58713 157
53.60724 193
53.62735 151
53.64747 166
53.66758 147
53.68769 171
53.70781 157
53.72792 172
53.74804 172
53.76815 169
53.78826 156
53.80838 176
53.82849 156
53.8486 178
53.86872 159
53.88883 166
53.90894 178
53.92906 181
53.94917 160
53.96929 175
53.9894 165
54.00951 150
54.02963 179
54.04974 153
54.06985 194
54.08997 167
54.11008 186
54.1302 192
54.15031 175
54.17042 171
54.19054 196
54.21065 188
54.23076 188
54.25088 195
54.27099 196
54.29111 208
54.31122 177
54.33133 184
54.35145 187
54.37156 208
54.39167 222
54.41179 182
54.4319 203
54.45201 209
54.47213 240
54.49224 225
54.51236 224
54.53247 291
54.55258 290
54.5727 279
54.59281 334
54.61292 401
54.63304 402
54.65315 452
54.67327 529
54.69338 575
54.71349 654
54.73361 729
54.75372 847
54.77383 903
54.79395 1023
54.81406 1031
54.83417 1061
54.85429 1007
54.8744 855
54.89452 731
54.91463 625
54.93474 619
54.95486 601
54.97497 615
54.99508 599
55.0152 551
55.03531 419
55.05543 368
55.07554 345
55.09565 355
55.11577 358
55.13588 340
55.15599 393
55.17611 382
55.19622 407
55.21634 468
55.23645 485
55.25656 548
55.27668 570
55.29679 564
55.3169 511
55.33702 415
55.35713 382
55.37724 360
55.39736 362
55.41747 355
55.43759 376
55.4577 286
55.47781 291
55.49793 244
55.51804 190
55.53815 191
55.55827 179
55.57838 177
55.5985 177
55.61861 176
55.63872 174
55.65884 166
55.67895 137
55.69906 184
55.71918 168
55.73929 148
55.75941 129
55.77952 152
55.79963 164
55.81975 160
55.83986 132
55.85997 148
55.88009 149
55.9002 163
55.92031 148
55.94043 186
55.96054 153
55.98066 131
56.00077 135
56.02088 152
56.041 155
56.06111 140
56.08122 137
56.10134 148
56.12145 133
56.14157 160
56.16168 153
56.18179 144
56.20191 158
56.22202 148
56.24213 163
56.26225 144
56.28236 143
56.30248 158
56.32259 147
56.3427 152
56.36282 143
56.38293 152
56.40304 133
56.42316 138
56.44327 177
56.46338 164
56.4835 164
56.50361 157
56.52373 170
56.54384 149
56.56395 169
56.58407 151
56.60418 150
56.62429 158
56.64441 174
56.66452 141
56.68464 139
56.70475 152
56.72486 178
56.74498 116
56.76509 153
56.7852 137
56.80532 129
56.82543 142
56.84554 172
56.86566 139
56.88577 171
56.90589 146
56.926 135
56.94611 148
56.96623 159
56.98634 142
57.00645 151
57.02657 157
57.04668 181
57.0668 176
57.08691 178
57.10702 183
57.12714 155
57.14725 209
57.16736 203
57.18748 202
57.20759 177
57.22771 186
57.24782 181
57.26793 135
57.28805 181
57.30816 154
57.32827 190
57.34839 161
57.3685 188
57.38861 157
57.40873 160
57.42884 161
57.44896 144
57.46907 135
57.48918 165
57.5093 167
57.52941 138
57.54952 147
57.56964 156
57.58975 150
57.60987 125
57.62998 149
57.65009 136
57.67021 145
57.69032 153
57.71043 148
57.73055 158
57.75066 141
57.77078 148
57.79089 126
57.811 149
57.83112 124
57.85123 153
57.87134 123
57.89146 151
57.91157 139
57.93168 141
57.9518 153
57.97191 144
57.99203 173
58.01214 163
58.03225 130
58.05237 162
58.07248 152
58.09259 136
58.11271 154
58.13282 155
58.15294 143
58.17305 127
58.19316 140
58.21328 155
58.23339 143
58.2535 141
58.27362 149
58.29373 133
58.31385 134
58.33396 136
58.35407 145
58.37419 149
58.3943 147
58.41441 144
58.43453 156
58.45464 136
58.47475 152
58.49487 157
58.51498 141
58.5351 155
58.55521 163
58.57532 178
58.59544 164
58.61555 155
58.63566 122
58.65578 128
58.67589 163
58.69601 147
58.71612 164
58.73623 163
58.75635 145
58.77646 154
58.79657 162
58.81669 141
58.8368 152
58.85691 133
58.87703 131
58.89714 139
58.91726 124
58.93737 154
58.95748 147
58.9776 122
58.99771 168
59.01782 159
59.03794 136
59.05805 160
59.07817 142
59.09828 153
59.11839 144
59.13851 167
59.15862 152
59.17873 168
59.19885 165
59.21896 165
59.23908 155
59.25919 157
59.2793 177
59.29942 160
59.31953 165
59.33964 186
59.35976 184
59.37987 185
59.39998 175
59.4201 193
59.44021 208
59.46033 225
59.48044 256
59.50055 270
59.52067 264
59.54078 305
59.56089 305
59.58101 355
59.60112 374
59.62124 396
59.64135 456
59.66146 542
59.68158 531
59.70169 627
59.7218 741
59.74192 877
59.76203 952
59.78215 1179
59.80226 1308
59.82237 1532
59.84249 1633
59.8626 1856
59.88271 2083
59.90283 2192
59.92294 2092
59.94305 1819
59.96317 1517
59.98328 1220
60.0034 1111
60.02351 1070
60.04362 1052
60.06374 1154
60.08385 1058
60.10396 881
60.12408 651
60.14419 449
60.16431 372
60.18442 289
60.20453 249
60.22465 241
60.24476 196
60.26487 207
60.28499 204
60.3051 212
60.32522 181
60.34533 197
60.36544 190
60.38556 167
60.40567 202
60.42578 164
60.4459 172
60.46601 170
60.48612 170
60.50624 163
60.52635 170
60.54647 163
60.56658 159
60.58669 190
60.60681 170
60.62692 159
60.64703 149
60.66715 171
60.68726 154
60.70738 146
60.72749 164
60.7476 158
60.76772 158
60.78783 163
60.80794 155
60.82806 153
60.84817 141
60.86828 155
60.8884 150
60.90851 149
60.92863 144
60.94874 161
60.96885 145
60.98897 139
61.00908 141
61.02919 153
61.04931 162
61.06942 155
61.08954 166
61.10965 145
61.12976 163
61.14988 160
61.16999 159
61.1901 158
61.21022 154
61.23033 163
61.25045 149
61.27056 139
61.29067 147
61.31079 148
61.3309 140
61.35101 151
61.37113 153
61.39124 128
61.41135 157
61.43147 152
61.45158 167
61.4717 153
61.49181 160
61.51192 158
61.53204 170
61.55215 147
61.57226 160
61.59238 148
61.61249 177
61.63261 138
61.65272 158
61.67283 149
61.69295 176
61.71306 145
61.73317 160
61.75329 159
61.7734 161
61.79352 147
61.81363 166
61.83374 158
61.85386 152
61.87397 138
61.89408 163
61.9142 138
61.93431 149
61.95442 148
61.97454 200
61.99465 164
62.01477 163
62.03488 147
62.05499 153
62.07511 175
62.09522 162
62.11533 149
62.13545 160
62.15556 158
62.17568 161
62.19579 140
62.2159 162
62.23602 156
62.25613 178
62.27624 172
62.29636 147
62.31647 140
62.33659 153
62.3567 155
62.37681 138
62.39693 145
62.41704 151
62.43715 139
62.45727 138
62.47738 158
62.49749 153
62.51761 157
62.53772 152
62.55784 139
62.57795 141
62.59806 142
62.61818 147
62.63829 165
62.6584 143
62.67852 154
62.69863 140
62.71875 125
62.73886 141
62.75897 149
62.77909 110
62.7992 143
62.81931 143
62.83943 146
62.85954 148
62.87965 143
62.89977 162
62.91988 118
62.94 120
62.96011 149
62.98022 155
63.00034 149
63.02045 156
63.04056 158
63.06068 129
63.08079 150
63.10091 160
63.12102 145
63.14113 156
63.16125 131
63.18136 134
63.20147 147
63.22159 145
63.2417 145
63.26182 112
63.28193 148
63.30204 158
63.32216 123
63.34227 163
63.36238 143
63.3825 147
63.40261 145
63.42272 133
63.44284 170
63.46295 147
63.48307 151
63.50318 138
63.52329 138
63.54341 168
63.56352 141
63.58363 178
63.60375 176
63.62386 180
63.64398 163
63.66409 196
63.6842 180
63.70432 196
63.72443 217
63.74454 217
63.76466 226
63.78477 237
63.80489 278
63.825 256
63.84511 323
63.86523 350
63.88534 361
63.90545 399
63.92557 443
63.94568 465
63.96579 498
63.98591 494
64.00602 495
64.02614 447
64.04625 370
64.06636 323
64.08648 319
64.10659 259
64.1267 311
64.14682 329
64.16693 312
64.18705 271
64.20716 234
64.22727 214
64.24739 180
64.2675 179
64.28761 147
64.30773 150
64.32784 127
64.34796 128
64.36807 155
64.38818 135
64.4083 134
64.42841 140
64.44852 132
64.46864 157
64.48875 115
64.50886 140
64.52898 104
64.54909 147
64.56921 142
64.58932 128
64.60943 118
64.62955 137
64.64966 140
64.66977 124
64.68989 128
64.71 130
64.73012 132
64.75023 145
64.77034 121
64.79046 146
64.81057 146
64.83068 160
64.8508 140
64.87091 133
64.89102 128
64.91114 146
64.93125 146
64.95137 126
64.97148 159
64.99159 147
65.01171 130
65.03182 147
65.05193 155
65.07205 151
65.09216 139
65.11228 141
65.13239 153
65.1525 119
65.17262 111
65.19273 140
65.21284 143
65.23296 141
65.25307 160
65.27319 154
65.2933 141
65.31341 140
65.33353 144
65.35364 157
65.37375 158
65.39387 151
65.41398 134
65.43409 130
65.45421 154
65.47432 155
65.49444 156
65.51455 178
65.53466 165
65.55478 181
65.57489 154
65.595 198
65.61512 188
65.63523 194
65.65535 222
65.67546 200
65.69557 218
65.71569 209
65.7358 228
65.75591 232
65.77603 210
65.79614 200
65.81626 164
65.83637 195
65.85648 180
65.8766 171
65.89671 197
65.91682 185
65.93694 178
65.95705 157
65.97716 178
65.99728 160
66.01739 165
66.03751 151
66.05762 139
66.07773 170
66.09785 159
66.11796 166
66.13807 138
66.15819 144
66.1783 146
66.19842 149
66.21853 163
66.23864 169
66.25876 158
66.27887 138
66.29898 146
66.3191 143
66.33921 139
66.35933 141
66.37944 133
66.39955 124
66.41967 117
66.43978 146
66.45989 134
66.48001 159
66.50012 148
66.52023 145
66.54035 150
66.56046 118
66.58058 125
66.60069 130
66.6208 154
66.64092 138
66.66103 143
66.68114 149
66.70126 143
66.72137 150
66.74149 172
66.7616 158
66.78171 149
66.80183 161
66.82194 152
66.84205 158
66.86217 158
66.88228 170
66.90239 157
66.92251 182
66.94262 161
66.96274 150
66.98285 158
67.00296 158
67.02308 156
67.04319 136
67.0633 150
67.08342 162
67.10353 189
67.12365 188
67.14376 167
67.16387 175
67.18399 173
67.2041 179
67.22421 203
67.24433 197
67.26444 243
67.28456 232
67.30467 254
67.32478 263
67.3449 275
67.36501 283
67.38512 315
67.40524 322
67.42535 382
67.44546 356
67.46558 425
67.48569 472
67.50581 576
67.52592 608
67.54603 684
67.56615 800
67.58626 872
67.60637 942
67.62649 1098
67.6466 1218
67.66672 1314
67.68683 1331
67.70694 1325
67.72706 1226
67.74717 1026
67.76728 872
67.7874 838
67.80751 908
67.82763 918
67.84774 959
67.86785 1048
67.88797 1129
67.90808 1090
67.92819 1089
67.94831 1122
67.96842 1119
67.98853 1157
68.00865 1327
68.02876 1425
68.04888 1603
68.06899 1711
68.0891 1816
68.10922 1846
68.12933 1662
68.14944 1577
68.16956 1474
68.18967 1356
68.20979 1464
68.2299 1459
68.25001 1518
68.27013 1516
68.29024 1453
68.31035 1266
68.33047 1032
68.35058 849
68.3707 687
68.39081 614
68.41092 597
68.43104 582
68.45115 578
68.47126 574
68.49138 493
68.51149 395
68.5316 341
68.55172 274
68.57183 244
68.59195 229
68.61206 186
68.63217 215
68.65229 194
68.6724 204
68.69251 211
68.71263 183
68.73274 180
68.75286 180
68.77297 183
68.79308 168
68.8132 161
68.83331 148
68.85342 157
68.87354 157
68.89365 164
68.91376 153
68.93388 152
68.95399 157
68.97411 159
68.99422 160
69.01433 163
69.03445 154
69.05456 141
69.07467 146
69.09479 158
69.1149 167
69.13502 149
69.15513 163
69.17524 138
69.19536 139
69.21547 149
69.23558 153
69.2557 121
69.27581 148
69.29593 137
69.31604 156
69.33615 134
69.35627 134
69.37638 146
69.39649 153
69.41661 148
69.43672 156
69.45683 151
69.47695 122
69.49706 149
69.51718 132
69.53729 152
69.5574 152
69.57752 166
69.59763 139
69.61774 135
69.63786 159
69.65797 135
69.67809 117
69.6982 131
69.71831 132
69.73843 121
69.75854 129
69.77865 154
69.79877 145
69.81888 130
69.839 129
69.85911 131
69.87922 139
69.89934 127
69.91945 143
69.93956 125
69.95968 136
69.97979 138
69.9999 133
70.02002 133
70.04013 138
70.06025 149
70.08036 136
70.10047 121
70.12059 132
70.1407 131
70.16081 133
70.18093 135
70.20104 114
70.22116 156
70.24127 130
70.26138 145
70.2815 112
70.30161 134
70.32172 110
70.34184 119
70.36195 138
70.38207 121
70.40218 138
70.42229 124
70.44241 127
70.46252 120
70.48263 147
70.50275 144
70.52286 141
70.54297 140
70.56309 143
70.5832 129
70.60332 134
70.62343 123
70.64354 135
70.66366 131
70.68377 135
70.70388 129
70.724 128
70.74411 134
70.76423 121
70.78434 141
70.80445 127
70.82457 126
70.84468 121
70.86479 148
70.88491 134
70.90502 128
70.92513 149
70.94525 131
70.96536 122
70.98548 126
71.00559 134
71.0257 118
71.04582 142
71.06593 132
71.08604 136
71.10616 136
71.12627 139
71.14639 133
71.1665 135
71.18661 141
71.20673 128
71.22684 139
71.24695 133
71.26707 138
71.28718 128
71.3073 124
71.32741 123
71.34752 134
71.36764 123
71.38775 129
71.40786 116
71.42798 107
71.44809 141
71.4682 136
71.48832 118
71.50843 134
71.52855 135
71.54866 129
71.56877 117
71.58889 132
71.609 128
71.62911 117
71.64923 141
71.66934 133
71.68946 132
71.70957 130
71.72968 124
71.7498 140
71.76991 138
71.79002 140
71.81014 132
71.83025 146
71.85037 139
71.87048 150
71.89059 124
71.91071 143
71.93082 124
71.95093 135
71.97105 128
71.99116 124
72.01127 133
72.03139 109
72.0515 138
72.07162 123
72.09173 138
72.11184 115
72.13196 151
72.15207 132
72.17218 162
72.1923 118
72.21241 137
72.23253 120
72.25264 139
72.27275 120
72.29287 121
72.31298 117
72.33309 120
72.35321 119
72.37332 122
72.39344 155
72.41355 142
72.43366 139
72.45378 114
72.47389 146
72.494 135
72.51412 147
72.53423 125
72.55434 137
72.57446 110
72.59457 115
72.61469 137
72.6348 129
72.65491 118
72.67503 119
72.69514 130
72.71525 133
72.73537 122
72.75548 146
72.7756 122
72.79571 127
72.81582 128
72.83594 162
72.85605 146
72.87616 139
72.89628 140
72.91639 168
72.9365 169
72.95662 178
72.97673 169
72.99685 160
73.01696 164
73.03707 181
73.05719 175
73.0773 190
73.09741 182
73.11753 192
73.13764 196
73.15776 228
73.17787 225
73.19798 245
73.2181 270
73.23821 285
73.25832 300
73.27844 344
73.29855 340
73.31867 380
73.33878 396
73.35889 483
73.37901 507
73.39912 512
73.41923 522
73.43935 529
73.45946 419
73.47957 360
73.49969 321
73.5198 299
73.53992 278
73.56003 287
73.58014 322
73.60026 303
73.62037 307
73.64048 302
73.6606 273
73.68071 241
73.70083 231
73.72094 178
73.74105 175
73.76117 146
73.78128 134
73.80139 152
73.82151 144
73.84162 136
73.86174 142
73.88185 130
73.90196 126
73.92208 138
73.94219 125
73.9623 135
73.98242 121
74.00253 152
74.02264 147
74.04276 120
74.06287 126
74.08299 143
74.1031 142
74.12321 122
74.14333 132
74.16344 121
74.18355 145
74.20367 131
74.22378 119
74.2439 130
74.26401 134
74.28412 126
74.30424 133
74.32435 141
74.34446 144
74.36458 120
74.38469 128
74.40481 122
74.42492 136
74.44503 127
74.46515 122
74.48526 142
74.50537 123
74.52549 134
74.5456 126
74.56571 130
74.58583 125
74.60594 136
74.62606 141
74.64617 98
74.66628 119
74.6864 125
74.70651 143
74.72662 99
74.74674 122
74.76685 130
74.78697 134
74.80708 131
74.82719 124
74.84731 137
74.86742 124
74.88753 132
74.90765 128
74.92776 118
74.94787 126
74.96799 133
74.9881 142
75.00822 113
