3.00117 19377
3.02128 18971
3.0414 18218
3.06151 17999
3.08162 17518
3.10174 17243
3.12185 16566
3.14197 15969
3.16208 15878
3.18219 14915
3.20231 14421
3.22242 14211
3.24253 13583
3.26265 13385
3.28276 13012
3.30288 12654
3.32299 12219
3.3431 11587
3.36322 11368
3.38333 10765
3.40344 10573
3.42356 10315
3.44367 9865
3.46379 9674
3.4839 9362
3.50401 8729
3.52413 8685
3.54424 8307
3.56435 8138
3.58447 7788
3.60458 7499
3.62469 7173
3.64481 6656
3.66492 6674
3.68504 6093
3.70515 6157
3.72526 5984
3.74538 5565
3.76549 5414
3.7856 5027
3.80572 5104
3.82583 4802
3.84595 4491
3.86606 4305
3.88617 3966
3.90629 3879
3.9264 3851
3.94651 3591
3.96663 3508
3.98674 3249
4.00686 3040
4.02697 3076
4.04708 2875
4.0672 2718
4.08731 2502
4.10742 2421
4.12754 2428
4.14765 2269
4.16776 2110
4.18788 1988
4.20799 1933
4.22811 1918
4.24822 1777
4.26833 1726
4.28845 1710
4.30856 1573
4.32867 1562
4.34879 1556
4.3689 1575
4.38902 1381
4.40913 1321
4.42924 1407
4.44936 1320
4.46947 1228
4.48958 1237
4.5097 1196
4.52981 1164
4.54992 1178
4.57004 1077
4.59015 1052
4.61027 963
4.63038 1025
4.65049 966
4.67061 970
4.69072 910
4.71083 901
4.73095 870
4.75106 897
4.77118 796
4.79129 740
4.8114 755
4.83152 769
4.85163 748
4.87174 700
4.89186 751
4.91197 718
4.93209 657
4.9522 744
4.97231 638
4.99243 622
5.01254 598
5.03265 605
5.05277 579
5.07288 529
5.09299 533
5.11311 588
5.13322 540
5.15334 468
5.17345 410
5.19356 509
5.21368 468
5.23379 438
5.2539 476
5.27402 433
5.29413 410
5.31425 450
5.33436 400
5.35447 391
5.37459 374
5.3947 370
5.41481 352
5.43493 339
5.45504 388
5.47516 312
5.49527 312
5.51538 322
5.5355 300
5.55561 309
5.57572 265
5.59584 292
5.61595 309
5.63606 253
5.65618 249
5.67629 261
5.69641 260
5.71652 221
5.73663 261
5.75675 285
5.77686 255
5.79697 225
5.81709 228
5.8372 225
5.85732 208
5.87743 205
5.89754 194
5.91766 220
5.93777 182
5.95788 196
5.978 184
5.99811 181
6.01823 202
6.03834 226
6.05845 206
6.07857 186
6.09868 159
6.11879 161
6.13891 206
6.15902 195
6.17913 181
6.19925 202
6.21936 193
6.23948 194
6.25959 183
6.2797 172
6.29982 178
6.31993 171
6.34004 166
6.36016 175
6.38027 184
6.40039 152
6.4205 132
6.44061 163
6.46073 163
6.48084 151
6.50095 157
6.52107 157
6.54118 187
6.56129 150
6.58141 179
6.60152 153
6.62164 154
6.64175 130
6.66186 172
6.68198 147
6.70209 160
6.7222 187
6.74232 174
6.76243 167
6.78255 151
6.80266 151
6.82277 163
6.84289 155
6.863 125
6.88311 129
6.90323 150
6.92334 162
6.94346 140
6.96357 143
6.98368 156
7.0038 161
7.02391 152
7.04402 149
7.06414 166
7.08425 190
7.10436 150
7.12448 174
7.14459 184
7.16471 163
7.18482 150
7.20493 167
7.22505 165
7.24516 164
7.26527 165
7.28539 163
7.3055 198
7.32562 171
7.34573 166
7.36584 135
7.38596 155
7.40607 157
7.42618 177
7.4463 137
7.46641 145
7.48653 174
7.50664 169
7.52675 170
7.54687 192
7.56698 170
7.58709 153
7.60721 170
7.62732 168
7.64743 159
7.66755 168
7.68766 176
7.70778 172
7.72789 173
7.748 186
7.76812 182
7.78823 156
7.80834 174
7.82846 200
7.84857 182
7.86869 190
7.8888 196
7.90891 164
7.92903 214
7.94914 198
7.96925 197
7.98937 170
8.00948 168
8.0296 184
8.04971 205
8.06982 178
8.08994 186
8.11005 179
8.13016 174
8.15028 183
8.17039 227
8.1905 190
8.21062 168
8.23073 185
8.25085 208
8.27096 178
8.29107 194
8.31119 198
8.3313 193
8.35141 207
8.37153 178
8.39164 172
8.41176 205
8.43187 190
8.45198 196
8.4721 194
8.49221 206
8.51232 186
8.53244 231
8.55255 188
8.57266 198
8.59278 195
8.61289 191
8.63301 193
8.65312 194
8.67323 197
8.69335 197
8.71346 195
8.73357 198
8.75369 219
8.7738 228
8.79392 182
8.81403 227
8.83414 190
8.85426 199
8.87437 202
8.89448 228
8.9146 200
8.93471 207
8.95483 214
8.97494 207
8.99505 230
9.01517 193
9.03528 207
9.05539 205
9.07551 186
9.09562 196
9.11573 196
9.13585 191
9.15596 200
9.17608 202
9.19619 204
9.2163 202
9.23642 213
9.25653 206
9.27664 213
9.29676 199
9.31687 181
9.33699 213
9.3571 204
9.37721 213
9.39733 197
9.41744 209
9.43755 206
9.45767 216
9.47778 180
9.4979 214
9.51801 204
9.53812 210
9.55824 196
9.57835 235
9.59846 227
9.61858 224
9.63869 217
9.6588 211
9.67892 196
9.69903 219
9.71915 216
9.73926 206
9.75937 206
9.77949 199
9.7996 215
9.81971 221
9.83983 223
9.85994 193
9.88006 183
9.90017 233
9.92028 247
9.9404 214
9.96051 226
9.98062 231
10.00074 211
10.02085 212
10.04097 191
10.06108 218
10.08119 213
10.10131 198
10.12142 180
10.14153 189
10.16165 217
10.18176 217
10.20187 249
10.22199 237
10.2421 220
10.26222 221
10.28233 213
10.30244 216
10.32256 202
10.34267 212
10.36278 224
10.3829 190
10.40301 226
10.42313 209
10.44324 233
10.46335 238
10.48347 215
10.50358 205
10.52369 207
10.54381 216
10.56392 202
10.58403 238
10.60415 233
10.62426 195
10.64438 201
10.66449 206
10.6846 222
10.70472 211
10.72483 203
10.74494 228
10.76506 221
10.78517 229
10.80529 211
10.8254 227
10.84551 229
10.86563 200
10.88574 233
10.90585 212
10.92597 203
10.94608 236
10.9662 230
10.98631 211
11.00642 221
11.02654 226
11.04665 192
11.06676 216
11.08688 201
11.10699 214
11.1271 200
11.14722 216
11.16733 206
11.18745 194
11.20756 201
11.22767 192
11.24779 212
11.2679 211
11.28801 185
11.30813 199
11.32824 203
11.34836 180
11.36847 195
11.38858 210
11.4087 183
11.42881 212
11.44892 212
11.46904 201
11.48915 193
11.50927 213
11.52938 234
11.54949 180
11.56961 206
11.58972 205
11.60983 208
11.62995 205
11.65006 208
11.67017 221
11.69029 214
11.7104 219
11.73052 203
11.75063 209
11.77074 237
11.79086 207
11.81097 200
11.83108 203
11.8512 200
11.87131 200
11.89143 192
11.91154 210
11.93165 212
11.95177 199
11.97188 179
11.99199 194
12.01211 200
12.03222 243
12.05234 189
12.07245 202
12.09256 189
12.11268 201
12.13279 204
12.1529 188
12.17302 189
12.19313 183
12.21324 170
12.23336 196
12.25347 190
12.27359 236
12.2937 210
12.31381 221
12.33393 223
12.35404 224
12.37415 197
12.39427 192
12.41438 178
12.4345 223
12.45461 219
12.47472 226
12.49484 199
12.51495 204
12.53506 187
12.55518 219
12.57529 215
12.5954 200
12.61552 202
12.63563 167
12.65575 199
12.67586 182
12.69597 200
12.71609 212
12.7362 200
12.75631 197
12.77643 174
12.79654 212
12.81666 195
12.83677 186
12.85688 176
12.877 176
12.89711 186
12.91722 193
12.93734 191
12.95745 227
12.97757 203
12.99768 207
13.01779 164
13.03791 196
13.05802 176
13.07813 198
13.09825 202
13.11836 192
13.13847 221
13.15859 204
13.1787 201
13.19882 223
13.21893 192
13.23904 184
13.25916 165
13.27927 208
13.29938 184
13.3195 176
13.33961 180
13.35973 177
13.37984 203
13.39995 171
13.42007 169
13.44018 223
13.46029 172
13.48041 214
13.50052 177
13.52064 206
13.54075 187
13.56086 196
13.58098 214
13.60109 207
13.6212 203
13.64132 191
13.66143 177
13.68154 203
13.70166 174
13.72177 169
13.74189 191
13.762 152
13.78211 179
13.80223 196
13.82234 197
13.84245 196
13.86257 180
13.88268 175
13.9028 186
13.92291 177
13.94302 188
13.96314 164
13.98325 190
14.00336 200
14.02348 183
14.04359 198
14.06371 190
14.08382 187
14.10393 191
14.12405 168
14.14416 181
14.16427 184
14.18439 158
14.2045 171
14.22461 180
14.24473 191
14.26484 158
14.28496 165
14.30507 157
14.32518 176
14.3453 168
14.36541 175
14.38552 187
14.40564 158
14.42575 196
14.44587 201
14.46598 180
14.48609 177
14.50621 217
14.52632 190
14.54643 159
14.56655 179
14.58666 164
14.60677 175
14.62689 159
14.647 179
14.66712 169
14.68723 151
14.70734 183
14.72746 178
14.74757 184
14.76768 151
14.7878 177
14.80791 179
14.82803 195
14.84814 175
14.86825 154
14.88837 147
14.90848 164
14.92859 195
14.94871 216
14.96882 166
14.98894 193
15.00905 170
15.02916 175
15.04928 191
15.06939 203
15.0895 169
15.10962 180
15.12973 167
15.14984 155
15.16996 171
15.19007 154
15.21019 180
15.2303 157
15.25041 199
15.27053 192
15.29064 180
15.31075 151
15.33087 164
15.35098 175
15.3711 160
15.39121 151
15.41132 167
15.43144 148
15.45155 148
15.47166 149
15.49178 165
15.51189 156
15.53201 139
15.55212 154
15.57223 144
15.59235 172
15.61246 162
15.63257 167
15.65269 171
15.6728 160
15.69291 147
15.71303 130
15.73314 162
15.75326 163
15.77337 158
15.79348 157
15.8136 177
15.83371 166
15.85382 136
15.87394 175
15.89405 167
15.91417 161
15.93428 162
15.95439 175
15.97451 149
15.99462 171
16.01473 149
16.03485 170
16.05496 162
16.07508 172
16.09519 149
16.1153 166
16.13542 132
16.15553 157
16.17564 140
16.19576 156
16.21587 148
16.23598 164
16.2561 152
16.27621 153
16.29633 148
16.31644 145
16.33655 149
16.35667 142
16.37678 157
16.39689 141
16.41701 171
16.43712 150
16.45724 172
16.47735 139
16.49746 131
16.51758 163
16.53769 169
16.5578 144
16.57792 152
16.59803 158
16.61814 128
16.63826 140
16.65837 159
16.67849 130
16.6986 135
16.71871 137
16.73883 147
16.75894 159
16.77905 138
16.79917 168
16.81928 159
16.8394 165
16.85951 134
16.87962 167
16.89974 167
16.91985 161
16.93996 150
16.96008 175
16.98019 148
17.00031 164
17.02042 156
17.04053 174
17.06065 157
17.08076 167
17.10087 154
17.12099 137
17.1411 161
17.16121 140
17.18133 165
17.20144 170
17.22156 168
17.24167 149
17.26178 133
17.2819 142
17.30201 142
17.32212 150
17.34224 133
17.36235 168
17.38247 143
17.40258 184
17.42269 153
17.44281 149
17.46292 153
17.48303 146
17.50315 171
17.52326 134
17.54338 150
17.56349 153
17.5836 143
17.60372 158
17.62383 153
17.64394 174
17.66406 144
17.68417 153
17.70428 162
17.7244 154
17.74451 187
17.76463 152
17.78474 141
17.80485 142
17.82497 160
17.84508 157
17.86519 140
17.88531 143
17.90542 131
17.92554 129
17.94565 151
17.96576 113
17.98588 156
18.00599 161
18.0261 149
18.04622 161
18.06633 153
18.08645 125
18.10656 139
18.12667 154
18.14679 132
18.1669 136
18.18701 143
18.20713 149
18.22724 144
18.24735 147
18.26747 155
18.28758 177
18.3077 155
18.32781 149
18.34792 153
18.36804 136
18.38815 155
18.40826 169
18.42838 145
18.44849 163
18.46861 161
18.48872 143
18.50883 135
18.52895 139
18.54906 140
18.56917 160
18.58929 145
18.6094 138
18.62951 149
18.64963 132
18.66974 158
18.68986 157
18.70997 150
18.73008 153
18.7502 178
18.77031 164
18.79042 177
18.81054 161
18.83065 142
18.85077 171
18.87088 153
18.89099 144
18.91111 144
18.93122 166
18.95133 162
18.97145 153
18.99156 151
19.01168 154
19.03179 135
19.0519 129
19.07202 148
19.09213 151
19.11224 149
19.13236 133
19.15247 161
19.17258 178
19.1927 162
19.21281 173
19.23293 132
19.25304 154
19.27315 154
19.29327 170
19.31338 149
19.33349 170
19.35361 151
19.37372 167
19.39384 172
19.41395 151
19.43406 153
19.45418 154
19.47429 150
19.4944 158
19.51452 174
19.53463 168
19.55475 151
19.57486 169
19.59497 144
19.61509 172
19.6352 174
19.65531 179
19.67543 185
19.69554 155
19.71565 163
19.73577 174
19.75588 150
19.776 152
19.79611 170
19.81622 152
19.83634 182
19.85645 189
19.87656 183
19.89668 168
19.91679 193
19.93691 153
19.95702 167
19.97713 174
19.99725 180
20.01736 181
20.03747 172
20.05759 213
20.0777 178
20.09782 197
20.11793 201
20.13804 192
20.15816 225
20.17827 240
20.19838 253
20.2185 217
20.23861 211
20.25872 241
20.27884 238
20.29895 242
20.31907 232
20.33918 239
20.35929 252
20.37941 252
20.39952 285
20.41963 255
20.43975 284
20.45986 306
20.47998 294
20.50009 320
20.5202 335
20.54032 363
20.56043 332
20.58054 422
20.60066 425
20.62077 485
20.64088 545
20.661 651
20.68111 855
20.70123 1225
20.72134 1620
20.74145 2273
20.76157 3021
20.78168 4294
20.80179 5476
20.82191 7000
20.84202 8147
20.86214 8674
20.88225 8141
20.90236 6447
20.92248 4746
20.94259 3217
20.9627 1927
20.98282 1143
21.00293 812
21.02305 619
21.04316 555
21.06327 555
21.08339 476
21.1035 432
21.12361 429
21.14373 379
21.16384 343
21.18395 286
21.20407 293
21.22418 246
21.2443 259
21.26441 236
21.28452 242
21.30464 250
21.32475 247
21.34486 206
21.36498 210
21.38509 232
21.40521 221
21.42532 230
21.44543 211
21.46555 202
21.48566 226
21.50577 208
21.52589 218
21.546 214
21.56612 186
21.58623 215
21.60634 214
21.62646 212
21.64657 196
21.66668 198
21.6868 197
21.70691 178
21.72702 193
21.74714 210
21.76725 190
21.78737 204
21.80748 183
21.82759 188
21.84771 199
21.86782 180
21.88793 198
21.90805 213
21.92816 212
21.94828 201
21.96839 192
21.9885 225
22.00862 213
22.02873 177
22.04884 201
22.06896 196
22.08907 210
22.10919 204
22.1293 200
22.14941 190
22.16953 186
22.18964 193
22.20975 216
22.22987 230
22.24998 209
22.27009 214
22.29021 203
22.31032 188
22.33044 238
22.35055 221
22.37066 224
22.39078 201
22.41089 185
22.431 198
22.45112 198
22.47123 181
22.49135 208
22.51146 180
22.53157 183
22.55169 169
22.5718 181
22.59191 162
22.61203 210
22.63214 190
22.65225 187
22.67237 186
22.69248 188
22.7126 188
22.73271 159
22.75282 169
22.77294 166
22.79305 175
22.81316 189
22.83328 182
22.85339 157
22.87351 184
22.89362 158
22.91373 185
22.93385 183
22.95396 155
22.97407 160
22.99419 177
23.0143 187
23.03442 198
23.05453 236
23.07464 197
23.09476 202
23.11487 193
23.13498 209
23.1551 237
23.17521 242
23.19532 236
23.21544 236
23.23555 236
23.25567 212
23.27578 215
23.29589 201
23.31601 209
23.33612 205
23.35623 187
23.37635 197
23.39646 177
23.41658 165
23.43669 195
23.4568 188
23.47692 190
23.49703 191
23.51714 201
23.53726 207
23.55737 172
23.57749 187
23.5976 193
23.61771 220
23.63783 208
23.65794 206
23.67805 210
23.69817 173
23.71828 175
23.73839 202
23.75851 201
23.77862 190
23.79874 211
23.81885 175
23.83896 215
23.85908 238
23.87919 232
23.8993 274
23.91942 257
23.93953 260
23.95965 297
23.97976 308
23.99987 299
24.01999 306
24.0401 321
24.06021 263
24.08033 248
24.10044 211
24.12056 178
24.14067 210
24.16078 188
24.1809 195
24.20101 181
24.22112 208
24.24124 199
24.26135 212
24.28146 186
24.30158 189
24.32169 195
24.34181 228
24.36192 221
24.38203 221
24.40215 200
24.42226 191
24.44237 195
24.46249 199
24.4826 193
24.50272 186
24.52283 179
24.54294 182
24.56306 196
24.58317 195
24.60328 165
24.6234 191
24.64351 177
24.66362 210
24.68374 197
24.70385 195
24.72397 193
24.74408 187
24.76419 180
24.78431 185
24.80442 215
24.82453 182
24.84465 204
24.86476 150
24.88488 189
24.90499 161
24.9251 175
24.94522 156
24.96533 177
24.98544 201
25.00556 177
25.02567 197
25.04579 194
25.0659 205
25.08601 184
25.10613 187
25.12624 177
25.14635 204
25.16647 201
25.18658 154
25.20669 171
25.22681 185
25.24692 171
25.26704 196
25.28715 175
25.30726 186
25.32738 201
25.34749 187
25.3676 184
25.38772 202
25.40783 229
25.42795 237
25.44806 259
25.46817 274
25.48829 260
25.5084 322
25.52851 299
25.54863 344
25.56874 304
25.58886 341
25.60897 334
25.62908 338
25.6492 359
25.66931 354
25.68942 359
25.70954 375
25.72965 394
25.74976 440
25.76988 432
25.78999 376
25.81011 394
25.83022 381
25.85033 444
25.87045 432
25.89056 408
25.91067 421
25.93079 437
25.9509 445
25.97102 483
25.99113 466
26.01124 474
26.03136 474
26.05147 513
26.07158 537
26.0917 504
26.11181 619
26.13193 603
26.15204 657
26.17215 646
26.19227 787
26.21238 837
26.23249 795
26.25261 932
26.27272 1093
26.29283 1114
26.31295 1218
26.33306 1349
26.35318 1617
26.37329 1860
26.3934 2236
26.41352 2704
26.43363 3553
26.45374 4774
26.47386 6194
26.49397 8396
26.51409 11355
26.5342 15272
26.55431 20156
26.57443 26025
26.59454 31744
26.61465 36968
26.63477 39804
26.65488 37003
26.67499 30002
26.69511 22807
26.71522 17304
26.73534 11594
26.75545 6547
26.77556 3712
26.79568 2362
26.81579 1788
26.8359 1545
26.85602 1371
26.87613 1304
26.89625 1116
26.91636 1060
26.93647 978
26.95659 856
26.9767 830
26.99681 796
27.01693 720
27.03704 702
27.05716 707
27.07727 620
27.09738 625
27.1175 611
27.13761 495
27.15772 465
27.17784 486
27.19795 458
27.21806 501
27.23818 450
27.25829 471
27.27841 446
27.29852 523
27.31863 469
27.33875 594
27.35886 592
27.37897 572
27.39909 606
27.4192 588
27.43932 654
27.45943 665
27.47954 585
27.49966 575
27.51977 547
27.53988 498
27.56 429
27.58011 352
27.60023 352
27.62034 328
27.64045 311
27.66057 350
27.68068 277
27.70079 308
27.72091 323
27.74102 292
27.76113 306
27.78125 290
27.80136 278
27.82148 301
27.84159 276
27.8617 268
27.88182 289
27.90193 303
27.92204 271
27.94216 311
27.96227 257
27.98239 263
28.0025 237
28.02261 264
28.04273 264
28.06284 259
28.08295 258
28.10307 258
28.12318 235
28.1433 254
28.16341 251
28.18352 261
28.20364 239
28.22375 260
28.24386 239
28.26398 250
28.28409 274
28.3042 234
28.32432 231
28.34443 254
28.36455 227
28.38466 222
28.40477 238
28.42489 245
28.445 232
28.46511 237
28.48523 220
28.50534 229
28.52546 207
28.54557 230
28.56568 233
28.5858 228
28.60591 240
28.62602 232
28.64614 210
28.66625 216
28.68636 236
28.70648 201
28.72659 221
28.74671 227
28.76682 208
28.78693 231
28.80705 215
28.82716 202
28.84727 234
28.86739 212
28.8875 218
28.90762 241
28.92773 205
28.94784 184
28.96796 216
28.98807 230
29.00818 213
29.0283 217
29.04841 220
29.06853 201
29.08864 208
29.10875 205
29.12887 203
29.14898 193
29.16909 199
29.18921 186
29.20932 187
29.22943 190
29.24955 189
29.26966 196
29.28978 205
29.30989 226
29.33 212
29.35012 222
29.37023 235
29.39034 244
29.41046 263
29.43057 257
29.45069 228
29.4708 257
29.49091 242
29.51103 244
29.53114 218
29.55125 214
29.57137 215
29.59148 223
29.6116 209
29.63171 205
29.65182 228
29.67194 192
29.69205 213
29.71216 234
29.73228 189
29.75239 192
29.7725 207
29.79262 198
29.81273 176
29.83285 186
29.85296 194
29.87307 208
29.89319 188
29.9133 224
29.93341 211
29.95353 192
29.97364 213
29.99376 222
30.01387 204
30.03398 202
30.0541 204
30.07421 224
30.09432 226
30.11444 235
30.13455 243
30.15467 238
30.17478 259
30.19489 258
30.21501 235
30.23512 244
30.25523 227
30.27535 222
30.29546 222
30.31557 209
30.33569 204
30.3558 208
30.37592 187
30.39603 190
30.41614 186
30.43626 189
30.45637 160
30.47648 167
30.4966 178
30.51671 194
30.53683 199
30.55694 189
30.57705 199
30.59717 211
30.61728 225
30.63739 206
30.65751 202
30.67762 229
30.69773 223
30.71785 217
30.73796 241
30.75808 243
30.77819 222
30.7983 247
30.81842 194
30.83853 231
30.85864 221
30.87876 225
30.89887 215
30.91899 202
30.9391 196
30.95921 161
30.97933 188
30.99944 169
31.01955 187
31.03967 165
31.05978 161
31.0799 158
31.10001 165
31.12012 188
31.14024 150
31.16035 163
31.18046 152
31.20058 160
31.22069 161
31.2408 168
31.26092 170
31.28103 152
31.30115 192
31.32126 179
31.34137 170
31.36149 150
31.3816 154
31.40171 155
31.42183 180
31.44194 170
31.46206 170
31.48217 176
31.50228 163
31.5224 162
31.54251 149
31.56262 164
31.58274 158
31.60285 163
31.62297 151
31.64308 135
31.66319 160
31.68331 148
31.70342 157
31.72353 163
31.74365 155
31.76376 176
31.78387 133
31.80399 170
31.8241 178
31.84422 180
31.86433 145
31.88444 162
31.90456 145
31.92467 159
31.94478 148
31.9649 169
31.98501 156
32.00513 156
32.02524 180
32.04535 153
32.06547 159
32.08558 165
32.10569 192
32.12581 159
32.14592 203
32.16604 195
32.18615 151
32.20626 187
32.22638 158
32.24649 174
32.2666 178
32.28672 141
32.30683 151
32.32694 159
32.34706 148
32.36717 164
32.38729 187
32.4074 182
32.42751 166
32.44763 159
32.46774 163
32.48785 164
32.50797 189
32.52808 181
32.5482 156
32.56831 166
32.58842 169
32.60854 169
32.62865 172
32.64876 141
32.66888 140
32.68899 164
32.7091 146
32.72922 161
32.74933 156
32.76945 129
32.78956 154
32.80967 168
32.82979 161
32.8499 141
32.87001 151
32.89013 159
32.91024 141
32.93036 137
32.95047 136
32.97058 150
32.9907 171
33.01081 159
33.03092 135
33.05104 134
33.07115 147
33.09127 152
33.11138 143
33.13149 165
33.15161 169
33.17172 147
33.19183 172
33.21195 144
33.23206 132
33.25217 151
33.27229 158
33.2924 153
33.31252 153
33.33263 136
33.35274 146
33.37286 126
33.39297 147
33.41308 163
33.4332 138
33.45331 169
33.47343 120
33.49354 136
33.51365 136
33.53377 149
33.55388 159
33.57399 157
33.59411 137
33.61422 144
33.63434 136
33.65445 145
33.67456 126
33.69468 156
33.71479 134
33.7349 137
33.75502 129
33.77513 142
33.79524 115
33.81536 143
33.83547 134
33.85559 146
33.8757 123
33.89581 170
33.91593 146
33.93604 143
33.95615 134
33.97627 151
33.99638 141
34.0165 157
34.03661 134
34.05672 137
34.07684 147
34.09695 166
34.11706 182
34.13718 152
34.15729 197
34.17741 159
34.19752 177
34.21763 134
34.23775 169
34.25786 174
34.27797 152
34.29809 144
34.3182 160
34.33831 156
34.35843 143
34.37854 145
34.39866 156
34.41877 162
34.43888 158
34.459 168
34.47911 148
34.49922 150
34.51934 158
34.53945 130
34.55957 156
34.57968 165
34.59979 179
34.61991 174
34.64002 165
34.66013 188
34.68025 150
34.70036 144
34.72047 154
34.74059 161
34.7607 149
34.78082 148
34.80093 153
34.82104 154
34.84116 169
34.86127 185
34.88138 182
34.9015 173
34.92161 173
34.94173 163
34.96184 151
34.98195 165
35.00207 152
35.02218 165
35.04229 159
35.06241 164
35.08252 196
35.10264 147
35.12275 149
35.14286 156
35.16298 154
35.18309 170
35.2032 198
35.22332 176
35.24343 169
35.26354 172
35.28366 190
35.30377 190
35.32389 168
35.344 168
35.36411 188
35.38423 184
35.40434 165
35.42445 173
35.44457 191
35.46468 171
35.4848 192
35.50491 170
35.52502 218
35.54514 190
35.56525 197
35.58536 191
35.60548 179
35.62559 201
35.64571 180
35.66582 184
35.68593 176
35.70605 172
35.72616 187
35.74627 178
35.76639 196
35.7865 175
35.80661 180
35.82673 185
35.84684 170
35.86696 165
35.88707 183
35.90718 158
35.9273 169
35.94741 187
35.96752 189
35.98764 159
36.00775 165
36.02787 166
36.04798 190
36.06809 163
36.08821 175
36.10832 185
36.12843 200
36.14855 185
36.16866 208
36.18878 203
36.20889 214
36.229 224
36.24912 265
36.26923 323
36.28934 333
36.30946 418
36.32957 457
36.34968 534
36.3698 688
36.38991 866
36.41003 984
36.43014 1310
36.45025 1560
36.47037 1981
36.49048 2352
36.51059 2553
36.53071 2578
36.55082 2425
36.57094 2108
36.59105 1657
36.61116 1478
36.63128 1234
36.65139 1040
36.6715 710
36.69162 452
36.71173 321
36.73184 266
36.75196 255
36.77207 242
36.79219 229
36.8123 245
36.83241 223
36.85253 233
36.87264 211
36.89275 182
36.91287 180
36.93298 204
36.9531 186
36.97321 187
36.99332 177
37.01344 174
37.03355 195
37.05366 188
37.07378 163
37.09389 144
37.11401 187
37.13412 157
37.15423 143
37.17435 169
37.19446 152
37.21457 158
37.23469 155
37.2548 146
37.27491 139
37.29503 173
37.31514 152
37.33526 162
37.35537 131
37.37548 176
37.3956 139
37.41571 135
37.43582 152
37.45594 176
37.47605 150
37.49617 177
37.51628 139
37.53639 163
37.55651 136
37.57662 159
37.59673 141
37.61685 137
37.63696 142
37.65708 144
37.67719 170
37.6973 136
37.71742 139
37.73753 143
37.75764 149
37.77776 133
37.79787 146
37.81798 146
37.8381 158
37.85821 145
37.87833 121
37.89844 135
37.91855 145
37.93867 116
37.95878 108
37.97889 141
37.99901 132
38.01912 160
38.03924 157
38.05935 167
38.07946 138
38.09958 153
38.11969 150
38.1398 147
38.15992 134
38.18003 176
38.20015 135
38.22026 135
38.24037 169
38.26049 141
38.2806 143
38.30071 137
38.32083 141
38.34094 155
38.36105 139
38.38117 173
38.40128 151
38.4214 141
38.44151 158
38.46162 167
38.48174 166
38.50185 171
38.52196 161
38.54208 151
38.56219 161
38.58231 172
38.60242 172
38.62253 151
38.64265 144
38.66276 159
38.68287 153
38.70299 141
38.7231 170
38.74321 133
38.76333 161
38.78344 155
38.80356 162
38.82367 144
38.84378 163
38.8639 144
38.88401 171
38.90412 184
38.92424 168
38.94435 183
38.96447 185
38.98458 153
39.00469 193
39.02481 165
39.04492 197
39.06503 203
39.08515 229
39.10526 222
39.12538 222
39.14549 241
39.1656 303
39.18572 296
39.20583 351
39.22594 379
39.24606 445
39.26617 520
39.28628 647
39.3064 793
39.32651 964
39.34663 1146
39.36674 1374
39.38685 1780
39.40697 1974
39.42708 2363
39.44719 2419
39.46731 2369
39.48742 2097
39.50754 1620
39.52765 1356
39.54776 1213
39.56788 1176
39.58799 915
39.6081 609
39.62822 359
39.64833 282
39.66845 237
39.68856 242
39.70867 255
39.72879 214
39.7489 206
39.76901 189
39.78913 199
39.80924 174
39.82935 182
39.84947 205
39.86958 194
39.8897 186
39.90981 184
39.92992 171
39.95004 202
39.97015 201
39.99026 208
40.01038 234
40.03049 246
40.05061 307
40.07072 292
40.09083 376
40.11095 422
40.13106 469
40.15117 554
40.17129 673
40.1914 798
40.21152 951
40.23163 1079
40.25174 1249
40.27186 1263
40.29197 1159
40.31208 1041
40.3322 816
40.35231 714
40.37242 630
40.39254 592
40.41265 500
40.43277 370
40.45288 284
40.47299 242
40.49311 202
40.51322 237
40.53333 169
40.55345 175
40.57356 187
40.59368 173
40.61379 173
40.6339 156
40.65402 153
40.67413 149
40.69424 154
40.71436 164
40.73447 164
40.75458 149
40.7747 142
40.79481 163
40.81493 131
40.83504 173
40.85515 130
40.87527 134
40.89538 162
40.91549 151
40.93561 166
40.95572 162
40.97584 141
40.99595 134
41.01606 160
41.03618 138
41.05629 182
41.0764 181
41.09652 165
41.11663 158
41.13675 148
41.15686 177
41.17697 152
41.19709 155
41.2172 131
41.23731 170
41.25743 156
41.27754 153
41.29765 165
41.31777 140
41.33788 146
41.358 155
41.37811 166
41.39822 146
41.41834 143
41.43845 155
41.45856 157
41.47868 161
41.49879 142
41.51891 149
41.53902 151
41.55913 175
41.57925 162
41.59936 184
41.61947 169
41.63959 166
41.6597 152
41.67982 165
41.69993 189
41.72004 195
41.74016 191
41.76027 208
41.78038 191
41.8005 195
41.82061 202
41.84072 186
41.86084 178
41.88095 189
41.90107 189
41.92118 220
41.94129 183
41.96141 186
41.98152 185
42.00163 168
42.02175 176
42.04186 174
42.06198 192
42.08209 174
42.1022 224
42.12232 235
42.14243 222
42.16254 256
42.18266 331
42.20277 329
42.22289 357
42.243 430
42.26311 499
42.28323 604
42.30334 807
42.32345 890
42.34357 1080
42.36368 1314
42.38379 1468
42.40391 1596
42.42402 1669
42.44414 1753
42.46425 1674
42.48436 1234
42.50448 1021
42.52459 935
42.5447 868
42.56482 817
42.58493 583
42.60505 395
42.62516 306
42.64527 256
42.66539 242
42.6855 198
42.70561 221
42.72573 202
42.74584 187
42.76595 167
42.78607 165
42.80618 168
42.8263 173
42.84641 168
42.86652 155
42.88664 179
42.90675 174
42.92686 139
42.94698 142
42.96709 141
42.98721 151
43.00732 127
43.02743 138
43.04755 132
43.06766 150
43.08777 133
43.10789 118
43.128 141
43.14812 156
43.16823 143
43.18834 153
43.20846 134
43.22857 140
43.24868 152
43.2688 134
43.28891 108
43.30902 152
43.32914 120
43.34925 143
43.36937 125
43.38948 157
43.40959 143
43.42971 124
43.44982 136
43.46993 124
43.49005 160
43.51016 132
43.53028 139
43.55039 131
43.5705 136
43.59062 156
43.61073 135
43.63084 137
43.65096 118
43.67107 154
43.69119 116
43.7113 134
43.73141 135
43.75153 144
43.77164 124
43.79175 155
43.81187 148
43.83198 139
43.85209 144
43.87221 129
43.89232 140
43.91244 144
43.93255 135
43.95266 135
43.97278 124
43.99289 141
44.013 139
44.03312 132
44.05323 138
44.07335 143
44.09346 120
44.11357 152
44.13369 154
44.1538 146
44.17391 147
44.19403 148
44.21414 165
44.23426 135
44.25437 135
44.27448 129
44.2946 156
44.31471 126
44.33482 124
44.35494 146
44.37505 140
44.39516 137
44.41528 108
44.43539 138
44.45551 130
44.47562 129
44.49573 134
44.51585 147
44.53596 148
44.55607 154
44.57619 158
44.5963 147
44.61642 120
44.63653 142
44.65664 135
44.67676 131
44.69687 135
44.71698 134
44.7371 147
44.75721 143
44.77732 154
44.79744 159
44.81755 138
44.83767 123
44.85778 130
44.87789 123
44.89801 153
44.91812 127
44.93823 152
44.95835 150
44.97846 142
44.99858 165
45.01869 141
45.0388 133
45.05892 163
45.07903 155
45.09914 148
45.11926 137
45.13937 139
45.15949 154
45.1796 159
45.19971 132
45.21983 152
45.23994 175
45.26005 127
45.28017 143
45.30028 149
45.32039 177
45.34051 134
45.36062 172
45.38074 174
45.40085 159
45.42096 173
45.44108 207
45.46119 214
45.4813 205
45.50142 228
45.52153 262
45.54165 250
45.56176 324
45.58187 358
45.60199 407
45.6221 452
45.64221 550
45.66233 661
45.68244 740
45.70256 833
45.72267 945
45.74278 1035
45.7629 1205
45.78301 1206
45.80312 1080
45.82324 878
45.84335 731
45.86346 628
45.88358 582
45.90369 607
45.92381 502
45.94392 377
45.96403 270
45.98415 225
46.00426 197
46.02437 169
46.04449 167
46.0646 155
46.08472 162
46.10483 175
46.12494 150
46.14506 157
46.16517 149
46.18528 127
46.2054 136
46.22551 170
46.24563 123
46.26574 154
46.28585 123
46.30597 127
46.32608 137
46.34619 111
46.36631 139
46.38642 129
46.40653 130
46.42665 121
46.44676 127
46.46688 135
46.48699 128
46.5071 114
46.52722 126
46.54733 129
46.56744 100
46.58756 114
46.60767 116
46.62779 132
46.6479 134
46.66801 109
46.68813 141
46.70824 149
46.72835 131
46.74847 105
46.76858 122
46.78869 144
46.80881 135
46.82892 127
46.84904 123
46.86915 126
46.88926 145
46.90938 127
46.92949 140
46.9496 141
46.96972 140
46.98983 127
47.00995 152
47.03006 128
47.05017 149
47.07029 126
47.0904 143
47.11051 152
47.13063 127
47.15074 130
47.17086 144
47.19097 144
47.21108 132
47.2312 133
47.25131 123
47.27142 135
47.29154 134
47.31165 139
47.33176 121
47.35188 136
47.37199 130
47.39211 138
47.41222 151
47.43233 149
47.45245 136
47.47256 142
47.49267 134
47.51279 130
47.5329 128
47.55302 113
47.57313 127
47.59324 127
47.61336 118
47.63347 129
47.65358 132
47.6737 111
47.69381 100
47.71393 116
47.73404 134
47.75415 143
47.77427 130
47.79438 137
47.81449 109
47.83461 125
47.85472 120
47.87483 116
47.89495 118
47.91506 113
47.93518 118
47.95529 134
47.9754 120
47.99552 131
48.01563 130
48.03574 116
48.05586 137
48.07597 110
48.09609 120
48.1162 137
48.13631 113
48.15643 131
48.17654 112
48.19665 122
48.21677 131
48.23688 124
48.257 118
48.27711 120
48.29722 134
48.31734 127
48.33745 136
48.35756 144
48.37768 133
48.39779 124
48.4179 134
48.43802 143
48.45813 131
48.47825 119
48.49836 124
48.51847 150
48.53859 139
48.5587 134
48.57881 133
48.59893 134
48.61904 139
48.63916 152
48.65927 129
48.67938 136
48.6995 157
48.71961 140
48.73972 152
48.75984 158
48.77995 146
48.80006 136
48.82018 165
48.84029 132
48.86041 159
48.88052 145
48.90063 146
48.92075 152
48.94086 169
48.96097 155
48.98109 149
49.0012 148
49.02132 148
49.04143 164
49.06154 144
49.08166 152
49.10177 155
49.12188 143
49.142 144
49.16211 142
49.18223 152
49.20234 121
49.22245 133
49.24257 150
49.26268 130
49.28279 143
49.30291 167
49.32302 144
49.34313 156
49.36325 162
49.38336 160
49.40348 170
49.42359 163
49.4437 151
49.46382 155
49.48393 172
49.50404 180
49.52416 171
49.54427 186
49.56439 174
49.5845 207
49.60461 212
49.62473 189
49.64484 216
49.66495 207
49.68507 250
49.70518 231
49.7253 287
49.74541 294
49.76552 323
49.78564 325
49.80575 394
49.82586 432
49.84598 439
49.86609 534
49.8862 660
49.90632 805
49.92643 907
49.94655 1088
49.96666 1389
49.98677 1630
50.00689 2025
50.027 2363
50.04711 2776
50.06723 3198
50.08734 3553
50.10746 3909
50.12757 3808
50.14768 3453
50.1678 2802
50.18791 2288
50.20802 1968
50.22814 1935
50.24825 1896
50.26837 1653
50.28848 1317
50.30859 870
50.32871 599
50.34882 463
50.36893 405
50.38905 344
50.40916 326
50.42927 296
50.44939 272
50.4695 287
50.48962 315
50.50973 318
50.52984 307
50.54996 301
50.57007 268
50.59018 323
50.6103 316
50.63041 260
50.65053 273
50.67064 228
50.69075 196
50.71087 248
50.73098 206
50.75109 182
50.77121 206
50.79132 190
50.81143 177
50.83155 175
50.85166 165
50.87178 171
50.89189 144
50.912 153
50.93212 150
50.95223 144
50.97234 167
50.99246 136
51.01257 160
51.03269 163
51.0528 137
51.07291 144
51.09303 141
51.11314 154
51.13325 112
51.15337 156
51.17348 140
51.1936 162
51.21371 156
51.23382 114
51.25394 136
51.27405 140
51.29416 126
51.31428 144
51.33439 137
51.3545 122
51.37462 113
51.39473 128
51.41485 107
51.43496 123
51.45507 145
51.47519 118
51.4953 130
51.51541 127
51.53553 146
51.55564 124
51.57576 126
51.59587 112
51.61598 113
51.6361 121
51.65621 120
51.67632 135
51.69644 118
51.71655 144
51.73667 117
51.75678 110
51.77689 117
51.79701 116
51.81712 114
51.83723 131
51.85735 117
51.87746 125
51.89757 123
51.91769 130
51.9378 113
51.95792 112
51.97803 125
51.99814 146
52.01826 114
52.03837 106
52.05848 103
52.0786 127
52.09871 99
52.11883 97
52.13894 120
52.15905 114
52.17917 125
52.19928 117
52.21939 134
52.23951 115
52.25962 126
52.27974 112
52.29985 125
52.31996 120
52.34008 140
52.36019 124
52.3803 113
52.40042 108
52.42053 125
52.44064 135
52.46076 117
52.48087 115
52.50099 112
52.5211 121
52.54121 152
52.56133 143
52.58144 118
52.60155 119
52.62167 131
52.64178 127
52.6619 137
52.68201 121
52.70212 121
52.72224 110
52.74235 133
52.76246 112
52.78258 118
52.80269 131
52.8228 120
52.84292 123
52.86303 126
52.88315 140
52.90326 105
52.92337 123
52.94349 119
52.9636 131
52.98371 143
53.00383 122
53.02394 127
53.04406 113
53.06417 109
53.08428 114
53.1044 112
53.12451 130
53.14462 127
53.16474 139
53.18485 126
53.20497 131
53.22508 134
53.24519 102
53.26531 158
53.28542 136
53.30553 106
53.32565 133
53.34576 110
53.36587 130
53.38599 113
53.4061 116
53.42622 118
53.44633 116
53.46644 142
53.48656 130
53.50667 144
53.52678 134
53.5469 140
53.56701 141
53.58713 133
53.60724 144
53.62735 119
53.64747 144
53.66758 125
53.68769 112
53.70781 126
53.72792 131
53.74804 141
53.76815 116
53.78826 133
53.80838 136
53.82849 141
53.8486 115
53.86872 147
53.88883 116
53.90894 128
53.92906 131
53.94917 136
53.96929 113
53.9894 137
54.00951 167
54.02963 137
54.04974 135
54.06985 149
54.08997 119
54.11008 130
54.1302 148
54.15031 130
54.17042 147
54.19054 150
54.21065 126
54.23076 128
54.25088 158
54.27099 130
54.29111 132
54.31122 146
54.33133 133
54.35145 152
54.37156 127
54.39167 160
54.41179 155
54.4319 122
54.45201 177
54.47213 182
54.49224 181
54.51236 214
54.53247 193
54.55258 241
54.5727 245
54.59281 263
54.61292 310
54.63304 330
54.65315 374
54.67327 447
54.69338 434
54.71349 546
54.73361 639
54.75372 718
54.77383 872
54.79395 961
54.81406 1137
54.83417 1156
54.85429 1186
54.8744 1088
54.89452 940
54.91463 754
54.93474 629
54.95486 637
54.97497 647
54.99508 669
55.0152 600
55.03531 507
55.05543 403
55.07554 316
55.09565 261
55.11577 275
55.13588 296
55.15599 333
55.17611 354
55.19622 416
55.21634 455
55.23645 481
55.25656 483
55.27668 562
55.29679 553
55.3169 541
55.33702 508
55.35713 425
55.37724 377
55.39736 371
55.41747 335
55.43759 316
55.4577 286
55.47781 329
55.49793 252
55.51804 225
55.53815 179
55.55827 152
55.57838 164
55.5985 139
55.61861 165
55.63872 129
55.65884 141
55.67895 143
55.69906 127
55.71918 136
55.73929 135
55.75941 138
55.77952 124
55.79963 137
55.81975 118
55.83986 117
55.85997 113
55.88009 122
55.9002 97
55.92031 125
55.94043 124
55.96054 124
55.98066 130
56.00077 102
56.02088 122
56.041 145
56.06111 112
56.08122 111
56.10134 99
56.12145 115
56.14157 117
56.16168 114
56.18179 139
56.20191 122
56.22202 129
56.24213 125
56.26225 105
56.28236 124
56.30248 111
56.32259 113
56.3427 129
56.36282 124
56.38293 105
56.40304 111
56.42316 98
56.44327 131
56.46338 121
56.4835 102
56.50361 120
56.52373 108
56.54384 132
56.56395 113
56.58407 109
56.60418 117
56.62429 127
56.64441 115
56.66452 126
56.68464 118
56.70475 159
56.72486 112
56.74498 116
56.76509 120
56.7852 143
56.80532 116
56.82543 121
56.84554 148
56.86566 118
56.88577 115
56.90589 111
56.926 132
56.94611 108
56.96623 136
56.98634 122
57.00645 136
57.02657 139
57.04668 139
57.0668 143
57.08691 163
57.10702 179
57.12714 163
57.14725 181
57.16736 172
57.18748 184
57.20759 169
57.22771 179
57.24782 157
57.26793 169
57.28805 162
57.30816 162
57.32827 180
57.34839 165
57.3685 126
57.38861 135
57.40873 141
57.42884 130
57.44896 128
57.46907 143
57.48918 137
57.5093 116
57.52941 118
57.54952 127
57.56964 122
57.58975 115
57.60987 118
57.62998 123
57.65009 118
57.67021 123
57.69032 97
57.71043 130
57.73055 133
57.75066 96
57.77078 115
57.79089 119
57.811 130
57.83112 137
57.85123 124
57.87134 132
57.89146 122
57.91157 133
57.93168 107
57.9518 124
57.97191 124
57.99203 125
58.01214 116
58.03225 122
58.05237 138
58.07248 114
58.09259 124
58.11271 120
58.13282 138
58.15294 118
58.17305 122
58.19316 130
58.21328 105
58.23339 122
58.2535 126
58.27362 133
58.29373 130
58.31385 143
58.33396 120
58.35407 108
58.37419 116
58.3943 142
58.41441 142
58.43453 123
58.45464 120
58.47475 131
58.49487 117
58.51498 115
58.5351 119
58.55521 132
58.57532 134
58.59544 114
58.61555 131
58.63566 145
58.65578 134
58.67589 125
58.69601 128
58.71612 129
58.73623 132
58.75635 130
58.77646 134
58.79657 119
58.81669 130
58.8368 135
58.85691 99
58.87703 139
58.89714 125
58.91726 108
58.93737 137
58.95748 135
58.9776 123
58.99771 126
59.01782 127
59.03794 135
59.05805 127
59.07817 124
59.09828 111
59.11839 127
59.13851 140
59.15862 144
59.17873 140
59.19885 152
59.21896 131
59.23908 128
59.25919 149
59.2793 158
59.29942 158
59.31953 156
59.33964 170
59.35976 191
59.37987 147
59.39998 159
59.4201 161
59.44021 183
59.46033 180
59.48044 219
59.50055 178
59.52067 249
59.54078 255
59.56089 251
59.58101 299
59.60112 311
59.62124 338
59.64135 384
59.66146 393
59.68158 476
59.70169 550
59.7218 623
59.74192 789
59.76203 843
59.78215 1046
59.80226 1265
59.82237 1387
59.84249 1703
59.8626 1987
59.88271 2194
59.90283 2292
59.92294 2439
59.94305 2287
59.96317 2099
59.98328 1678
60.0034 1381
60.02351 1216
60.04362 1252
60.06374 1263
60.08385 1259
60.10396 1182
60.12408 978
60.14419 707
60.16431 508
60.18442 346
60.20453 276
60.22465 250
60.24476 206
60.26487 207
60.28499 198
60.3051 177
60.32522 176
60.34533 172
60.36544 155
60.38556 161
60.40567 168
60.42578 160
60.4459 155
60.46601 133
60.48612 144
60.50624 139
60.52635 159
60.54647 150
60.56658 158
60.58669 137
60.60681 132
60.62692 130
60.64703 140
60.66715 146
60.68726 148
60.70738 132
60.72749 129
60.7476 168
60.76772 125
60.78783 115
60.80794 142
60.82806 129
60.84817 127
60.86828 129
60.8884 143
60.90851 123
60.92863 119
60.94874 109
60.96885 132
60.98897 147
61.00908 124
61.02919 124
61.04931 141
61.06942 128
61.08954 147
61.10965 148
61.12976 165
61.14988 126
61.16999 127
61.1901 132
61.21022 133
61.23033 118
61.25045 125
61.27056 126
61.29067 131
61.31079 121
61.3309 117
61.35101 126
61.37113 122
61.39124 128
61.41135 120
61.43147 124
61.45158 129
61.4717 109
61.49181 146
61.51192 117
61.53204 125
61.55215 110
61.57226 98
61.59238 104
61.61249 112
61.63261 117
61.65272 133
61.67283 145
61.69295 131
61.71306 141
61.73317 131
61.75329 115
61.7734 130
61.79352 141
61.81363 121
61.83374 107
61.85386 123
61.87397 117
61.89408 146
61.9142 105
61.93431 110
61.95442 101
61.97454 127
61.99465 120
62.01477 122
62.03488 112
62.05499 115
62.07511 132
62.09522 122
62.11533 123
62.13545 122
62.15556 121
62.17568 127
62.19579 141
62.2159 127
62.23602 114
62.25613 146
62.27624 94
62.29636 134
62.31647 122
62.33659 121
62.3567 119
62.37681 129
62.39693 100
62.41704 112
62.43715 133
62.45727 118
62.47738 125
62.49749 128
62.51761 119
62.53772 92
62.55784 135
62.57795 114
62.59806 122
62.61818 109
62.63829 118
62.6584 123
62.67852 144
62.69863 119
62.71875 129
62.73886 128
62.75897 113
62.77909 128
62.7992 113
62.81931 102
62.83943 97
62.85954 119
62.87965 122
62.89977 120
62.91988 122
62.94 122
62.96011 112
62.98022 130
63.00034 129
63.02045 118
63.04056 133
63.06068 130
63.08079 121
63.10091 126
63.12102 118
63.14113 120
63.16125 121
63.18136 121
63.20147 141
63.22159 123
63.2417 134
63.26182 104
63.28193 126
63.30204 123
63.32216 128
63.34227 115
63.36238 110
63.3825 132
63.40261 127
63.42272 127
63.44284 113
63.46295 113
63.48307 133
63.50318 146
63.52329 111
63.54341 134
63.56352 111
63.58363 131
63.60375 134
63.62386 133
63.64398 165
63.66409 152
63.6842 143
63.70432 175
63.72443 179
63.74454 195
63.76466 210
63.78477 203
63.80489 214
63.825 238
63.84511 243
63.86523 299
63.88534 363
63.90545 391
63.92557 420
63.94568 451
63.96579 487
63.98591 497
64.00602 498
64.02614 481
64.04625 445
64.06636 361
64.08648 328
64.10659 295
64.1267 289
64.14682 324
64.16693 270
64.18705 300
64.20716 265
64.22727 246
64.24739 184
64.2675 173
64.28761 160
64.30773 148
64.32784 139
64.34796 131
64.36807 132
64.38818 140
64.4083 143
64.42841 124
64.44852 137
64.46864 92
64.48875 129
64.50886 122
64.52898 112
64.54909 139
64.56921 121
64.58932 120
64.60943 110
64.62955 131
64.64966 120
64.66977 106
64.68989 132
64.71 117
64.73012 108
64.75023 120
64.77034 112
64.79046 109
64.81057 112
64.83068 130
64.8508 125
64.87091 119
64.89102 117
64.91114 110
64.93125 117
64.95137 112
64.97148 134
64.99159 126
65.01171 129
65.03182 121
65.05193 111
65.07205 117
65.09216 118
65.11228 121
65.13239 142
65.1525 134
65.17262 120
65.19273 124
65.21284 113
65.23296 139
65.25307 129
65.27319 145
65.2933 111
65.31341 113
65.33353 144
65.35364 120
65.37375 120
65.39387 132
65.41398 121
65.43409 128
65.45421 129
65.47432 111
65.49444 123
65.51455 155
65.53466 126
65.55478 127
65.57489 141
65.595 180
65.61512 170
65.63523 179
65.65535 184
65.67546 202
65.69557 224
65.71569 201
65.7358 245
65.75591 223
65.77603 222
65.79614 221
65.81626 193
65.83637 162
65.85648 163
65.8766 176
65.89671 186
65.91682 171
65.93694 176
65.95705 174
65.97716 150
65.99728 134
66.01739 137
66.03751 143
66.05762 132
66.07773 131
66.09785 127
66.11796 130
66.13807 137
66.15819 128
66.1783 127
66.19842 138
66.21853 134
66.23864 152
66.25876 156
66.27887 141
66.29898 148
66.3191 111
66.33921 118
66.35933 133
66.37944 114
66.39955 119
66.41967 127
66.43978 137
66.45989 125
66.48001 129
66.50012 157
66.52023 143
66.54035 136
66.56046 133
66.58058 121
66.60069 125
66.6208 127
66.64092 132
66.66103 113
66.68114 132
66.70126 126
66.72137 127
66.74149 124
66.7616 126
66.78171 110
66.80183 121
66.82194 140
66.84205 146
66.86217 142
66.88228 150
66.90239 120
66.92251 139
66.94262 122
66.96274 132
66.98285 124
67.00296 163
67.02308 138
67.04319 154
67.0633 161
67.08342 130
67.10353 145
67.12365 138
67.14376 157
67.16387 152
67.18399 167
67.2041 174
67.22421 174
67.24433 203
67.26444 168
67.28456 189
67.30467 200
67.32478 219
67.3449 231
67.36501 233
67.38512 284
67.40524 294
67.42535 306
67.44546 335
67.46558 356
67.48569 384
67.50581 480
67.52592 524
67.54603 636
67.56615 715
67.58626 782
67.60637 971
67.62649 1014
67.6466 1177
67.66672 1279
67.68683 1463
67.70694 1445
67.72706 1414
67.74717 1230
67.76728 1137
67.7874 934
67.80751 898
67.82763 927
67.84774 965
67.86785 1042
67.88797 1138
67.90808 1109
67.92819 1140
67.94831 1138
67.96842 1182
67.98853 1178
68.00865 1336
68.02876 1494
68.04888 1633
68.06899 1832
68.0891 1902
68.10922 1998
68.12933 1962
68.14944 1904
68.16956 1685
68.18967 1660
68.20979 1600
68.2299 1619
68.25001 1753
68.27013 1840
68.29024 1748
68.31035 1575
68.33047 1406
68.35058 1128
68.3707 950
68.39081 799
68.41092 755
68.43104 661
68.45115 626
68.47126 615
68.49138 558
68.51149 495
68.5316 386
68.55172 332
68.57183 267
68.59195 213
68.61206 211
68.63217 191
68.65229 204
68.6724 204
68.69251 171
68.71263 142
68.73274 162
68.75286 179
68.77297 147
68.79308 153
68.8132 148
68.83331 156
68.85342 158
68.87354 148
68.89365 153
68.91376 130
68.93388 134
68.95399 139
68.97411 123
68.99422 140
69.01433 137
69.03445 128
69.05456 135
69.07467 125
69.09479 128
69.1149 127
69.13502 115
69.15513 123
69.17524 120
69.19536 116
69.21547 132
69.23558 130
69.2557 132
69.27581 118
69.29593 128
69.31604 118
69.33615 127
69.35627 123
69.37638 135
69.39649 100
69.41661 106
69.43672 113
69.45683 92
69.47695 104
69.49706 126
69.51718 132
69.53729 111
69.5574 109
69.57752 124
69.59763 120
69.61774 118
69.63786 127
69.65797 134
69.67809 135
69.6982 130
69.71831 117
69.73843 112
69.75854 100
69.77865 121
69.79877 119
69.81888 130
69.839 119
69.85911 117
69.87922 126
69.89934 117
69.91945 128
69.93956 129
69.95968 132
69.97979 106
69.9999 119
70.02002 108
70.04013 106
70.06025 95
70.08036 98
70.10047 121
70.12059 126
70.1407 135
70.16081 126
70.18093 116
70.20104 124
70.22116 114
70.24127 114
70.26138 122
70.2815 116
70.30161 116
70.32172 114
70.34184 123
70.36195 140
70.38207 117
70.40218 92
70.42229 127
70.44241 106
70.46252 95
70.48263 105
70.50275 114
70.52286 106
70.54297 135
70.56309 125
70.5832 112
70.60332 122
70.62343 136
70.64354 105
70.66366 118
70.68377 109
70.70388 97
70.724 113
70.74411 115
70.76423 95
70.78434 108
70.80445 122
70.82457 108
70.84468 121
70.86479 105
70.88491 113
70.90502 126
70.92513 128
70.94525 122
70.96536 117
70.98548 115
71.00559 106
71.0257 109
71.04582 118
71.06593 110
71.08604 111
71.10616 121
71.12627 112
71.14639 105
71.1665 125
71.18661 117
71.20673 98
71.22684 123
71.24695 97
71.26707 125
71.28718 121
71.3073 131
71.32741 113
71.34752 108
71.36764 124
71.38775 110
71.40786 129
71.42798 135
71.44809 120
71.4682 116
71.48832 120
71.50843 122
71.52855 112
71.54866 123
71.56877 115
71.58889 113
71.609 93
71.62911 124
71.64923 129
71.66934 122
71.68946 124
71.70957 108
71.72968 115
71.7498 133
71.76991 122
71.79002 109
71.81014 101
71.83025 104
71.85037 139
71.87048 93
71.89059 112
71.91071 116
71.93082 113
71.95093 99
71.97105 136
71.99116 108
72.01127 125
72.03139 119
72.0515 110
72.07162 128
72.09173 134
72.11184 115
72.13196 123
72.15207 133
72.17218 125
72.1923 109
72.21241 125
72.23253 94
72.25264 127
72.27275 137
72.29287 139
72.31298 128
72.33309 122
72.35321 124
72.37332 123
72.39344 97
72.41355 110
72.43366 107
72.45378 96
72.47389 97
72.494 104
72.51412 112
72.53423 126
72.55434 102
72.57446 95
72.59457 128
72.61469 123
72.6348 122
72.65491 124
72.67503 106
72.69514 99
72.71525 102
72.73537 136
72.75548 111
72.7756 105
72.79571 124
72.81582 112
72.83594 116
72.85605 126
72.87616 126
72.89628 125
72.91639 128
72.9365 130
72.95662 156
72.97673 129
72.99685 139
73.01696 139
73.03707 145
73.05719 154
73.0773 169
73.09741 164
73.11753 178
73.13764 163
73.15776 175
73.17787 194
73.19798 219
73.2181 247
73.23821 235
73.25832 270
73.27844 284
73.29855 310
73.31867 387
73.33878 422
73.35889 481
73.37901 523
73.39912 544
73.41923 565
73.43935 551
73.45946 528
73.47957 457
73.49969 383
73.5198 307
73.53992 341
73.56003 291
73.58014 304
73.60026 335
73.62037 309
73.64048 331
73.6606 299
73.68071 315
73.70083 232
73.72094 195
73.74105 184
73.76117 149
73.78128 111
73.80139 133
73.82151 116
73.84162 120
73.86174 124
73.88185 138
73.90196 140
73.92208 111
73.94219 116
73.9623 107
73.98242 115
74.00253 129
74.02264 111
74.04276 116
74.06287 106
74.08299 126
74.1031 124
74.12321 95
74.14333 103
74.16344 98
74.18355 124
74.20367 119
74.22378 114
74.2439 109
74.26401 117
74.28412 122
74.30424 116
74.32435 115
74.34446 99
74.36458 107
74.38469 114
74.40481 120
74.42492 122
74.44503 124
74.46515 117
74.48526 95
74.50537 124
74.52549 122
74.5456 122
74.56571 110
74.58583 100
74.60594 108
74.62606 128
74.64617 103
74.66628 111
74.6864 115
74.70651 111
74.72662 111
74.74674 125
74.76685 117
74.78697 114
74.80708 110
74.82719 115
74.84731 124
74.86742 118
74.88753 104
74.90765 123
74.92776 122
74.94787 123
74.96799 145
74.9881 114
75.00822 123
