3.00117 19258
3.02128 18985
3.0414 18395
3.06151 18030
3.08162 17761
3.10174 16861
3.12185 16614
3.14197 16069
3.16208 15623
3.18219 15752
3.20231 14766
3.22242 14578
3.24253 13871
3.26265 13483
3.28276 13437
3.30288 12850
3.32299 12468
3.3431 11814
3.36322 11455
3.38333 11120
3.40344 10585
3.42356 10782
3.44367 10062
3.46379 9932
3.4839 9484
3.50401 9000
3.52413 8975
3.54424 8442
3.56435 8166
3.58447 7841
3.60458 7549
3.62469 7419
3.64481 6981
3.66492 6789
3.68504 6652
3.70515 6237
3.72526 6067
3.74538 5858
3.76549 5597
3.7856 5472
3.80572 5055
3.82583 5068
3.84595 4823
3.86606 4550
3.88617 4366
3.90629 4044
3.9264 3969
3.94651 3757
3.96663 3578
3.98674 3516
4.00686 3355
4.02697 3203
4.04708 3101
4.0672 2953
4.08731 2932
4.10742 2516
4.12754 2706
4.14765 2565
4.16776 2317
4.18788 2389
4.20799 2119
4.22811 2147
4.24822 2047
4.26833 2009
4.28845 1996
4.30856 1721
4.32867 1726
4.34879 1664
4.3689 1759
4.38902 1707
4.40913 1511
4.42924 1590
4.44936 1565
4.46947 1526
4.48958 1470
4.5097 1439
4.52981 1384
4.54992 1411
4.57004 1384
4.59015 1368
4.61027 1238
4.63038 1229
4.65049 1252
4.67061 1168
4.69072 1238
4.71083 1162
4.73095 1160
4.75106 1150
4.77118 1078
4.79129 1098
4.8114 1076
4.83152 1004
4.85163 1021
4.87174 1012
4.89186 1033
4.91197 931
4.93209 912
4.9522 983
4.97231 853
4.99243 939
5.01254 839
5.03265 818
5.05277 828
5.07288 796
5.09299 822
5.11311 818
5.13322 764
5.15334 766
5.17345 741
5.19356 711
5.21368 757
5.23379 701
5.2539 658
5.27402 721
5.29413 685
5.31425 644
5.33436 660
5.35447 636
5.37459 638
5.3947 604
5.41481 677
5.43493 613
5.45504 620
5.47516 615
5.49527 571
5.51538 579
5.5355 553
5.55561 548
5.57572 615
5.59584 516
5.61595 539
5.63606 559
5.65618 535
5.67629 498
5.69641 509
5.71652 478
5.73663 540
5.75675 509
5.77686 468
5.79697 526
5.81709 503
5.8372 506
5.85732 445
5.87743 498
5.89754 463
5.91766 448
5.93777 453
5.95788 419
5.978 427
5.99811 469
6.01823 442
6.03834 438
6.05845 465
6.07857 461
6.09868 465
6.11879 466
6.13891 443
6.15902 456
6.17913 463
6.19925 448
6.21936 447
6.23948 463
6.25959 443
6.2797 412
6.29982 405
6.31993 481
6.34004 423
6.36016 408
6.38027 467
6.40039 418
6.4205 443
6.44061 456
6.46073 441
6.48084 416
6.50095 367
6.52107 444
6.54118 432
6.56129 361
6.58141 402
6.60152 427
6.62164 420
6.64175 431
6.66186 408
6.68198 379
6.70209 423
6.7222 427
6.74232 394
6.76243 428
6.78255 418
6.80266 400
6.82277 427
6.84289 450
6.863 422
6.88311 415
6.90323 414
6.92334 420
6.94346 420
6.96357 399
6.98368 422
7.0038 379
7.02391 448
7.04402 416
7.06414 383
7.08425 399
7.10436 408
7.12448 459
7.14459 454
7.16471 420
7.18482 418
7.20493 379
7.22505 416
7.24516 434
7.26527 427
7.28539 385
7.3055 432
7.32562 378
7.34573 421
7.36584 397
7.38596 444
7.40607 401
7.42618 431
7.4463 410
7.46641 423
7.48653 411
7.50664 417
7.52675 414
7.54687 411
7.56698 421
7.58709 434
7.60721 415
7.62732 458
7.64743 407
7.66755 461
7.68766 430
7.70778 417
7.72789 412
7.748 476
7.76812 417
7.78823 447
7.80834 434
7.82846 435
7.84857 448
7.86869 398
7.8888 400
7.90891 421
7.92903 372
7.94914 418
7.96925 416
7.98937 434
8.00948 424
8.0296 424
8.04971 431
8.06982 386
8.08994 418
8.11005 439
8.13016 453
8.15028 403
8.17039 419
8.1905 400
8.21062 403
8.23073 398
8.25085 462
8.27096 381
8.29107 400
8.31119 374
8.3313 375
8.35141 404
8.37153 454
8.39164 427
8.41176 423
8.43187 433
8.45198 428
8.4721 463
8.49221 438
8.51232 427
8.53244 466
8.55255 410
8.57266 473
8.59278 431
8.61289 401
8.63301 413
8.65312 416
8.67323 392
8.69335 433
8.71346 461
8.73357 456
8.75369 430
8.7738 449
8.79392 496
8.81403 423
8.83414 416
8.85426 456
8.87437 461
8.89448 477
8.9146 449
8.93471 407
8.95483 429
8.97494 438
8.99505 409
9.01517 427
9.03528 431
9.05539 423
9.07551 423
9.09562 409
9.11573 411
9.13585 442
9.15596 396
9.17608 390
9.19619 473
9.2163 402
9.23642 378
9.25653 452
9.27664 417
9.29676 465
9.31687 419
9.33699 398
9.3571 426
9.37721 428
9.39733 424
9.41744 411
9.43755 403
9.45767 412
9.47778 395
9.4979 411
9.51801 395
9.53812 422
9.55824 428
9.57835 387
9.59846 420
9.61858 445
9.63869 432
9.6588 410
9.67892 451
9.69903 414
9.71915 474
9.73926 386
9.75937 415
9.77949 400
9.7996 380
9.81971 428
9.83983 458
9.85994 441
9.88006 421
9.90017 403
9.92028 388
9.9404 446
9.96051 392
9.98062 433
10.00074 398
10.02085 436
10.04097 412
10.06108 450
10.08119 421
10.10131 392
10.12142 369
10.14153 439
10.16165 450
10.18176 436
10.20187 381
10.22199 435
10.2421 423
10.26222 396
10.28233 400
10.30244 413
10.32256 420
10.34267 397
10.36278 411
10.3829 438
10.40301 433
10.42313 400
10.44324 426
10.46335 411
10.48347 423
10.50358 426
10.52369 416
10.54381 402
10.56392 479
10.58403 440
10.60415 392
10.62426 458
10.64438 439
10.66449 456
10.6846 446
10.70472 405
10.72483 457
10.74494 481
10.76506 418
10.78517 444
10.80529 464
10.8254 447
10.84551 391
10.86563 404
10.88574 427
10.90585 463
10.92597 454
10.94608 441
10.9662 436
10.98631 437
11.00642 469
11.02654 425
11.04665 447
11.06676 425
11.08688 414
11.10699 430
11.1271 470
11.14722 408
11.16733 416
11.18745 399
11.20756 395
11.22767 422
11.24779 419
11.2679 411
11.28801 466
11.30813 383
11.32824 449
11.34836 452
11.36847 434
11.38858 420
11.4087 403
11.42881 439
11.44892 398
11.46904 430
11.48915 412
11.50927 485
11.52938 437
11.54949 429
11.56961 441
11.58972 441
11.60983 468
11.62995 452
11.65006 450
11.67017 459
11.69029 494
11.7104 461
11.73052 422
11.75063 460
11.77074 456
11.79086 476
11.81097 478
11.83108 472
11.8512 498
11.87131 515
11.89143 478
11.91154 503
11.93165 475
11.95177 513
11.97188 531
11.99199 541
12.01211 487
12.03222 535
12.05234 574
12.07245 598
12.09256 602
12.11268 636
12.13279 652
12.1529 718
12.17302 666
12.19313 740
12.21324 761
12.23336 841
12.25347 872
12.27359 868
12.2937 957
12.31381 995
12.33393 980
12.35404 944
12.37415 987
12.39427 960
12.41438 887
12.4345 874
12.45461 835
12.47472 747
12.49484 742
12.51495 701
12.53506 640
12.55518 632
12.57529 575
12.5954 555
12.61552 553
12.63563 532
12.65575 472
12.67586 528
12.69597 484
12.71609 490
12.7362 474
12.75631 445
12.77643 451
12.79654 448
12.81666 457
12.83677 414
12.85688 473
12.877 467
12.89711 433
12.91722 443
12.93734 445
12.95745 423
12.97757 447
12.99768 450
13.01779 437
13.03791 410
13.05802 437
13.07813 468
13.09825 470
13.11836 472
13.13847 399
13.15859 397
13.1787 418
13.19882 407
13.21893 439
13.23904 421
13.25916 433
13.27927 377
13.29938 409
13.3195 412
13.33961 401
13.35973 432
13.37984 408
13.39995 368
13.42007 441
13.44018 416
13.46029 402
13.48041 427
13.50052 441
13.52064 440
13.54075 457
13.56086 416
13.58098 415
13.60109 413
13.6212 383
13.64132 396
13.66143 433
13.68154 410
13.70166 408
13.72177 423
13.74189 440
13.762 440
13.78211 388
13.80223 400
13.82234 388
13.84245 390
13.86257 446
13.88268 415
13.9028 422
13.92291 387
13.94302 377
13.96314 412
13.98325 439
14.00336 386
14.02348 423
14.04359 403
14.06371 412
14.08382 423
14.10393 393
14.12405 412
14.14416 386
14.16427 387
14.18439 380
14.2045 382
14.22461 409
14.24473 437
14.26484 408
14.28496 432
14.30507 414
14.32518 441
14.3453 416
14.36541 391
14.38552 387
14.40564 444
14.42575 415
14.44587 372
14.46598 395
14.48609 407
14.50621 418
14.52632 382
14.54643 449
14.56655 416
14.58666 378
14.60677 405
14.62689 408
14.647 397
14.66712 396
14.68723 369
14.70734 373
14.72746 439
14.74757 409
14.76768 405
14.7878 370
14.80791 405
14.82803 375
14.84814 397
14.86825 407
14.88837 411
14.90848 404
14.92859 408
14.94871 426
14.96882 396
14.98894 422
15.00905 405
15.02916 389
15.04928 411
15.06939 407
15.0895 428
15.10962 397
15.12973 374
15.14984 436
15.16996 386
15.19007 391
15.21019 405
15.2303 449
15.25041 390
15.27053 386
15.29064 393
15.31075 410
15.33087 410
15.35098 407
15.3711 383
15.39121 412
15.41132 436
15.43144 388
15.45155 390
15.47166 428
15.49178 408
15.51189 388
15.53201 404
15.55212 407
15.57223 435
15.59235 414
15.61246 394
15.63257 397
15.65269 383
15.6728 413
15.69291 423
15.71303 407
15.73314 398
15.75326 436
15.77337 438
15.79348 421
15.8136 393
15.83371 394
15.85382 444
15.87394 383
15.89405 388
15.91417 393
15.93428 408
15.95439 418
15.97451 397
15.99462 415
16.01473 405
16.03485 430
16.05496 398
16.07508 388
16.09519 435
16.1153 360
16.13542 371
16.15553 422
16.17564 366
16.19576 410
16.21587 372
16.23598 404
16.2561 442
16.27621 370
16.29633 383
16.31644 393
16.33655 431
16.35667 407
16.37678 414
16.39689 365
16.41701 393
16.43712 406
16.45724 365
16.47735 403
16.49746 357
16.51758 419
16.53769 378
16.5578 432
16.57792 385
16.59803 372
16.61814 366
16.63826 426
16.65837 411
16.67849 456
16.6986 413
16.71871 413
16.73883 377
16.75894 404
16.77905 424
16.79917 398
16.81928 411
16.8394 395
16.85951 407
16.87962 439
16.89974 373
16.91985 373
16.93996 395
16.96008 435
16.98019 397
17.00031 397
17.02042 406
17.04053 406
17.06065 372
17.08076 421
17.10087 394
17.12099 432
17.1411 407
17.16121 377
17.18133 416
17.20144 414
17.22156 422
17.24167 408
17.26178 417
17.2819 427
17.30201 426
17.32212 388
17.34224 429
17.36235 405
17.38247 387
17.40258 430
17.42269 371
17.44281 411
17.46292 424
17.48303 392
17.50315 395
17.52326 425
17.54338 397
17.56349 402
17.5836 401
17.60372 402
17.62383 426
17.64394 401
17.66406 410
17.68417 408
17.70428 427
17.7244 392
17.74451 408
17.76463 405
17.78474 419
17.80485 410
17.82497 434
17.84508 408
17.86519 375
17.88531 443
17.90542 422
17.92554 397
17.94565 428
17.96576 438
17.98588 424
18.00599 456
18.0261 438
18.04622 419
18.06633 422
18.08645 435
18.10656 429
18.12667 429
18.14679 371
18.1669 460
18.18701 392
18.20713 412
18.22724 373
18.24735 432
18.26747 410
18.28758 378
18.3077 433
18.32781 420
18.34792 395
18.36804 399
18.38815 373
18.40826 404
18.42838 434
18.44849 395
18.46861 414
18.48872 401
18.50883 403
18.52895 440
18.54906 431
18.56917 404
18.58929 427
18.6094 398
18.62951 398
18.64963 407
18.66974 419
18.68986 402
18.70997 401
18.73008 430
18.7502 421
18.77031 407
18.79042 418
18.81054 445
18.83065 410
18.85077 392
18.87088 399
18.89099 397
18.91111 411
18.93122 409
18.95133 386
18.97145 411
18.99156 413
19.01168 392
19.03179 423
19.0519 403
19.07202 428
19.09213 419
19.11224 442
19.13236 406
19.15247 449
19.17258 382
19.1927 414
19.21281 429
19.23293 418
19.25304 432
19.27315 374
19.29327 386
19.31338 445
19.33349 390
19.35361 431
19.37372 423
19.39384 428
19.41395 436
19.43406 453
19.45418 459
19.47429 470
19.4944 434
19.51452 447
19.53463 407
19.55475 448
19.57486 469
19.59497 459
19.61509 525
19.6352 464
19.65531 500
19.67543 465
19.69554 514
19.71565 494
19.73577 549
19.75588 557
19.776 650
19.79611 631
19.81622 695
19.83634 721
19.85645 730
19.87656 780
19.89668 811
19.91679 824
19.93691 730
19.95702 734
19.97713 728
19.99725 687
20.01736 703
20.03747 680
20.05759 666
20.0777 673
20.09782 674
20.11793 660
20.13804 700
20.15816 698
20.17827 670
20.19838 668
20.2185 637
20.23861 656
20.25872 668
20.27884 690
20.29895 672
20.31907 674
20.33918 689
20.35929 689
20.37941 733
20.39952 673
20.41963 703
20.43975 649
20.45986 711
20.47998 657
20.50009 727
20.5202 739
20.54032 765
20.56043 708
20.58054 708
20.60066 746
20.62077 806
20.64088 848
20.661 897
20.68111 1001
20.70123 1073
20.72134 1217
20.74145 1439
20.76157 1815
20.78168 2368
20.80179 2739
20.82191 3253
20.84202 3513
20.86214 3715
20.88225 3650
20.90236 3077
20.92248 2414
20.94259 1920
20.9627 1378
20.98282 1067
21.00293 866
21.02305 826
21.04316 764
21.06327 747
21.08339 747
21.1035 761
21.12361 746
21.14373 715
21.16384 754
21.18395 808
21.20407 779
21.22418 787
21.2443 776
21.26441 814
21.28452 836
21.30464 775
21.32475 830
21.34486 792
21.36498 799
21.38509 815
21.40521 832
21.42532 770
21.44543 761
21.46555 746
21.48566 711
21.50577 707
21.52589 689
21.546 697
21.56612 711
21.58623 676
21.60634 647
21.62646 706
21.64657 622
21.66668 630
21.6868 633
21.70691 594
21.72702 607
21.74714 643
21.76725 580
21.78737 623
21.80748 608
21.82759 600
21.84771 617
21.86782 606
21.88793 543
21.90805 592
21.92816 601
21.94828 581
21.96839 554
21.9885 569
22.00862 546
22.02873 569
22.04884 567
22.06896 556
22.08907 559
22.10919 563
22.1293 564
22.14941 522
22.16953 520
22.18964 521
22.20975 523
22.22987 587
22.24998 569
22.27009 550
22.29021 556
22.31032 587
22.33044 557
22.35055 568
22.37066 539
22.39078 543
22.41089 550
22.431 543
22.45112 559
22.47123 511
22.49135 528
22.51146 549
22.53157 503
22.55169 549
22.5718 505
22.59191 528
22.61203 558
22.63214 548
22.65225 535
22.67237 531
22.69248 516
22.7126 496
22.73271 499
22.75282 497
22.77294 472
22.79305 491
22.81316 497
22.83328 509
22.85339 517
22.87351 542
22.89362 509
22.91373 507
22.93385 521
22.95396 501
22.97407 521
22.99419 540
23.0143 535
23.03442 496
23.05453 537
23.07464 503
23.09476 565
23.11487 503
23.13498 499
23.1551 513
23.17521 497
23.19532 522
23.21544 549
23.23555 478
23.25567 467
23.27578 467
23.29589 514
23.31601 478
23.33612 498
23.35623 509
23.37635 504
23.39646 465
23.41658 502
23.43669 491
23.4568 472
23.47692 472
23.49703 496
23.51714 481
23.53726 533
23.55737 480
23.57749 483
23.5976 489
23.61771 495
23.63783 522
23.65794 497
23.67805 499
23.69817 475
23.71828 517
23.73839 512
23.75851 489
23.77862 499
23.79874 528
23.81885 512
23.83896 542
23.85908 549
23.87919 570
23.8993 519
23.91942 558
23.93953 556
23.95965 560
23.97976 568
23.99987 572
24.01999 578
24.0401 572
24.06021 591
24.08033 583
24.10044 576
24.12056 625
24.14067 593
24.16078 591
24.1809 584
24.20101 532
24.22112 563
24.24124 558
24.26135 588
24.28146 595
24.30158 594
24.32169 566
24.34181 586
24.36192 524
24.38203 590
24.40215 578
24.42226 538
24.44237 590
24.46249 568
24.4826 559
24.50272 595
24.52283 570
24.54294 634
24.56306 597
24.58317 623
24.60328 606
24.6234 614
24.64351 679
24.66362 685
24.68374 714
24.70385 692
24.72397 719
24.74408 746
24.76419 776
24.78431 772
24.80442 825
24.82453 865
24.84465 841
24.86476 934
24.88488 876
24.90499 848
24.9251 886
24.94522 822
24.96533 861
24.98544 759
25.00556 744
25.02567 733
25.04579 676
25.0659 678
25.08601 669
25.10613 689
25.12624 611
25.14635 596
25.16647 620
25.18658 594
25.20669 597
25.22681 632
25.24692 590
25.26704 609
25.28715 577
25.30726 562
25.32738 552
25.34749 594
25.3676 547
25.38772 560
25.40783 572
25.42795 513
25.44806 546
25.46817 522
25.48829 517
25.5084 566
25.52851 543
25.54863 534
25.56874 513
25.58886 516
25.60897 549
25.62908 548
25.6492 565
25.66931 535
25.68942 527
25.70954 508
25.72965 610
25.74976 573
25.76988 566
25.78999 639
25.81011 602
25.83022 547
25.85033 569
25.87045 546
25.89056 574
25.91067 568
25.93079 614
25.9509 581
25.97102 551
25.99113 558
26.01124 572
26.03136 590
26.05147 632
26.07158 616
26.0917 663
26.11181 637
26.13193 692
26.15204 711
26.17215 699
26.19227 697
26.21238 739
26.23249 742
26.25261 745
26.27272 823
26.29283 899
26.31295 911
26.33306 1010
26.35318 1088
26.37329 1114
26.3934 1302
26.41352 1499
26.43363 1820
26.45374 2252
26.47386 2867
26.49397 3877
26.51409 4983
26.5342 6574
26.55431 8552
26.57443 10706
26.59454 12741
26.61465 14380
26.63477 15004
26.65488 14244
26.67499 12301
26.69511 9825
26.71522 7397
26.73534 5268
26.75545 3576
26.77556 2448
26.79568 1596
26.81579 1214
26.8359 1140
26.85602 1057
26.87613 943
26.89625 901
26.91636 854
26.93647 820
26.95659 791
26.9767 742
26.99681 732
27.01693 676
27.03704 613
27.05716 603
27.07727 580
27.09738 612
27.1175 591
27.13761 626
27.15772 573
27.17784 545
27.19795 553
27.21806 547
27.23818 551
27.25829 534
27.27841 558
27.29852 534
27.31863 525
27.33875 554
27.35886 514
27.37897 552
27.39909 579
27.4192 576
27.43932 564
27.45943 535
27.47954 581
27.49966 603
27.51977 548
27.53988 522
27.56 517
27.58011 531
27.60023 508
27.62034 475
27.64045 488
27.66057 500
27.68068 465
27.70079 524
27.72091 535
27.74102 462
27.76113 492
27.78125 515
27.80136 512
27.82148 536
27.84159 485
27.8617 455
27.88182 482
27.90193 540
27.92204 486
27.94216 466
27.96227 482
27.98239 457
28.0025 466
28.02261 515
28.04273 495
28.06284 450
28.08295 487
28.10307 452
28.12318 455
28.1433 497
28.16341 487
28.18352 475
28.20364 473
28.22375 484
28.24386 451
28.26398 487
28.28409 481
28.3042 454
28.32432 494
28.34443 496
28.36455 479
28.38466 448
28.40477 454
28.42489 492
28.445 464
28.46511 466
28.48523 466
28.50534 429
28.52546 454
28.54557 482
28.56568 474
28.5858 471
28.60591 451
28.62602 464
28.64614 443
28.66625 432
28.68636 490
28.70648 476
28.72659 436
28.74671 479
28.76682 475
28.78693 451
28.80705 460
28.82716 477
28.84727 475
28.86739 486
28.8875 444
28.90762 468
28.92773 459
28.94784 468
28.96796 453
28.98807 447
29.00818 466
29.0283 455
29.04841 429
29.06853 446
29.08864 489
29.10875 435
29.12887 457
29.14898 454
29.16909 476
29.18921 474
29.20932 421
29.22943 444
29.24955 434
29.26966 431
29.28978 447
29.30989 457
29.33 477
29.35012 424
29.37023 467
29.39034 429
29.41046 482
29.43057 463
29.45069 440
29.4708 469
29.49091 466
29.51103 452
29.53114 481
29.55125 467
29.57137 456
29.59148 451
29.6116 459
29.63171 445
29.65182 447
29.67194 452
29.69205 432
29.71216 460
29.73228 425
29.75239 443
29.7725 472
29.79262 459
29.81273 441
29.83285 442
29.85296 472
29.87307 459
29.89319 451
29.9133 453
29.93341 444
29.95353 440
29.97364 452
29.99376 430
30.01387 471
30.03398 437
30.0541 472
30.07421 458
30.09432 403
30.11444 436
30.13455 447
30.15467 499
30.17478 499
30.19489 480
30.21501 413
30.23512 459
30.25523 457
30.27535 454
30.29546 481
30.31557 443
30.33569 464
30.3558 473
30.37592 466
30.39603 445
30.41614 452
30.43626 465
30.45637 456
30.47648 451
30.4966 459
30.51671 446
30.53683 448
30.55694 462
30.57705 431
30.59717 458
30.61728 475
30.63739 418
30.65751 479
30.67762 477
30.69773 437
30.71785 419
30.73796 474
30.75808 454
30.77819 399
30.7983 478
30.81842 482
30.83853 438
30.85864 465
30.87876 454
30.89887 405
30.91899 449
30.9391 419
30.95921 442
30.97933 456
30.99944 453
31.01955 439
31.03967 450
31.05978 462
31.0799 462
31.10001 430
31.12012 454
31.14024 454
31.16035 416
31.18046 422
31.20058 469
31.22069 411
31.2408 476
31.26092 447
31.28103 468
31.30115 411
31.32126 470
31.34137 447
31.36149 461
31.3816 464
31.40171 467
31.42183 434
31.44194 490
31.46206 448
31.48217 429
31.50228 447
31.5224 420
31.54251 415
31.56262 438
31.58274 451
31.60285 452
31.62297 443
31.64308 434
31.66319 439
31.68331 423
31.70342 456
31.72353 427
31.74365 446
31.76376 441
31.78387 456
31.80399 443
31.8241 422
31.84422 408
31.86433 444
31.88444 450
31.90456 460
31.92467 447
31.94478 503
31.9649 494
31.98501 490
32.00513 435
32.02524 468
32.04535 467
32.06547 509
32.08558 456
32.10569 448
32.12581 430
32.14592 438
32.16604 473
32.18615 448
32.20626 492
32.22638 471
32.24649 445
32.2666 470
32.28672 448
32.30683 479
32.32694 449
32.34706 454
32.36717 445
32.38729 462
32.4074 446
32.42751 438
32.44763 457
32.46774 461
32.48785 464
32.50797 448
32.52808 430
32.5482 518
32.56831 467
32.58842 473
32.60854 500
32.62865 489
32.64876 502
32.66888 495
32.68899 482
32.7091 528
32.72922 494
32.74933 475
32.76945 516
32.78956 516
32.80967 541
32.82979 544
32.8499 547
32.87001 561
32.89013 565
32.91024 573
32.93036 563
32.95047 583
32.97058 614
32.9907 619
33.01081 589
33.03092 625
33.05104 638
33.07115 642
33.09127 635
33.11138 657
33.13149 646
33.15161 698
33.17172 650
33.19183 675
33.21195 656
33.23206 625
33.25217 658
33.27229 630
33.2924 617
33.31252 651
33.33263 619
33.35274 639
33.37286 601
33.39297 638
33.41308 566
33.4332 560
33.45331 554
33.47343 545
33.49354 541
33.51365 578
33.53377 544
33.55388 528
33.57399 520
33.59411 526
33.61422 538
33.63434 536
33.65445 505
33.67456 509
33.69468 507
33.71479 522
33.7349 475
33.75502 516
33.77513 493
33.79524 471
33.81536 486
33.83547 505
33.85559 521
33.8757 473
33.89581 481
33.91593 491
33.93604 462
33.95615 483
33.97627 485
33.99638 440
34.0165 426
34.03661 467
34.05672 466
34.07684 430
34.09695 478
34.11706 464
34.13718 492
34.15729 477
34.17741 462
34.19752 480
34.21763 482
34.23775 470
34.25786 491
34.27797 429
34.29809 431
34.3182 454
34.33831 481
34.35843 464
34.37854 475
34.39866 457
34.41877 470
34.43888 506
34.459 503
34.47911 523
34.49922 482
34.51934 498
34.53945 471
34.55957 497
34.57968 441
34.59979 543
34.61991 509
34.64002 492
34.66013 498
34.68025 496
34.70036 552
34.72047 577
34.74059 553
34.7607 562
34.78082 582
34.80093 572
34.82104 570
34.84116 634
34.86127 666
34.88138 636
34.9015 686
34.92161 650
34.94173 690
34.96184 661
34.98195 659
35.00207 656
35.02218 637
35.04229 609
35.06241 642
35.08252 630
35.10264 588
35.12275 650
35.14286 616
35.16298 607
35.18309 567
35.2032 573
35.22332 612
35.24343 644
35.26354 570
35.28366 587
35.30377 604
35.32389 623
35.344 628
35.36411 645
35.38423 578
35.40434 641
35.42445 613
35.44457 671
35.46468 645
35.4848 631
35.50491 672
35.52502 689
35.54514 653
35.56525 690
35.58536 716
35.60548 760
35.62559 662
35.64571 761
35.66582 794
35.68593 805
35.70605 753
35.72616 774
35.74627 766
35.76639 731
35.7865 728
35.80661 758
35.82673 792
35.84684 751
35.86696 730
35.88707 682
35.90718 659
35.9273 707
35.94741 694
35.96752 728
35.98764 693
36.00775 666
36.02787 667
36.04798 607
36.06809 636
36.08821 605
36.10832 632
36.12843 576
36.14855 588
36.16866 591
36.18878 541
36.20889 566
36.229 572
36.24912 563
36.26923 565
36.28934 606
36.30946 632
36.32957 711
36.34968 681
36.3698 690
36.38991 811
36.41003 849
36.43014 988
36.45025 1060
36.47037 1184
36.49048 1367
36.51059 1457
36.53071 1453
36.55082 1415
36.57094 1245
36.59105 1127
36.61116 976
36.63128 916
36.65139 847
36.6715 758
36.69162 628
36.71173 610
36.73184 570
36.75196 560
36.77207 599
36.79219 569
36.8123 626
36.83241 617
36.85253 557
36.87264 554
36.89275 591
36.91287 573
36.93298 560
36.9531 569
36.97321 661
36.99332 582
37.01344 555
37.03355 512
37.05366 573
37.07378 568
37.09389 575
37.11401 580
37.13412 555
37.15423 560
37.17435 528
37.19446 565
37.21457 540
37.23469 529
37.2548 475
37.27491 512
37.29503 517
37.31514 482
37.33526 499
37.35537 530
37.37548 515
37.3956 466
37.41571 512
37.43582 530
37.45594 517
37.47605 512
37.49617 497
37.51628 513
37.53639 530
37.55651 539
37.57662 565
37.59673 520
37.61685 527
37.63696 539
37.65708 512
37.67719 501
37.6973 556
37.71742 535
37.73753 530
37.75764 519
37.77776 523
37.79787 516
37.81798 504
37.8381 506
37.85821 476
37.87833 499
37.89844 513
37.91855 526
37.93867 440
37.95878 528
37.97889 525
37.99901 479
38.01912 522
38.03924 537
38.05935 526
38.07946 534
38.09958 516
38.11969 508
38.1398 560
38.15992 544
38.18003 554
38.20015 606
38.22026 592
38.24037 596
38.26049 579
38.2806 674
38.30071 674
38.32083 558
38.34094 669
38.36105 631
38.38117 677
38.40128 653
38.4214 645
38.44151 670
38.46162 619
38.48174 591
38.50185 610
38.52196 638
38.54208 568
38.56219 616
38.58231 605
38.60242 600
38.62253 566
38.64265 537
38.66276 538
38.68287 551
38.70299 548
38.7231 540
38.74321 475
38.76333 520
38.78344 504
38.80356 547
38.82367 580
38.84378 453
38.8639 497
38.88401 475
38.90412 520
38.92424 548
38.94435 519
38.96447 533
38.98458 515
39.00469 520
39.02481 555
39.04492 571
39.06503 564
39.08515 530
39.10526 591
39.12538 556
39.14549 582
39.1656 604
39.18572 595
39.20583 594
39.22594 611
39.24606 644
39.26617 664
39.28628 714
39.3064 815
39.32651 817
39.34663 892
39.36674 1057
39.38685 1154
39.40697 1195
39.42708 1312
39.44719 1300
39.46731 1275
39.48742 1210
39.50754 1024
39.52765 939
39.54776 892
39.56788 830
39.58799 759
39.6081 680
39.62822 571
39.64833 566
39.66845 548
39.68856 495
39.70867 493
39.72879 490
39.7489 466
39.76901 528
39.78913 463
39.80924 490
39.82935 496
39.84947 479
39.86958 495
39.8897 486
39.90981 455
39.92992 473
39.95004 455
39.97015 507
39.99026 508
40.01038 496
40.03049 525
40.05061 513
40.07072 559
40.09083 545
40.11095 567
40.13106 621
40.15117 663
40.17129 642
40.1914 742
40.21152 777
40.23163 870
40.25174 860
40.27186 945
40.29197 888
40.31208 853
40.3322 778
40.35231 721
40.37242 647
40.39254 692
40.41265 640
40.43277 564
40.45288 601
40.47299 502
40.49311 517
40.51322 492
40.53333 502
40.55345 515
40.57356 524
40.59368 460
40.61379 460
40.6339 540
40.65402 521
40.67413 498
40.69424 520
40.71436 481
40.73447 518
40.75458 465
40.7747 511
40.79481 474
40.81493 521
40.83504 513
40.85515 545
40.87527 500
40.89538 521
40.91549 499
40.93561 513
40.95572 502
40.97584 507
40.99595 508
41.01606 519
41.03618 535
41.05629 464
41.0764 489
41.09652 543
41.11663 507
41.13675 530
41.15686 541
41.17697 508
41.19709 525
41.2172 521
41.23731 495
41.25743 493
41.27754 505
41.29765 440
41.31777 478
41.33788 513
41.358 441
41.37811 479
41.39822 497
41.41834 456
41.43845 451
41.45856 471
41.47868 474
41.49879 459
41.51891 449
41.53902 473
41.55913 447
41.57925 486
41.59936 461
41.61947 473
41.63959 467
41.6597 477
41.67982 435
41.69993 481
41.72004 434
41.74016 488
41.76027 468
41.78038 468
41.8005 476
41.82061 427
41.84072 462
41.86084 416
41.88095 415
41.90107 415
41.92118 426
41.94129 428
41.96141 459
41.98152 424
42.00163 433
42.02175 443
42.04186 487
42.06198 451
42.08209 444
42.1022 510
42.12232 434
42.14243 450
42.16254 503
42.18266 496
42.20277 528
42.22289 500
42.243 545
42.26311 547
42.28323 617
42.30334 650
42.32345 723
42.34357 774
42.36368 878
42.38379 945
42.40391 1004
42.42402 991
42.44414 1032
42.46425 897
42.48436 855
42.50448 826
42.52459 739
42.5447 641
42.56482 678
42.58493 566
42.60505 488
42.62516 471
42.64527 447
42.66539 453
42.6855 463
42.70561 433
42.72573 436
42.74584 421
42.76595 415
42.78607 409
42.80618 399
42.8263 438
42.84641 398
42.86652 389
42.88664 402
42.90675 427
42.92686 416
42.94698 443
42.96709 429
42.98721 468
43.00732 431
43.02743 407
43.04755 371
43.06766 402
43.08777 402
43.10789 417
43.128 407
43.14812 427
43.16823 417
43.18834 404
43.20846 403
43.22857 447
43.24868 421
43.2688 366
43.28891 459
43.30902 398
43.32914 424
43.34925 423
43.36937 424
43.38948 402
43.40959 424
43.42971 423
43.44982 420
43.46993 429
43.49005 415
43.51016 444
43.53028 420
43.55039 407
43.5705 400
43.59062 423
43.61073 436
43.63084 420
43.65096 391
43.67107 413
43.69119 383
43.7113 407
43.73141 400
43.75153 417
43.77164 426
43.79175 418
43.81187 408
43.83198 439
43.85209 403
43.87221 408
43.89232 409
43.91244 459
43.93255 416
43.95266 428
43.97278 390
43.99289 445
44.013 393
44.03312 393
44.05323 415
44.07335 399
44.09346 440
44.11357 378
44.13369 421
44.1538 426
44.17391 419
44.19403 436
44.21414 433
44.23426 451
44.25437 412
44.27448 399
44.2946 397
44.31471 419
44.33482 433
44.35494 393
44.37505 441
44.39516 367
44.41528 406
44.43539 404
44.45551 417
44.47562 394
44.49573 405
44.51585 398
44.53596 401
44.55607 420
44.57619 425
44.5963 412
44.61642 391
44.63653 428
44.65664 410
44.67676 425
44.69687 412
44.71698 364
44.7371 405
44.75721 446
44.77732 403
44.79744 429
44.81755 407
44.83767 406
44.85778 438
44.87789 389
44.89801 437
44.91812 435
44.93823 378
44.95835 428
44.97846 428
44.99858 451
45.01869 435
45.0388 443
45.05892 414
45.07903 439
45.09914 442
45.11926 422
45.13937 442
45.15949 463
45.1796 436
45.19971 456
45.21983 476
45.23994 464
45.26005 472
45.28017 438
45.30028 492
45.32039 455
45.34051 465
45.36062 483
45.38074 483
45.40085 463
45.42096 523
45.44108 488
45.46119 498
45.4813 465
45.50142 482
45.52153 510
45.54165 520
45.56176 520
45.58187 553
45.60199 527
45.6221 619
45.64221 641
45.66233 616
45.68244 680
45.70256 743
45.72267 763
45.74278 818
45.7629 821
45.78301 832
45.80312 762
45.82324 752
45.84335 652
45.86346 617
45.88358 610
45.90369 642
45.92381 582
45.94392 510
45.96403 487
45.98415 510
46.00426 449
46.02437 428
46.04449 417
46.0646 466
46.08472 453
46.10483 398
46.12494 433
46.14506 436
46.16517 457
46.18528 447
46.2054 441
46.22551 391
46.24563 442
46.26574 446
46.28585 429
46.30597 446
46.32608 441
46.34619 424
46.36631 466
46.38642 442
46.40653 409
46.42665 421
46.44676 404
46.46688 423
46.48699 430
46.5071 411
46.52722 417
46.54733 435
46.56744 429
46.58756 446
46.60767 430
46.62779 414
46.6479 451
46.66801 421
46.68813 395
46.70824 424
46.72835 415
46.74847 406
46.76858 419
46.78869 433
46.80881 390
46.82892 413
46.84904 410
46.86915 458
46.88926 436
46.90938 442
46.92949 405
46.9496 438
46.96972 463
46.98983 364
47.00995 430
47.03006 412
47.05017 439
47.07029 422
47.0904 417
47.11051 406
47.13063 402
47.15074 412
47.17086 420
47.19097 417
47.21108 368
47.2312 406
47.25131 415
47.27142 419
47.29154 438
47.31165 439
47.33176 436
47.35188 416
47.37199 427
47.39211 432
47.41222 403
47.43233 467
47.45245 434
47.47256 409
47.49267 455
47.51279 414
47.5329 445
47.55302 427
47.57313 445
47.59324 430
47.61336 435
47.63347 424
47.65358 426
47.6737 423
47.69381 433
47.71393 415
47.73404 415
47.75415 413
47.77427 424
47.79438 427
47.81449 421
47.83461 424
47.85472 430
47.87483 455
47.89495 411
47.91506 396
47.93518 462
47.95529 446
47.9754 448
47.99552 467
48.01563 442
48.03574 441
48.05586 441
48.07597 426
48.09609 449
48.1162 459
48.13631 407
48.15643 412
48.17654 425
48.19665 445
48.21677 428
48.23688 424
48.257 419
48.27711 415
48.29722 431
48.31734 400
48.33745 440
48.35756 403
48.37768 386
48.39779 411
48.4179 425
48.43802 416
48.45813 400
48.47825 431
48.49836 409
48.51847 446
48.53859 387
48.5587 423
48.57881 435
48.59893 451
48.61904 434
48.63916 422
48.65927 426
48.67938 429
48.6995 444
48.71961 435
48.73972 418
48.75984 404
48.77995 436
48.80006 412
48.82018 407
48.84029 418
48.86041 426
48.88052 455
48.90063 434
48.92075 433
48.94086 459
48.96097 429
48.98109 405
49.0012 434
49.02132 444
49.04143 429
49.06154 407
49.08166 435
49.10177 438
49.12188 437
49.142 455
49.16211 475
49.18223 449
49.20234 462
49.22245 450
49.24257 478
49.26268 496
49.28279 466
49.30291 453
49.32302 460
49.34313 480
49.36325 480
49.38336 498
49.40348 478
49.42359 461
49.4437 508
49.46382 489
49.48393 466
49.50404 547
49.52416 517
49.54427 491
49.56439 536
49.5845 513
49.60461 489
49.62473 548
49.64484 493
49.66495 527
49.68507 539
49.70518 467
49.7253 503
49.74541 544
49.76552 536
49.78564 562
49.80575 552
49.82586 552
49.84598 532
49.86609 607
49.8862 638
49.90632 680
49.92643 736
49.94655 804
49.96666 941
49.98677 1040
50.00689 1237
50.027 1363
50.04711 1473
50.06723 1680
50.08734 1699
50.10746 1810
50.12757 1760
50.14768 1668
50.1678 1470
50.18791 1339
50.20802 1178
50.22814 1160
50.24825 1021
50.26837 1022
50.28848 886
50.30859 739
50.32871 640
50.34882 564
50.36893 530
50.38905 490
50.40916 496
50.42927 424
50.44939 470
50.4695 453
50.48962 449
50.50973 472
50.52984 428
50.54996 482
50.57007 471
50.59018 464
50.6103 497
50.63041 475
50.65053 504
50.67064 453
50.69075 439
50.71087 491
50.73098 452
50.75109 430
50.77121 429
50.79132 447
50.81143 460
50.83155 430
50.85166 458
50.87178 439
50.89189 452
50.912 453
50.93212 446
50.95223 443
50.97234 453
50.99246 439
51.01257 427
51.03269 436
51.0528 433
51.07291 419
51.09303 444
51.11314 402
51.13325 395
51.15337 421
51.17348 418
51.1936 430
51.21371 421
51.23382 431
51.25394 416
51.27405 447
51.29416 392
51.31428 397
51.33439 431
51.3545 400
51.37462 423
51.39473 427
51.41485 423
51.43496 416
51.45507 371
51.47519 412
51.4953 387
51.51541 410
51.53553 394
51.55564 410
51.57576 403
51.59587 406
51.61598 409
51.6361 421
51.65621 388
51.67632 401
51.69644 396
51.71655 392
51.73667 398
51.75678 400
51.77689 380
51.79701 396
51.81712 404
51.83723 404
51.85735 407
51.87746 425
51.89757 394
51.91769 428
51.9378 419
51.95792 403
51.97803 418
51.99814 398
52.01826 431
52.03837 409
52.05848 394
52.0786 427
52.09871 452
52.11883 416
52.13894 395
52.15905 394
52.17917 397
52.19928 405
52.21939 390
52.23951 392
52.25962 425
52.27974 380
52.29985 352
52.31996 401
52.34008 418
52.36019 375
52.3803 411
52.40042 396
52.42053 435
52.44064 412
52.46076 407
52.48087 393
52.50099 437
52.5211 424
52.54121 410
52.56133 413
52.58144 438
52.60155 378
52.62167 396
52.64178 379
52.6619 377
52.68201 413
52.70212 399
52.72224 429
52.74235 396
52.76246 434
52.78258 441
52.80269 429
52.8228 421
52.84292 429
52.86303 409
52.88315 402
52.90326 433
52.92337 409
52.94349 411
52.9636 437
52.98371 430
53.00383 403
53.02394 445
53.04406 410
53.06417 418
53.08428 408
53.1044 403
53.12451 393
53.14462 413
53.16474 426
53.18485 422
53.20497 465
53.22508 423
53.24519 463
53.26531 473
53.28542 435
53.30553 476
53.32565 463
53.34576 451
53.36587 485
53.38599 481
53.4061 447
53.42622 453
53.44633 442
53.46644 447
53.48656 486
53.50667 442
53.52678 503
53.5469 461
53.56701 446
53.58713 480
53.60724 503
53.62735 516
53.64747 510
53.66758 462
53.68769 557
53.70781 500
53.72792 500
53.74804 502
53.76815 497
53.78826 489
53.80838 492
53.82849 542
53.8486 547
53.86872 514
53.88883 523
53.90894 563
53.92906 557
53.94917 522
53.96929 553
53.9894 537
54.00951 545
54.02963 551
54.04974 539
54.06985 541
54.08997 542
54.11008 565
54.1302 517
54.15031 558
54.17042 573
54.19054 534
54.21065 584
54.23076 581
54.25088 576
54.27099 531
54.29111 525
54.31122 558
54.33133 523
54.35145 537
54.37156 527
54.39167 522
54.41179 519
54.4319 522
54.45201 545
54.47213 563
54.49224 516
54.51236 500
54.53247 542
54.55258 512
54.5727 573
54.59281 566
54.61292 494
54.63304 607
54.65315 571
54.67327 606
54.69338 593
54.71349 635
54.73361 663
54.75372 732
54.77383 738
54.79395 857
54.81406 789
54.83417 882
54.85429 868
54.8744 821
54.89452 849
54.91463 747
54.93474 700
54.95486 712
54.97497 723
54.99508 658
55.0152 695
55.03531 671
55.05543 642
55.07554 573
55.09565 554
55.11577 533
55.13588 569
55.15599 552
55.17611 577
55.19622 607
55.21634 611
55.23645 623
55.25656 613
55.27668 683
55.29679 662
55.3169 651
55.33702 624
55.35713 633
55.37724 588
55.39736 540
55.41747 538
55.43759 531
55.4577 549
55.47781 523
55.49793 486
55.51804 486
55.53815 471
55.55827 490
55.57838 457
55.5985 453
55.61861 460
55.63872 480
55.65884 437
55.67895 439
55.69906 474
55.71918 460
55.73929 448
55.75941 477
55.77952 456
55.79963 422
55.81975 444
55.83986 437
55.85997 490
55.88009 398
55.9002 448
55.92031 441
55.94043 445
55.96054 398
55.98066 451
56.00077 456
56.02088 419
56.041 431
56.06111 404
56.08122 427
56.10134 423
56.12145 439
56.14157 433
56.16168 457
56.18179 414
56.20191 412
56.22202 403
56.24213 427
56.26225 424
56.28236 454
56.30248 420
56.32259 415
56.3427 447
56.36282 425
56.38293 438
56.40304 431
56.42316 408
56.44327 426
56.46338 429
56.4835 453
56.50361 488
56.52373 440
56.54384 427
56.56395 416
56.58407 432
56.60418 424
56.62429 452
56.64441 437
56.66452 438
56.68464 443
56.70475 416
56.72486 484
56.74498 399
56.76509 436
56.7852 472
56.80532 408
56.82543 430
56.84554 462
56.86566 418
56.88577 416
56.90589 454
56.926 423
56.94611 424
56.96623 441
56.98634 425
57.00645 451
57.02657 435
57.04668 416
57.0668 435
57.08691 412
57.10702 476
57.12714 413
57.14725 455
57.16736 412
57.18748 429
57.20759 453
57.22771 437
57.24782 448
57.26793 404
57.28805 400
57.30816 425
57.32827 443
57.34839 454
57.3685 425
57.38861 390
57.40873 427
57.42884 398
57.44896 440
57.46907 409
57.48918 461
57.5093 408
57.52941 388
57.54952 413
57.56964 425
57.58975 442
57.60987 459
57.62998 447
57.65009 433
57.67021 408
57.69032 428
57.71043 448
57.73055 436
57.75066 391
57.77078 433
57.79089 429
57.811 436
57.83112 398
57.85123 432
57.87134 403
57.89146 413
57.91157 457
57.93168 415
57.9518 410
57.97191 445
57.99203 425
58.01214 427
58.03225 398
58.05237 443
58.07248 426
58.09259 448
58.11271 408
58.13282 405
58.15294 423
58.17305 397
58.19316 420
58.21328 410
58.23339 408
58.2535 399
58.27362 424
58.29373 444
58.31385 370
58.33396 401
58.35407 402
58.37419 419
58.3943 412
58.41441 392
58.43453 398
58.45464 407
58.47475 413
58.49487 375
58.51498 416
58.5351 392
58.55521 380
58.57532 390
58.59544 406
58.61555 422
58.63566 398
58.65578 422
58.67589 388
58.69601 401
58.71612 388
58.73623 404
58.75635 374
58.77646 388
58.79657 369
58.81669 391
58.8368 391
58.85691 392
58.87703 404
58.89714 421
58.91726 413
58.93737 399
58.95748 406
58.9776 428
58.99771 438
59.01782 405
59.03794 410
59.05805 408
59.07817 436
59.09828 414
59.11839 404
59.13851 440
59.15862 406
59.17873 444
59.19885 411
59.21896 446
59.23908 390
59.25919 432
59.2793 447
59.29942 463
59.31953 433
59.33964 437
59.35976 417
59.37987 401
59.39998 452
59.4201 418
59.44021 440
59.46033 435
59.48044 462
59.50055 436
59.52067 440
59.54078 436
59.56089 458
59.58101 460
59.60112 482
59.62124 486
59.64135 560
59.66146 552
59.68158 553
59.70169 612
59.7218 643
59.74192 684
59.76203 675
59.78215 780
59.80226 869
59.82237 959
59.84249 1054
59.8626 1068
59.88271 1199
59.90283 1259
59.92294 1238
59.94305 1245
59.96317 1071
59.98328 1066
60.0034 890
60.02351 914
60.04362 860
60.06374 851
60.08385 840
60.10396 779
60.12408 707
60.14419 654
60.16431 561
60.18442 526
60.20453 495
60.22465 457
60.24476 501
60.26487 484
60.28499 472
60.3051 408
60.32522 465
60.34533 424
60.36544 406
60.38556 410
60.40567 437
60.42578 378
60.4459 407
60.46601 452
60.48612 415
60.50624 407
60.52635 384
60.54647 387
60.56658 371
60.58669 401
60.60681 390
60.62692 428
60.64703 411
60.66715 361
60.68726 426
60.70738 404
60.72749 398
60.7476 366
60.76772 400
60.78783 412
60.80794 426
60.82806 387
60.84817 382
60.86828 405
60.8884 386
60.90851 370
60.92863 405
60.94874 414
60.96885 397
60.98897 379
61.00908 405
61.02919 364
61.04931 402
61.06942 403
61.08954 389
61.10965 381
61.12976 407
61.14988 389
61.16999 413
61.1901 421
61.21022 429
61.23033 415
61.25045 404
61.27056 384
61.29067 403
61.31079 420
61.3309 400
61.35101 410
61.37113 400
61.39124 379
61.41135 419
61.43147 397
61.45158 401
61.4717 425
61.49181 424
61.51192 431
61.53204 455
61.55215 379
61.57226 384
61.59238 417
61.61249 423
61.63261 439
61.65272 430
61.67283 428
61.69295 403
61.71306 445
61.73317 463
61.75329 445
61.7734 450
61.79352 434
61.81363 464
61.83374 463
61.85386 439
61.87397 470
61.89408 445
61.9142 416
61.93431 447
61.95442 491
61.97454 460
61.99465 480
62.01477 496
62.03488 513
62.05499 493
62.07511 515
62.09522 510
62.11533 536
62.13545 535
62.15556 594
62.17568 552
62.19579 614
62.2159 575
62.23602 561
62.25613 571
62.27624 590
62.29636 575
62.31647 509
62.33659 560
62.3567 542
62.37681 535
62.39693 521
62.41704 505
62.43715 461
62.45727 522
62.47738 493
62.49749 507
62.51761 492
62.53772 515
62.55784 456
62.57795 504
62.59806 499
62.61818 491
62.63829 498
62.6584 499
62.67852 465
62.69863 488
62.71875 426
62.73886 460
62.75897 439
62.77909 445
62.7992 458
62.81931 438
62.83943 430
62.85954 458
62.87965 413
62.89977 403
62.91988 440
62.94 439
62.96011 428
62.98022 429
63.00034 426
63.02045 433
63.04056 391
63.06068 425
63.08079 411
63.10091 407
63.12102 435
63.14113 432
63.16125 411
63.18136 421
63.20147 427
63.22159 433
63.2417 437
63.26182 428
63.28193 409
63.30204 401
63.32216 442
63.34227 434
63.36238 448
63.3825 410
63.40261 407
63.42272 440
63.44284 461
63.46295 388
63.48307 430
63.50318 380
63.52329 460
63.54341 441
63.56352 434
63.58363 433
63.60375 468
63.62386 459
63.64398 446
63.66409 449
63.6842 432
63.70432 436
63.72443 444
63.74454 461
63.76466 451
63.78477 470
63.80489 473
63.825 499
63.84511 506
63.86523 508
63.88534 527
63.90545 561
63.92557 569
63.94568 570
63.96579 634
63.98591 605
64.00602 655
64.02614 655
64.04625 564
64.06636 620
64.08648 582
64.10659 552
64.1267 524
64.14682 583
64.16693 540
64.18705 549
64.20716 498
64.22727 530
64.24739 477
64.2675 457
64.28761 488
64.30773 440
64.32784 471
64.34796 448
64.36807 434
64.38818 466
64.4083 433
64.42841 457
64.44852 424
64.46864 429
64.48875 412
64.50886 399
64.52898 398
64.54909 438
64.56921 392
64.58932 427
64.60943 406
64.62955 407
64.64966 434
64.66977 410
64.68989 369
64.71 410
64.73012 405
64.75023 387
64.77034 372
64.79046 374
64.81057 383
64.83068 424
64.8508 394
64.87091 388
64.89102 425
64.91114 388
64.93125 407
64.95137 380
64.97148 430
64.99159 410
65.01171 381
65.03182 380
65.05193 372
65.07205 389
65.09216 395
65.11228 397
65.13239 391
65.1525 402
65.17262 382
65.19273 390
65.21284 380
65.23296 411
65.25307 406
65.27319 404
65.2933 369
65.31341 385
65.33353 381
65.35364 403
65.37375 377
65.39387 396
65.41398 408
65.43409 399
65.45421 377
65.47432 376
65.49444 370
65.51455 394
65.53466 374
65.55478 405
65.57489 397
65.595 383
65.61512 385
65.63523 407
65.65535 409
65.67546 438
65.69557 410
65.71569 425
65.7358 414
65.75591 387
65.77603 398
65.79614 374
65.81626 376
65.83637 393
65.85648 379
65.8766 419
65.89671 394
65.91682 428
65.93694 373
65.95705 373
65.97716 394
65.99728 427
66.01739 366
66.03751 380
66.05762 403
66.07773 390
66.09785 414
66.11796 399
66.13807 386
66.15819 369
66.1783 379
66.19842 376
66.21853 421
66.23864 378
66.25876 372
66.27887 384
66.29898 407
66.3191 387
66.33921 399
66.35933 356
66.37944 371
66.39955 411
66.41967 390
66.43978 374
66.45989 440
66.48001 385
66.50012 404
66.52023 398
66.54035 376
66.56046 390
66.58058 366
66.60069 398
66.6208 381
66.64092 390
66.66103 390
66.68114 400
66.70126 389
66.72137 368
66.74149 373
66.7616 365
66.78171 395
66.80183 381
66.82194 373
66.84205 373
66.86217 376
66.88228 406
66.90239 415
66.92251 372
66.94262 405
66.96274 392
66.98285 393
67.00296 402
67.02308 388
67.04319 383
67.0633 358
67.08342 424
67.10353 380
67.12365 399
67.14376 409
67.16387 401
67.18399 411
67.2041 423
67.22421 395
67.24433 416
67.26444 407
67.28456 390
67.30467 415
67.32478 415
67.3449 439
67.36501 430
67.38512 428
67.40524 455
67.42535 415
67.44546 442
67.46558 492
67.48569 492
67.50581 530
67.52592 535
67.54603 587
67.56615 568
67.58626 639
67.60637 742
67.62649 756
67.6466 834
67.66672 799
67.68683 887
67.70694 837
67.72706 832
67.74717 789
67.76728 773
67.7874 709
67.80751 664
67.82763 693
67.84774 712
67.86785 668
67.88797 725
67.90808 735
67.92819 757
67.94831 838
67.96842 793
67.98853 821
68.00865 830
68.02876 923
68.04888 1036
68.06899 970
68.0891 1040
68.10922 1078
68.12933 1100
68.14944 1014
68.16956 966
68.18967 990
68.20979 939
68.2299 937
68.25001 994
68.27013 1000
68.29024 1023
68.31035 897
68.33047 908
68.35058 773
68.3707 712
68.39081 660
68.41092 599
68.43104 590
68.45115 562
68.47126 586
68.49138 543
68.51149 521
68.5316 512
68.55172 458
68.57183 442
68.59195 413
68.61206 419
68.63217 445
68.65229 411
68.6724 433
68.69251 402
68.71263 355
68.73274 436
68.75286 392
68.77297 390
68.79308 401
68.8132 404
68.83331 399
68.85342 395
68.87354 393
68.89365 377
68.91376 399
68.93388 432
68.95399 365
68.97411 390
68.99422 364
69.01433 396
69.03445 371
69.05456 415
69.07467 389
69.09479 373
69.1149 430
69.13502 364
69.15513 394
69.17524 370
69.19536 397
69.21547 400
69.23558 398
69.2557 379
69.27581 375
69.29593 372
69.31604 396
69.33615 368
69.35627 351
69.37638 364
69.39649 371
69.41661 361
69.43672 367
69.45683 363
69.47695 409
69.49706 376
69.51718 394
69.53729 389
69.5574 369
69.57752 385
69.59763 377
69.61774 386
69.63786 366
69.65797 333
69.67809 389
69.6982 399
69.71831 406
69.73843 385
69.75854 389
69.77865 363
69.79877 357
69.81888 360
69.839 383
69.85911 365
69.87922 359
69.89934 372
69.91945 383
69.93956 364
69.95968 406
69.97979 347
69.9999 348
70.02002 393
70.04013 382
70.06025 397
70.08036 392
70.10047 377
70.12059 390
70.1407 348
70.16081 368
70.18093 370
70.20104 365
70.22116 376
70.24127 384
70.26138 403
70.2815 339
70.30161 355
70.32172 371
70.34184 361
70.36195 395
70.38207 386
70.40218 395
70.42229 343
70.44241 362
70.46252 358
70.48263 402
70.50275 390
70.52286 386
70.54297 360
70.56309 402
70.5832 373
70.60332 369
70.62343 395
70.64354 356
70.66366 397
70.68377 355
70.70388 354
70.724 381
70.74411 387
70.76423 351
70.78434 386
70.80445 400
70.82457 392
70.84468 370
70.86479 385
70.88491 361
70.90502 367
70.92513 352
70.94525 384
70.96536 345
70.98548 417
71.00559 335
71.0257 383
71.04582 362
71.06593 352
71.08604 377
71.10616 361
71.12627 365
71.14639 368
71.1665 363
71.18661 390
71.20673 378
71.22684 382
71.24695 403
71.26707 360
71.28718 339
71.3073 401
71.32741 326
71.34752 376
71.36764 373
71.38775 359
71.40786 380
71.42798 372
71.44809 372
71.4682 379
71.48832 399
71.50843 407
71.52855 392
71.54866 397
71.56877 370
71.58889 331
71.609 401
71.62911 414
71.64923 376
71.66934 334
71.68946 364
71.70957 410
71.72968 377
71.7498 395
71.76991 369
71.79002 348
71.81014 352
71.83025 411
71.85037 345
71.87048 396
71.89059 367
71.91071 372
71.93082 425
71.95093 387
71.97105 381
71.99116 369
72.01127 395
72.03139 446
72.0515 431
72.07162 371
72.09173 391
72.11184 398
72.13196 407
72.15207 366
72.17218 402
72.1923 378
72.21241 397
72.23253 403
72.25264 390
72.27275 351
72.29287 403
72.31298 393
72.33309 407
72.35321 404
72.37332 402
72.39344 378
72.41355 378
72.43366 360
72.45378 392
72.47389 364
72.494 377
72.51412 384
72.53423 369
72.55434 379
72.57446 394
72.59457 370
72.61469 378
72.6348 356
72.65491 377
72.67503 389
72.69514 383
72.71525 392
72.73537 359
72.75548 334
72.7756 378
72.79571 346
72.81582 383
72.83594 366
72.85605 368
72.87616 351
72.89628 379
72.91639 373
72.9365 371
72.95662 381
72.97673 389
72.99685 375
73.01696 400
73.03707 393
73.05719 393
73.0773 385
73.09741 355
73.11753 421
73.13764 425
73.15776 423
73.17787 430
73.19798 418
73.2181 428
73.23821 453
73.25832 451
73.27844 438
73.29855 438
73.31867 466
73.33878 498
73.35889 521
73.37901 538
73.39912 575
73.41923 552
73.43935 508
73.45946 525
73.47957 503
73.49969 492
73.5198 503
73.53992 455
73.56003 475
73.58014 466
73.60026 465
73.62037 442
73.64048 437
73.6606 444
73.68071 463
73.70083 409
73.72094 406
73.74105 424
73.76117 405
73.78128 376
73.80139 345
73.82151 359
73.84162 365
73.86174 370
73.88185 376
73.90196 383
73.92208 340
73.94219 374
73.9623 374
73.98242 400
74.00253 386
74.02264 335
74.04276 348
74.06287 375
74.08299 368
74.1031 382
74.12321 368
74.14333 329
74.16344 371
74.18355 388
74.20367 351
74.22378 367
74.2439 338
74.26401 346
74.28412 379
74.30424 372
74.32435 334
74.34446 357
74.36458 331
74.38469 331
74.40481 365
74.42492 338
74.44503 374
74.46515 356
74.48526 387
74.50537 385
74.52549 371
74.5456 367
74.56571 406
74.58583 350
74.60594 353
74.62606 339
74.64617 350
74.66628 394
74.6864 358
74.70651 346
74.72662 385
74.74674 365
74.76685 343
74.78697 361
74.80708 380
74.82719 369
74.84731 353
74.86742 384
74.88753 344
74.90765 366
74.92776 346
74.94787 362
74.96799 352
74.9881 332
75.00822 388
