3.00117 18101
3.02128 18035
3.0414 17368
3.06151 17181
3.08162 16398
3.10174 16124
3.12185 15723
3.14197 14992
3.16208 14765
3.18219 14316
3.20231 13901
3.22242 13525
3.24253 12879
3.26265 12473
3.28276 12274
3.30288 11857
3.32299 11612
3.3431 11215
3.36322 10962
3.38333 10333
3.40344 10194
3.42356 9910
3.44367 9281
3.46379 9055
3.4839 8686
3.50401 8435
3.52413 8132
3.54424 7835
3.56435 7621
3.58447 7101
3.60458 6984
3.62469 6733
3.64481 6640
3.66492 6157
3.68504 5719
3.70515 5767
3.72526 5473
3.74538 5268
3.76549 5056
3.7856 4767
3.80572 4741
3.82583 4645
3.84595 4134
3.86606 4164
3.88617 3833
3.90629 3528
3.9264 3725
3.94651 3314
3.96663 3219
3.98674 3043
4.00686 2987
4.02697 2898
4.04708 2616
4.0672 2665
4.08731 2411
4.10742 2441
4.12754 2378
4.14765 2074
4.16776 2004
4.18788 1912
4.20799 1935
4.22811 1964
4.24822 1734
4.26833 1709
4.28845 1653
4.30856 1573
4.32867 1551
4.34879 1484
4.3689 1495
4.38902 1375
4.40913 1413
4.42924 1529
4.44936 1223
4.46947 1139
4.48958 1265
4.5097 1172
4.52981 1231
4.54992 1084
4.57004 1150
4.59015 1113
4.61027 993
4.63038 1119
4.65049 927
4.67061 970
4.69072 931
4.71083 939
4.73095 959
4.75106 844
4.77118 872
4.79129 860
4.8114 857
4.83152 853
4.85163 793
4.87174 755
4.89186 760
4.91197 800
4.93209 750
4.9522 684
4.97231 699
4.99243 710
5.01254 704
5.03265 688
5.05277 630
5.07288 646
5.09299 610
5.11311 597
5.13322 605
5.15334 613
5.17345 594
5.19356 576
5.21368 543
5.23379 515
5.2539 497
5.27402 474
5.29413 484
5.31425 480
5.33436 460
5.35447 464
5.37459 456
5.3947 477
5.41481 420
5.43493 449
5.45504 429
5.47516 419
5.49527 453
5.51538 422
5.5355 438
5.55561 421
5.57572 389
5.59584 387
5.61595 393
5.63606 344
5.65618 318
5.67629 341
5.69641 368
5.71652 343
5.73663 339
5.75675 290
5.77686 311
5.79697 323
5.81709 328
5.8372 283
5.85732 312
5.87743 290
5.89754 297
5.91766 333
5.93777 320
5.95788 293
5.978 283
5.99811 351
6.01823 284
6.03834 289
6.05845 266
6.07857 271
6.09868 273
6.11879 296
6.13891 267
6.15902 262
6.17913 281
6.19925 282
6.21936 271
6.23948 287
6.25959 275
6.2797 270
6.29982 250
6.31993 253
6.34004 273
6.36016 254
6.38027 272
6.40039 254
6.4205 262
6.44061 244
6.46073 261
6.48084 244
6.50095 196
6.52107 234
6.54118 253
6.56129 260
6.58141 243
6.60152 233
6.62164 229
6.64175 236
6.66186 242
6.68198 217
6.70209 245
6.7222 245
6.74232 219
6.76243 211
6.78255 242
6.80266 263
6.82277 194
6.84289 238
6.863 230
6.88311 222
6.90323 214
6.92334 255
6.94346 246
6.96357 230
6.98368 221
7.0038 217
7.02391 221
7.04402 227
7.06414 209
7.08425 194
7.10436 194
7.12448 213
7.14459 201
7.16471 218
7.18482 223
7.20493 200
7.22505 191
7.24516 221
7.26527 204
7.28539 203
7.3055 235
7.32562 207
7.34573 198
7.36584 205
7.38596 222
7.40607 212
7.42618 239
7.4463 227
7.46641 212
7.48653 214
7.50664 235
7.52675 197
7.54687 184
7.56698 207
7.58709 209
7.60721 187
7.62732 199
7.64743 218
7.66755 206
7.68766 204
7.70778 221
7.72789 185
7.748 244
7.76812 194
7.78823 225
7.80834 216
7.82846 229
7.84857 224
7.86869 234
7.8888 246
7.90891 234
7.92903 231
7.94914 192
7.96925 203
7.98937 193
8.00948 227
8.0296 218
8.04971 216
8.06982 224
8.08994 204
8.11005 205
8.13016 225
8.15028 209
8.17039 212
8.1905 202
8.21062 216
8.23073 225
8.25085 220
8.27096 210
8.29107 233
8.31119 215
8.3313 229
8.35141 220
8.37153 233
8.39164 231
8.41176 226
8.43187 205
8.45198 231
8.4721 215
8.49221 235
8.51232 203
8.53244 213
8.55255 227
8.57266 191
8.59278 210
8.61289 222
8.63301 237
8.65312 213
8.67323 242
8.69335 213
8.71346 233
8.73357 241
8.75369 180
8.7738 234
8.79392 241
8.81403 252
8.83414 257
8.85426 217
8.87437 206
8.89448 249
8.9146 197
8.93471 204
8.95483 220
8.97494 216
8.99505 211
9.01517 212
9.03528 213
9.05539 217
9.07551 233
9.09562 195
9.11573 200
9.13585 236
9.15596 229
9.17608 218
9.19619 191
9.2163 218
9.23642 193
9.25653 241
9.27664 215
9.29676 206
9.31687 219
9.33699 226
9.3571 236
9.37721 219
9.39733 246
9.41744 217
9.43755 204
9.45767 234
9.47778 193
9.4979 227
9.51801 244
9.53812 233
9.55824 214
9.57835 230
9.59846 226
9.61858 220
9.63869 187
9.6588 220
9.67892 192
9.69903 216
9.71915 232
9.73926 228
9.75937 222
9.77949 209
9.7996 235
9.81971 197
9.83983 218
9.85994 243
9.88006 213
9.90017 208
9.92028 227
9.9404 189
9.96051 195
9.98062 204
10.00074 226
10.02085 209
10.04097 221
10.06108 214
10.08119 230
10.10131 214
10.12142 267
10.14153 202
10.16165 224
10.18176 203
10.20187 192
10.22199 198
10.2421 239
10.26222 209
10.28233 224
10.30244 207
10.32256 216
10.34267 236
10.36278 203
10.3829 211
10.40301 181
10.42313 223
10.44324 218
10.46335 246
10.48347 213
10.50358 220
10.52369 237
10.54381 226
10.56392 223
10.58403 239
10.60415 236
10.62426 191
10.64438 210
10.66449 193
10.6846 220
10.70472 194
10.72483 250
10.74494 263
10.76506 233
10.78517 210
10.80529 226
10.8254 222
10.84551 244
10.86563 217
10.88574 215
10.90585 216
10.92597 259
10.94608 212
10.9662 210
10.98631 225
11.00642 181
11.02654 205
11.04665 183
11.06676 198
11.08688 207
11.10699 197
11.1271 224
11.14722 214
11.16733 215
11.18745 230
11.20756 212
11.22767 202
11.24779 229
11.2679 224
11.28801 213
11.30813 191
11.32824 193
11.34836 228
11.36847 212
11.38858 224
11.4087 224
11.42881 226
11.44892 222
11.46904 196
11.48915 221
11.50927 190
11.52938 239
11.54949 237
11.56961 221
11.58972 188
11.60983 226
11.62995 204
11.65006 221
11.67017 197
11.69029 228
11.7104 236
11.73052 188
11.75063 230
11.77074 198
11.79086 193
11.81097 222
11.83108 211
11.8512 210
11.87131 187
11.89143 225
11.91154 233
11.93165 197
11.95177 214
11.97188 226
11.99199 213
12.01211 207
12.03222 204
12.05234 216
12.07245 230
12.09256 232
12.11268 197
12.13279 207
12.1529 219
12.17302 213
12.19313 176
12.21324 238
12.23336 203
12.25347 215
12.27359 212
12.2937 204
12.31381 191
12.33393 195
12.35404 196
12.37415 184
12.39427 212
12.41438 214
12.4345 203
12.45461 194
12.47472 190
12.49484 209
12.51495 191
12.53506 204
12.55518 210
12.57529 202
12.5954 182
12.61552 181
12.63563 196
12.65575 194
12.67586 199
12.69597 228
12.71609 199
12.7362 198
12.75631 221
12.77643 211
12.79654 197
12.81666 218
12.83677 163
12.85688 181
12.877 203
12.89711 197
12.91722 209
12.93734 181
12.95745 174
12.97757 186
12.99768 162
13.01779 194
13.03791 183
13.05802 205
13.07813 207
13.09825 177
13.11836 191
13.13847 179
13.15859 214
13.1787 194
13.19882 205
13.21893 182
13.23904 178
13.25916 199
13.27927 197
13.29938 200
13.3195 185
13.33961 185
13.35973 196
13.37984 194
13.39995 198
13.42007 192
13.44018 187
13.46029 190
13.48041 210
13.50052 170
13.52064 206
13.54075 185
13.56086 212
13.58098 190
13.60109 194
13.6212 196
13.64132 213
13.66143 183
13.68154 206
13.70166 191
13.72177 192
13.74189 203
13.762 192
13.78211 188
13.80223 195
13.82234 198
13.84245 204
13.86257 178
13.88268 184
13.9028 172
13.92291 222
13.94302 196
13.96314 162
13.98325 208
14.00336 201
14.02348 196
14.04359 205
14.06371 160
14.08382 171
14.10393 181
14.12405 199
14.14416 215
14.16427 209
14.18439 169
14.2045 189
14.22461 186
14.24473 188
14.26484 198
14.28496 196
14.30507 184
14.32518 201
14.3453 179
14.36541 180
14.38552 184
14.40564 172
14.42575 195
14.44587 205
14.46598 188
14.48609 203
14.50621 156
14.52632 181
14.54643 193
14.56655 181
14.58666 219
14.60677 215
14.62689 184
14.647 172
14.66712 174
14.68723 151
14.70734 173
14.72746 179
14.74757 196
14.76768 148
14.7878 198
14.80791 167
14.82803 192
14.84814 178
14.86825 214
14.88837 176
14.90848 209
14.92859 164
14.94871 187
14.96882 165
14.98894 187
15.00905 178
15.02916 176
15.04928 181
15.06939 152
15.0895 178
15.10962 197
15.12973 157
15.14984 165
15.16996 179
15.19007 187
15.21019 188
15.2303 188
15.25041 189
15.27053 143
15.29064 172
15.31075 170
15.33087 174
15.35098 190
15.3711 154
15.39121 215
15.41132 170
15.43144 153
15.45155 157
15.47166 155
15.49178 159
15.51189 165
15.53201 187
15.55212 169
15.57223 138
15.59235 182
15.61246 188
15.63257 175
15.65269 179
15.6728 185
15.69291 170
15.71303 162
15.73314 172
15.75326 164
15.77337 159
15.79348 178
15.8136 140
15.83371 175
15.85382 167
15.87394 159
15.89405 163
15.91417 148
15.93428 169
15.95439 172
15.97451 185
15.99462 175
16.01473 169
16.03485 167
16.05496 153
16.07508 168
16.09519 174
16.1153 180
16.13542 189
16.15553 196
16.17564 184
16.19576 156
16.21587 170
16.23598 175
16.2561 154
16.27621 174
16.29633 174
16.31644 166
16.33655 158
16.35667 168
16.37678 150
16.39689 139
16.41701 173
16.43712 174
16.45724 176
16.47735 165
16.49746 165
16.51758 172
16.53769 154
16.5578 189
16.57792 155
16.59803 179
16.61814 164
16.63826 179
16.65837 161
16.67849 209
16.6986 169
16.71871 179
16.73883 187
16.75894 179
16.77905 181
16.79917 183
16.81928 178
16.8394 169
16.85951 165
16.87962 171
16.89974 174
16.91985 149
16.93996 184
16.96008 146
16.98019 195
17.00031 147
17.02042 184
17.04053 155
17.06065 170
17.08076 155
17.10087 146
17.12099 154
17.1411 163
17.16121 172
17.18133 157
17.20144 158
17.22156 182
17.24167 154
17.26178 154
17.2819 158
17.30201 160
17.32212 201
17.34224 183
17.36235 158
17.38247 166
17.40258 160
17.42269 161
17.44281 182
17.46292 165
17.48303 154
17.50315 161
17.52326 122
17.54338 146
17.56349 181
17.5836 164
17.60372 166
17.62383 162
17.64394 202
17.66406 173
17.68417 154
17.70428 176
17.7244 162
17.74451 188
17.76463 174
17.78474 162
17.80485 173
17.82497 160
17.84508 182
17.86519 161
17.88531 161
17.90542 181
17.92554 139
17.94565 178
17.96576 148
17.98588 137
18.00599 169
18.0261 148
18.04622 160
18.06633 163
18.08645 172
18.10656 175
18.12667 135
18.14679 150
18.1669 189
18.18701 163
18.20713 164
18.22724 150
18.24735 157
18.26747 166
18.28758 175
18.3077 197
18.32781 151
18.34792 168
18.36804 161
18.38815 149
18.40826 166
18.42838 143
18.44849 158
18.46861 170
18.48872 156
18.50883 148
18.52895 153
18.54906 169
18.56917 169
18.58929 166
18.6094 146
18.62951 179
18.64963 152
18.66974 189
18.68986 186
18.70997 157
18.73008 189
18.7502 163
18.77031 190
18.79042 180
18.81054 190
18.83065 175
18.85077 152
18.87088 161
18.89099 162
18.91111 167
18.93122 156
18.95133 139
18.97145 166
18.99156 154
19.01168 156
19.03179 172
19.0519 151
19.07202 168
19.09213 188
19.11224 161
19.13236 164
19.15247 148
19.17258 167
19.1927 187
19.21281 181
19.23293 176
19.25304 181
19.27315 127
19.29327 168
19.31338 157
19.33349 189
19.35361 175
19.37372 185
19.39384 193
19.41395 180
19.43406 184
19.45418 169
19.47429 192
19.4944 162
19.51452 193
19.53463 212
19.55475 171
19.57486 185
19.59497 217
19.61509 213
19.6352 231
19.65531 212
19.67543 228
19.69554 233
19.71565 217
19.73577 229
19.75588 251
19.776 237
19.79611 250
19.81622 244
19.83634 243
19.85645 226
19.87656 220
19.89668 244
19.91679 255
19.93691 238
19.95702 236
19.97713 249
19.99725 219
20.01736 238
20.03747 219
20.05759 232
20.0777 223
20.09782 245
20.11793 231
20.13804 240
20.15816 262
20.17827 279
20.19838 303
20.2185 251
20.23861 280
20.25872 276
20.27884 256
20.29895 300
20.31907 310
20.33918 297
20.35929 310
20.37941 309
20.39952 350
20.41963 315
20.43975 314
20.45986 356
20.47998 332
20.50009 358
20.5202 350
20.54032 398
20.56043 380
20.58054 403
20.60066 471
20.62077 480
20.64088 578
20.661 653
20.68111 707
20.70123 971
20.72134 1318
20.74145 1862
20.76157 2586
20.78168 3633
20.80179 5211
20.82191 6966
20.84202 8615
20.86214 10058
20.88225 9753
20.90236 7829
20.92248 5584
20.94259 3861
20.9627 2289
20.98282 1255
21.00293 713
21.02305 631
21.04316 543
21.06327 482
21.08339 482
21.1035 448
21.12361 395
21.14373 355
21.16384 349
21.18395 344
21.20407 329
21.22418 307
21.2443 307
21.26441 289
21.28452 284
21.30464 257
21.32475 278
21.34486 229
21.36498 241
21.38509 233
21.40521 247
21.42532 246
21.44543 239
21.46555 255
21.48566 264
21.50577 264
21.52589 240
21.546 239
21.56612 232
21.58623 211
21.60634 238
21.62646 231
21.64657 206
21.66668 199
21.6868 216
21.70691 223
21.72702 237
21.74714 225
21.76725 248
21.78737 232
21.80748 209
21.82759 208
21.84771 204
21.86782 221
21.88793 208
21.90805 219
21.92816 214
21.94828 226
21.96839 208
21.9885 228
22.00862 211
22.02873 194
22.04884 214
22.06896 219
22.08907 208
22.10919 215
22.1293 231
22.14941 198
22.16953 232
22.18964 204
22.20975 221
22.22987 188
22.24998 232
22.27009 198
22.29021 193
22.31032 182
22.33044 228
22.35055 185
22.37066 232
22.39078 190
22.41089 209
22.431 196
22.45112 193
22.47123 205
22.49135 201
22.51146 186
22.53157 236
22.55169 217
22.5718 197
22.59191 208
22.61203 208
22.63214 206
22.65225 216
22.67237 196
22.69248 199
22.7126 204
22.73271 210
22.75282 192
22.77294 207
22.79305 210
22.81316 194
22.83328 196
22.85339 185
22.87351 189
22.89362 194
22.91373 199
22.93385 197
22.95396 192
22.97407 213
22.99419 192
23.0143 196
23.03442 176
23.05453 195
23.07464 172
23.09476 186
23.11487 198
23.13498 202
23.1551 189
23.17521 183
23.19532 198
23.21544 184
23.23555 196
23.25567 178
23.27578 216
23.29589 175
23.31601 188
23.33612 164
23.35623 193
23.37635 211
23.39646 180
23.41658 195
23.43669 202
23.4568 202
23.47692 192
23.49703 187
23.51714 178
23.53726 203
23.55737 162
23.57749 201
23.5976 183
23.61771 183
23.63783 213
23.65794 182
23.67805 189
23.69817 190
23.71828 192
23.73839 172
23.75851 199
23.77862 186
23.79874 202
23.81885 183
23.83896 198
23.85908 215
23.87919 224
23.8993 227
23.91942 244
23.93953 251
23.95965 248
23.97976 246
23.99987 306
24.01999 301
24.0401 302
24.06021 286
24.08033 258
24.10044 224
24.12056 192
24.14067 183
24.16078 198
24.1809 200
24.20101 211
24.22112 181
24.24124 227
24.26135 201
24.28146 175
24.30158 190
24.32169 175
24.34181 222
24.36192 191
24.38203 179
24.40215 183
24.42226 192
24.44237 207
24.46249 201
24.4826 190
24.50272 198
24.52283 185
24.54294 185
24.56306 176
24.58317 172
24.60328 191
24.6234 217
24.64351 185
24.66362 218
24.68374 188
24.70385 191
24.72397 184
24.74408 172
24.76419 210
24.78431 208
24.80442 213
24.82453 185
24.84465 185
24.86476 189
24.88488 172
24.90499 201
24.9251 208
24.94522 184
24.96533 204
24.98544 211
25.00556 180
25.02567 213
25.04579 187
25.0659 189
25.08601 192
25.10613 194
25.12624 169
25.14635 211
25.16647 182
25.18658 195
25.20669 214
25.22681 203
25.24692 186
25.26704 208
25.28715 200
25.30726 193
25.32738 220
25.34749 210
25.3676 226
25.38772 216
25.40783 210
25.42795 184
25.44806 179
25.46817 233
25.48829 221
25.5084 202
25.52851 216
25.54863 237
25.56874 271
25.58886 215
25.60897 248
25.62908 241
25.6492 293
25.66931 313
25.68942 321
25.70954 363
25.72965 430
25.74976 456
25.76988 406
25.78999 451
25.81011 447
25.83022 429
25.85033 455
25.87045 498
25.89056 490
25.91067 476
25.93079 432
25.9509 463
25.97102 483
25.99113 474
26.01124 449
26.03136 517
26.05147 605
26.07158 554
26.0917 562
26.11181 590
26.13193 678
26.15204 650
26.17215 742
26.19227 780
26.21238 821
26.23249 865
26.25261 993
26.27272 1135
26.29283 1103
26.31295 1203
26.33306 1368
26.35318 1475
26.37329 1656
26.3934 1960
26.41352 2268
26.43363 2847
26.45374 3588
26.47386 4689
26.49397 6340
26.51409 8694
26.5342 12474
26.55431 17129
26.57443 24024
26.59454 32232
26.61465 41099
26.63477 46065
26.65488 44502
26.67499 36850
26.69511 28294
26.71522 21595
26.73534 15398
26.75545 8669
26.77556 4562
26.79568 2792
26.81579 2171
26.8359 1798
26.85602 1647
26.87613 1476
26.89625 1445
26.91636 1208
26.93647 1080
26.95659 1027
26.9767 867
26.99681 739
27.01693 754
27.03704 633
27.05716 616
27.07727 615
27.09738 580
27.1175 519
27.13761 507
27.15772 507
27.17784 485
27.19795 458
27.21806 427
27.23818 478
27.25829 447
27.27841 438
27.29852 406
27.31863 415
27.33875 408
27.35886 393
27.37897 393
27.39909 393
27.4192 401
27.43932 390
27.45943 354
27.47954 419
27.49966 387
27.51977 349
27.53988 401
27.56 329
27.58011 359
27.60023 321
27.62034 347
27.64045 346
27.66057 311
27.68068 306
27.70079 320
27.72091 319
27.74102 314
27.76113 329
27.78125 301
27.80136 319
27.82148 270
27.84159 272
27.8617 290
27.88182 315
27.90193 279
27.92204 308
27.94216 272
27.96227 303
27.98239 274
28.0025 289
28.02261 293
28.04273 292
28.06284 275
28.08295 295
28.10307 285
28.12318 280
28.1433 271
28.16341 261
28.18352 282
28.20364 269
28.22375 268
28.24386 262
28.26398 279
28.28409 228
28.3042 257
28.32432 245
28.34443 254
28.36455 232
28.38466 260
28.40477 249
28.42489 233
28.445 278
28.46511 220
28.48523 252
28.50534 224
28.52546 249
28.54557 234
28.56568 252
28.5858 244
28.60591 264
28.62602 265
28.64614 249
28.66625 250
28.68636 256
28.70648 240
28.72659 254
28.74671 241
28.76682 241
28.78693 226
28.80705 257
28.82716 221
28.84727 240
28.86739 233
28.8875 235
28.90762 234
28.92773 234
28.94784 221
28.96796 246
28.98807 236
29.00818 238
29.0283 255
29.04841 220
29.06853 232
29.08864 219
29.10875 201
29.12887 217
29.14898 217
29.16909 230
29.18921 220
29.20932 234
29.22943 238
29.24955 200
29.26966 222
29.28978 227
29.30989 204
29.33 228
29.35012 233
29.37023 239
29.39034 235
29.41046 205
29.43057 232
29.45069 219
29.4708 215
29.49091 203
29.51103 209
29.53114 208
29.55125 206
29.57137 202
29.59148 231
29.6116 236
29.63171 200
29.65182 204
29.67194 177
29.69205 191
29.71216 205
29.73228 226
29.75239 221
29.7725 199
29.79262 231
29.81273 218
29.83285 214
29.85296 198
29.87307 212
29.89319 196
29.9133 215
29.93341 205
29.95353 217
29.97364 216
29.99376 176
30.01387 209
30.03398 207
30.0541 211
30.07421 198
30.09432 224
30.11444 208
30.13455 204
30.15467 197
30.17478 193
30.19489 203
30.21501 197
30.23512 208
30.25523 194
30.27535 195
30.29546 173
30.31557 186
30.33569 179
30.3558 186
30.37592 194
30.39603 186
30.41614 175
30.43626 205
30.45637 212
30.47648 208
30.4966 181
30.51671 187
30.53683 188
30.55694 168
30.57705 203
30.59717 184
30.61728 183
30.63739 189
30.65751 191
30.67762 196
30.69773 188
30.71785 195
30.73796 190
30.75808 191
30.77819 170
30.7983 182
30.81842 189
30.83853 195
30.85864 190
30.87876 207
30.89887 181
30.91899 174
30.9391 186
30.95921 196
30.97933 196
30.99944 190
31.01955 182
31.03967 189
31.05978 168
31.0799 175
31.10001 198
31.12012 180
31.14024 197
31.16035 168
31.18046 184
31.20058 195
31.22069 183
31.2408 198
31.26092 176
31.28103 189
31.30115 177
31.32126 156
31.34137 140
31.36149 176
31.3816 175
31.40171 166
31.42183 152
31.44194 187
31.46206 156
31.48217 165
31.50228 169
31.5224 170
31.54251 165
31.56262 188
31.58274 142
31.60285 191
31.62297 142
31.64308 186
31.66319 147
31.68331 199
31.70342 151
31.72353 164
31.74365 188
31.76376 156
31.78387 161
31.80399 171
31.8241 172
31.84422 165
31.86433 170
31.88444 186
31.90456 172
31.92467 171
31.94478 164
31.9649 160
31.98501 183
32.00513 178
32.02524 170
32.04535 147
32.06547 165
32.08558 174
32.10569 162
32.12581 143
32.14592 161
32.16604 174
32.18615 165
32.20626 185
32.22638 161
32.24649 149
32.2666 179
32.28672 186
32.30683 173
32.32694 136
32.34706 136
32.36717 161
32.38729 152
32.4074 150
32.42751 156
32.44763 168
32.46774 169
32.48785 149
32.50797 171
32.52808 145
32.5482 150
32.56831 148
32.58842 155
32.60854 181
32.62865 159
32.64876 166
32.66888 143
32.68899 156
32.7091 122
32.72922 137
32.74933 132
32.76945 160
32.78956 141
32.80967 156
32.82979 160
32.8499 148
32.87001 157
32.89013 160
32.91024 180
32.93036 154
32.95047 154
32.97058 136
32.9907 153
33.01081 137
33.03092 144
33.05104 135
33.07115 142
33.09127 172
33.11138 178
33.13149 158
33.15161 166
33.17172 127
33.19183 140
33.21195 168
33.23206 160
33.25217 128
33.27229 147
33.2924 143
33.31252 136
33.33263 168
33.35274 131
33.37286 153
33.39297 147
33.41308 163
33.4332 144
33.45331 144
33.47343 160
33.49354 150
33.51365 136
33.53377 128
33.55388 149
33.57399 138
33.59411 174
33.61422 126
33.63434 146
33.65445 150
33.67456 148
33.69468 140
33.71479 131
33.7349 158
33.75502 152
33.77513 145
33.79524 159
33.81536 138
33.83547 129
33.85559 156
33.8757 119
33.89581 133
33.91593 136
33.93604 149
33.95615 146
33.97627 142
33.99638 147
34.0165 137
34.03661 141
34.05672 135
34.07684 147
34.09695 143
34.11706 153
34.13718 128
34.15729 152
34.17741 145
34.19752 157
34.21763 148
34.23775 139
34.25786 143
34.27797 159
34.29809 166
34.3182 156
34.33831 125
34.35843 133
34.37854 163
34.39866 174
34.41877 152
34.43888 167
34.459 145
34.47911 199
34.49922 180
34.51934 164
34.53945 143
34.55957 145
34.57968 185
34.59979 164
34.61991 176
34.64002 156
34.66013 164
34.68025 155
34.70036 162
34.72047 167
34.74059 170
34.7607 164
34.78082 180
34.80093 155
34.82104 176
34.84116 179
34.86127 173
34.88138 175
34.9015 169
34.92161 161
34.94173 166
34.96184 165
34.98195 146
35.00207 162
35.02218 178
35.04229 160
35.06241 192
35.08252 146
35.10264 163
35.12275 145
35.14286 150
35.16298 187
35.18309 151
35.2032 185
35.22332 180
35.24343 183
35.26354 187
35.28366 202
35.30377 192
35.32389 164
35.344 160
35.36411 169
35.38423 159
35.40434 172
35.42445 165
35.44457 175
35.46468 168
35.4848 203
35.50491 179
35.52502 171
35.54514 175
35.56525 152
35.58536 183
35.60548 188
35.62559 172
35.64571 160
35.66582 180
35.68593 178
35.70605 165
35.72616 169
35.74627 153
35.76639 165
35.7865 187
35.80661 185
35.82673 172
35.84684 176
35.86696 159
35.88707 180
35.90718 183
35.9273 180
35.94741 169
35.96752 155
35.98764 198
36.00775 166
36.02787 178
36.04798 189
36.06809 220
36.08821 231
36.10832 210
36.12843 217
36.14855 212
36.16866 237
36.18878 243
36.20889 273
36.229 255
36.24912 274
36.26923 271
36.28934 307
36.30946 354
36.32957 425
36.34968 447
36.3698 567
36.38991 668
36.41003 875
36.43014 1100
36.45025 1399
36.47037 1817
36.49048 2243
36.51059 2711
36.53071 2974
36.55082 2912
36.57094 2362
36.59105 1965
36.61116 1686
36.63128 1537
36.65139 1270
36.6715 828
36.69162 586
36.71173 365
36.73184 329
36.75196 276
36.77207 262
36.79219 238
36.8123 247
36.83241 221
36.85253 217
36.87264 182
36.89275 211
36.91287 184
36.93298 165
36.9531 189
36.97321 164
36.99332 181
37.01344 184
37.03355 162
37.05366 187
37.07378 173
37.09389 140
37.11401 174
37.13412 167
37.15423 171
37.17435 182
37.19446 148
37.21457 145
37.23469 162
37.2548 159
37.27491 167
37.29503 165
37.31514 160
37.33526 128
37.35537 164
37.37548 171
37.3956 179
37.41571 182
37.43582 157
37.45594 147
37.47605 140
37.49617 161
37.51628 172
37.53639 157
37.55651 154
37.57662 147
37.59673 155
37.61685 167
37.63696 154
37.65708 152
37.67719 137
37.6973 154
37.71742 164
37.73753 161
37.75764 157
37.77776 162
37.79787 178
37.81798 160
37.8381 154
37.85821 153
37.87833 146
37.89844 167
37.91855 149
37.93867 145
37.95878 149
37.97889 171
37.99901 167
38.01912 141
38.03924 157
38.05935 169
38.07946 159
38.09958 162
38.11969 172
38.1398 166
38.15992 159
38.18003 163
38.20015 170
38.22026 164
38.24037 150
38.26049 165
38.2806 181
38.30071 168
38.32083 143
38.34094 166
38.36105 170
38.38117 177
38.40128 182
38.4214 182
38.44151 164
38.46162 153
38.48174 156
38.50185 130
38.52196 154
38.54208 160
38.56219 157
38.58231 177
38.60242 154
38.62253 154
38.64265 156
38.66276 138
38.68287 171
38.70299 176
38.7231 168
38.74321 164
38.76333 162
38.78344 144
38.80356 189
38.82367 147
38.84378 169
38.8639 162
38.88401 180
38.90412 194
38.92424 169
38.94435 158
38.96447 168
38.98458 181
39.00469 181
39.02481 198
39.04492 209
39.06503 206
39.08515 214
39.10526 232
39.12538 235
39.14549 244
39.1656 257
39.18572 317
39.20583 303
39.22594 380
39.24606 386
39.26617 484
39.28628 548
39.3064 603
39.32651 752
39.34663 998
39.36674 1244
39.38685 1580
39.40697 1997
39.42708 2288
39.44719 2725
39.46731 2693
39.48742 2278
39.50754 1805
39.52765 1516
39.54776 1500
39.56788 1336
39.58799 1098
39.6081 709
39.62822 458
39.64833 349
39.66845 306
39.68856 267
39.70867 258
39.72879 254
39.7489 244
39.76901 254
39.78913 211
39.80924 226
39.82935 234
39.84947 200
39.86958 205
39.8897 200
39.90981 183
39.92992 219
39.95004 204
39.97015 256
39.99026 232
40.01038 239
40.03049 215
40.05061 288
40.07072 275
40.09083 338
40.11095 372
40.13106 434
40.15117 480
40.17129 564
40.1914 714
40.21152 908
40.23163 1135
40.25174 1263
40.27186 1442
40.29197 1481
40.31208 1257
40.3322 960
40.35231 849
40.37242 831
40.39254 783
40.41265 629
40.43277 441
40.45288 321
40.47299 254
40.49311 235
40.51322 215
40.53333 211
40.55345 185
40.57356 190
40.59368 189
40.61379 197
40.6339 185
40.65402 169
40.67413 173
40.69424 172
40.71436 171
40.73447 167
40.75458 142
40.7747 183
40.79481 153
40.81493 173
40.83504 145
40.85515 160
40.87527 154
40.89538 146
40.91549 137
40.93561 164
40.95572 140
40.97584 154
40.99595 176
41.01606 168
41.03618 144
41.05629 152
41.0764 168
41.09652 156
41.11663 167
41.13675 188
41.15686 187
41.17697 164
41.19709 160
41.2172 194
41.23731 147
41.25743 156
41.27754 144
41.29765 162
41.31777 150
41.33788 179
41.358 163
41.37811 154
41.39822 183
41.41834 168
41.43845 147
41.45856 156
41.47868 158
41.49879 153
41.51891 171
41.53902 162
41.55913 149
41.57925 175
41.59936 154
41.61947 181
41.63959 163
41.6597 175
41.67982 157
41.69993 161
41.72004 178
41.74016 178
41.76027 182
41.78038 165
41.8005 142
41.82061 161
41.84072 163
41.86084 168
41.88095 139
41.90107 160
41.92118 173
41.94129 170
41.96141 194
41.98152 170
42.00163 187
42.02175 183
42.04186 179
42.06198 172
42.08209 231
42.1022 205
42.12232 229
42.14243 243
42.16254 252
42.18266 280
42.20277 285
42.22289 366
42.243 401
42.26311 465
42.28323 516
42.30334 666
42.32345 792
42.34357 956
42.36368 1126
42.38379 1450
42.40391 1774
42.42402 1900
42.44414 1960
42.46425 1779
42.48436 1430
42.50448 1149
42.52459 1023
42.5447 1084
42.56482 938
42.58493 691
42.60505 450
42.62516 330
42.64527 288
42.66539 212
42.6855 221
42.70561 218
42.72573 186
42.74584 218
42.76595 190
42.78607 207
42.80618 184
42.8263 161
42.84641 173
42.86652 165
42.88664 145
42.90675 163
42.92686 165
42.94698 150
42.96709 168
42.98721 154
43.00732 135
43.02743 126
43.04755 149
43.06766 133
43.08777 153
43.10789 166
43.128 166
43.14812 160
43.16823 116
43.18834 135
43.20846 162
43.22857 158
43.24868 164
43.2688 154
43.28891 140
43.30902 137
43.32914 137
43.34925 150
43.36937 159
43.38948 168
43.40959 149
43.42971 141
43.44982 140
43.46993 135
43.49005 128
43.51016 124
43.53028 140
43.55039 144
43.5705 164
43.59062 133
43.61073 142
43.63084 158
43.65096 143
43.67107 156
43.69119 134
43.7113 147
43.73141 125
43.75153 152
43.77164 128
43.79175 140
43.81187 154
43.83198 137
43.85209 137
43.87221 119
43.89232 159
43.91244 144
43.93255 136
43.95266 160
43.97278 142
43.99289 124
44.013 125
44.03312 139
44.05323 137
44.07335 148
44.09346 154
44.11357 143
44.13369 152
44.1538 122
44.17391 138
44.19403 129
44.21414 139
44.23426 135
44.25437 139
44.27448 135
44.2946 145
44.31471 126
44.33482 128
44.35494 157
44.37505 152
44.39516 140
44.41528 137
44.43539 147
44.45551 137
44.47562 136
44.49573 149
44.51585 148
44.53596 145
44.55607 150
44.57619 147
44.5963 144
44.61642 162
44.63653 156
44.65664 130
44.67676 152
44.69687 152
44.71698 149
44.7371 146
44.75721 139
44.77732 133
44.79744 134
44.81755 141
44.83767 119
44.85778 136
44.87789 156
44.89801 142
44.91812 137
44.93823 151
44.95835 162
44.97846 163
44.99858 163
45.01869 164
45.0388 147
45.05892 168
45.07903 156
45.09914 146
45.11926 144
45.13937 158
45.15949 142
45.1796 144
45.19971 155
45.21983 147
45.23994 155
45.26005 143
45.28017 166
45.30028 169
45.32039 171
45.34051 154
45.36062 183
45.38074 169
45.40085 200
45.42096 155
45.44108 171
45.46119 176
45.4813 187
45.50142 194
45.52153 206
45.54165 232
45.56176 266
45.58187 301
45.60199 322
45.6221 391
45.64221 478
45.66233 510
45.68244 685
45.70256 763
45.72267 945
45.74278 1103
45.7629 1220
45.78301 1244
45.80312 1205
45.82324 974
45.84335 711
45.86346 706
45.88358 652
45.90369 681
45.92381 609
45.94392 439
45.96403 310
45.98415 248
46.00426 191
46.02437 184
46.04449 172
46.0646 179
46.08472 162
46.10483 141
46.12494 151
46.14506 168
46.16517 146
46.18528 158
46.2054 168
46.22551 156
46.24563 149
46.26574 130
46.28585 123
46.30597 132
46.32608 150
46.34619 122
46.36631 126
46.38642 114
46.40653 153
46.42665 137
46.44676 149
46.46688 114
46.48699 129
46.5071 120
46.52722 126
46.54733 139
46.56744 118
46.58756 130
46.60767 163
46.62779 136
46.6479 135
46.66801 141
46.68813 132
46.70824 117
46.72835 128
46.74847 117
46.76858 125
46.78869 130
46.80881 122
46.82892 135
46.84904 142
46.86915 141
46.88926 127
46.90938 117
46.92949 130
46.9496 124
46.96972 120
46.98983 122
47.00995 135
47.03006 121
47.05017 150
47.07029 144
47.0904 111
47.11051 120
47.13063 138
47.15074 126
47.17086 132
47.19097 140
47.21108 114
47.2312 126
47.25131 124
47.27142 121
47.29154 136
47.31165 123
47.33176 131
47.35188 146
47.37199 113
47.39211 127
47.41222 145
47.43233 126
47.45245 118
47.47256 147
47.49267 122
47.51279 127
47.5329 118
47.55302 142
47.57313 119
47.59324 139
47.61336 118
47.63347 143
47.65358 128
47.6737 122
47.69381 124
47.71393 131
47.73404 143
47.75415 141
47.77427 115
47.79438 129
47.81449 131
47.83461 131
47.85472 126
47.87483 120
47.89495 137
47.91506 127
47.93518 130
47.95529 130
47.9754 147
47.99552 141
48.01563 115
48.03574 142
48.05586 134
48.07597 118
48.09609 111
48.1162 136
48.13631 128
48.15643 100
48.17654 137
48.19665 126
48.21677 117
48.23688 146
48.257 115
48.27711 122
48.29722 126
48.31734 119
48.33745 142
48.35756 147
48.37768 153
48.39779 149
48.4179 133
48.43802 129
48.45813 158
48.47825 138
48.49836 116
48.51847 146
48.53859 139
48.5587 150
48.57881 140
48.59893 148
48.61904 130
48.63916 122
48.65927 135
48.67938 127
48.6995 145
48.71961 127
48.73972 151
48.75984 134
48.77995 132
48.80006 120
48.82018 135
48.84029 131
48.86041 155
48.88052 142
48.90063 137
48.92075 145
48.94086 127
48.96097 145
48.98109 135
49.0012 130
49.02132 140
49.04143 155
49.06154 150
49.08166 132
49.10177 140
49.12188 146
49.142 135
49.16211 151
49.18223 133
49.20234 150
49.22245 144
49.24257 164
49.26268 147
49.28279 138
49.30291 154
49.32302 166
49.34313 144
49.36325 155
49.38336 184
49.40348 149
49.42359 182
49.4437 160
49.46382 172
49.48393 185
49.50404 172
49.52416 170
49.54427 196
49.56439 186
49.5845 166
49.60461 199
49.62473 189
49.64484 215
49.66495 228
49.68507 227
49.70518 247
49.7253 278
49.74541 271
49.76552 291
49.78564 297
49.80575 353
49.82586 394
49.84598 440
49.86609 508
49.8862 579
49.90632 673
49.92643 779
49.94655 966
49.96666 1143
49.98677 1304
50.00689 1768
50.027 2005
50.04711 2594
50.06723 3134
50.08734 3704
50.10746 4088
50.12757 4270
50.14768 3846
50.1678 2934
50.18791 2271
50.20802 2060
50.22814 2107
50.24825 2167
50.26837 2053
50.28848 1564
50.30859 1069
50.32871 701
50.34882 490
50.36893 375
50.38905 341
50.40916 319
50.42927 289
50.44939 277
50.4695 280
50.48962 270
50.50973 221
50.52984 245
50.54996 256
50.57007 225
50.59018 286
50.6103 255
50.63041 285
50.65053 221
50.67064 206
50.69075 194
50.71087 200
50.73098 213
50.75109 187
50.77121 199
50.79132 162
50.81143 171
50.83155 154
50.85166 157
50.87178 147
50.89189 131
50.912 147
50.93212 159
50.95223 132
50.97234 142
50.99246 138
51.01257 173
51.03269 139
51.0528 124
51.07291 134
51.09303 132
51.11314 129
51.13325 130
51.15337 143
51.17348 132
51.1936 146
51.21371 125
51.23382 130
51.25394 124
51.27405 145
51.29416 128
51.31428 142
51.33439 126
51.3545 128
51.37462 125
51.39473 120
51.41485 128
51.43496 127
51.45507 118
51.47519 137
51.4953 132
51.51541 107
51.53553 129
51.55564 127
51.57576 128
51.59587 117
51.61598 115
51.6361 125
51.65621 124
51.67632 135
51.69644 103
51.71655 116
51.73667 133
51.75678 121
51.77689 136
51.79701 124
51.81712 103
51.83723 121
51.85735 108
51.87746 119
51.89757 125
51.91769 114
51.9378 105
51.95792 141
51.97803 111
51.99814 115
52.01826 128
52.03837 144
52.05848 120
52.0786 122
52.09871 123
52.11883 125
52.13894 142
52.15905 150
52.17917 132
52.19928 120
52.21939 117
52.23951 117
52.25962 117
52.27974 124
52.29985 118
52.31996 134
52.34008 109
52.36019 141
52.3803 112
52.40042 107
52.42053 132
52.44064 129
52.46076 111
52.48087 103
52.50099 98
52.5211 105
52.54121 116
52.56133 133
52.58144 137
52.60155 117
52.62167 112
52.64178 134
52.6619 125
52.68201 113
52.70212 113
52.72224 142
52.74235 115
52.76246 127
52.78258 109
52.80269 131
52.8228 130
52.84292 137
52.86303 127
52.88315 104
52.90326 131
52.92337 140
52.94349 133
52.9636 125
52.98371 137
53.00383 121
53.02394 141
53.04406 115
53.06417 134
53.08428 130
53.1044 129
53.12451 109
53.14462 137
53.16474 137
53.18485 120
53.20497 145
53.22508 120
53.24519 121
53.26531 132
53.28542 127
53.30553 128
53.32565 115
53.34576 136
53.36587 138
53.38599 120
53.4061 126
53.42622 129
53.44633 142
53.46644 113
53.48656 130
53.50667 137
53.52678 117
53.5469 112
53.56701 135
53.58713 135
53.60724 136
53.62735 139
53.64747 156
53.66758 136
53.68769 131
53.70781 138
53.72792 122
53.74804 127
53.76815 152
53.78826 155
53.80838 153
53.82849 139
53.8486 134
53.86872 145
53.88883 109
53.90894 113
53.92906 140
53.94917 125
53.96929 140
53.9894 134
54.00951 127
54.02963 134
54.04974 152
54.06985 157
54.08997 150
54.11008 121
54.1302 124
54.15031 153
54.17042 160
54.19054 137
54.21065 153
54.23076 167
54.25088 137
54.27099 141
54.29111 174
54.31122 129
54.33133 141
54.35145 154
54.37156 150
54.39167 160
54.41179 166
54.4319 175
54.45201 138
54.47213 186
54.49224 221
54.51236 185
54.53247 203
54.55258 208
54.5727 228
54.59281 239
54.61292 285
54.63304 290
54.65315 330
54.67327 344
54.69338 421
54.71349 515
54.73361 561
54.75372 650
54.77383 854
54.79395 1021
54.81406 1149
54.83417 1214
54.85429 1282
54.8744 1215
54.89452 949
54.91463 793
54.93474 705
54.95486 681
54.97497 671
54.99508 732
55.0152 719
55.03531 562
55.05543 500
55.07554 334
55.09565 315
55.11577 277
55.13588 299
55.15599 314
55.17611 341
55.19622 371
55.21634 441
55.23645 495
55.25656 533
55.27668 579
55.29679 607
55.3169 614
55.33702 513
55.35713 479
55.37724 386
55.39736 365
55.41747 342
55.43759 359
55.4577 331
55.47781 331
55.49793 299
55.51804 230
55.53815 186
55.55827 173
55.57838 154
55.5985 150
55.61861 154
55.63872 147
55.65884 152
55.67895 148
55.69906 149
55.71918 137
55.73929 123
55.75941 146
55.77952 117
55.79963 133
55.81975 132
55.83986 123
55.85997 121
55.88009 127
55.9002 125
55.92031 118
55.94043 104
55.96054 120
55.98066 128
56.00077 127
56.02088 116
56.041 125
56.06111 127
56.08122 112
56.10134 120
56.12145 115
56.14157 116
56.16168 131
56.18179 116
56.20191 109
56.22202 125
56.24213 124
56.26225 133
56.28236 120
56.30248 108
56.32259 104
56.3427 131
56.36282 129
56.38293 118
56.40304 98
56.42316 111
56.44327 110
56.46338 109
56.4835 133
56.50361 143
56.52373 126
56.54384 112
56.56395 119
56.58407 123
56.60418 121
56.62429 131
56.64441 102
56.66452 119
56.68464 122
56.70475 131
56.72486 114
56.74498 121
56.76509 121
56.7852 120
56.80532 117
56.82543 116
56.84554 133
56.86566 121
56.88577 112
56.90589 115
56.926 129
56.94611 140
56.96623 127
56.98634 131
57.00645 103
57.02657 123
57.04668 142
57.0668 136
57.08691 136
57.10702 150
57.12714 165
57.14725 181
57.16736 184
57.18748 165
57.20759 178
57.22771 179
57.24782 167
57.26793 146
57.28805 146
57.30816 156
57.32827 160
57.34839 141
57.3685 144
57.38861 151
57.40873 131
57.42884 150
57.44896 132
57.46907 118
57.48918 124
57.5093 103
57.52941 122
57.54952 132
57.56964 111
57.58975 116
57.60987 99
57.62998 128
57.65009 115
57.67021 121
57.69032 127
57.71043 122
57.73055 114
57.75066 115
57.77078 98
57.79089 137
57.811 117
57.83112 106
57.85123 122
57.87134 119
57.89146 143
57.91157 104
57.93168 102
57.9518 128
57.97191 112
57.99203 137
58.01214 140
58.03225 130
58.05237 112
58.07248 119
58.09259 135
58.11271 122
58.13282 124
58.15294 120
58.17305 123
58.19316 124
58.21328 126
58.23339 146
58.2535 120
58.27362 122
58.29373 122
58.31385 129
58.33396 114
58.35407 123
58.37419 107
58.3943 129
58.41441 106
58.43453 132
58.45464 108
58.47475 132
58.49487 118
58.51498 123
58.5351 134
58.55521 143
58.57532 133
58.59544 134
58.61555 123
58.63566 128
58.65578 110
58.67589 145
58.69601 135
58.71612 118
58.73623 143
58.75635 123
58.77646 129
58.79657 117
58.81669 121
58.8368 131
58.85691 143
58.87703 133
58.89714 122
58.91726 133
58.93737 131
58.95748 121
58.9776 135
58.99771 123
59.01782 137
59.03794 120
59.05805 136
59.07817 143
59.09828 120
59.11839 144
59.13851 147
59.15862 149
59.17873 134
59.19885 125
59.21896 137
59.23908 146
59.25919 137
59.2793 143
59.29942 152
59.31953 163
59.33964 151
59.35976 158
59.37987 168
59.39998 162
59.4201 175
59.44021 201
59.46033 182
59.48044 199
59.50055 222
59.52067 226
59.54078 208
59.56089 249
59.58101 266
59.60112 283
59.62124 293
59.64135 340
59.66146 384
59.68158 436
59.70169 452
59.7218 531
59.74192 626
59.76203 734
59.78215 840
59.80226 992
59.82237 1214
59.84249 1510
59.8626 1712
59.88271 2069
59.90283 2283
59.92294 2517
59.94305 2479
59.96317 2226
59.98328 1829
60.0034 1460
60.02351 1209
60.04362 1211
60.06374 1277
60.08385 1305
60.10396 1243
60.12408 1089
60.14419 883
60.16431 609
60.18442 405
60.20453 334
60.22465 246
60.24476 253
60.26487 218
60.28499 221
60.3051 200
60.32522 182
60.34533 182
60.36544 166
60.38556 164
60.40567 187
60.42578 165
60.4459 165
60.46601 168
60.48612 163
60.50624 139
60.52635 131
60.54647 161
60.56658 129
60.58669 125
60.60681 147
60.62692 157
60.64703 137
60.66715 123
60.68726 133
60.70738 136
60.72749 134
60.7476 130
60.76772 128
60.78783 138
60.80794 126
60.82806 115
60.84817 134
60.86828 139
60.8884 150
60.90851 154
60.92863 119
60.94874 126
60.96885 129
60.98897 139
61.00908 99
61.02919 134
61.04931 113
61.06942 124
61.08954 117
61.10965 120
61.12976 103
61.14988 118
61.16999 115
61.1901 109
61.21022 134
61.23033 109
61.25045 120
61.27056 118
61.29067 105
61.31079 124
61.3309 131
61.35101 104
61.37113 120
61.39124 113
61.41135 111
61.43147 118
61.45158 132
61.4717 129
61.49181 135
61.51192 119
61.53204 129
61.55215 139
61.57226 150
61.59238 146
61.61249 133
61.63261 142
61.65272 134
61.67283 117
61.69295 110
61.71306 123
61.73317 123
61.75329 123
61.7734 113
61.79352 138
61.81363 128
61.83374 128
61.85386 132
61.87397 131
61.89408 124
61.9142 122
61.93431 148
61.95442 135
61.97454 131
61.99465 128
62.01477 109
62.03488 124
62.05499 125
62.07511 117
62.09522 143
62.11533 133
62.13545 119
62.15556 136
62.17568 120
62.19579 98
62.2159 116
62.23602 105
62.25613 105
62.27624 119
62.29636 133
62.31647 131
62.33659 126
62.3567 133
62.37681 125
62.39693 131
62.41704 113
62.43715 96
62.45727 115
62.47738 113
62.49749 108
62.51761 112
62.53772 112
62.55784 118
62.57795 118
62.59806 115
62.61818 109
62.63829 123
62.6584 111
62.67852 104
62.69863 117
62.71875 114
62.73886 113
62.75897 114
62.77909 110
62.7992 106
62.81931 115
62.83943 110
62.85954 117
62.87965 117
62.89977 125
62.91988 131
62.94 110
62.96011 125
62.98022 111
63.00034 100
63.02045 104
63.04056 111
63.06068 106
63.08079 111
63.10091 134
63.12102 136
63.14113 104
63.16125 115
63.18136 128
63.20147 129
63.22159 122
63.2417 134
63.26182 138
63.28193 110
63.30204 127
63.32216 117
63.34227 114
63.36238 110
63.3825 104
63.40261 106
63.42272 98
63.44284 122
63.46295 138
63.48307 135
63.50318 114
63.52329 119
63.54341 120
63.56352 131
63.58363 114
63.60375 129
63.62386 127
63.64398 136
63.66409 122
63.6842 135
63.70432 146
63.72443 162
63.74454 158
63.76466 158
63.78477 180
63.80489 176
63.825 204
63.84511 237
63.86523 242
63.88534 256
63.90545 362
63.92557 340
63.94568 411
63.96579 502
63.98591 518
64.00602 541
64.02614 533
64.04625 462
64.06636 388
64.08648 306
64.10659 312
64.1267 311
64.14682 296
64.16693 314
64.18705 349
64.20716 307
64.22727 273
64.24739 209
64.2675 161
64.28761 147
64.30773 152
64.32784 120
64.34796 130
64.36807 115
64.38818 141
64.4083 127
64.42841 138
64.44852 117
64.46864 119
64.48875 136
64.50886 122
64.52898 126
64.54909 133
64.56921 98
64.58932 104
64.60943 122
64.62955 94
64.64966 112
64.66977 115
64.68989 120
64.71 110
64.73012 94
64.75023 129
64.77034 103
64.79046 100
64.81057 125
64.83068 109
64.8508 118
64.87091 108
64.89102 134
64.91114 135
64.93125 119
64.95137 111
64.97148 128
64.99159 125
65.01171 108
65.03182 132
65.05193 102
65.07205 115
65.09216 100
65.11228 110
65.13239 124
65.1525 112
65.17262 125
65.19273 107
65.21284 119
65.23296 134
65.25307 129
65.27319 124
65.2933 106
65.31341 107
65.33353 114
65.35364 138
65.37375 110
65.39387 120
65.41398 140
65.43409 141
65.45421 126
65.47432 122
65.49444 121
65.51455 126
65.53466 136
65.55478 134
65.57489 145
65.595 140
65.61512 151
65.63523 164
65.65535 173
65.67546 179
65.69557 228
65.71569 227
65.7358 221
65.75591 230
65.77603 246
65.79614 210
65.81626 216
65.83637 173
65.85648 169
65.8766 149
65.89671 188
65.91682 162
65.93694 181
65.95705 180
65.97716 146
65.99728 125
66.01739 145
66.03751 127
66.05762 134
66.07773 113
66.09785 110
66.11796 101
66.13807 142
66.15819 140
66.1783 123
66.19842 126
66.21853 127
66.23864 115
66.25876 111
66.27887 145
66.29898 119
66.3191 118
66.33921 97
66.35933 139
66.37944 122
66.39955 126
66.41967 123
66.43978 130
66.45989 133
66.48001 126
66.50012 127
66.52023 137
66.54035 123
66.56046 129
66.58058 124
66.60069 116
66.6208 127
66.64092 131
66.66103 114
66.68114 123
66.70126 116
66.72137 121
66.74149 125
66.7616 149
66.78171 134
66.80183 117
66.82194 138
66.84205 152
66.86217 123
66.88228 150
66.90239 127
66.92251 130
66.94262 119
66.96274 150
66.98285 154
67.00296 152
67.02308 135
67.04319 133
67.0633 170
67.08342 152
67.10353 150
67.12365 150
67.14376 125
67.16387 160
67.18399 172
67.2041 154
67.22421 150
67.24433 174
67.26444 193
67.28456 199
67.30467 204
67.32478 232
67.3449 214
67.36501 222
67.38512 218
67.40524 278
67.42535 315
67.44546 318
67.46558 333
67.48569 398
67.50581 408
67.52592 460
67.54603 495
67.56615 627
67.58626 678
67.60637 784
67.62649 934
67.6466 1122
67.66672 1269
67.68683 1370
67.70694 1459
67.72706 1466
67.74717 1417
67.76728 1229
67.7874 936
67.80751 863
67.82763 837
67.84774 933
67.86785 997
67.88797 1024
67.90808 1113
67.92819 1111
67.94831 1121
67.96842 1091
67.98853 1060
68.00865 1171
68.02876 1262
68.04888 1520
68.06899 1683
68.0891 1877
68.10922 2032
68.12933 2017
68.14944 1931
68.16956 1737
68.18967 1541
68.20979 1463
68.2299 1535
68.25001 1711
68.27013 1825
68.29024 1769
68.31035 1733
68.33047 1569
68.35058 1321
68.3707 968
68.39081 756
68.41092 654
68.43104 708
68.45115 635
68.47126 675
68.49138 616
68.51149 506
68.5316 443
68.55172 324
68.57183 286
68.59195 250
68.61206 222
68.63217 200
68.65229 200
68.6724 204
68.69251 203
68.71263 171
68.73274 164
68.75286 152
68.77297 167
68.79308 169
68.8132 162
68.83331 160
68.85342 168
68.87354 166
68.89365 129
68.91376 127
68.93388 143
68.95399 147
68.97411 137
68.99422 129
69.01433 141
69.03445 142
69.05456 123
69.07467 116
69.09479 127
69.1149 149
69.13502 117
69.15513 124
69.17524 115
69.19536 127
69.21547 128
69.23558 127
69.2557 114
69.27581 125
69.29593 98
69.31604 143
69.33615 115
69.35627 155
69.37638 132
69.39649 117
69.41661 117
69.43672 120
69.45683 140
69.47695 121
69.49706 104
69.51718 100
69.53729 116
69.5574 122
69.57752 122
69.59763 110
69.61774 93
69.63786 104
69.65797 115
69.67809 118
69.6982 130
69.71831 108
69.73843 114
69.75854 109
69.77865 122
69.79877 130
69.81888 110
69.839 127
69.85911 128
69.87922 117
69.89934 127
69.91945 114
69.93956 121
69.95968 112
69.97979 118
69.9999 100
70.02002 105
70.04013 100
70.06025 108
70.08036 109
70.10047 111
70.12059 100
70.1407 120
70.16081 118
70.18093 113
70.20104 117
70.22116 101
70.24127 124
70.26138 118
70.2815 122
70.30161 122
70.32172 106
70.34184 104
70.36195 123
70.38207 119
70.40218 110
70.42229 93
70.44241 109
70.46252 115
70.48263 116
70.50275 94
70.52286 117
70.54297 107
70.56309 99
70.5832 123
70.60332 109
70.62343 114
70.64354 120
70.66366 113
70.68377 97
70.70388 110
70.724 106
70.74411 120
70.76423 116
70.78434 97
70.80445 118
70.82457 101
70.84468 100
70.86479 116
70.88491 97
70.90502 102
70.92513 103
70.94525 95
70.96536 121
70.98548 101
71.00559 98
71.0257 110
71.04582 110
71.06593 103
71.08604 111
71.10616 89
71.12627 104
71.14639 98
71.1665 106
71.18661 94
71.20673 105
71.22684 119
71.24695 103
71.26707 104
71.28718 123
71.3073 106
71.32741 109
71.34752 109
71.36764 108
71.38775 105
71.40786 119
71.42798 112
71.44809 113
71.4682 98
71.48832 98
71.50843 88
71.52855 111
71.54866 102
71.56877 113
71.58889 112
71.609 90
71.62911 109
71.64923 89
71.66934 101
71.68946 100
71.70957 100
71.72968 112
71.7498 113
71.76991 99
71.79002 102
71.81014 102
71.83025 108
71.85037 98
71.87048 118
71.89059 107
71.91071 98
71.93082 126
71.95093 114
71.97105 115
71.99116 108
72.01127 126
72.03139 108
72.0515 81
72.07162 112
72.09173 93
72.11184 101
72.13196 111
72.15207 105
72.17218 107
72.1923 95
72.21241 121
72.23253 114
72.25264 89
72.27275 132
72.29287 104
72.31298 114
72.33309 91
72.35321 113
72.37332 102
72.39344 100
72.41355 100
72.43366 92
72.45378 118
72.47389 111
72.494 104
72.51412 131
72.53423 119
72.55434 119
72.57446 123
72.59457 109
72.61469 116
72.6348 87
72.65491 125
72.67503 124
72.69514 86
72.71525 113
72.73537 98
72.75548 101
72.7756 88
72.79571 120
72.81582 115
72.83594 117
72.85605 112
72.87616 116
72.89628 108
72.91639 147
72.9365 123
72.95662 122
72.97673 120
72.99685 129
73.01696 108
73.03707 137
73.05719 137
73.0773 143
73.09741 143
73.11753 143
73.13764 151
73.15776 160
73.17787 186
73.19798 173
73.2181 203
73.23821 232
73.25832 242
73.27844 255
73.29855 284
73.31867 312
73.33878 378
73.35889 383
73.37901 462
73.39912 494
73.41923 519
73.43935 527
73.45946 544
73.47957 491
73.49969 384
73.5198 341
73.53992 312
73.56003 269
73.58014 290
73.60026 300
73.62037 301
73.64048 352
73.6606 347
73.68071 301
73.70083 269
73.72094 223
73.74105 169
73.76117 141
73.78128 132
73.80139 149
73.82151 110
73.84162 122
73.86174 102
73.88185 132
73.90196 127
73.92208 120
73.94219 122
73.9623 120
73.98242 124
74.00253 114
74.02264 132
74.04276 100
74.06287 106
74.08299 104
74.1031 125
74.12321 92
74.14333 118
74.16344 96
74.18355 124
74.20367 103
74.22378 109
74.2439 101
74.26401 128
74.28412 99
74.30424 113
74.32435 120
74.34446 112
74.36458 104
74.38469 95
74.40481 101
74.42492 112
74.44503 109
74.46515 97
74.48526 121
74.50537 117
74.52549 128
74.5456 109
74.56571 99
74.58583 106
74.60594 104
74.62606 120
74.64617 135
74.66628 98
74.6864 116
74.70651 114
74.72662 108
74.74674 118
74.76685 112
74.78697 117
74.80708 123
74.82719 107
74.84731 116
74.86742 111
74.88753 114
74.90765 116
74.92776 112
74.94787 108
74.96799 118
74.9881 121
75.00822 117
