3.00117 21387
3.02128 20445
3.0414 20419
3.06151 19557
3.08162 19026
3.10174 18803
3.12185 18049
3.14197 17475
3.16208 17121
3.18219 16558
3.20231 16132
3.22242 15661
3.24253 15212
3.26265 15024
3.28276 14248
3.30288 13929
3.32299 13337
3.3431 13081
3.36322 12560
3.38333 12049
3.40344 12010
3.42356 11479
3.44367 10859
3.46379 10774
3.4839 10277
3.50401 10067
3.52413 9443
3.54424 9411
3.56435 9020
3.58447 8525
3.60458 8371
3.62469 7888
3.64481 7816
3.66492 7372
3.68504 7123
3.70515 6975
3.72526 6586
3.74538 6240
3.76549 6033
3.7856 5761
3.80572 5695
3.82583 5325
3.84595 5242
3.86606 5105
3.88617 4806
3.90629 4560
3.9264 4478
3.94651 4252
3.96663 4097
3.98674 3819
4.00686 3823
4.02697 3500
4.04708 3447
4.0672 3270
4.08731 3185
4.10742 3111
4.12754 2814
4.14765 2655
4.16776 2603
4.18788 2439
4.20799 2365
4.22811 2405
4.24822 2232
4.26833 2205
4.28845 2123
4.30856 2112
4.32867 2138
4.34879 1895
4.3689 1886
4.38902 1791
4.40913 1896
4.42924 1895
4.44936 1714
4.46947 1662
4.48958 1588
4.5097 1604
4.52981 1591
4.54992 1472
4.57004 1494
4.59015 1444
4.61027 1405
4.63038 1442
4.65049 1356
4.67061 1291
4.69072 1252
4.71083 1224
4.73095 1333
4.75106 1212
4.77118 1261
4.79129 1203
4.8114 1142
4.83152 1170
4.85163 1016
4.87174 1070
4.89186 1063
4.91197 1027
4.93209 1064
4.9522 996
4.97231 918
4.99243 1004
5.01254 979
5.03265 985
5.05277 935
5.07288 873
5.09299 892
5.11311 907
5.13322 882
5.15334 873
5.17345 791
5.19356 789
5.21368 747
5.23379 787
5.2539 709
5.27402 751
5.29413 765
5.31425 713
5.33436 673
5.35447 690
5.37459 670
5.3947 662
5.41481 685
5.43493 696
5.45504 642
5.47516 659
5.49527 659
5.51538 651
5.5355 569
5.55561 541
5.57572 556
5.59584 587
5.61595 608
5.63606 531
5.65618 552
5.67629 538
5.69641 597
5.71652 552
5.73663 576
5.75675 528
5.77686 484
5.79697 557
5.81709 546
5.8372 528
5.85732 507
5.87743 500
5.89754 523
5.91766 508
5.93777 465
5.95788 470
5.978 462
5.99811 509
6.01823 518
6.03834 455
6.05845 454
6.07857 472
6.09868 469
6.11879 458
6.13891 462
6.15902 458
6.17913 514
6.19925 476
6.21936 479
6.23948 454
6.25959 462
6.2797 463
6.29982 504
6.31993 411
6.34004 433
6.36016 419
6.38027 434
6.40039 442
6.4205 427
6.44061 463
6.46073 431
6.48084 416
6.50095 445
6.52107 416
6.54118 440
6.56129 427
6.58141 453
6.60152 442
6.62164 397
6.64175 401
6.66186 455
6.68198 391
6.70209 453
6.7222 377
6.74232 422
6.76243 442
6.78255 425
6.80266 407
6.82277 398
6.84289 406
6.863 426
6.88311 466
6.90323 418
6.92334 397
6.94346 377
6.96357 422
6.98368 433
7.0038 399
7.02391 399
7.04402 410
7.06414 433
7.08425 434
7.10436 455
7.12448 393
7.14459 462
7.16471 435
7.18482 415
7.20493 433
7.22505 433
7.24516 430
7.26527 427
7.28539 444
7.3055 459
7.32562 425
7.34573 420
7.36584 432
7.38596 442
7.40607 452
7.42618 424
7.4463 450
7.46641 422
7.48653 451
7.50664 423
7.52675 426
7.54687 434
7.56698 441
7.58709 415
7.60721 428
7.62732 445
7.64743 457
7.66755 405
7.68766 428
7.70778 402
7.72789 387
7.748 408
7.76812 418
7.78823 410
7.80834 389
7.82846 391
7.84857 407
7.86869 390
7.8888 385
7.90891 398
7.92903 408
7.94914 429
7.96925 395
7.98937 408
8.00948 381
8.0296 444
8.04971 424
8.06982 399
8.08994 442
8.11005 414
8.13016 396
8.15028 430
8.17039 415
8.1905 403
8.21062 458
8.23073 421
8.25085 400
8.27096 428
8.29107 456
8.31119 410
8.3313 416
8.35141 446
8.37153 500
8.39164 404
8.41176 409
8.43187 414
8.45198 438
8.4721 419
8.49221 405
8.51232 403
8.53244 448
8.55255 468
8.57266 467
8.59278 391
8.61289 387
8.63301 411
8.65312 399
8.67323 412
8.69335 407
8.71346 443
8.73357 461
8.75369 412
8.7738 438
8.79392 454
8.81403 390
8.83414 438
8.85426 433
8.87437 396
8.89448 425
8.9146 420
8.93471 397
8.95483 441
8.97494 392
8.99505 360
9.01517 325
9.03528 372
9.05539 398
9.07551 364
9.09562 366
9.11573 341
9.13585 336
9.15596 345
9.17608 334
9.19619 379
9.2163 336
9.23642 328
9.25653 339
9.27664 295
9.29676 325
9.31687 299
9.33699 302
9.3571 342
9.37721 324
9.39733 342
9.41744 368
9.43755 307
9.45767 329
9.47778 321
9.4979 288
9.51801 305
9.53812 354
9.55824 308
9.57835 336
9.59846 340
9.61858 303
9.63869 264
9.6588 321
9.67892 337
9.69903 276
9.71915 316
9.73926 305
9.75937 318
9.77949 269
9.7996 304
9.81971 313
9.83983 334
9.85994 290
9.88006 313
9.90017 329
9.92028 319
9.9404 291
9.96051 299
9.98062 356
10.00074 315
10.02085 300
10.04097 303
10.06108 300
10.08119 289
10.10131 316
10.12142 301
10.14153 290
10.16165 279
10.18176 322
10.20187 312
10.22199 296
10.2421 308
10.26222 321
10.28233 301
10.30244 307
10.32256 264
10.34267 312
10.36278 285
10.3829 318
10.40301 337
10.42313 310
10.44324 317
10.46335 306
10.48347 315
10.50358 285
10.52369 333
10.54381 319
10.56392 325
10.58403 316
10.60415 306
10.62426 294
10.64438 270
10.66449 308
10.6846 306
10.70472 304
10.72483 273
10.74494 280
10.76506 326
10.78517 282
10.80529 305
10.8254 287
10.84551 290
10.86563 302
10.88574 294
10.90585 297
10.92597 296
10.94608 294
10.9662 308
10.98631 293
11.00642 305
11.02654 320
11.04665 278
11.06676 288
11.08688 294
11.10699 268
11.1271 274
11.14722 268
11.16733 262
11.18745 290
11.20756 307
11.22767 327
11.24779 279
11.2679 302
11.28801 270
11.30813 316
11.32824 280
11.34836 322
11.36847 290
11.38858 290
11.4087 303
11.42881 282
11.44892 315
11.46904 325
11.48915 285
11.50927 286
11.52938 295
11.54949 281
11.56961 306
11.58972 279
11.60983 318
11.62995 309
11.65006 299
11.67017 298
11.69029 290
11.7104 302
11.73052 305
11.75063 295
11.77074 314
11.79086 318
11.81097 314
11.83108 281
11.8512 296
11.87131 288
11.89143 295
11.91154 307
11.93165 284
11.95177 275
11.97188 303
11.99199 311
12.01211 279
12.03222 272
12.05234 278
12.07245 313
12.09256 304
12.11268 286
12.13279 292
12.1529 312
12.17302 301
12.19313 303
12.21324 301
12.23336 293
12.25347 296
12.27359 322
12.2937 310
12.31381 276
12.33393 295
12.35404 337
12.37415 316
12.39427 294
12.41438 322
12.4345 293
12.45461 280
12.47472 314
12.49484 295
12.51495 295
12.53506 303
12.55518 309
12.57529 277
12.5954 297
12.61552 298
12.63563 308
12.65575 291
12.67586 292
12.69597 281
12.71609 280
12.7362 259
12.75631 324
12.77643 278
12.79654 280
12.81666 257
12.83677 268
12.85688 295
12.877 256
12.89711 295
12.91722 278
12.93734 301
12.95745 244
12.97757 265
12.99768 281
13.01779 285
13.03791 281
13.05802 257
13.07813 280
13.09825 286
13.11836 298
13.13847 273
13.15859 284
13.1787 285
13.19882 263
13.21893 285
13.23904 266
13.25916 284
13.27927 279
13.29938 266
13.3195 333
13.33961 293
13.35973 284
13.37984 297
13.39995 273
13.42007 260
13.44018 274
13.46029 267
13.48041 298
13.50052 267
13.52064 304
13.54075 306
13.56086 291
13.58098 327
13.60109 280
13.6212 318
13.64132 317
13.66143 333
13.68154 313
13.70166 302
13.72177 301
13.74189 320
13.762 286
13.78211 288
13.80223 297
13.82234 305
13.84245 262
13.86257 308
13.88268 312
13.9028 309
13.92291 277
13.94302 289
13.96314 276
13.98325 276
14.00336 265
14.02348 305
14.04359 268
14.06371 283
14.08382 275
14.10393 250
14.12405 262
14.14416 267
14.16427 240
14.18439 257
14.2045 309
14.22461 242
14.24473 266
14.26484 296
14.28496 261
14.30507 233
14.32518 278
14.3453 279
14.36541 264
14.38552 274
14.40564 262
14.42575 240
14.44587 275
14.46598 251
14.48609 234
14.50621 267
14.52632 248
14.54643 297
14.56655 239
14.58666 289
14.60677 276
14.62689 268
14.647 256
14.66712 236
14.68723 281
14.70734 264
14.72746 227
14.74757 254
14.76768 264
14.7878 240
14.80791 253
14.82803 243
14.84814 255
14.86825 324
14.88837 283
14.90848 278
14.92859 284
14.94871 307
14.96882 267
14.98894 267
15.00905 269
15.02916 291
15.04928 291
15.06939 283
15.0895 284
15.10962 310
15.12973 280
15.14984 240
15.16996 287
15.19007 262
15.21019 262
15.2303 279
15.25041 258
15.27053 259
15.29064 277
15.31075 271
15.33087 241
15.35098 271
15.3711 262
15.39121 283
15.41132 240
15.43144 216
15.45155 284
15.47166 268
15.49178 228
15.51189 229
15.53201 249
15.55212 279
15.57223 254
15.59235 261
15.61246 245
15.63257 293
15.65269 283
15.6728 237
15.69291 261
15.71303 267
15.73314 265
15.75326 264
15.77337 251
15.79348 263
15.8136 263
15.83371 282
15.85382 244
15.87394 250
15.89405 247
15.91417 240
15.93428 246
15.95439 269
15.97451 259
15.99462 294
16.01473 283
16.03485 251
16.05496 269
16.07508 220
16.09519 255
16.1153 279
16.13542 261
16.15553 266
16.17564 289
16.19576 251
16.21587 301
16.23598 273
16.2561 278
16.27621 263
16.29633 268
16.31644 273
16.33655 262
16.35667 278
16.37678 263
16.39689 274
16.41701 263
16.43712 223
16.45724 278
16.47735 283
16.49746 255
16.51758 246
16.53769 234
16.5578 278
16.57792 262
16.59803 252
16.61814 251
16.63826 290
16.65837 254
16.67849 303
16.6986 275
16.71871 265
16.73883 233
16.75894 267
16.77905 249
16.79917 265
16.81928 259
16.8394 241
16.85951 273
16.87962 275
16.89974 267
16.91985 261
16.93996 260
16.96008 262
16.98019 254
17.00031 254
17.02042 268
17.04053 261
17.06065 266
17.08076 271
17.10087 275
17.12099 275
17.1411 277
17.16121 251
17.18133 259
17.20144 257
17.22156 249
17.24167 276
17.26178 287
17.2819 251
17.30201 262
17.32212 249
17.34224 271
17.36235 266
17.38247 275
17.40258 271
17.42269 268
17.44281 277
17.46292 271
17.48303 294
17.50315 273
17.52326 287
17.54338 266
17.56349 340
17.5836 277
17.60372 269
17.62383 299
17.64394 297
17.66406 285
17.68417 297
17.70428 266
17.7244 264
17.74451 280
17.76463 279
17.78474 281
17.80485 285
17.82497 290
17.84508 253
17.86519 257
17.88531 274
17.90542 275
17.92554 274
17.94565 277
17.96576 258
17.98588 265
18.00599 302
18.0261 289
18.04622 281
18.06633 255
18.08645 265
18.10656 289
18.12667 259
18.14679 272
18.1669 280
18.18701 271
18.20713 274
18.22724 247
18.24735 286
18.26747 252
18.28758 237
18.3077 263
18.32781 275
18.34792 290
18.36804 269
18.38815 264
18.40826 267
18.42838 269
18.44849 295
18.46861 268
18.48872 306
18.50883 246
18.52895 289
18.54906 274
18.56917 304
18.58929 258
18.6094 286
18.62951 257
18.64963 260
18.66974 276
18.68986 279
18.70997 286
18.73008 245
18.7502 244
18.77031 258
18.79042 280
18.81054 277
18.83065 265
18.85077 276
18.87088 295
18.89099 295
18.91111 314
18.93122 302
18.95133 303
18.97145 291
18.99156 302
19.01168 311
19.03179 272
19.0519 262
19.07202 279
19.09213 290
19.11224 296
19.13236 315
19.15247 304
19.17258 329
19.1927 291
19.21281 315
19.23293 340
19.25304 358
19.27315 331
19.29327 325
19.31338 316
19.33349 389
19.35361 389
19.37372 372
19.39384 354
19.41395 330
19.43406 359
19.45418 386
19.47429 359
19.4944 352
19.51452 434
19.53463 424
19.55475 473
19.57486 438
19.59497 443
19.61509 504
19.6352 489
19.65531 511
19.67543 556
19.69554 555
19.71565 478
19.73577 546
19.75588 550
19.776 590
19.79611 574
19.81622 485
19.83634 559
19.85645 545
19.87656 542
19.89668 606
19.91679 546
19.93691 497
19.95702 514
19.97713 500
19.99725 471
20.01736 489
20.03747 452
20.05759 476
20.0777 470
20.09782 448
20.11793 490
20.13804 496
20.15816 447
20.17827 443
20.19838 468
20.2185 468
20.23861 449
20.25872 449
20.27884 480
20.29895 471
20.31907 492
20.33918 487
20.35929 466
20.37941 469
20.39952 471
20.41963 445
20.43975 486
20.45986 495
20.47998 471
20.50009 493
20.5202 516
20.54032 498
20.56043 480
20.58054 569
20.60066 589
20.62077 619
20.64088 730
20.661 846
20.68111 1115
20.70123 1343
20.72134 1698
20.74145 2248
20.76157 2795
20.78168 3486
20.80179 4000
20.82191 4154
20.84202 3942
20.86214 3465
20.88225 2672
20.90236 2027
20.92248 1338
20.94259 943
20.9627 791
20.98282 712
21.00293 642
21.02305 559
21.04316 542
21.06327 540
21.08339 482
21.1035 495
21.12361 487
21.14373 478
21.16384 427
21.18395 441
21.20407 420
21.22418 457
21.2443 389
21.26441 382
21.28452 466
21.30464 396
21.32475 369
21.34486 401
21.36498 396
21.38509 392
21.40521 421
21.42532 366
21.44543 374
21.46555 362
21.48566 386
21.50577 414
21.52589 387
21.546 379
21.56612 385
21.58623 368
21.60634 389
21.62646 375
21.64657 398
21.66668 351
21.6868 367
21.70691 343
21.72702 390
21.74714 346
21.76725 387
21.78737 420
21.80748 394
21.82759 418
21.84771 454
21.86782 450
21.88793 485
21.90805 524
21.92816 589
21.94828 547
21.96839 546
21.9885 584
22.00862 541
22.02873 510
22.04884 486
22.06896 429
22.08907 421
22.10919 382
22.1293 361
22.14941 352
22.16953 373
22.18964 359
22.20975 385
22.22987 310
22.24998 359
22.27009 371
22.29021 372
22.31032 347
22.33044 346
22.35055 355
22.37066 359
22.39078 386
22.41089 370
22.431 390
22.45112 331
22.47123 319
22.49135 359
22.51146 357
22.53157 369
22.55169 369
22.5718 358
22.59191 370
22.61203 359
22.63214 385
22.65225 379
22.67237 369
22.69248 367
22.7126 353
22.73271 333
22.75282 413
22.77294 388
22.79305 398
22.81316 390
22.83328 374
22.85339 390
22.87351 407
22.89362 360
22.91373 399
22.93385 366
22.95396 391
22.97407 393
22.99419 402
23.0143 376
23.03442 437
23.05453 425
23.07464 391
23.09476 403
23.11487 386
23.13498 406
23.1551 381
23.17521 377
23.19532 365
23.21544 359
23.23555 340
23.25567 356
23.27578 365
23.29589 413
23.31601 358
23.33612 387
23.35623 392
23.37635 388
23.39646 404
23.41658 403
23.43669 451
23.4568 451
23.47692 500
23.49703 502
23.51714 548
23.53726 595
23.55737 502
23.57749 481
23.5976 520
23.61771 485
23.63783 461
23.65794 457
23.67805 464
23.69817 456
23.71828 465
23.73839 441
23.75851 433
23.77862 436
23.79874 417
23.81885 451
23.83896 419
23.85908 412
23.87919 475
23.8993 382
23.91942 454
23.93953 436
23.95965 428
23.97976 431
23.99987 454
24.01999 447
24.0401 419
24.06021 428
24.08033 437
24.10044 449
24.12056 428
24.14067 468
24.16078 442
24.1809 438
24.20101 447
24.22112 458
24.24124 441
24.26135 436
24.28146 407
24.30158 450
24.32169 433
24.34181 460
24.36192 462
24.38203 405
24.40215 396
24.42226 390
24.44237 434
24.46249 370
24.4826 408
24.50272 354
24.52283 379
24.54294 390
24.56306 355
24.58317 342
24.60328 341
24.6234 404
24.64351 403
24.66362 366
24.68374 383
24.70385 331
24.72397 344
24.74408 371
24.76419 390
24.78431 359
24.80442 400
24.82453 334
24.84465 343
24.86476 359
24.88488 398
24.90499 364
24.9251 352
24.94522 379
24.96533 371
24.98544 353
25.00556 331
25.02567 378
25.04579 376
25.0659 387
25.08601 376
25.10613 412
25.12624 359
25.14635 365
25.16647 378
25.18658 353
25.20669 386
25.22681 377
25.24692 404
25.26704 372
25.28715 418
25.30726 413
25.32738 449
25.34749 411
25.3676 420
25.38772 430
25.40783 443
25.42795 420
25.44806 478
25.46817 456
25.48829 445
25.5084 474
25.52851 525
25.54863 458
25.56874 457
25.58886 470
25.60897 450
25.62908 490
25.6492 490
25.66931 531
25.68942 497
25.70954 515
25.72965 538
25.74976 508
25.76988 432
25.78999 522
25.81011 499
25.83022 464
25.85033 515
25.87045 470
25.89056 495
25.91067 508
25.93079 481
25.9509 504
25.97102 562
25.99113 489
26.01124 529
26.03136 532
26.05147 597
26.07158 573
26.0917 600
26.11181 581
26.13193 579
26.15204 677
26.17215 670
26.19227 752
26.21238 732
26.23249 787
26.25261 867
26.27272 920
26.29283 977
26.31295 1042
26.33306 1163
26.35318 1302
26.37329 1619
26.3934 1926
26.41352 2410
26.43363 2990
26.45374 4173
26.47386 5548
26.49397 7416
26.51409 9595
26.5342 12416
26.55431 14977
26.57443 17012
26.59454 18206
26.61465 17370
26.63477 15123
26.65488 12234
26.67499 9451
26.69511 6841
26.71522 4545
26.73534 2889
26.75545 2055
26.77556 1518
26.79568 1267
26.81579 1108
26.8359 1039
26.85602 963
26.87613 910
26.89625 834
26.91636 817
26.93647 791
26.95659 752
26.9767 740
26.99681 732
27.01693 697
27.03704 685
27.05716 632
27.07727 636
27.09738 568
27.1175 583
27.13761 563
27.15772 548
27.17784 551
27.19795 526
27.21806 545
27.23818 560
27.25829 525
27.27841 566
27.29852 593
27.31863 525
27.33875 610
27.35886 650
27.37897 618
27.39909 657
27.4192 653
27.43932 668
27.45943 684
27.47954 743
27.49966 671
27.51977 664
27.53988 672
27.56 689
27.58011 661
27.60023 693
27.62034 661
27.64045 790
27.66057 737
27.68068 842
27.70079 835
27.72091 834
27.74102 827
27.76113 854
27.78125 797
27.80136 843
27.82148 862
27.84159 859
27.8617 867
27.88182 879
27.90193 888
27.92204 832
27.94216 819
27.96227 789
27.98239 756
28.0025 695
28.02261 666
28.04273 645
28.06284 581
28.08295 544
28.10307 512
28.12318 524
28.1433 505
28.16341 463
28.18352 465
28.20364 457
28.22375 502
28.24386 491
28.26398 473
28.28409 423
28.3042 447
28.32432 449
28.34443 448
28.36455 403
28.38466 459
28.40477 442
28.42489 415
28.445 430
28.46511 420
28.48523 412
28.50534 380
28.52546 404
28.54557 398
28.56568 357
28.5858 399
28.60591 382
28.62602 316
28.64614 398
28.66625 352
28.68636 350
28.70648 374
28.72659 341
28.74671 375
28.76682 336
28.78693 374
28.80705 360
28.82716 391
28.84727 366
28.86739 371
28.8875 325
28.90762 360
28.92773 388
28.94784 386
28.96796 340
28.98807 375
29.00818 364
29.0283 391
29.04841 382
29.06853 359
29.08864 356
29.10875 439
29.12887 359
29.14898 372
29.16909 391
29.18921 438
29.20932 420
29.22943 457
29.24955 488
29.26966 458
29.28978 504
29.30989 547
29.33 588
29.35012 693
29.37023 660
29.39034 668
29.41046 706
29.43057 679
29.45069 614
29.4708 604
29.49091 553
29.51103 563
29.53114 510
29.55125 500
29.57137 455
29.59148 453
29.6116 476
29.63171 453
29.65182 483
29.67194 461
29.69205 482
29.71216 501
29.73228 554
29.75239 551
29.7725 511
29.79262 530
29.81273 486
29.83285 512
29.85296 431
29.87307 481
29.89319 420
29.9133 436
29.93341 413
29.95353 447
29.97364 387
29.99376 407
30.01387 397
30.03398 383
30.0541 418
30.07421 372
30.09432 421
30.11444 408
30.13455 419
30.15467 424
30.17478 393
30.19489 445
30.21501 395
30.23512 440
30.25523 442
30.27535 398
30.29546 445
30.31557 425
30.33569 405
30.3558 455
30.37592 419
30.39603 451
30.41614 427
30.43626 427
30.45637 420
30.47648 392
30.4966 404
30.51671 397
30.53683 378
30.55694 371
30.57705 369
30.59717 367
30.61728 363
30.63739 362
30.65751 373
30.67762 407
30.69773 405
30.71785 393
30.73796 390
30.75808 408
30.77819 375
30.7983 398
30.81842 404
30.83853 388
30.85864 404
30.87876 356
30.89887 361
30.91899 349
30.9391 367
30.95921 322
30.97933 332
30.99944 310
31.01955 303
31.03967 331
31.05978 337
31.0799 330
31.10001 375
31.12012 322
31.14024 324
31.16035 313
31.18046 330
31.20058 324
31.22069 341
31.2408 325
31.26092 361
31.28103 314
31.30115 300
31.32126 346
31.34137 341
31.36149 370
31.3816 327
31.40171 357
31.42183 358
31.44194 369
31.46206 331
31.48217 326
31.50228 299
31.5224 308
31.54251 346
31.56262 357
31.58274 308
31.60285 305
31.62297 322
31.64308 343
31.66319 317
31.68331 326
31.70342 318
31.72353 310
31.74365 338
31.76376 309
31.78387 317
31.80399 324
31.8241 326
31.84422 324
31.86433 279
31.88444 307
31.90456 317
31.92467 260
31.94478 267
31.9649 299
31.98501 276
32.00513 277
32.02524 335
32.04535 313
32.06547 297
32.08558 300
32.10569 322
32.12581 292
32.14592 301
32.16604 321
32.18615 317
32.20626 298
32.22638 337
32.24649 306
32.2666 330
32.28672 328
32.30683 331
32.32694 320
32.34706 341
32.36717 338
32.38729 362
32.4074 334
32.42751 329
32.44763 352
32.46774 346
32.48785 369
32.50797 350
32.52808 389
32.5482 384
32.56831 387
32.58842 338
32.60854 339
32.62865 341
32.64876 324
32.66888 323
32.68899 324
32.7091 333
32.72922 328
32.74933 323
32.76945 321
32.78956 309
32.80967 324
32.82979 322
32.8499 317
32.87001 329
32.89013 306
32.91024 325
32.93036 344
32.95047 334
32.97058 328
32.9907 314
33.01081 310
33.03092 316
33.05104 347
33.07115 275
33.09127 337
33.11138 343
33.13149 338
33.15161 311
33.17172 293
33.19183 322
33.21195 292
33.23206 337
33.25217 308
33.27229 312
33.2924 330
33.31252 303
33.33263 330
33.35274 310
33.37286 321
33.39297 308
33.41308 348
33.4332 304
33.45331 304
33.47343 309
33.49354 264
33.51365 295
33.53377 328
33.55388 317
33.57399 314
33.59411 336
33.61422 341
33.63434 326
33.65445 323
33.67456 334
33.69468 311
33.71479 309
33.7349 318
33.75502 337
33.77513 303
33.79524 338
33.81536 324
33.83547 348
33.85559 335
33.8757 310
33.89581 323
33.91593 333
33.93604 352
33.95615 350
33.97627 288
33.99638 356
34.0165 345
34.03661 343
34.05672 326
34.07684 334
34.09695 330
34.11706 368
34.13718 394
34.15729 373
34.17741 363
34.19752 354
34.21763 340
34.23775 419
34.25786 362
34.27797 386
34.29809 391
34.3182 388
34.33831 407
34.35843 385
34.37854 421
34.39866 402
34.41877 427
34.43888 443
34.459 440
34.47911 463
34.49922 437
34.51934 419
34.53945 458
34.55957 499
34.57968 510
34.59979 473
34.61991 458
34.64002 448
34.66013 464
34.68025 514
34.70036 492
34.72047 506
34.74059 505
34.7607 529
34.78082 532
34.80093 547
34.82104 478
34.84116 552
34.86127 537
34.88138 566
34.9015 542
34.92161 544
34.94173 542
34.96184 544
34.98195 502
35.00207 521
35.02218 506
35.04229 511
35.06241 465
35.08252 450
35.10264 512
35.12275 470
35.14286 453
35.16298 510
35.18309 494
35.2032 468
35.22332 496
35.24343 479
35.26354 463
35.28366 482
35.30377 479
35.32389 471
35.344 474
35.36411 481
35.38423 484
35.40434 466
35.42445 498
35.44457 502
35.46468 495
35.4848 478
35.50491 554
35.52502 502
35.54514 457
35.56525 508
35.58536 524
35.60548 514
35.62559 486
35.64571 499
35.66582 465
35.68593 424
35.70605 456
35.72616 458
35.74627 401
35.76639 399
35.7865 451
35.80661 431
35.82673 425
35.84684 456
35.86696 393
35.88707 403
35.90718 435
35.9273 406
35.94741 413
35.96752 425
35.98764 409
36.00775 462
36.02787 387
36.04798 407
36.06809 403
36.08821 439
36.10832 399
36.12843 391
36.14855 386
36.16866 403
36.18878 390
36.20889 381
36.229 406
36.24912 428
36.26923 474
36.28934 509
36.30946 526
36.32957 556
36.34968 678
36.3698 733
36.38991 873
36.41003 1022
36.43014 1170
36.45025 1394
36.47037 1513
36.49048 1569
36.51059 1474
36.53071 1318
36.55082 1137
36.57094 1008
36.59105 960
36.61116 828
36.63128 668
36.65139 606
36.6715 491
36.69162 427
36.71173 456
36.73184 410
36.75196 408
36.77207 428
36.79219 373
36.8123 365
36.83241 397
36.85253 396
36.87264 369
36.89275 414
36.91287 366
36.93298 377
36.9531 371
36.97321 381
36.99332 369
37.01344 355
37.03355 381
37.05366 342
37.07378 410
37.09389 355
37.11401 367
37.13412 377
37.15423 354
37.17435 363
37.19446 383
37.21457 399
37.23469 363
37.2548 371
37.27491 342
37.29503 355
37.31514 387
37.33526 346
37.35537 385
37.37548 356
37.3956 351
37.41571 343
37.43582 356
37.45594 369
37.47605 349
37.49617 364
37.51628 344
37.53639 365
37.55651 356
37.57662 408
37.59673 338
37.61685 399
37.63696 349
37.65708 353
37.67719 371
37.6973 346
37.71742 373
37.73753 349
37.75764 363
37.77776 351
37.79787 345
37.81798 306
37.8381 335
37.85821 316
37.87833 337
37.89844 330
37.91855 318
37.93867 310
37.95878 309
37.97889 319
37.99901 346
38.01912 336
38.03924 344
38.05935 352
38.07946 354
38.09958 319
38.11969 323
38.1398 321
38.15992 332
38.18003 292
38.20015 347
38.22026 341
38.24037 315
38.26049 306
38.2806 322
38.30071 320
38.32083 305
38.34094 298
38.36105 313
38.38117 332
38.40128 276
38.4214 346
38.44151 319
38.46162 307
38.48174 306
38.50185 289
38.52196 302
38.54208 303
38.56219 307
38.58231 328
38.60242 331
38.62253 306
38.64265 321
38.66276 310
38.68287 297
38.70299 292
38.7231 313
38.74321 285
38.76333 323
38.78344 313
38.80356 311
38.82367 329
38.84378 309
38.8639 309
38.88401 281
38.90412 301
38.92424 299
38.94435 331
38.96447 334
38.98458 357
39.00469 293
39.02481 332
39.04492 333
39.06503 351
39.08515 341
39.10526 308
39.12538 387
39.14549 360
39.1656 416
39.18572 385
39.20583 435
39.22594 440
39.24606 554
39.26617 601
39.28628 703
39.3064 821
39.32651 939
39.34663 1078
39.36674 1257
39.38685 1380
39.40697 1480
39.42708 1409
39.44719 1277
39.46731 1146
39.48742 958
39.50754 873
39.52765 752
39.54776 674
39.56788 566
39.58799 475
39.6081 412
39.62822 392
39.64833 390
39.66845 348
39.68856 365
39.70867 295
39.72879 310
39.7489 343
39.76901 356
39.78913 318
39.80924 328
39.82935 338
39.84947 340
39.86958 340
39.8897 348
39.90981 306
39.92992 316
39.95004 340
39.97015 357
39.99026 359
40.01038 357
40.03049 370
40.05061 422
40.07072 405
40.09083 450
40.11095 501
40.13106 548
40.15117 617
40.17129 650
40.1914 721
40.21152 798
40.23163 857
40.25174 830
40.27186 685
40.29197 660
40.31208 610
40.3322 570
40.35231 549
40.37242 503
40.39254 456
40.41265 432
40.43277 368
40.45288 326
40.47299 342
40.49311 363
40.51322 359
40.53333 308
40.55345 358
40.57356 312
40.59368 345
40.61379 332
40.6339 311
40.65402 338
40.67413 313
40.69424 346
40.71436 306
40.73447 305
40.75458 327
40.7747 338
40.79481 312
40.81493 304
40.83504 357
40.85515 307
40.87527 323
40.89538 334
40.91549 341
40.93561 319
40.95572 309
40.97584 303
40.99595 347
41.01606 299
41.03618 326
41.05629 307
41.0764 305
41.09652 323
41.11663 333
41.13675 317
41.15686 331
41.17697 319
41.19709 316
41.2172 328
41.23731 317
41.25743 313
41.27754 314
41.29765 323
41.31777 296
41.33788 302
41.358 304
41.37811 321
41.39822 277
41.41834 310
41.43845 307
41.45856 289
41.47868 311
41.49879 282
41.51891 316
41.53902 361
41.55913 324
41.57925 315
41.59936 335
41.61947 345
41.63959 328
41.6597 322
41.67982 338
41.69993 344
41.72004 355
41.74016 335
41.76027 355
41.78038 313
41.8005 310
41.82061 351
41.84072 352
41.86084 316
41.88095 316
41.90107 312
41.92118 316
41.94129 330
41.96141 333
41.98152 326
42.00163 319
42.02175 337
42.04186 334
42.06198 335
42.08209 366
42.1022 380
42.12232 368
42.14243 382
42.16254 432
42.18266 455
42.20277 464
42.22289 494
42.243 565
42.26311 557
42.28323 668
42.30334 738
42.32345 862
42.34357 991
42.36368 969
42.38379 1031
42.40391 1024
42.42402 987
42.44414 823
42.46425 757
42.48436 745
42.50448 708
42.52459 665
42.5447 540
42.56482 463
42.58493 402
42.60505 372
42.62516 351
42.64527 314
42.66539 337
42.6855 326
42.70561 328
42.72573 343
42.74584 323
42.76595 320
42.78607 285
42.80618 315
42.8263 299
42.84641 327
42.86652 274
42.88664 336
42.90675 306
42.92686 293
42.94698 297
42.96709 318
42.98721 293
43.00732 300
43.02743 321
43.04755 323
43.06766 306
43.08777 340
43.10789 333
43.128 322
43.14812 336
43.16823 315
43.18834 323
43.20846 320
43.22857 319
43.24868 291
43.2688 329
43.28891 313
43.30902 272
43.32914 297
43.34925 281
43.36937 269
43.38948 284
43.40959 294
43.42971 267
43.44982 283
43.46993 261
43.49005 307
43.51016 260
43.53028 269
43.55039 272
43.5705 286
43.59062 280
43.61073 285
43.63084 279
43.65096 271
43.67107 279
43.69119 301
43.7113 271
43.73141 271
43.75153 275
43.77164 251
43.79175 292
43.81187 300
43.83198 275
43.85209 288
43.87221 281
43.89232 254
43.91244 275
43.93255 289
43.95266 248
43.97278 272
43.99289 283
44.013 282
44.03312 275
44.05323 270
44.07335 284
44.09346 281
44.11357 259
44.13369 264
44.1538 293
44.17391 276
44.19403 274
44.21414 294
44.23426 296
44.25437 273
44.27448 293
44.2946 274
44.31471 291
44.33482 298
44.35494 287
44.37505 300
44.39516 291
44.41528 277
44.43539 270
44.45551 276
44.47562 282
44.49573 265
44.51585 291
44.53596 266
44.55607 276
44.57619 268
44.5963 257
44.61642 257
44.63653 275
44.65664 300
44.67676 296
44.69687 273
44.71698 269
44.7371 272
44.75721 285
44.77732 296
44.79744 327
44.81755 314
44.83767 299
44.85778 290
44.87789 305
44.89801 292
44.91812 313
44.93823 303
44.95835 314
44.97846 295
44.99858 299
45.01869 292
45.0388 299
45.05892 289
45.07903 294
45.09914 336
45.11926 313
45.13937 320
45.15949 311
45.1796 301
45.19971 313
45.21983 274
45.23994 309
45.26005 289
45.28017 293
45.30028 304
45.32039 303
45.34051 304
45.36062 320
45.38074 282
45.40085 305
45.42096 334
45.44108 332
45.46119 349
45.4813 321
45.50142 355
45.52153 383
45.54165 381
45.56176 389
45.58187 424
45.60199 473
45.6221 523
45.64221 575
45.66233 581
45.68244 653
45.70256 761
45.72267 749
45.74278 788
45.7629 674
45.78301 683
45.80312 576
45.82324 570
45.84335 497
45.86346 514
45.88358 450
45.90369 407
45.92381 377
45.94392 324
45.96403 310
45.98415 309
46.00426 306
46.02437 294
46.04449 314
46.0646 254
46.08472 262
46.10483 305
46.12494 288
46.14506 292
46.16517 291
46.18528 278
46.2054 281
46.22551 269
46.24563 306
46.26574 295
46.28585 258
46.30597 252
46.32608 280
46.34619 265
46.36631 275
46.38642 282
46.40653 229
46.42665 277
46.44676 262
46.46688 268
46.48699 294
46.5071 251
46.52722 261
46.54733 261
46.56744 252
46.58756 253
46.60767 268
46.62779 245
46.6479 266
46.66801 259
46.68813 275
46.70824 274
46.72835 287
46.74847 270
46.76858 259
46.78869 248
46.80881 273
46.82892 253
46.84904 237
46.86915 273
46.88926 284
46.90938 296
46.92949 264
46.9496 270
46.96972 313
46.98983 296
47.00995 274
47.03006 262
47.05017 319
47.07029 308
47.0904 326
47.11051 283
47.13063 318
47.15074 285
47.17086 270
47.19097 315
47.21108 311
47.2312 274
47.25131 271
47.27142 281
47.29154 304
47.31165 304
47.33176 252
47.35188 303
47.37199 282
47.39211 283
47.41222 274
47.43233 289
47.45245 330
47.47256 305
47.49267 306
47.51279 269
47.5329 308
47.55302 324
47.57313 280
47.59324 276
47.61336 291
47.63347 267
47.65358 293
47.6737 277
47.69381 254
47.71393 251
47.73404 280
47.75415 276
47.77427 274
47.79438 238
47.81449 282
47.83461 268
47.85472 284
47.87483 278
47.89495 285
47.91506 267
47.93518 250
47.95529 242
47.9754 243
47.99552 252
48.01563 265
48.03574 246
48.05586 270
48.07597 287
48.09609 270
48.1162 277
48.13631 280
48.15643 273
48.17654 284
48.19665 279
48.21677 277
48.23688 273
48.257 282
48.27711 259
48.29722 280
48.31734 267
48.33745 318
48.35756 278
48.37768 304
48.39779 319
48.4179 347
48.43802 285
48.45813 326
48.47825 302
48.49836 345
48.51847 318
48.53859 291
48.5587 311
48.57881 358
48.59893 324
48.61904 275
48.63916 326
48.65927 311
48.67938 285
48.6995 297
48.71961 282
48.73972 283
48.75984 325
48.77995 268
48.80006 266
48.82018 278
48.84029 265
48.86041 290
48.88052 281
48.90063 278
48.92075 270
48.94086 300
48.96097 305
48.98109 290
49.0012 296
49.02132 267
49.04143 292
49.06154 295
49.08166 290
49.10177 290
49.12188 297
49.142 308
49.16211 305
49.18223 307
49.20234 291
49.22245 285
49.24257 291
49.26268 261
49.28279 313
49.30291 313
49.32302 269
49.34313 334
49.36325 289
49.38336 272
49.40348 307
49.42359 296
49.4437 325
49.46382 291
49.48393 320
49.50404 308
49.52416 295
49.54427 323
49.56439 295
49.5845 267
49.60461 285
49.62473 296
49.64484 333
49.66495 335
49.68507 350
49.70518 359
49.7253 370
49.74541 362
49.76552 388
49.78564 379
49.80575 443
49.82586 445
49.84598 480
49.86609 581
49.8862 618
49.90632 672
49.92643 780
49.94655 931
49.96666 1065
49.98677 1372
50.00689 1495
50.027 1781
50.04711 1869
50.06723 1944
50.08734 1898
50.10746 1821
50.12757 1524
50.14768 1355
50.1678 1184
50.18791 1190
50.20802 1104
50.22814 942
50.24825 869
50.26837 674
50.28848 575
50.30859 432
50.32871 369
50.34882 386
50.36893 348
50.38905 333
50.40916 327
50.42927 347
50.44939 336
50.4695 342
50.48962 340
50.50973 367
50.52984 334
50.54996 341
50.57007 370
50.59018 392
50.6103 341
50.63041 328
50.65053 343
50.67064 330
50.69075 323
50.71087 326
50.73098 323
50.75109 317
50.77121 314
50.79132 310
50.81143 323
50.83155 285
50.85166 284
50.87178 264
50.89189 274
50.912 259
50.93212 280
50.95223 276
50.97234 287
50.99246 249
51.01257 281
51.03269 271
51.0528 299
51.07291 260
51.09303 291
51.11314 252
51.13325 298
51.15337 247
51.17348 287
51.1936 281
51.21371 269
51.23382 257
51.25394 265
51.27405 299
51.29416 273
51.31428 299
51.33439 288
51.3545 280
51.37462 288
51.39473 275
51.41485 278
51.43496 283
51.45507 300
51.47519 252
51.4953 257
51.51541 263
51.53553 256
51.55564 255
51.57576 253
51.59587 273
51.61598 232
51.6361 245
51.65621 234
51.67632 264
51.69644 233
51.71655 249
51.73667 241
51.75678 231
51.77689 288
51.79701 259
51.81712 259
51.83723 226
51.85735 221
51.87746 276
51.89757 260
51.91769 242
51.9378 238
51.95792 260
51.97803 242
51.99814 251
52.01826 260
52.03837 262
52.05848 249
52.0786 280
52.09871 243
52.11883 286
52.13894 249
52.15905 282
52.17917 277
52.19928 245
52.21939 229
52.23951 259
52.25962 265
52.27974 253
52.29985 284
52.31996 267
52.34008 286
52.36019 258
52.3803 243
52.40042 280
52.42053 279
52.44064 266
52.46076 252
52.48087 265
52.50099 257
52.5211 267
52.54121 267
52.56133 251
52.58144 259
52.60155 274
52.62167 263
52.64178 259
52.6619 257
52.68201 288
52.70212 263
52.72224 285
52.74235 248
52.76246 272
52.78258 250
52.80269 256
52.8228 276
52.84292 264
52.86303 286
52.88315 271
52.90326 263
52.92337 295
52.94349 281
52.9636 301
52.98371 288
53.00383 288
53.02394 309
53.04406 308
53.06417 304
53.08428 326
53.1044 297
53.12451 308
53.14462 315
53.16474 323
53.18485 297
53.20497 274
53.22508 287
53.24519 313
53.26531 303
53.28542 310
53.30553 310
53.32565 303
53.34576 276
53.36587 275
53.38599 326
53.4061 292
53.42622 276
53.44633 250
53.46644 288
53.48656 310
53.50667 277
53.52678 332
53.5469 301
53.56701 281
53.58713 293
53.60724 281
53.62735 278
53.64747 287
53.66758 288
53.68769 309
53.70781 274
53.72792 286
53.74804 288
53.76815 312
53.78826 291
53.80838 294
53.82849 290
53.8486 307
53.86872 287
53.88883 292
53.90894 309
53.92906 297
53.94917 277
53.96929 288
53.9894 307
54.00951 324
54.02963 276
54.04974 313
54.06985 301
54.08997 310
54.11008 308
54.1302 289
54.15031 301
54.17042 312
54.19054 304
54.21065 313
54.23076 319
54.25088 294
54.27099 296
54.29111 316
54.31122 291
54.33133 357
54.35145 277
54.37156 294
54.39167 297
54.41179 308
54.4319 302
54.45201 310
54.47213 294
54.49224 326
54.51236 301
54.53247 344
54.55258 338
54.5727 369
54.59281 368
54.61292 376
54.63304 400
54.65315 388
54.67327 466
54.69338 532
54.71349 554
54.73361 619
54.75372 668
54.77383 797
54.79395 762
54.81406 748
54.83417 741
54.85429 690
54.8744 583
54.89452 608
54.91463 559
54.93474 514
54.95486 540
54.97497 495
54.99508 499
55.0152 478
55.03531 403
55.05543 362
55.07554 391
55.09565 380
55.11577 425
55.13588 398
55.15599 448
55.17611 445
55.19622 448
55.21634 430
55.23645 522
55.25656 517
55.27668 483
55.29679 493
55.3169 410
55.33702 425
55.35713 386
55.37724 374
55.39736 378
55.41747 354
55.43759 344
55.4577 335
55.47781 306
55.49793 300
55.51804 311
55.53815 336
55.55827 314
55.57838 274
55.5985 299
55.61861 282
55.63872 284
55.65884 290
55.67895 300
55.69906 290
55.71918 256
55.73929 261
55.75941 299
55.77952 255
55.79963 304
55.81975 263
55.83986 274
55.85997 239
55.88009 277
55.9002 280
55.92031 286
55.94043 283
55.96054 274
55.98066 257
56.00077 299
56.02088 289
56.041 272
56.06111 252
56.08122 280
56.10134 293
56.12145 262
56.14157 279
56.16168 259
56.18179 266
56.20191 299
56.22202 280
56.24213 284
56.26225 286
56.28236 252
56.30248 276
56.32259 272
56.3427 285
56.36282 277
56.38293 266
56.40304 254
56.42316 281
56.44327 311
56.46338 308
56.4835 297
56.50361 304
56.52373 261
56.54384 283
56.56395 312
56.58407 309
56.60418 266
56.62429 310
56.64441 304
56.66452 303
56.68464 298
56.70475 272
56.72486 288
56.74498 293
56.76509 284
56.7852 282
56.80532 266
56.82543 281
56.84554 294
56.86566 255
56.88577 284
56.90589 306
56.926 258
56.94611 270
56.96623 280
56.98634 289
57.00645 267
57.02657 277
57.04668 279
57.0668 282
57.08691 300
57.10702 276
57.12714 275
57.14725 289
57.16736 280
57.18748 308
57.20759 289
57.22771 300
57.24782 308
57.26793 321
57.28805 293
57.30816 267
57.32827 268
57.34839 304
57.3685 298
57.38861 316
57.40873 280
57.42884 265
57.44896 268
57.46907 286
57.48918 291
57.5093 274
57.52941 270
57.54952 286
57.56964 252
57.58975 272
57.60987 282
57.62998 287
57.65009 247
57.67021 293
57.69032 286
57.71043 265
57.73055 250
57.75066 266
57.77078 257
57.79089 253
57.811 266
57.83112 292
57.85123 251
57.87134 257
57.89146 249
57.91157 259
57.93168 248
57.9518 256
57.97191 264
57.99203 241
58.01214 236
58.03225 262
58.05237 256
58.07248 230
58.09259 275
58.11271 265
58.13282 292
58.15294 271
58.17305 285
58.19316 238
58.21328 292
58.23339 265
58.2535 237
58.27362 269
58.29373 264
58.31385 265
58.33396 246
58.35407 276
58.37419 240
58.3943 253
58.41441 283
58.43453 248
58.45464 249
58.47475 264
58.49487 246
58.51498 251
58.5351 262
58.55521 269
58.57532 262
58.59544 245
58.61555 273
58.63566 254
58.65578 286
58.67589 253
58.69601 271
58.71612 294
58.73623 261
58.75635 278
58.77646 246
58.79657 270
58.81669 254
58.8368 279
58.85691 246
58.87703 269
58.89714 240
58.91726 274
58.93737 261
58.95748 267
58.9776 259
58.99771 260
59.01782 256
59.03794 257
59.05805 251
59.07817 288
59.09828 306
59.11839 268
59.13851 269
59.15862 268
59.17873 257
59.19885 265
59.21896 234
59.23908 296
59.25919 307
59.2793 291
59.29942 282
59.31953 273
59.33964 282
59.35976 287
59.37987 264
59.39998 280
59.4201 265
59.44021 303
59.46033 292
59.48044 320
59.50055 312
59.52067 311
59.54078 305
59.56089 340
59.58101 349
59.60112 325
59.62124 377
59.64135 410
59.66146 464
59.68158 462
59.70169 511
59.7218 565
59.74192 628
59.76203 733
59.78215 857
59.80226 999
59.82237 1127
59.84249 1259
59.8626 1281
59.88271 1350
59.90283 1285
59.92294 1176
59.94305 1061
59.96317 948
59.98328 811
60.0034 848
60.02351 824
60.04362 810
60.06374 699
60.08385 681
60.10396 573
60.12408 523
60.14419 431
60.16431 393
60.18442 365
60.20453 357
60.22465 316
60.24476 308
60.26487 303
60.28499 322
60.3051 304
60.32522 323
60.34533 328
60.36544 311
60.38556 267
60.40567 305
60.42578 315
60.4459 279
60.46601 307
60.48612 287
60.50624 275
60.52635 284
60.54647 286
60.56658 302
60.58669 300
60.60681 302
60.62692 308
60.64703 286
60.66715 271
60.68726 254
60.70738 307
60.72749 298
60.7476 287
60.76772 279
60.78783 278
60.80794 271
60.82806 277
60.84817 301
60.86828 264
60.8884 305
60.90851 284
60.92863 305
60.94874 290
60.96885 265
60.98897 306
61.00908 299
61.02919 305
61.04931 315
61.06942 287
61.08954 297
61.10965 321
61.12976 305
61.14988 294
61.16999 311
61.1901 319
61.21022 298
61.23033 286
61.25045 293
61.27056 313
61.29067 347
61.31079 336
61.3309 317
61.35101 319
61.37113 363
61.39124 358
61.41135 308
61.43147 330
61.45158 330
61.4717 349
61.49181 336
61.51192 358
61.53204 335
61.55215 350
61.57226 337
61.59238 344
61.61249 349
61.63261 307
61.65272 320
61.67283 331
61.69295 349
61.71306 372
61.73317 357
61.75329 350
61.7734 288
61.79352 346
61.81363 321
61.83374 322
61.85386 363
61.87397 315
61.89408 325
61.9142 321
61.93431 303
61.95442 330
61.97454 314
61.99465 315
62.01477 316
62.03488 320
62.05499 307
62.07511 324
62.09522 301
62.11533 296
62.13545 312
62.15556 296
62.17568 304
62.19579 277
62.2159 295
62.23602 308
62.25613 289
62.27624 301
62.29636 303
62.31647 322
62.33659 306
62.3567 284
62.37681 282
62.39693 300
62.41704 287
62.43715 286
62.45727 294
62.47738 254
62.49749 282
62.51761 278
62.53772 267
62.55784 303
62.57795 282
62.59806 258
62.61818 279
62.63829 289
62.6584 277
62.67852 273
62.69863 290
62.71875 246
62.73886 270
62.75897 244
62.77909 251
62.7992 294
62.81931 283
62.83943 265
62.85954 284
62.87965 261
62.89977 288
62.91988 278
62.94 262
62.96011 270
62.98022 248
63.00034 239
63.02045 267
63.04056 243
63.06068 275
63.08079 272
63.10091 236
63.12102 258
63.14113 265
63.16125 264
63.18136 270
63.20147 251
63.22159 246
63.2417 240
63.26182 262
63.28193 307
63.30204 257
63.32216 278
63.34227 267
63.36238 286
63.3825 258
63.40261 241
63.42272 299
63.44284 263
63.46295 273
63.48307 283
63.50318 279
63.52329 251
63.54341 271
63.56352 280
63.58363 275
63.60375 297
63.62386 264
63.64398 261
63.66409 316
63.6842 292
63.70432 300
63.72443 292
63.74454 295
63.76466 317
63.78477 290
63.80489 337
63.825 333
63.84511 354
63.86523 355
63.88534 391
63.90545 351
63.92557 449
63.94568 451
63.96579 443
63.98591 433
64.00602 409
64.02614 399
64.04625 353
64.06636 344
64.08648 384
64.10659 330
64.1267 329
64.14682 335
64.16693 361
64.18705 330
64.20716 275
64.22727 246
64.24739 247
64.2675 267
64.28761 266
64.30773 241
64.32784 274
64.34796 219
64.36807 255
64.38818 220
64.4083 221
64.42841 236
64.44852 234
64.46864 245
64.48875 245
64.50886 245
64.52898 255
64.54909 261
64.56921 260
64.58932 246
64.60943 239
64.62955 242
64.64966 269
64.66977 258
64.68989 248
64.71 253
64.73012 284
64.75023 241
64.77034 243
64.79046 268
64.81057 274
64.83068 239
64.8508 235
64.87091 244
64.89102 251
64.91114 249
64.93125 259
64.95137 271
64.97148 248
64.99159 249
65.01171 253
65.03182 241
65.05193 221
65.07205 249
65.09216 232
65.11228 229
65.13239 245
65.1525 224
65.17262 239
65.19273 238
65.21284 232
65.23296 256
65.25307 240
65.27319 250
65.2933 249
65.31341 252
65.33353 253
65.35364 252
65.37375 265
65.39387 252
65.41398 255
65.43409 243
65.45421 239
65.47432 279
65.49444 277
65.51455 257
65.53466 286
65.55478 234
65.57489 260
65.595 272
65.61512 254
65.63523 276
65.65535 262
65.67546 289
65.69557 283
65.71569 302
65.7358 277
65.75591 272
65.77603 284
65.79614 271
65.81626 300
65.83637 261
65.85648 314
65.8766 269
65.89671 243
65.91682 280
65.93694 249
65.95705 276
65.97716 254
65.99728 261
66.01739 246
66.03751 191
66.05762 244
66.07773 284
66.09785 247
66.11796 262
66.13807 207
66.15819 240
66.1783 252
66.19842 256
66.21853 246
66.23864 243
66.25876 274
66.27887 242
66.29898 225
66.3191 239
66.33921 236
66.35933 268
66.37944 252
66.39955 258
66.41967 251
66.43978 234
66.45989 227
66.48001 235
66.50012 254
66.52023 229
66.54035 226
66.56046 248
66.58058 229
66.60069 256
66.6208 237
66.64092 231
66.66103 249
66.68114 228
66.70126 233
66.72137 246
66.74149 257
66.7616 269
66.78171 232
66.80183 215
66.82194 269
66.84205 272
66.86217 237
66.88228 251
66.90239 247
66.92251 240
66.94262 244
66.96274 242
66.98285 252
67.00296 256
67.02308 261
67.04319 252
67.0633 261
67.08342 268
67.10353 272
67.12365 244
67.14376 259
67.16387 234
67.18399 255
67.2041 266
67.22421 241
67.24433 293
67.26444 269
67.28456 324
67.30467 266
67.32478 320
67.3449 302
67.36501 341
67.38512 319
67.40524 314
67.42535 363
67.44546 376
67.46558 367
67.48569 383
67.50581 442
67.52592 494
67.54603 515
67.56615 598
67.58626 657
67.60637 762
67.62649 823
67.6466 811
67.66672 814
67.68683 840
67.70694 777
67.72706 700
67.74717 651
67.76728 579
67.7874 614
67.80751 661
67.82763 696
67.84774 686
67.86785 690
67.88797 663
67.90808 737
67.92819 705
67.94831 712
67.96842 810
67.98853 895
68.00865 920
68.02876 1023
68.04888 1110
68.06899 1159
68.0891 1136
68.10922 1061
68.12933 991
68.14944 923
68.16956 936
68.18967 955
68.20979 995
68.2299 1013
68.25001 1008
68.27013 964
68.29024 867
68.31035 763
68.33047 612
68.35058 593
68.3707 577
68.39081 497
68.41092 508
68.43104 525
68.45115 474
68.47126 412
68.49138 383
68.51149 315
68.5316 322
68.55172 303
68.57183 295
68.59195 282
68.61206 273
68.63217 290
68.65229 258
68.6724 274
68.69251 250
68.71263 283
68.73274 281
68.75286 269
68.77297 254
68.79308 238
68.8132 239
68.83331 248
68.85342 258
68.87354 234
68.89365 290
68.91376 251
68.93388 236
68.95399 223
68.97411 273
68.99422 251
69.01433 228
69.03445 234
69.05456 235
69.07467 252
69.09479 242
69.1149 242
69.13502 256
69.15513 241
69.17524 262
69.19536 249
69.21547 249
69.23558 268
69.2557 224
69.27581 238
69.29593 239
69.31604 231
69.33615 270
69.35627 262
69.37638 252
69.39649 241
69.41661 261
69.43672 244
69.45683 237
69.47695 238
69.49706 245
69.51718 243
69.53729 233
69.5574 230
69.57752 245
69.59763 239
69.61774 229
69.63786 232
69.65797 261
69.67809 261
69.6982 243
69.71831 233
69.73843 234
69.75854 273
69.77865 225
69.79877 244
69.81888 225
69.839 252
69.85911 225
69.87922 225
69.89934 231
69.91945 254
69.93956 242
69.95968 202
69.97979 246
69.9999 261
70.02002 262
70.04013 251
70.06025 242
70.08036 249
70.10047 239
70.12059 221
70.1407 255
70.16081 244
70.18093 243
70.20104 255
70.22116 259
70.24127 279
70.26138 236
70.2815 230
70.30161 253
70.32172 222
70.34184 243
70.36195 224
70.38207 238
70.40218 244
70.42229 227
70.44241 231
70.46252 222
70.48263 224
70.50275 245
70.52286 221
70.54297 221
70.56309 241
70.5832 231
70.60332 252
70.62343 246
70.64354 224
70.66366 192
70.68377 236
70.70388 249
70.724 219
70.74411 227
70.76423 257
70.78434 254
70.80445 253
70.82457 227
70.84468 232
70.86479 283
70.88491 228
70.90502 243
70.92513 227
70.94525 238
70.96536 247
70.98548 260
71.00559 213
71.0257 240
71.04582 232
71.06593 244
71.08604 247
71.10616 222
71.12627 237
71.14639 252
71.1665 238
71.18661 241
71.20673 221
71.22684 229
71.24695 241
71.26707 235
71.28718 256
71.3073 254
71.32741 240
71.34752 225
71.36764 224
71.38775 222
71.40786 231
71.42798 230
71.44809 249
71.4682 247
71.48832 248
71.50843 252
71.52855 235
71.54866 234
71.56877 223
71.58889 227
71.609 242
71.62911 218
71.64923 249
71.66934 248
71.68946 223
71.70957 267
71.72968 224
71.7498 240
71.76991 242
71.79002 222
71.81014 226
71.83025 228
71.85037 244
71.87048 206
71.89059 215
71.91071 220
71.93082 213
71.95093 237
71.97105 228
71.99116 229
72.01127 220
72.03139 219
72.0515 250
72.07162 243
72.09173 216
72.11184 252
72.13196 217
72.15207 223
72.17218 226
72.1923 244
72.21241 257
72.23253 243
72.25264 238
72.27275 236
72.29287 230
72.31298 221
72.33309 237
72.35321 247
72.37332 228
72.39344 236
72.41355 238
72.43366 263
72.45378 246
72.47389 223
72.494 278
72.51412 233
72.53423 224
72.55434 217
72.57446 261
72.59457 232
72.61469 233
72.6348 237
72.65491 236
72.67503 260
72.69514 241
72.71525 230
72.73537 240
72.75548 266
72.7756 261
72.79571 276
72.81582 276
72.83594 289
72.85605 270
72.87616 257
72.89628 243
72.91639 265
72.9365 245
72.95662 254
72.97673 279
72.99685 281
73.01696 257
73.03707 254
73.05719 255
73.0773 284
73.09741 256
73.11753 279
73.13764 239
73.15776 303
73.17787 303
73.19798 293
73.2181 328
73.23821 299
73.25832 304
73.27844 367
73.29855 413
73.31867 392
73.33878 454
73.35889 427
73.37901 466
73.39912 430
73.41923 435
73.43935 417
73.45946 393
73.47957 323
73.49969 300
73.5198 308
73.53992 361
73.56003 353
73.58014 380
73.60026 367
73.62037 353
73.64048 331
73.6606 299
73.68071 300
73.70083 271
73.72094 260
73.74105 280
73.76117 265
73.78128 240
73.80139 232
73.82151 248
73.84162 236
73.86174 235
73.88185 260
73.90196 249
73.92208 213
73.94219 251
73.9623 239
73.98242 240
74.00253 222
74.02264 236
74.04276 248
74.06287 227
74.08299 241
74.1031 234
74.12321 250
74.14333 245
74.16344 234
74.18355 227
74.20367 263
74.22378 215
74.2439 213
74.26401 238
74.28412 231
74.30424 224
74.32435 249
74.34446 251
74.36458 229
74.38469 222
74.40481 224
74.42492 246
74.44503 208
74.46515 234
74.48526 229
74.50537 239
74.52549 229
74.5456 249
74.56571 223
74.58583 217
74.60594 217
74.62606 251
74.64617 270
74.66628 240
74.6864 241
74.70651 226
74.72662 255
74.74674 241
74.76685 218
74.78697 255
74.80708 230
74.82719 234
74.84731 234
74.86742 209
74.88753 236
74.90765 224
74.92776 229
74.94787 239
74.96799 223
74.9881 208
75.00822 235
