3.00117 22203.862333273
3.02128 22122.4278144051
3.0414 21304
3.06151 20379.7443684135
3.08162 20121.5824731256
3.10174 19384.4253153538
3.12185 18751.2983655014
3.14197 18292.5873236889
3.16208 17940.3329059217
3.18219 17447.3995288633
3.20231 16586.7458127687
3.22242 16498.001202383
3.24253 16168.8861839864
3.26265 15408.2934312327
3.28276 15348.1524999224
3.30288 14320.6572617271
3.32299 14201.1087079947
3.3431 13671
3.36322 13488.7323736413
3.38333 12888.721074082
3.40344 12216.7628135354
3.42356 12337.6417177051
3.44367 11471.2380533115
3.46379 11142.9717142423
3.4839 11141
3.50401 10469.7362158501
3.52413 10189.4847138988
3.54424 9663.99427598498
3.56435 9411.91096282228
3.58447 9355.84152617026
3.60458 8494.52810783153
3.62469 8481.96738227207
3.64481 8226.73490256132
3.66492 7731.81702960454
3.68504 7706.42133744338
3.70515 7172.17090022991
3.72526 7115.29539682241
3.74538 6718.43214584053
3.76549 6423.09460242943
3.7856 6239
3.80572 5946.73315774513
3.82583 5765.84566519462
3.84595 5595.07577611675
3.86606 5171.38151675909
3.88617 5157.25958247936
3.90629 4780.14121984404
3.9264 4669
3.94651 4410.89829704561
3.96663 4379.15366876018
3.98674 4364.31182200454
4.00686 3821.77236910964
4.02697 3747.92109453194
4.04708 3708.16201538396
4.0672 3500
4.08731 3410.92603979266
4.10742 3216.89091217029
4.12754 3165.70638258454
4.14765 2890.69137191973
4.16776 2773.82928002546
4.18788 2832.23968287403
4.20799 2447.05066080597
4.22811 2620.00549783656
4.24822 2336.72775499149
4.26833 2305.20816492261
4.28845 2388.68090200146
4.30856 2133.28046898804
4.32867 2157.99824910194
4.34879 2032.08269229509
4.3689 1978
4.38902 2096.8657652662
4.40913 1801.8306075477
4.42924 1930.17882947177
4.44936 1803.48001840841
4.46947 1671.84815134458
4.48958 1842.05008833027
4.5097 1575
4.52981 1598.03897966483
4.54992 1605.96943486048
4.57004 1592.05287864466
4.59015 1608.17220230771
4.61027 1476.14505191406
4.63038 1433.06699095763
4.65049 1343.01610376741
4.67061 1388.03064977658
4.69072 1397.95096683447
4.71083 1325.92435369524
4.73095 1314.00074169048
4.75106 1312.97913553155
4.77118 1308.05993386477
4.79129 1206.04490173598
4.8114 1153
4.83152 1121.01040721617
4.85163 1151.99868577745
4.87174 1116.9617191232
4.89186 1123.01807854457
4.91197 1079.08690988663
4.93209 1038.0064398739
4.9522 1037
4.97231 1006.99217348495
4.99243 1017.02847600984
5.01254 1005.87311839935
5.03265 923.11264039374
5.05277 953.866504902778
5.07288 1014.03959509394
5.09299 913.026234345416
5.11311 931.000756936037
5.13322 880.950659614645
5.15334 872.039836585026
5.17345 879.91674082844
5.19356 841.952521365914
5.21368 871.088272145482
5.23379 724.011170612596
5.2539 832
5.27402 786.966981710912
5.29413 807.999928840893
5.31425 746.783462253788
5.33436 700.94504293495
5.35447 765.949068633162
5.37459 739.024745027187
5.3947 726
5.41481 760.968091447356
5.43493 632.89925737279
5.45504 672.135396288101
5.47516 699.013666585453
5.49527 665.092452116271
5.51538 621.9763685517
5.5355 662
5.55561 572.999563417169
5.57572 654.022113155595
5.59584 594.955437490956
5.61595 634.974341393169
5.63606 580.126661322998
5.65618 553.998826991201
5.67629 545.022984275633
5.69641 493.000388615676
5.71652 536.01615130661
5.73663 506.964250811782
5.75675 538.213795891505
5.77686 613.004596693961
5.79697 535.128878083392
5.81709 505.986761839862
5.8372 526
5.85732 460.024567034328
5.87743 553.044817043098
5.89754 495.925358426001
5.91766 518.964405746261
5.93777 492.068550998746
5.95788 469.981221788889
5.978 495
5.99811 442.991701990854
6.01823 464.996400410924
6.03834 432.992090889583
6.05845 463.962344325719
6.07857 444.035192550301
6.09868 437.001807757905
6.11879 434.99809785801
6.13891 458.024638304655
6.15902 486.954246434079
6.17913 406.971853570665
6.19925 455.064531650295
6.21936 427.049608838578
6.23948 438.974383706743
6.25959 460.988126687638
6.2797 473
6.29982 430.963193142884
6.31993 420.012423922593
6.34004 434.025445417841
6.36016 435.02875955176
6.38027 414.022360398894
6.40039 405.007803908234
6.4205 407
6.44061 477.002329071471
6.46073 433.0036764997
6.48084 479.989933956839
6.50095 419.059395165986
6.52107 448.988535378315
6.54118 418.009615613793
6.56129 437.002569668116
6.58141 408.000217488543
6.60152 424.967665958973
6.62164 352.929055324437
6.64175 370.026635969219
6.66186 360.966744452771
6.68198 394.005669317007
6.70209 361.995394446704
6.7222 411
6.74232 383.978669751092
6.76243 379.96020518067
6.78255 352.079779200649
6.80266 414.993540939467
6.82277 360.031986523303
6.84289 394.989020727418
6.863 379
6.88311 396.010162361146
6.90323 398.98224239751
6.92334 387.000256453817
6.94346 391.024975299109
6.96357 358.054998100516
6.98368 338.996104765733
7.0038 364
7.02391 398.008360998959
7.04402 389.971785270751
7.06414 358.959377500233
7.08425 360.942826390558
7.10436 380.016916053094
7.12448 342.045411171175
7.14459 326.984046213589
7.16471 373.005068025862
7.18482 345.984122608743
7.20493 358.013107677412
7.22505 348.974427532909
7.24516 339.048618586155
7.26527 320.96393953886
7.28539 385.965971045707
7.3055 413
7.32562 367.965044858547
7.34573 369.045561761392
7.36584 395.994211778093
7.38596 356.114297614857
7.40607 329.947777744504
7.42618 392.972108405507
7.4463 362
7.46641 341.009714886411
7.48653 381.044465612512
7.50664 375.932420994483
7.52675 339.048831814039
7.54687 348.952570282696
7.56698 379.984703996708
7.58709 375.00754599311
7.60721 361.995687002274
7.62732 357.998863561727
7.64743 344.943565435242
7.66755 320.095635320157
7.68766 383.004165859877
7.70778 330.000420681211
7.72789 394.980334540887
7.748 372
7.76812 365.999962014384
7.78823 351.957743112287
7.80834 340.070330852306
7.82846 389.004657495782
7.84857 341.034850331512
7.86869 357.0002793206
7.8888 330
7.90891 354.010541146045
7.92903 358.009867331111
7.94914 377.042722306958
7.96925 374.110156898901
7.98937 330.973428381028
8.00948 383.997381303001
8.0296 329
8.04971 341.002163437444
8.06982 320.992539374334
8.08994 337.027369811372
8.11005 346.068195176056
8.13016 371.042693931263
8.15028 316.031521887418
8.17039 332.983065044285
8.1905 341
8.21062 305.000158837675
8.23073 353.097287279645
8.25085 385.955062138748
8.27096 337.080902557492
8.29107 336.949174596911
8.31119 372.993926536909
8.3313 361
8.35141 351.984128721483
8.37153 313.996195963069
8.39164 339.006746564537
8.41176 317.003801972464
8.43187 347.953295391578
8.45198 360.991248710232
8.4721 368
8.49221 362.009987101985
8.51232 372.941432884084
8.53244 294.022428599101
8.55255 389.840338084232
8.57266 367.098253900427
8.59278 339.019497361341
8.61289 324.999159613383
8.63301 345.015319849328
8.65312 370.010058812027
8.67323 359.960684190082
8.69335 345.050511102003
8.71346 384.960363079182
8.73357 369.04218432128
8.75369 350.005878335477
8.7738 349
8.79392 382.045599825813
8.81403 395.913516508088
8.83414 307.927470038922
8.85426 345.893573443628
8.87437 357.04564548976
8.89448 322.002873629692
8.9146 347
8.93471 342.007542039748
8.95483 370.999171820676
8.97494 348.009570696072
8.99505 383.950094590217
9.01517 362.064366835419
9.03528 333.997459484996
9.05539 351.998630342169
9.07551 327.98432145199
9.09562 317.01829512487
9.11573 350.035935540008
9.13585 348.953046260315
9.15596 344.92785359023
9.17608 381.030019250267
9.19619 305.017534254166
9.2163 339
9.23642 350.993118467938
9.25653 339.978533972077
9.27664 324.972997272647
9.29676 317.994541959061
9.31687 327.982572027389
9.33699 326.012654414261
9.3571 302
9.37721 338.006403179351
9.39733 322.998994751513
9.41744 340.998035578902
9.43755 327.951393335005
9.45767 362.021354915689
9.47778 303.036741222861
9.4979 317
9.51801 322.994801317721
9.53812 307.988023704684
9.55824 301.99129182721
9.57835 295.98390455678
9.59846 303.928251212024
9.61858 344.990962747901
9.63869 320.01204495882
9.6588 322
9.67892 333.991175577294
9.69903 306.95761427194
9.71915 300.051250218124
9.73926 329.970526688611
9.75937 320.029993468751
9.77949 306.003174724025
9.7996 317
9.81971 346.991518157085
9.83983 302.984424870599
9.85994 340.076053288429
9.88006 340.062442362719
9.90017 310.004184028207
9.92028 322.011558300179
9.9404 298
9.96051 344.01188966782
9.98062 337.007840167691
10.00074 367.027220848818
10.02085 340.132498848798
10.04097 295.024388855564
10.06108 312.962826729631
10.08119 339.000579986633
10.10131 310.980789981558
10.12142 295.023585273668
10.14153 335.023778566681
10.16165 313.92359835652
10.18176 300.989909771687
10.20187 307.01542581707
10.22199 296.98785997468
10.2421 338
10.26222 299.962222994365
10.28233 302.057376963475
10.30244 331.960704578673
10.32256 288.996545362664
10.34267 333.971539362723
10.36278 314.002725269885
10.3829 339
10.40301 318.995395502265
10.42313 332.013934049674
10.44324 330.009570532724
10.46335 350.929975869127
10.48347 360.041166639822
10.50358 319.013496290164
10.52369 337.992206370806
10.54381 328.990505092319
10.56392 314.991749799464
10.58403 317.024336047718
10.60415 326.947881838627
10.62426 294.00279575312
10.64438 330.961457059871
10.66449 333.018173027872
10.6846 299
10.70472 333.993512501987
10.72483 290.985551842591
10.74494 322.019071620301
10.76506 296.026829805733
10.78517 321.933747214964
10.80529 349.002565535395
10.8254 320
10.84551 321.019832920188
10.86563 369.025669044903
10.88574 339.896421151495
10.90585 312.942518344782
10.92597 353.00179663362
10.94608 310.02682482687
10.9662 323
10.98631 321.993685486779
11.00642 307.986936119735
11.02654 303.016429390579
11.04665 319.96035418273
11.06676 314.07777352215
11.08688 278.982421626045
11.10699 332.987488548605
11.1271 305
11.14722 285.994619970598
11.16733 291.029630439873
11.18745 319.062396582938
11.20756 336.965187208478
11.22767 338.057141993839
11.24779 301.984606747218
11.2679 369
11.28801 311.984893103304
11.30813 333.009281320119
11.32824 312.010399452091
11.34836 342.000561355378
11.36847 299.064470528676
11.38858 283.00399697252
11.4087 294
11.42881 348.011011458943
11.44892 332.984223184324
11.46904 333.99871455542
11.48915 328.984025717393
11.50927 340.010567630678
11.52938 325.987049967116
11.54949 351.006028745804
11.56961 311.996822383567
11.58972 346.022715802678
11.60983 332.967003421532
11.62995 331.051509595126
11.65006 361.948237964411
11.67017 358.065690334144
11.69029 315.993867809545
11.7104 357
11.73052 304.988512650838
11.75063 350.050722250891
11.77074 336.942876880159
11.79086 323.994179910372
11.81097 336.974350480474
11.83108 353.981780879285
11.8512 378
11.87131 394.987259344503
11.89143 351.987851829897
11.91154 371.979049953753
11.93165 332.023670976941
11.95177 361.972158447989
11.97188 355.993037664944
11.99199 378.997872950656
12.01211 366.002977505749
12.03222 381.980937372723
12.05234 338.97916739625
12.07245 367.041055085064
12.09256 360.979495745349
12.11268 384.006838569884
12.13279 352.004810092549
12.1529 372
12.17302 373.034619377906
12.19313 430.03809873623
12.21324 415.983627507621
12.23336 425.015176091294
12.25347 407.978000160901
12.27359 453.982409255864
12.2937 460
12.31381 470.006648022585
12.33393 494.072798085681
12.35404 523.907467061638
12.37415 432.1196159834
12.39427 452.960639020006
12.41438 449.006376844336
12.4345 447
12.45461 413.988261972046
12.47472 403.984244837589
12.49484 379.969943642597
12.51495 365.10037645656
12.53506 320.006248333064
12.55518 356.971751378861
12.57529 343.020577989854
12.5954 323
12.61552 377.002678625087
12.63563 320.921954221395
12.65575 318.074089805715
12.67586 343.00188260652
12.69597 320.030199064085
12.71609 314.002579974138
12.7362 305
12.75631 308.001665545681
12.77643 303.981525597035
12.79654 291.99630657714
12.81666 298.990509319843
12.83677 295.012307238668
12.85688 286.010704550319
12.877 287
12.89711 330.016710705483
12.91722 329.967419762811
12.93734 300.014692526389
12.95745 328.007013080872
12.97757 296.012070787973
12.99768 317.995047811309
13.01779 298.00283917271
13.03791 309.996905649458
13.05802 283.988556780949
13.07813 296.015445286689
13.09825 296.015053254861
13.11836 310.979442165023
13.13847 311.003722301447
13.15859 307.006140658584
13.1787 289
13.19882 275.975898911499
13.21893 253.004449673916
13.23904 289.102629304143
13.25916 333.933994523783
13.27927 328.101103480173
13.29938 251.0107601574
13.3195 309
13.33961 305.980814100603
13.35973 272.989159145647
13.37984 292.051458757729
13.39995 300.037776885134
13.42007 278.010701585774
13.44018 284.004226073141
13.46029 268.002874446816
13.48041 282.010609278957
13.50052 296.00441905439
13.52064 289.969842532318
13.54075 283.042788681513
13.56086 302.035026433161
13.58098 265.99786305125
13.60109 304.991133632919
13.6212 290
13.64132 316.020556987229
13.66143 312.981473063777
13.68154 300.968093154663
13.70166 284.020393759325
13.72177 281.99966622295
13.74189 285.992369055737
13.762 295
13.78211 261.000062508718
13.80223 285.992743745524
13.82234 253.996080234806
13.84245 293.909451626985
13.86257 286.071282203016
13.88268 242.998126138978
13.9028 283
13.92291 272.982221782896
13.94302 248.006993640803
13.96314 278.045277449748
13.98325 270.079435992126
14.00336 242.00593192098
14.02348 256.995452770401
14.04359 253.98968357529
14.06371 300.020595984114
14.08382 301.957738578394
14.10393 253.985674289627
14.12405 276.007797909691
14.14416 254.005889618981
14.16427 273.995885329263
14.18439 257.997949964827
14.2045 294
14.22461 297.976567368872
14.24473 243.996571652622
14.26484 284.029307596508
14.28496 259.022853297504
14.30507 275.989150738787
14.32518 264.00246419124
14.3453 274
14.36541 252.991655134069
14.38552 261.031453296435
14.40564 298.050499721481
14.42575 298.055052344686
14.44587 276.999815542575
14.46598 289.005488072405
14.48609 268.00246762249
14.50621 272.988693911679
14.52632 235.999795524586
14.54643 268.013054498208
14.56655 248.002520501728
14.58666 271.007480364662
14.60677 246.983663882221
14.62689 289.991725623118
14.647 270
14.66712 276.978195723824
14.68723 243.022333233453
14.70734 299.056619901017
14.72746 276.05895542341
14.74757 272.981967787321
14.76768 279.009724444866
14.7878 261
14.80791 264.000180563645
14.82803 252.975235391386
14.84814 252.059882898246
14.86825 295.938206872882
14.88837 292.014604662211
14.90848 286.015573617382
14.92859 263.007241134561
14.94871 259.997929391828
14.96882 265.037032450422
14.98894 303.974717662334
15.00905 257.980329565935
15.02916 290.989317757265
15.04928 252.031399579241
15.06939 255.99212958846
15.0895 266
15.10962 277.006172299806
15.12973 265.947547490003
15.14984 234.010579621842
15.16996 269.949033346481
15.19007 260.044766959438
15.21019 246.98733174486
15.2303 292
15.25041 276.984276593427
15.27053 254.987201386113
15.29064 256.005967528443
15.31075 252.03066458649
15.33087 239.006894823718
15.35098 249.975409498823
15.3711 280
15.39121 289.990290946859
15.41132 260.992378043299
15.43144 268.974585593011
15.45155 244.973179969947
15.47166 284.964905879702
15.49178 264.023845539216
15.51189 258.999877653979
15.53201 251.993513969255
15.55212 234.979994186528
15.57223 235.063500964224
15.59235 289.030028869124
15.61246 264.007943914359
15.63257 292.976291142179
15.65269 267.025048728011
15.6728 231
15.69291 258.012388067183
15.71303 261.990639964505
15.73314 252.97045497648
15.75326 234.036016769488
15.77337 241.918824144165
15.79348 306.980857353277
15.8136 277
15.83371 277.998997160601
15.85382 251.959229423859
15.87394 230.043801223225
15.89405 265.020252828338
15.91417 222.020113690878
15.93428 249.983288343764
15.95439 242.995332768605
15.97451 263.993827011756
15.99462 225.989199076985
16.01473 260.065774466619
16.03485 282.006142156042
16.05496 268.059358917733
16.07508 238.014901553673
16.09519 244.989731526724
16.1153 263
16.13542 248.962013609469
16.15553 219.019907745906
16.17564 256.012127950811
16.19576 228.021040495864
16.21587 250.968217155352
16.23598 247.017432260598
16.2561 235
16.27621 248.008526045977
16.29633 259.00385295549
16.31644 255.992995399578
16.33655 254.00861640177
16.35667 250.996387389469
16.37678 256.997272481909
16.39689 255.00067830263
16.41701 252.995374903229
16.43712 245.008507480397
16.45724 260.998276789041
16.47735 237.934470791582
16.49746 240.90830838819
16.51758 285.016928568692
16.53769 222.017267860624
16.5578 249
16.57792 278.011534897773
16.59803 274.975800269833
16.61814 264.022396775222
16.63826 286.985990453438
16.65837 265.0545493955
16.67849 234.009835163587
16.6986 228
16.71871 240.009654957222
16.73883 262.029535845414
16.75894 262.940925465728
16.77905 232.970022068869
16.79917 278.955933812571
16.81928 262.042739263035
16.8394 229
16.85951 239.002142994394
16.87962 239.020247026853
16.89974 275.044534888001
16.91985 267.064214302429
16.93996 248.000245932844
16.96008 263.982996458984
16.98019 270.999619844093
17.00031 262.988489009952
17.02042 245.013732070315
17.04053 277.015019683116
17.06065 245.872229056091
17.08076 213.986738908759
17.10087 249.94469411893
17.12099 266.997926746419
17.1411 266
17.16121 257.995783435078
17.18133 254.005361109411
17.20144 256.982340331166
17.22156 250.954563612674
17.24167 279.02452571803
17.26178 234.007713603912
17.2819 270
17.30201 250.989045390541
17.32212 254.019879155362
17.34224 262.95632949418
17.36235 219.091489320972
17.38247 222.92632999425
17.40258 283.966149633957
17.42269 271.020520563158
17.44281 239.999539709761
17.46292 266.029882825032
17.48303 270.960731552711
17.50315 236.970381837934
17.52326 255.942534898016
17.54338 267.013620117196
17.56349 251.99303750319
17.5836 284
17.60372 258.972648560198
17.62383 253.012618496329
17.64394 254.963532908799
17.66406 238.95454212111
17.68417 284.974594361243
17.70428 262.02152949477
17.7244 267
17.74451 276.000835043934
17.76463 273.99820870696
17.78474 279.024210256433
17.80485 282.058127009202
17.82497 246.02624413591
17.84508 253.990510833751
17.86519 252.001269898165
17.88531 265.01676010989
17.90542 299.008753239837
17.92554 288.00003683682
17.94565 303.008246836685
17.96576 283.055926462701
17.98588 271.983839484146
18.00599 292.004971773696
18.0261 259
18.04622 259.974797314679
18.06633 224.016980724767
18.08645 274.05508923563
18.10656 258.990447174327
18.12667 284.017084785156
18.14679 239.00927974449
18.1669 265
18.18701 284.018676059298
18.20713 325.001178854866
18.22724 284.924208463159
18.24735 273.010536901681
18.26747 268.9890815615
18.28758 283.992150068537
18.3077 280
18.32781 275.995721696026
18.34792 265.998220618035
18.36804 258.92978340949
18.38815 230.90572949746
18.40826 301.974740655312
18.42838 248.036700721081
18.44849 263.989670250685
18.46861 265.002404247187
18.48872 268.975050913296
18.50883 240.03045030369
18.52895 296.061638232607
18.54906 264.094376023221
18.56917 245.977583854002
18.58929 270.995970145722
18.6094 253
18.62951 239.000735114324
18.64963 253.030617862024
18.66974 270.01881740975
18.68986 267.032433742697
18.70997 253.988443561839
18.73008 274.990882341208
18.7502 264
18.77031 253.992582195247
18.79042 246.019866344222
18.81054 280.026117668164
18.83065 268.016145269096
18.85077 281.972025808981
18.87088 293.990553698988
18.89099 294.010294264514
18.91111 259.985744319051
18.93122 256.02129017509
18.95133 274.98223082082
18.97145 246.997689206098
18.99156 270.992729809991
19.01168 249.00768777736
19.03179 267.990955159636
19.0519 268
19.07202 262.99881168493
19.09213 264.001169024177
19.11224 260.984155345849
19.13236 258.968134228138
19.15247 275.021000343573
19.17258 250.983604345502
19.1927 301
19.21281 284.990995015096
19.23293 284.997844934446
19.25304 281.023556791273
19.27315 308.935822281741
19.29327 317.010841484969
19.31338 299.026478667029
19.33349 280.997147374155
19.35361 305.010743085102
19.37372 308.991860626671
19.39384 296.9743132761
19.41395 295.044505187846
19.43406 317.991577779337
19.45418 306.001990089086
19.47429 324.987705058342
19.4944 334
19.51452 317.002794638718
19.53463 338.020535704526
19.55475 345.064964829831
19.57486 378.990889868255
19.59497 357.012989552175
19.61509 379.983555039778
19.6352 404
19.65531 421.010068802677
19.67543 443.027789201411
19.69554 466.080197548913
19.71565 514.911393694216
19.73577 526.004876887125
19.75588 529.977580990024
19.776 568
19.79611 580.987210080581
19.81622 551.01272408519
19.83634 603.081126282516
19.85645 615.953325441646
19.87656 644.980563673846
19.89668 635.000576010942
19.91679 637.015658243661
19.93691 589.995829483359
19.95702 628.037987234813
19.97713 623.936545366504
19.99725 574.932219514686
20.01736 567.038005096409
20.03747 540.001619256955
20.05759 557.003385223404
20.0777 528
20.09782 543.998412412278
20.11793 525.007316451466
20.13804 554.024284059383
20.15816 539.023147578077
20.17827 541.006907561104
20.19838 527.005759656678
20.2185 538
20.23861 546.995458813369
20.25872 540.023679687582
20.27884 577.007963048506
20.29895 549.03163820613
20.31907 551.046352865632
20.33918 503.99785226365
20.35929 555.981528451305
20.37941 542.983273225113
20.39952 513.97155108912
20.41963 505.050856360566
20.43975 565.113314159597
20.45986 564.07837005508
20.47998 529.99316984033
20.50009 559.001630554719
20.5202 517
20.54032 524.028813445204
20.56043 546.005673488007
20.58054 542.019376380025
20.60066 571.930571655776
20.62077 602.950218068886
20.64088 645.946613141288
20.661 690
20.68111 690.013174683994
20.70123 799.311056716424
20.72134 1081.6240603497
20.74145 1377.32825146101
20.76157 1690.35570320251
20.78168 2294.25071158951
20.80179 3142.54658090958
20.82191 4021.38766407877
20.84202 4725.713997649
20.86214 5289.30552600422
20.88225 5025.92869161165
20.90236 4502.56640740095
20.92248 3496.99977099601
20.94259 2625.40884869943
20.9627 1820
20.98282 1237.60791715985
21.00293 995.763146286815
21.02305 861.754303306062
21.04316 791.119228808606
21.06327 735.061836224609
21.08339 711.007216292587
21.1035 692
21.12361 659.989991815689
21.14373 636.917938282927
21.16384 565.916095026906
21.18395 568.950887971159
21.20407 583.974126037862
21.22418 612.957341601309
21.2443 645
21.26441 600.972498547036
21.28452 566.993110196386
21.30464 592.111787494038
21.32475 621.13861833779
21.34486 534.014568700027
21.36498 601.973136618138
21.38509 555.018642071945
21.40521 565.005887660528
21.42532 540.948239334904
21.44543 495.983930234563
21.46555 511.013234295275
21.48566 492.044573518546
21.50577 483.994956759097
21.52589 485.006064903986
21.546 459
21.56612 455.04039130284
21.58623 496.972057560081
21.60634 429.918055483166
21.62646 446.933647578058
21.64657 456.021100515337
21.66668 427.03642811976
21.6868 397
21.70691 399.009037833485
21.72702 420.012668070207
21.74714 420.993721523836
21.76725 408.089149920512
21.78737 378.969032388402
21.80748 421.00845535359
21.82759 370.006700516697
21.84771 419.027976993331
21.86782 435.986425254545
21.88793 415.983973866904
21.90805 418.006693440849
21.92816 415.005992898275
21.94828 419.98473438461
21.96839 448.978321318217
21.9885 484
22.00862 451.956375096839
22.02873 424.994239103373
22.04884 438.034730303695
22.06896 445.01194321054
22.08907 435.003803280783
22.10919 434.008393739073
22.1293 402
22.14941 383.991341108274
22.16953 375.026257969073
22.18964 402.002335151748
22.20975 374.062367009216
22.22987 379.950447086342
22.24998 408.005865064012
22.27009 385.995744783654
22.29021 426.012717012086
22.31032 421.997090050413
22.33044 423.96047053802
22.35055 384.928165000495
22.37066 383.969198134107
22.39078 400.985006185566
22.41089 406.004841745459
22.431 391
22.45112 388.983180634187
22.47123 361.980047813505
22.49135 370.033677854521
22.51146 371.027388772256
22.53157 356.996308398889
22.55169 369.999640728411
22.5718 355
22.59191 352.996842444788
22.61203 361.081806682068
22.63214 419.97667367219
22.65225 349.108125086062
22.67237 368.950976744637
22.69248 377.003955033779
22.7126 372
22.73271 357.989325436961
22.75282 339.997738726145
22.77294 354.037092685372
22.79305 362.015798726167
22.81316 348.022496073398
22.83328 350.981599579763
22.85339 378.984952969667
22.87351 378.972379411733
22.89362 314.999803033298
22.91373 380.089099299454
22.93385 382.913054524175
22.95396 345.048933802992
22.97407 346.961630345085
22.99419 375.992740716387
23.0143 367
23.03442 358.02750386176
23.05453 394.996379253863
23.07464 358.969639796097
23.09476 384.933913773436
23.11487 398.001081804586
23.13498 395.997237198324
23.1551 401
23.17521 394.99993834294
23.19532 399.998930224949
23.21544 389.978864140282
23.23555 396.914508324328
23.25567 431.005985552546
23.27578 388.044777580539
23.29589 374.992051069529
23.31601 395.000987895891
23.33612 388.014965305164
23.35623 414.99692588266
23.37635 382.945167991309
23.39646 376.052570915113
23.41658 343.989047714559
23.43669 390.986483050674
23.4568 376
23.47692 372.010322058502
23.49703 380.995719867126
23.51714 383.067842124959
23.53726 428.979842152382
23.55737 401.031349727719
23.57749 407.994650548183
23.5976 411
23.61771 405.975815947294
23.63783 347.996288985037
23.65794 406.117650248984
23.67805 414.089583718109
23.69817 370.034618883897
23.71828 371.997402841406
23.73839 367.996636193605
23.75851 377.994173883769
23.77862 360.015968038624
23.79874 403.045088771594
23.81885 393.98746106078
23.83896 399.028676411595
23.85908 367.018105002854
23.87919 377.98800458307
23.8993 398
23.91942 408.00700142892
23.93953 423.048023007253
23.95965 451.990705123442
23.97976 425.022298728846
23.99987 439.981063264769
24.01999 433.007697204657
24.0401 418
24.06021 388.97537405953
24.08033 350.016163455807
24.10044 387.000993966518
24.12056 354.995450560648
24.14067 401.94710979273
24.16078 389.041610092919
24.1809 366
24.20101 404.996953919461
24.22112 357.9765113506
24.24124 394.13502648467
24.26135 429.086949544173
24.28146 365.030389449653
24.30158 405.973752656283
24.32169 396.997108514056
24.34181 420.997657707099
24.36192 383.974021232146
24.38203 381.988458183248
24.40215 370.03738032232
24.42226 403.973185998016
24.44237 383.044970845113
24.46249 356.018367381119
24.4826 331
24.50272 381.024425800096
24.52283 382.048952488392
24.54294 433.00092152674
24.56306 377.097872787839
24.58317 379.943844168001
24.60328 410.999505970752
24.6234 385
24.64351 389.015546618296
24.66362 426.022330254365
24.68374 424.973843823529
24.70385 412.029147968323
24.72397 416.946081092134
24.74408 450.018868567516
24.76419 408.992043934331
24.78431 475.014808468003
24.80442 443.969849771378
24.82453 449.020295729007
24.84465 462.074496214317
24.86476 496.979418053881
24.88488 480.017529604734
24.90499 480.993966031806
24.9251 490
24.94522 477.982673004748
24.96533 464.993438180863
24.98544 464.992141846021
25.00556 462.971853936174
25.02567 482.002448989168
25.04579 463.003674048641
25.0659 472
25.08601 451.984921052433
25.10613 426.977745576573
25.12624 415.964186646247
25.14635 402.962856862114
25.16647 441.945940211622
25.18658 451.015660811734
25.20669 422.016484085549
25.22681 411.014085359554
25.24692 455.018836978976
25.26704 451.031551372952
25.28715 491.064557788354
25.30726 474.100493123149
25.32738 430.00679948066
25.34749 456.986752860246
25.3676 450
25.38772 410.994174141891
25.40783 439.045237690758
25.42795 450.003755416458
25.44806 448.018582783803
25.46817 442.977831686916
25.48829 471.989178240305
25.5084 484
25.52851 512.00679974811
25.54863 496.944914335248
25.56874 463.979975561606
25.58886 480.94226501886
25.60897 504.974824115544
25.62908 519.979537384795
25.6492 538
25.66931 513.981135300068
25.68942 478.974971490508
25.70954 468.001224339044
25.72965 471.003187086078
25.74976 469.979120620392
25.76988 488.986885805669
25.78999 495.992630318637
25.81011 515.002750835225
25.83022 503.987074635858
25.85033 506.029096907934
25.87045 519.957716053751
25.89056 491.98705254412
25.91067 523.995317759442
25.93079 492.009326658738
25.9509 506
25.97102 517.022230293576
25.99113 549.032620742233
26.01124 542.936394746369
26.03136 515.98576920965
26.05147 540.00800491303
26.07158 521.967646446456
26.0917 589
26.11181 557.993814587379
26.13193 601.09541384181
26.15204 646.041051154216
26.17215 649.006491193839
26.19227 660.948316301042
26.21238 704.968228034063
26.23249 731.974771114965
26.25261 796.018968054603
26.27272 811.033524003507
26.29283 881.122833256864
26.31295 951.141969763625
26.33306 1009.8499684945
26.35318 1103.90112591343
26.37329 1184.9740681795
26.3934 1254
26.41352 1451.17601861562
26.43363 1669.58995325928
26.45374 2209.0237105016
26.47386 2705.70069861321
26.49397 3654.19570749162
26.51409 5158.07194941949
26.5342 7365
26.55431 10133.6080094513
26.57443 13811.8814412027
26.59454 17699.3349253179
26.61465 20997.8748315975
26.63477 22996.910628144
26.65488 22358.7074239025
26.67499 19760.7795536026
26.69511 15610.9078206524
26.71522 11751.4055702552
26.73534 8360.86756660791
26.75545 5573.57486117553
26.77556 3315.41950976299
26.79568 2166.75060945808
26.81579 1592.21226002785
26.8359 1292
26.85602 1211.93289364821
26.87613 1116.85984342385
26.89625 1037.80384738837
26.91636 963.10284270643
26.93647 921.096116197375
26.95659 837.034085926359
26.9767 810
26.99681 798.966528269725
27.01693 719.990635728022
27.03704 775.041801399256
27.05716 723.135729999527
27.07727 697.968454166863
27.09738 718.03145330848
27.1175 647
27.13761 647.004048841152
27.15772 620.937020644246
27.17784 554.93832236685
27.19795 557.011128097361
27.21806 517.128840468196
27.23818 475.979531586764
27.25829 524.996941243468
27.27841 483.989556308303
27.29852 513.041816197575
27.31863 535.008687263394
27.33875 551.121225299367
27.35886 607.96452204796
27.37897 591.996422546255
27.39909 643.960034637228
27.4192 716
27.43932 743.023913792812
27.45943 775.048888612652
27.47954 771.864147075673
27.49966 674.122838897252
27.51977 678.944562377017
27.53988 676.080515851348
27.56 564
27.58011 564.990051434135
27.60023 494.896817491286
27.62034 462.981692209436
27.64045 463.967701821175
27.66057 480.983252567953
27.68068 476.021682506397
27.70079 450.008445575893
27.72091 445.999832631059
27.74102 440.991339567054
27.76113 442.034610802524
27.78125 464.97009325498
27.80136 439.962627500991
27.82148 498.961309440973
27.84159 490.012041704558
27.8617 487
27.88182 496.957408737304
27.90193 450.056907705339
27.92204 546.075405682729
27.94216 496.102242156117
27.96227 497.964513815735
27.98239 486.036713006705
28.0025 403
28.02261 454.015642220491
28.04273 423.926086579748
28.06284 389.949717470487
28.08295 373.005400525473
28.10307 387.958076501826
28.12318 405.014168732777
28.1433 372
28.16341 380.007483170987
28.18352 386.000743776031
28.20364 382.981970340127
28.22375 372.9911909267
28.24386 381.959952599619
28.26398 388.03186162191
28.28409 345.999930217988
28.3042 386
28.32432 367.964661868357
28.34443 346.999699382888
28.36455 363.053424544154
28.38466 374.009578086666
28.40477 360.016955683226
28.42489 355.003375842103
28.445 341
28.46511 325.996913635836
28.48523 333.028894372379
28.50534 346.983611204845
28.52546 340.925562586003
28.54557 393.005128698959
28.56568 333.046925285227
28.5858 332
28.60591 330.001165486422
28.62602 351.038556077964
28.64614 376.967354682951
28.66625 331.081550546891
28.68636 334.956606969167
28.70648 350.994578323945
28.72659 340.014192971203
28.74671 311.995887757733
28.76682 324.013592156722
28.78693 331.015817542728
28.80705 344.009860428931
28.82716 346.957518851286
28.84727 365.039448705288
28.86739 307.017525525772
28.8875 313
28.90762 323.037814337048
28.92773 371.016086314626
28.94784 332.897478425567
28.96796 320.909930766453
28.98807 365.049692564165
29.00818 289.007457308637
29.0283 344
29.04841 274.983204103185
29.06853 317.081274468856
29.08864 332.979467649779
29.10875 325.965900000888
29.12887 355.963562741049
29.14898 354.027131079203
29.16909 317.016029020913
29.18921 308.009025479529
29.20932 332.004638226793
29.22943 317.989702399081
29.24955 321.982602733001
29.26966 315.942857506234
29.28978 354.011890327092
29.30989 299.015751665889
29.33 319
29.35012 332.999515778108
29.37023 340.046936226338
29.39034 373.995593684795
29.41046 347.00298574957
29.43057 371.000962479747
29.45069 350.991875342322
29.4708 397
29.49091 361.981911166838
29.51103 362.040747139662
29.53114 385.998398704732
29.55125 360.07425093154
29.57137 339.03071438626
29.59148 322.001848980017
29.6116 339
29.63171 353.99310508779
29.65182 324.98554508128
29.67194 336.036015645624
29.69205 338.960280892491
29.71216 318.016146046711
29.73228 336.957646458827
29.75239 372.00012799325
29.7725 342
29.79262 344.021914294522
29.81273 369.028896035019
29.83285 370.953737606714
29.85296 349.009664922645
29.87307 355.014561384044
29.89319 332.003464024896
29.9133 352
29.93341 357.98537119759
29.95353 307.935807744808
29.97364 300.055110533069
29.99376 336.962317450914
30.01387 335.993767284618
30.03398 345.011626370732
30.0541 324
30.07421 355.007412387023
30.09432 345.999633943772
30.11444 362.015208954683
30.13455 352.030208652663
30.15467 353.974736239421
30.17478 381.965862432532
30.19489 399.009533422758
30.21501 364.995761766737
30.23512 390.026233928802
30.25523 393.985015315185
30.27535 367.86974787882
30.29546 325.968732319997
30.31557 371.997145853559
30.33569 329.006921654595
30.3558 353
30.37592 325.015057096115
30.39603 378.026926545022
30.41614 336.897009936189
30.43626 315.993635205259
30.45637 329.972690281979
30.47648 345.986474852733
30.4966 342
30.51671 299.997547510365
30.53683 329.02603945408
30.55694 315.965946152881
30.57705 312.992455387526
30.59717 314.001369868354
30.61728 311.00531641893
30.63739 314.987419715389
30.65751 344.001545456231
30.67762 333.016148679855
30.69773 375.037510558935
30.71785 366.962695350334
30.73796 364.990271593927
30.75808 362.019360816671
30.77819 348.987559360195
30.7983 389
30.81842 349.97686029061
30.83853 360.008835434146
30.85864 354.022871594102
30.87876 370.043567734721
30.89887 314.065544895113
30.91899 309.991361576592
30.9391 323
30.95921 316.999087196441
30.97933 316.982033037802
30.99944 291.949980236149
31.01955 279.995721266723
31.03967 291.972560821152
31.05978 311.979409997604
31.0799 323
31.10001 303.994007642587
31.12012 296.978460308564
31.14024 274.017190455534
31.16035 310.92832664333
31.18046 303.073727530218
31.20058 271.997413077052
31.22069 306.980865430537
31.2408 319
31.26092 292.981478261783
31.28103 284.982063029668
31.30115 266.971759249144
31.32126 263.016740013157
31.34137 263.946171778354
31.36149 311.994594892662
31.3816 285
31.40171 298.006432320278
31.42183 291.978611949817
31.44194 280.986867167834
31.46206 279.990547622103
31.48217 283.0095021913
31.50228 272.003198184988
31.5224 277
31.54251 269.996281158286
31.56262 279.034607479549
31.58274 311.988748227779
31.60285 271.089196260206
31.62297 265.983112997205
31.64308 285.964722342415
31.66319 309.012030430062
31.68331 257.988782650185
31.70342 275.012465264415
31.72353 271.016948837556
31.74365 292.990368481656
31.76376 263.039308830251
31.78387 276.947725959103
31.80399 301.003213534507
31.8241 284
31.84422 312.994825164575
31.86433 278.990580201823
31.88444 306.01935801153
31.90456 280.058399286381
31.92467 278.960029075143
31.94478 300.017835888492
31.9649 257
31.98501 272.008615504825
32.00513 282.039646902148
32.02524 315.011010036545
32.04535 296.016555164877
32.06547 304.017780841566
32.08558 276.005521863157
32.10569 292.999514050752
32.12581 283.011307618673
32.14592 326.007161948894
32.16604 292.956772465741
32.18615 303.027419098859
32.20626 299.008676214466
32.22638 293.023489146465
32.24649 266.000068132947
32.2666 302
32.28672 324.97287577071
32.30683 280.992265923027
32.32694 320.066401849153
32.34706 317.040337431375
32.36717 298.02740241273
32.38729 294.986228191104
32.4074 333
32.42751 309.983648317049
32.44763 300.029868013773
32.46774 333.043740989285
32.48785 324.089029632309
32.50797 296.980224473908
32.52808 330.996516939667
32.5482 294
32.56831 277.990896457218
32.58842 263.016154817742
32.60854 299.032759884593
32.62865 290.002903529787
32.64876 304.987884611458
32.66888 297.999049899582
32.68899 299.013893658803
32.7091 260
32.72922 298.037380070889
32.74933 299.959245378741
32.76945 264.931674957038
32.78956 261.953751185847
32.80967 294.963337203375
32.82979 287.023070056046
32.8499 251
32.87001 318.011513631341
32.89013 285.975016558039
32.91024 302.998254310632
32.93036 279.995290990737
32.95047 302.017120549681
32.97058 262.010147323067
32.9907 288
33.01081 271.99998657228
33.03092 299.023032004247
33.05104 305.012665819284
33.07115 313.016490633776
33.09127 298.001243142334
33.11138 315.981258401065
33.13149 308.022125364345
33.15161 258.994129723362
33.17172 289.034643617531
33.19183 297.984214113742
33.21195 288.011065540989
33.23206 304.972759169671
33.25217 304.016894742154
33.27229 298.993210166924
33.2924 326
33.31252 324.97373535694
33.33263 290.966934810904
33.35274 298.068099731702
33.37286 329.001883149927
33.39297 313.974303606094
33.41308 355.987250222984
33.4332 320
33.45331 289.99517767713
33.47343 287.989616012927
33.49354 290.07472726484
33.51365 334.013630935268
33.53377 293.010144749974
33.55388 322.003573693906
33.57399 286.998330226765
33.59411 331.008460166354
33.61422 302.976553013131
33.63434 304.998722101217
33.65445 290.975110764467
33.67456 294.978804769326
33.69468 301.999593963347
33.71479 300.997139759432
33.7349 312
33.75502 306.986005233674
33.77513 297.007007762812
33.79524 314.032639331475
33.81536 315.032397473079
33.83547 287.048166783016
33.85559 272.99036723911
33.8757 300
33.89581 274.004361073828
33.91593 313.015314481506
33.93604 277.923962191031
33.95615 268.973459078221
33.97627 276.01531551129
33.99638 268.969687071311
34.0165 317
34.03661 284.986484676888
34.05672 283.998584406627
34.07684 273.99966450436
34.09695 294.913369573278
34.11706 312.050327315781
34.13718 279.978373143637
34.15729 340.987520684722
34.17741 306.979632396422
34.19752 302.021726057081
34.21763 329.029348254183
34.23775 336.003520246459
34.25786 328.0560510819
34.27797 302.981558946585
34.29809 344.98537073917
34.3182 335
34.33831 306.996283953246
34.35843 320.028218771904
34.37854 332.01353614872
34.39866 344.943045846411
34.41877 367.024551855276
34.43888 330.00749201851
34.459 361
34.47911 367.002505089747
34.49922 369.978603709593
34.51934 343.017820677972
34.53945 382.939239003527
34.55957 379.993813951549
34.57968 395.005023940942
34.59979 371.005388178708
34.61991 387.012102284152
34.64002 403.009433325527
34.66013 413.023500035243
34.68025 431.028762637556
34.70036 439.962649943359
34.72047 457.01313285519
34.74059 432.003653872957
34.7607 443
34.78082 444.058543129131
34.80093 507.945734312891
34.82104 407.956052656084
34.84116 490.85462412855
34.86127 491.032231548386
34.88138 490.986673130862
34.9015 512
34.92161 531.992909807572
34.94173 497.976145977873
34.96184 521.090537662506
34.98195 543.077165904646
35.00207 482.057359920835
35.02218 487.980578363937
35.04229 491.006308288809
35.06241 491.020040006244
35.08252 529.968718105375
35.10264 435.841059442449
35.12275 415.016121622749
35.14286 422.970227960933
35.16298 433.012387151544
35.18309 411.999033317675
35.2032 439
35.22332 432.970724542277
35.24343 403.985168148249
35.26354 411.006625519494
35.28366 415.935474491146
35.30377 451.019639931071
35.32389 405.006146071443
35.344 436
35.36411 415.987676822477
35.38423 421.0547193823
35.40434 457.002384695392
35.42445 432.02085954898
35.44457 456.951771767143
35.46468 466.018775654551
35.4848 441
35.50491 442.984365988689
35.52502 401.01029188009
35.54514 460.082200088496
35.56525 458.011853309042
35.58536 461.038736359009
35.60548 419.033917563178
35.62559 414.991164454545
35.64571 419.983060676999
35.66582 390.043221829928
35.68593 457.961964363502
35.70605 346.82285954964
35.72616 379.84801471801
35.74627 423.009272703952
35.76639 392.007525339516
35.7865 403
35.80661 386.986712764844
35.82673 376.028652107343
35.84684 407.020059050617
35.86696 389.040571255905
35.88707 381.0095900956
35.90718 379.981031864195
35.9273 410
35.94741 404.993885813919
35.96752 394.987180094608
35.98764 393.05551060549
36.00775 426.014529768271
36.02787 390.02033790781
36.04798 405.002817567275
36.06809 371.015880838845
36.08821 367.008215844777
36.10832 390.022753145538
36.12843 401.995477073828
36.14855 391.98800150459
36.16866 394.99729638526
36.18878 387.015496291183
36.20889 378.993549929401
36.229 409
36.24912 423.000394458668
36.26923 413.975683805439
36.28934 416.087280380297
36.30946 472.965413223167
36.32957 468.932836724711
36.34968 561.931157645985
36.3698 591
36.38991 668.035353598534
36.41003 743.190092976961
36.43014 932.421963413254
36.45025 1139.47147873027
36.47037 1362.6598474484
36.49048 1555.87662436765
36.51059 1657.9196667957
36.53071 1828.02279762825
36.55082 1743.91321324857
36.57094 1666.64177809957
36.59105 1345.03401078768
36.61116 1059.1739233823
36.63128 1092.02035302737
36.65139 949.079854533174
36.6715 829
36.69162 665.818221054192
36.71173 510.855724275199
36.73184 475.999779542985
36.75196 476.015333972673
36.77207 463.011983099716
36.79219 462.001112119883
36.8123 452
36.83241 444.006164852754
36.85253 469.026107933332
36.87264 469.991049142162
36.89275 468.006187453926
36.91287 466.991808761961
36.93298 477.989570779303
36.9531 476
36.97321 441.98166569445
36.99332 419.9998576075
37.01344 428.996981237326
37.03355 421.969787645266
37.05366 444.998263771486
37.07378 410.051052624275
37.09389 380.993817793728
37.11401 413.005198063725
37.13412 393.984739496033
37.15423 388.968583517295
37.17435 358.986219354736
37.19446 375.991495095466
37.21457 347.070919832419
37.23469 320.989615055667
37.2548 359
37.27491 325.997313890198
37.29503 364.054955177954
37.31514 362.938002082853
37.33526 330.027715567449
37.35537 342.959420800562
37.37548 352.028712091515
37.3956 314
37.41571 356.017432704224
37.43582 365.011245472331
37.45594 377.971615465236
37.47605 348.012689986428
37.49617 360.028659383728
37.51628 321.995901778934
37.53639 372.979369060338
37.55651 376.997535717004
37.57662 376.990440035303
37.59673 355.9706251977
37.61685 345.988543741176
37.63696 348.966081802197
37.65708 376.970810823505
37.67719 391.004167992236
37.6973 374
37.71742 375.982464904473
37.73753 353.018177357688
37.75764 401.088012651716
37.77776 405.065856671665
37.79787 360.052159574009
37.81798 348.995274436337
37.8381 354
37.85821 350.003366521135
37.87833 358.985146207626
37.89844 335.981881215787
37.91855 343.003952869625
37.93867 339.958941025755
37.95878 377.006610074523
37.97889 338.003329919438
37.99901 367.001629766329
38.01912 327.963597304405
38.03924 322.016323493874
38.05935 332.039373276451
38.07946 347.987402762383
38.09958 343.008267690798
38.11969 343.992578855771
38.1398 361
38.15992 348.98973754618
38.18003 359.048899151878
38.20015 392.020668860604
38.22026 378.018032787713
38.24037 381.007509169173
38.26049 377.985443237668
38.2806 420
38.30071 373.969686962894
38.32083 356.070112915126
38.34094 421.028492946958
38.36105 375.116747105302
38.38117 368.973788834126
38.40128 384.993510723922
38.4214 380
38.44151 378.007394254063
38.46162 402.017080680834
38.48174 395.940989695962
38.50185 358.074984077479
38.52196 356.93323973391
38.54208 400.975496241903
38.56219 385.023843128991
38.58231 344.999603385452
38.60242 369.003183276098
38.62253 356.031189125603
38.64265 406.060818998879
38.66276 380.092731167306
38.68287 348.017816281282
38.70299 363.97703578671
38.7231 390
38.74321 305.983625736651
38.76333 341.047183725654
38.78344 328.950487692001
38.80356 325.954558309641
38.82367 349.00951964995
38.84378 321.012021692312
38.8639 333
38.88401 332.00931795412
38.90412 355.987580834103
38.92424 319.990205895456
38.94435 347.97983091973
38.96447 329.000735581155
38.98458 353.988345665892
39.00469 340.006596816821
39.02481 342.002646397755
39.04492 333.97405901071
39.06503 314.022333846081
39.08515 349.028375138394
39.10526 331.01920845162
39.12538 344.984887935366
39.14549 356.986627636427
39.1656 390
39.18572 385.008091471924
39.20583 414.040828288922
39.22594 425.004668005989
39.24606 433.954134886639
39.26617 476.90859557966
39.28628 543.938445003405
39.3064 590
39.32651 668.093956165286
39.34663 899.210838420538
39.36674 947.163562012209
39.38685 1145.33304908799
39.40697 1399.69890621285
39.42708 1539.89309597362
39.44719 1627.9737871525
39.46731 1621.96411895104
39.48742 1490.82551785072
39.50754 1279.49709416774
39.52765 1041.59983459279
39.54776 974.040240715844
39.56788 914.140077330181
39.58799 734.067785356286
39.6081 640
39.62822 464.87538083281
39.64833 412.935512543405
39.66845 349.883090410752
39.68856 342.957330096001
39.70867 362.003769686728
39.72879 342.007036675058
39.7489 332
39.76901 295.999877731089
39.78913 327.025289139094
39.80924 313.972561175361
39.82935 314.001884362437
39.84947 305.015012880409
39.86958 303.989075717515
39.8897 320
39.90981 315.990398320908
39.92992 300.006102337109
39.95004 326.049510556551
39.97015 333.016802329299
39.99026 322.019848742575
40.01038 322.983478722213
40.03049 348.98782517073
40.05061 373.017674997544
40.07072 399.986470055406
40.09083 368.005553016634
40.11095 412.087149345536
40.13106 436.875724595025
40.15117 522.929025512473
40.17129 540.970291528797
40.1914 658
40.21152 745.077789552756
40.23163 833.14004106986
40.25174 923.160210716912
40.27186 976.969346346886
40.29197 954.07429918572
40.31208 888.082659919244
40.3322 795
40.35231 722.983804909348
40.37242 707.964271861546
40.39254 640.860738568732
40.41265 570.241239908564
40.43277 460.12513779363
40.45288 411.044663365756
40.47299 354.027169770128
40.49311 330.010126034198
40.51322 356.982297971469
40.53333 300.945627974821
40.55345 308.041824890093
40.57356 313.983974309672
40.59368 314.031009097147
40.61379 275.000125601561
40.6339 315
40.65402 314.980071841786
40.67413 296.986652388703
40.69424 301.027669088631
40.71436 312.003475895902
40.73447 296.03284108291
40.75458 282.000226147837
40.7747 292
40.79481 301.006909358458
40.81493 313.999405738872
40.83504 298.963327113659
40.85515 293.964904963635
40.87527 312.994008461347
40.89538 309.982156587311
40.91549 327.016834466324
40.93561 262.988369997404
40.95572 296.034389109074
40.97584 302.004013220097
40.99595 313.021015021342
41.01606 312.011587110364
41.03618 302.018074949011
41.05629 283.004218032723
41.0764 278
41.09652 261.022243833346
41.11663 315.062313485565
41.13675 314.931224511649
41.15686 290.011954541904
41.17697 303.971753152693
41.19709 319.98990515771
41.2172 337
41.23731 316.987607519616
41.25743 308.020587275069
41.27754 336.053499149201
41.29765 346.018497215094
41.31777 326.040641036734
41.33788 307.997633440079
41.358 317
41.37811 294.998130310547
41.39822 315.0184180261
41.41834 314.979365931237
41.43845 307.00243430862
41.45856 307.019143574688
41.47868 295.993479289271
41.49879 322.984424238907
41.51891 329.985164287835
41.53902 296.006930499919
41.55913 331.007680608718
41.57925 306.005530798959
41.59936 335.998065011753
41.61947 307.004800316898
41.63959 337.991240783547
41.6597 331
41.67982 349.999208218394
41.69993 329.992913014796
41.72004 345.009855427989
41.74016 329.035625102113
41.76027 330.963098475502
41.78038 357.994166138072
41.8005 345
41.82061 353.001650618862
41.84072 336.968864040321
41.86084 314.00972452488
41.88095 334.985874141287
41.90107 322.005438503939
41.92118 330.006140300705
41.94129 307.008250516769
41.96141 316.015171447504
41.98152 340.996591023159
42.00163 308.943341857213
42.02175 290.005913159772
42.04186 308.943665012995
42.06198 322.01969196789
42.08209 289.004468220026
42.1022 321
42.12232 353.993352028769
42.14243 314.934145579045
42.16254 299.036465250361
42.18266 343.885940379482
42.20277 378.016518836925
42.22289 345.004813821965
42.243 372
42.26311 400.023744127043
42.28323 481.155923847116
42.30334 588.195944436999
42.32345 672.809978876969
42.34357 747.888516531545
42.36368 842.865892229245
42.38379 1007.91742810192
42.40391 1123.02054370353
42.42402 1139.0614900533
42.44414 1237.1068372938
42.46425 1169.54055269141
42.48436 957.304144684465
42.50448 891.038301205483
42.52459 813.062354674256
42.5447 701
42.56482 706.927667666622
42.58493 549.801851111714
42.60505 487.86866210117
42.62516 417.107775525803
42.64527 380.080186085198
42.66539 324.004870774452
42.6855 352
42.70561 314.973959927977
42.72573 277.968124040919
42.74584 275.035655539408
42.76595 294.005948810183
42.78607 277.003635422217
42.80618 294.985066655965
42.8263 299
42.84641 304.990657225437
42.86652 267.973749263656
42.88664 268.026748646694
42.90675 277.001095540993
42.92686 271.005502895669
42.94698 271.006510602917
42.96709 257.006481436591
42.98721 257.008289090409
43.00732 268.982452602952
43.02743 243.017608468348
43.04755 285.046516629274
43.06766 267.029193881121
43.08777 276.976197489514
43.10789 279.006528733835
43.128 264
43.14812 275.010684455069
43.16823 275.99312867803
43.18834 268.97939554075
43.20846 263.980041330494
43.22857 280.990639271315
43.24868 274.004987358809
43.2688 273
43.28891 260.001993971988
43.30902 269.985308487521
43.32914 238.984025935972
43.34925 259.958251548444
43.36937 260.989775417697
43.38948 275.996244400725
43.40959 269.997454258298
43.42971 292.011799975449
43.44982 292.969082111165
43.46993 249.961896466678
43.49005 251.018392363279
43.51016 249.013956397349
43.53028 245.994385188327
43.55039 258.992839714783
43.5705 265
43.59062 247.977584845372
43.61073 251.081251676248
43.63084 309.981997194604
43.65096 249.047559120772
43.67107 283.95969232557
43.69119 272.007435530519
43.7113 272
43.73141 265.00331287127
43.75153 284.018757441652
43.77164 276.958049037479
43.79175 253.05217393448
43.81187 247.972795381872
43.83198 272.992137010799
43.85209 264.000862923919
43.87221 276.003981631577
43.89232 267.981749999316
43.91244 260.03465226363
43.93255 281.977215067998
43.95266 243.062754265536
43.97278 242.981520546536
43.99289 258.997440136651
44.013 254
44.03312 255.00731613396
44.05323 266.019002652311
44.07335 278.026666784754
44.09346 284.003362161187
44.11357 271.037321271712
44.13369 255.991154227564
44.1538 292
44.17391 282.998027590317
44.19403 288.985184443075
44.21414 263.973163847831
44.23426 266.010055440121
44.25437 252.998839591687
44.27448 270.98327439945
44.2946 269
44.31471 251.001586226644
44.33482 271.013220375959
44.35494 273.019140813989
44.37505 285.024316899925
44.39516 257.036794317564
44.41528 256.003411310462
44.43539 240.009346367367
44.45551 237.010745302926
44.47562 270.022312995105
44.49573 265.963536652182
44.51585 243.993205442395
44.53596 256.98334451765
44.55607 253.005664182551
44.57619 268.978722833515
44.5963 309
44.61642 271.963874197141
44.63653 258.992132292678
44.65664 244.952960938735
44.67676 231.962457527657
44.69687 270.960806559094
44.71698 276.988822842297
44.7371 297
44.75721 280.986925896985
44.77732 265.002380446934
44.79744 273.991542780817
44.81755 256.030497662545
44.83767 257.991971950654
44.85778 258.003255344956
44.87789 254.002127652919
44.89801 255.00566491461
44.91812 271.009695894053
44.93823 270.996392574417
44.95835 268.984862070437
44.97846 257.030044374689
44.99858 253.978511467171
45.01869 284.99373662213
45.0388 271
45.05892 262.002027653629
45.07903 261.9787289422
45.09914 247.019744531326
45.11926 280.937852920026
45.13937 280.053878104003
45.15949 247.992832875441
45.1796 293
45.19971 277.001574900241
45.21983 301.995536609994
45.23994 270.981114186703
45.26005 297.928540958652
45.28017 297.041013431864
45.30028 271.996660300399
45.32039 294.996071114972
45.34051 281.99757161909
45.36062 294.008659059073
45.38074 294.012015860883
45.40085 305.000550988742
45.42096 296.995922665186
45.44108 305.008367352507
45.46119 283.005140442199
45.4813 302
45.50142 343.027336232229
45.52153 346.976526234077
45.54165 344.095742534353
45.56176 394.988969103213
45.58187 364.001615648226
45.60199 413.972420007424
45.6221 446
45.64221 483.025119690329
45.66233 527.023460200927
45.68244 560.234123661207
45.70256 706.895887708509
45.72267 694.885836675699
45.74278 868.873725221782
45.7629 887
45.78301 889.983627156338
45.80312 818.935557838323
45.82324 769.864716994876
45.84335 677.219223723411
45.86346 617.074495304914
45.88358 596.005344370326
45.90369 577.030417905546
45.92381 486.961733455926
45.94392 440.961124900912
45.96403 391.922626118446
45.98415 342.881691595046
46.00426 301.060344842295
46.02437 294.962136806447
46.04449 321.005660121195
46.0646 284
46.08472 299.999429696927
46.10483 268.955019731051
46.12494 266.038377980055
46.14506 287.980451998399
46.16517 271.06529718748
46.18528 248.95197166702
46.2054 325
46.22551 264.975468804022
46.24563 266.012121421608
46.26574 252.961534230805
46.28585 259.873358924817
46.30597 309.02464152241
46.32608 249.017293472435
46.34619 287.988679406611
46.36631 263.985785909396
46.38642 259.00461838636
46.40653 264.014955788888
46.42665 270.978258608348
46.44676 259.974372011791
46.46688 281.012688930778
46.48699 249.995878026719
46.5071 295
46.52722 265.953935543771
46.54733 245.020617743483
46.56744 269.000405947467
46.58756 243.040642635705
46.60767 247.972169727697
46.62779 258.004593386002
46.6479 244
46.66801 269.008391162722
46.68813 270.006205439002
46.70824 281.005116045453
46.72835 266.065280821127
46.74847 244.012585449014
46.76858 248.99119070832
46.78869 254.997011988132
46.80881 255.994085920808
46.82892 242.002522916551
46.84904 260.027517103948
46.86915 257.975126324751
46.88926 248.019364337267
46.90938 245.987018615386
46.92949 260.003245581203
46.9496 244
46.96972 269.00502407283
46.98983 259.026222019238
47.00995 293.999549478988
47.03006 264.997849049542
47.05017 297.988164404371
47.07029 275.001254929278
47.0904 297
47.11051 259.980569787001
47.13063 250.024146109997
47.15074 284.092560612578
47.17086 306.068301579602
47.19097 246.034961711969
47.21108 274.965528335988
47.2312 269
47.25131 221.995511948323
47.27142 253.034168657729
47.29154 265.001129615107
47.31165 265.994191702834
47.33176 264.025670704079
47.35188 254.983730946619
47.37199 281.999314845107
47.39211 260.998132218124
47.41222 271.983795749545
47.43233 232.977243005649
47.45245 265.140865523022
47.47256 299.02689216776
47.49267 255.049163429642
47.51279 261.983038198947
47.5329 290
47.55302 265.972217562416
47.57313 250.990001795831
47.59324 254.037411405822
47.61336 280.957791467194
47.63347 280.038652204647
47.65358 253.998480458774
47.6737 272
47.69381 246.997516304774
47.71393 265.005077162257
47.73404 251.006383668261
47.75415 278.936565454998
47.77427 271.067635766475
47.79438 224.008949589116
47.81449 258.97758339148
47.83461 272.987916519675
47.85472 244.00705622118
47.87483 279.021045895714
47.89495 262.983301806258
47.91506 269.034000664079
47.93518 237.999816267202
47.95529 279.975535438835
47.9754 294
47.99552 249.976616813715
48.01563 261.035987794679
48.03574 265.950204700311
48.05586 241.962126603362
48.07597 285.986475253322
48.09609 255.007917689165
48.1162 267
48.13631 253.009713460155
48.15643 286.976555257053
48.17654 229.948007551067
48.19665 257.917804970726
48.21677 258.032867687847
48.23688 243.986893334762
48.257 263
48.27711 223.995106309156
48.29722 251.019194743445
48.31734 240.96724148296
48.33745 239.026514648096
48.35756 250.992500829782
48.37768 249.992887725299
48.39779 266.992239871968
48.4179 272
48.43802 263.989600232857
48.45813 251.978111593981
48.47825 242.007819048556
48.49836 251.00177044203
48.51847 252.950266039265
48.53859 290.00778589994
48.5587 229
48.57881 239.016459196775
48.59893 263.018252759387
48.61904 264.991853899097
48.63916 260.00957428645
48.65927 256.005366342881
48.67938 259.980927564489
48.6995 278
48.71961 262.007716836571
48.73972 294.99619436472
48.75984 242.885642927756
48.77995 233.873977477427
48.80006 296.966397898987
48.82018 260.039394896242
48.84029 257.98781597342
48.86041 278.999269975772
48.88052 263.99933468281
48.90063 280.010803029172
48.92075 275.011524419283
48.94086 289.991689539673
48.96097 284.987225546669
48.98109 294.013198725546
49.0012 244
49.02132 261.028814751867
49.04143 273.999146130946
49.06154 270.000534419491
49.08166 272.01288724302
49.10177 266.975191150733
49.12188 298.979290487892
49.142 287
49.16211 248.994226569259
49.18223 266.034749624478
49.20234 273.986821355116
49.22245 262.021665391919
49.24257 264.978305588952
49.26268 274.013422655577
49.28279 243.013158850562
49.30291 237.004118081668
49.32302 255.029209662207
49.34313 286.031827022246
49.36325 279.900835742643
49.38336 241.987472750254
49.40348 284.97019427462
49.42359 276.011960257581
49.4437 260
49.46382 247.975135228868
49.48393 237.059322060027
49.50404 302.056334903226
49.52416 280.04757607682
49.54427 277.011405558266
49.56439 255.010172525714
49.5845 250
49.60461 267.011285031022
49.62473 287.017633457641
49.64484 291.003954042221
49.66495 291.019247837668
49.68507 289.961242410083
49.70518 320.00925287753
49.7253 294
49.74541 350.002669117275
49.76552 305.990950504696
49.78564 352.074183303171
49.80575 357.031460465188
49.82586 384.978292652655
49.84598 382.97859710915
49.86609 443.960242520036
49.8862 506
49.90632 518.030853326839
49.92643 586.131948262803
49.94655 675.215007259773
49.96666 798.596502149359
49.98677 1028.75737246992
50.00689 1151.89720188389
50.027 1452
50.04711 1686.13743474679
50.06723 2049.60673162262
50.08734 2360.23723422038
50.10746 2374.81481725568
50.12757 2501.10352745508
50.14768 2216.28934321248
50.1678 1987
50.18791 1618.8698206308
50.20802 1518.95301429118
50.22814 1419.70819615727
50.24825 1295.09194160846
50.26837 1268.2389571569
50.28848 1002.19960096831
50.30859 885.092995427332
50.32871 609.88685685658
50.34882 501.9483178883
50.36893 438.883901448962
50.38905 371.933182382071
50.40916 386.941596096054
50.42927 398.018657359054
50.44939 366.020969240324
50.4695 339
50.48962 352.986600397808
50.50973 329.029279032126
50.52984 383.050416712371
50.54996 369.001996213337
50.57007 392.987174036057
50.59018 375.015123382423
50.6103 370
50.63041 340.990323801665
50.65053 350.051843326497
50.67064 382.007072567987
50.69075 355.083876068973
50.71087 337.005209960961
50.73098 334.015338825609
50.75109 316.997407593516
50.77121 332.995759449619
50.79132 299.977897775685
50.81143 311.047073599617
50.83155 329.965212680255
50.85166 291.070323700841
50.87178 284.979439206107
50.89189 302.00718730413
50.912 263
50.93212 260.0035805505
50.95223 266.034907662566
50.97234 297.027753913556
50.99246 280.073589261866
51.01257 252.996875740599
51.03269 275.991864435742
51.0528 268
51.07291 257.008316238917
51.09303 289.0278651322
51.11314 277.943018938697
51.13325 256.999973152575
51.15337 273.975003677842
51.17348 273.018869059148
51.1936 256
51.21371 270.996087131851
51.23382 241.984270243077
51.25394 254.040272883996
51.27405 263.005554360315
51.29416 257.004832957296
51.31428 259.997121012655
51.33439 255.007531403964
51.3545 239
51.37462 255.036224983258
51.39473 278.969626987035
51.41485 234.962089663149
51.43496 255.975340123498
51.45507 240.028822912449
51.47519 232.003564684855
51.4953 232
51.51541 256.993183146662
51.53553 220.996757049678
51.55564 255.033331356732
51.57576 242.997672409378
51.59587 261.005169749485
51.61598 228.031938562995
51.6361 226
51.65621 257.005850799115
51.67632 245.9861394403
51.69644 252.057825138987
51.71655 279.008607235698
51.73667 246.049729100334
51.75678 228.016199674047
51.77689 219.989840208705
51.79701 248.998744013907
51.81712 218.986637477373
51.83723 235.021490268493
51.85735 231.986898377996
51.87746 244.927494249215
51.89757 273.026257848915
51.91769 226.011275737476
51.9378 239
51.95792 227.000792300434
51.97803 255.057854032134
51.99814 273.970286579333
52.01826 236.071003122628
52.03837 225.979101413746
52.05848 244.993519790987
52.0786 239
52.09871 255.013625263909
52.11883 273.994591432032
52.13894 250.950093616355
52.15905 234.039320021438
52.17917 223.988697086557
52.19928 233.017503937719
52.21939 210.98810019213
52.23951 267.011806877937
52.25962 237.962137995106
52.27974 232.046998755052
52.29985 251.964358696907
52.31996 221.99262065781
52.34008 256.985467115832
52.36019 239.005488195036
52.3803 254
52.40042 263.001004038579
52.42053 256.976760119017
52.44064 246.020442837194
52.46076 266.991342867863
52.48087 248.032546658974
52.50099 236.005045127053
52.5211 236
52.54121 271.004823477787
52.56133 249.965351955162
52.58144 247.022497777479
52.60155 258.987771622907
52.62167 256.006068184267
52.64178 258.988716915139
52.6619 274
52.68201 274.993034275252
52.70212 256.992369891165
52.72224 263.017406435911
52.74235 263.023119744193
52.76246 248.032920879003
52.78258 244.978672987611
52.80269 276.991203169848
52.8228 264
52.84292 232.990892200002
52.86303 248.035639238419
52.88315 262.001490928792
52.90326 260.974947259781
52.92337 274.022363715418
52.94349 244.001695702806
52.9636 262
52.98371 230.997088647145
53.00383 259.032716217927
53.02394 259.003953357639
53.04406 269.993973537719
53.06417 263.998763807312
53.08428 267.015312028881
53.1044 247
53.12451 282.010453475628
53.14462 271.981108514682
53.16474 266.013897413255
53.18485 275.992544824536
53.20497 267.023891484134
53.22508 260.984027292686
53.24519 286.994187376814
53.26531 275.991174769663
53.28542 271.011272331418
53.30553 281.985741626063
53.32565 263.006945676415
53.34576 286.973505435892
53.36587 286.97643678966
53.38599 320.987377733894
53.4061 329
53.42622 336.987736080103
53.44633 303.948411228448
53.46644 288.007342016638
53.48656 298.99050660256
53.50667 288.034064283644
53.52678 278.973580886336
53.5469 315
53.56701 289.006883463594
53.58713 339.028828211268
53.60724 308.937248402241
53.62735 312.9285708646
53.64747 327.043663786775
53.66758 285.992446870433
53.68769 335.987258645307
53.70781 317.993068275871
53.72792 320.985290452712
53.74804 289.978097011807
53.76815 310.065062429822
53.78826 321.995549623486
53.80838 314.02317352052
53.82849 292.998015470871
53.8486 308
53.86872 282.00599958425
53.88883 326.061002283135
53.90894 327.936801569831
53.92906 290.042797530498
53.94917 289.993742668877
53.96929 283.008089140526
53.9894 275
54.00951 307.012305470232
54.02963 309.985251847512
54.04974 307.029470448664
54.06985 325.01100432699
54.08997 304.009188186924
54.11008 304.033865915037
54.1302 258
54.15031 307.012422193832
54.17042 291.997495018365
54.19054 318.0362706027
54.21065 304.085134794877
54.23076 286.948861678042
54.25088 326.999993467344
54.27099 295.999269538631
54.29111 336.010440523726
54.31122 317.98052316809
54.33133 325.036459857157
54.35145 346.014626989879
54.37156 333.047501730983
54.39167 316.000455953356
54.41179 320.006985594346
54.4319 302
54.45201 329.993020529171
54.47213 285.990398640678
54.49224 330.080044170905
54.51236 337.997271376178
54.53247 345.001440823716
54.55258 338.994474676701
54.5727 356
54.59281 350.991901138213
54.61292 342.01140583411
54.63304 378.102628681449
54.65315 415.990357532655
54.67327 403.984253173571
54.69338 457.920711681597
54.71349 517.993718932865
54.73361 513.017415644447
54.75372 614.134913163004
54.77383 723.078471987111
54.79395 750.153814014192
54.81406 853.816880529929
54.83417 899.971652994982
54.85429 904.008853616942
54.8744 866
54.89452 803.917155093941
54.91463 717.90855871835
54.93474 684.943411842915
54.95486 651.050766686034
54.97497 641.001679917532
54.99508 636.014954227382
55.0152 604
55.03531 544.970566740893
55.05543 493.934878232198
55.07554 451.909879547156
55.09565 405.103413831604
55.11577 383.9878488355
55.13588 405.988272732467
55.15599 405.994637581406
55.17611 438.020431092333
55.19622 465.001887564868
55.21634 465.064343130526
55.23645 529.152169793311
55.25656 557.996938031623
55.27668 543.025650516831
55.29679 543.970350325363
55.3169 599
55.33702 483.939956049916
55.35713 510.029435402355
55.37724 468.872787880131
55.39736 437.959809817255
55.41747 465.042384545891
55.43759 408.996574876007
55.4577 468
55.47781 409.978689986923
55.49793 416.00854268214
55.51804 379.8599801329
55.53815 309.110729104996
55.55827 300.981870766123
55.57838 314.98629376497
55.5985 323
55.61861 316.998608265177
55.63872 316.994467959282
55.65884 303.972133933186
55.67895 305.929224963774
55.69906 326.06727974762
55.71918 264.018541581921
55.73929 299.985015548487
55.75941 292.992630662292
55.77952 298.02310732834
55.79963 308.955064834626
55.81975 266.002620718538
55.83986 304.97237299602
55.85997 283.008588249523
55.88009 304.995558601483
55.9002 286
55.92031 281.001441678154
55.94043 281.996045001745
55.96054 283.027288687473
55.98066 297.014462093979
56.00077 269.039875251321
56.02088 263.985014533778
56.041 276
56.06111 253.001236471075
56.08122 283.0236560962
56.10134 277.954777568584
56.12145 260.004322560285
56.14157 274.968955269411
56.16168 280.021356607655
56.18179 263.983998016837
56.20191 316.000299830368
56.22202 260.956431874485
56.24213 267.041464180255
56.26225 288.034036068369
56.28236 285.05661063518
56.30248 244.031640652507
56.32259 245.980812140181
56.3427 296
56.36282 289.959907243127
56.38293 254.002602626395
56.40304 275.983187866841
56.42316 243.00153668632
56.44327 286.933332538993
56.46338 296.01870059027
56.4835 282
56.50361 312.002073101644
56.52373 288.983018659177
56.54384 303.028979312951
56.56395 299.041769204266
56.58407 283.011008190704
56.60418 281.007732184696
56.62429 270.000253951999
56.64441 278.000383017208
56.66452 260.970513321978
56.68464 245.03748550769
56.70475 284.058702375519
56.72486 281.010686899495
56.74498 288.987324010076
56.76509 290.009254649479
56.7852 265
56.80532 265.987733022311
56.82543 244.999268821591
56.84554 275.082649044684
56.86566 294.037334827816
56.88577 254.044314600722
56.90589 252.99284687545
56.926 267
56.94611 269.996100752619
56.96623 256.985413895207
56.98634 256.009944327329
57.00645 263.973416870754
57.02657 265.031069748301
57.04668 243.987353090618
57.0668 273
57.08691 238.998625221042
57.10702 278.032259035539
57.12714 280.997912285295
57.14725 294.943852501964
57.16736 306.028527396224
57.18748 275.024829101182
57.20759 272.992484505003
57.22771 287.000231196639
57.24782 275.992034980886
57.26793 277.002387290478
57.28805 270.966566559515
57.30816 261.985686507916
57.32827 278.986951727185
57.34839 281.991083457531
57.3685 303
57.38861 264.982551768975
57.40873 258.020652506316
57.42884 272.00152797171
57.44896 261.015601049779
57.46907 265.981128655064
57.48918 273.006730816983
57.5093 256
57.52941 256.008858671039
57.54952 273.998287875877
57.56964 258.996034384938
57.58975 268.020527537731
57.60987 245.010297722003
57.62998 261.982383107452
57.65009 266.000449298479
57.67021 270.004938034863
57.69032 274.988243460934
57.71043 255.992953004452
57.73055 262.987055050603
57.75066 254.955414155641
57.77078 287.012413150397
57.79089 235.016058090118
57.811 254
57.83112 279.997117855021
57.85123 259.980515300955
57.87134 257.97851212175
57.89146 238.019016378826
57.91157 246.97585333201
57.93168 256.001172911711
57.9518 252
57.97191 266.008361795453
57.99203 267.965841900324
58.01214 232.951427421765
58.03225 232.961325056154
58.05237 252.966789224362
58.07248 266.005513839101
58.09259 253.998503920015
58.11271 264.995245620129
58.13282 238.99019979704
58.15294 251.014048639651
58.17305 248.021119404355
58.19316 264.004120110276
58.21328 248.000278841553
58.23339 265.995465114096
58.2535 257
58.27362 252.988554701321
58.29373 235.98823745233
58.31385 247.062613820036
58.33396 267.993969751891
58.35407 262.984395037522
58.37419 278.007457446133
58.3943 241
58.41441 260.013293792496
58.43453 265.976824171041
58.45464 236.932847728564
58.47475 223.938951795825
58.49487 264.970747611266
58.51498 254.012682137647
58.5351 250
58.55521 238.009598708362
58.57532 276.014446191417
58.59544 252.935201895929
58.61555 246.928610735911
58.63566 280.002337615987
58.65578 246.02644204525
58.67589 248.992820706344
58.69601 257.000903328928
58.71612 246.972412852815
58.73623 228.032980907993
58.75635 278.081080818441
58.77646 268.064722308573
58.79657 242.015728966729
58.81669 248.991276739663
58.8368 255
58.85691 231.005503402619
58.87703 265.00958619225
58.89714 245.009891438754
58.91726 269.028578919355
58.93737 229.988989781889
58.95748 279.98263759
58.9776 246
58.99771 251.005636334546
59.01782 254.007541680878
59.03794 262.988759114849
59.05805 248.999853669688
59.07817 274.938249513815
59.09828 296.024476780924
59.11839 245.016284820189
59.13851 262.026609987139
59.15862 311.016660233046
59.17873 290.949741864355
59.19885 276.032431264259
59.21896 290.0424757763
59.23908 245.020533215361
59.25919 264.985694906338
59.2793 287
59.29942 318.003798473022
59.31953 289.94318997451
59.33964 266.991031559181
59.35976 274.977979241151
59.37987 283.983315606269
59.39998 293.998795154233
59.4201 289
59.44021 292.999832732059
59.46033 290.007929405459
59.48044 306.036180705385
59.50055 316.000360576764
59.52067 310.008525800726
59.54078 306.00697191755
59.56089 299.998133643961
59.58101 318.013917899917
59.60112 344.016252351425
59.62124 346.987291144654
59.64135 357.120149549227
59.66146 422.919151797608
59.68158 427.998471514801
59.70169 444.990420311034
59.7218 469
59.74192 538.081597793762
59.76203 608.06640020409
59.78215 663.286274693484
59.80226 820.736315496969
59.82237 901.895425133454
59.84249 1038.88001303833
59.8626 1318
59.88271 1438.05180620635
59.90283 1569.1845131364
59.92294 1660.13358561851
59.94305 1651.36222572669
59.96317 1415.32652317208
59.98328 1275.10700802131
60.0034 1154
60.02351 1015.93398959348
60.04362 934.0050385594
60.06374 990.069129930334
60.08385 969.096784045342
60.10396 922.16508017074
60.12408 817.084461147059
60.14419 742.058500756379
60.16431 575.916606574251
60.18442 442.891761568458
60.20453 363.950610137233
60.22465 355.951262601838
60.24476 328.986928899833
60.26487 354.018627332363
60.28499 301.020034516504
60.3051 305
60.32522 317.985004596928
60.34533 289.983007512226
60.36544 298.00154354683
60.38556 280.042796093603
60.40567 271.988978243732
60.42578 285.99019390714
60.4459 281
60.46601 256.991171448791
60.48612 258.021700659248
60.50624 282.011005515535
60.52635 269.027081532824
60.54647 264.023788536377
60.56658 237.021166935416
60.58669 235.991555492966
60.60681 255.003638136918
60.62692 252.001728644064
60.64703 265.023575718666
60.66715 278.032519421892
60.68726 280.045837699242
60.70738 248.010842224433
60.72749 269.981843348093
60.7476 284
60.76772 238.979181860003
60.78783 250.01346855324
60.80794 243.99946437029
60.82806 254.986163649857
60.84817 258.974089380066
60.86828 284.986566017689
60.8884 279
60.90851 267.990360456587
60.92863 250.002686738452
60.94874 271.042501898032
60.96885 269.074915050667
60.98897 237.999749131611
61.00908 270.964999268522
61.02919 285.99843314164
61.04931 278.988184319267
61.06942 256.001843445589
61.08954 283.056671799718
61.10965 284.927914638813
61.12976 250.022623437099
61.14988 266.97935599185
61.16999 269.007281403619
61.1901 259
61.21022 287.013154040137
61.23033 272.962851408867
61.25045 263.035849618087
61.27056 283.005526535108
61.29067 262.009605476499
61.31079 281.987390021594
61.3309 284
61.35101 256.006295384656
61.37113 298.030484920199
61.39124 282.972797603857
61.41135 288.982062242537
61.43147 295.964408284753
61.45158 318.015605386638
61.4717 281
61.49181 314.013539262937
61.51192 304.969061461988
61.53204 282.002352664584
61.55215 308.905265586951
61.57226 329.025324474707
61.59238 301.01078981343
61.61249 319.985570736973
61.63261 332.995417179942
61.65272 310.98090519499
61.67283 308.016491498701
61.69295 323.027494201119
61.71306 318.050106438132
61.73317 292.004911062486
61.75329 317.981037504593
61.7734 346
61.79352 339.976896741024
61.81363 331.052463222194
61.83374 385.035545629971
61.85386 348.109937864837
61.87397 314.014346494358
61.89408 320.987564943383
61.9142 331
61.93431 340.001037619258
61.95442 336.999042971164
61.97454 338.997558855868
61.99465 339.963253899646
62.01477 350.037198690825
62.03488 311.001832231845
62.05499 339.998967094615
62.07511 304.987883735417
62.09522 323.044285794982
62.11533 357.003458694643
62.13545 337.977666763491
62.15556 348.980891057868
62.17568 350.990494647235
62.19579 365.998430108306
62.2159 358
62.23602 360.986447315237
62.25613 326.9440190436
62.27624 315.051325859093
62.29636 348.999690802156
62.31647 318.026388593375
62.33659 330.991849226114
62.3567 332
62.37681 325.996114200473
62.39693 322.010676048476
62.41704 325.958636576638
62.43715 291.041611392908
62.45727 296.998621685255
62.47738 291.984022915597
62.49749 315.005600052584
62.51761 275.990598782492
62.53772 287.002954004651
62.55784 275.00789146266
62.57795 296.020872483124
62.59806 273.086138302422
62.61818 242.994075695459
62.63829 281.976983525266
62.6584 307
62.67852 295.991916234715
62.69863 289.97097304977
62.71875 258.937360290236
62.73886 260.934039368747
62.75897 295.994596837913
62.77909 268.01309780058
62.7992 269
62.81931 285.998725550309
62.83943 265.970881042056
62.85954 257.99340948022
62.87965 255.00047474823
62.89977 257.99389438775
62.91988 265.983276604505
62.94 280
62.96011 258.991880376065
62.98022 243.962843519943
63.00034 214.061184876955
63.02045 287.88607038454
63.04056 272.080304432694
63.06068 252.989335905502
63.08079 280.987901440711
63.10091 285.995530786106
63.12102 272.987676242565
63.14113 262.984382462886
63.16125 259.03057326116
63.18136 275.99950476062
63.20147 253.04682144981
63.22159 237.994402112236
63.2417 264
63.26182 260.980689276282
63.28193 242.993049506757
63.30204 258.05809307985
63.32216 274.038152587496
63.34227 238.018882042731
63.36238 255.984532723341
63.3825 257
63.40261 266.993726896886
63.42272 238.988926127157
63.44284 256.048299201025
63.46295 266.012570838788
63.48307 256.006237076656
63.50318 262.987354702872
63.52329 276.991881959894
63.54341 285.995523013545
63.56352 262.97774549553
63.58363 256.012733780377
63.60375 273.045605049785
63.62386 276.043476023497
63.64398 251.993995274826
63.66409 274.004195852807
63.6842 253
63.70432 315.008129996514
63.72443 267.971852534448
63.74454 298.033115341566
63.76466 283.999345847086
63.78477 315.946325351242
63.80489 327.007532087945
63.825 312
63.84511 347.012133535149
63.86523 351.010018665071
63.88534 377.077425812899
63.90545 409.964412735359
63.92557 413.978359466495
63.94568 437.988436199435
63.96579 463.955697311888
63.98591 579.027325298968
64.00602 548.946215827446
64.02614 512.927012793334
64.04625 470.917154896201
64.06636 440.096517064275
64.08648 380.044884542081
64.10659 370.989137406993
64.1267 399
64.14682 389.976538683202
64.16693 371.997988606078
64.18705 385.035070849235
64.20716 383.043757906054
64.22727 347.059825526093
64.24739 311.016749608239
64.2675 282
64.28761 271.998859962157
64.30773 270.99466637965
64.32784 270.021075942186
64.34796 279.02941348276
64.36807 243.048459898292
64.38818 233.990485905532
64.4083 248
64.42841 245.994986797763
64.44852 241.010145880247
64.46864 262.034531800928
64.48875 270.974614261523
64.50886 270.068230282569
64.52898 233.983833970651
64.54909 269.016883692243
64.56921 189.993926734651
64.58932 268.079714097416
64.60943 275.92453247055
64.62955 237.072378114451
64.64966 297.005679097967
64.66977 232.04923642637
64.68989 264.980899617025
64.71 254
64.73012 208.009319688914
64.75023 262.06193087474
64.77034 255.9369909694
64.79046 231.015211753792
64.81057 245.951491621586
64.83068 271.999446470245
64.8508 248
64.87091 238.00585594192
64.89102 256.005477004639
64.91114 250.004289594643
64.93125 256.034962823139
64.95137 231.999758770135
64.97148 258.97790456476
64.99159 258.005437368011
65.01171 241.985337950124
65.03182 217.005794675155
65.05193 244.018383653085
65.07205 233.989422333428
65.09216 249.955104019922
65.11228 259.011040170283
65.13239 242.001033074761
65.1525 246
65.17262 217.005681650668
65.19273 258.049312712465
65.21284 255.958007606925
65.23296 240.00502579295
65.25307 246.993444473208
65.27319 245.00000176499
65.2933 252
65.31341 256.996764397656
65.33353 248.005070089811
65.35364 264.027933550056
65.37375 263.036088148887
65.39387 249.997026667612
65.41398 264.98764526579
65.43409 267.998822147928
65.45421 256.977157903196
65.47432 208.001263298753
65.49444 247.021954158849
65.51455 227.027846398554
65.53466 272.956322591709
65.55478 255.015162016733
65.57489 262.995523811365
65.595 259
65.61512 263.02592950405
65.63523 294.014284189444
65.65535 279.966334798689
65.67546 277.012552774952
65.69557 267.995699251906
65.71569 289.983255809307
65.7358 308
65.75591 283.007759761444
65.77603 325.009245743619
65.79614 292.978597396257
65.81626 310.016277167573
65.83637 272.029087224882
65.85648 280.004039449921
65.8766 259
65.89671 279.006847264813
65.91682 277.002058024641
65.93694 275.9381650998
65.95705 242.949512235612
65.97716 296.974211566273
65.99728 252.044314325065
66.01739 243.996922514696
66.03751 247.002365144385
66.05762 251.998809226628
66.07773 248.004494234362
66.09785 253.988007046615
66.11796 244.985595992247
66.13807 257.022505787376
66.15819 229.995862743477
66.1783 267
66.19842 244.989794345998
66.21853 252.98123338017
66.23864 222.988827235437
66.25876 243.984216037327
66.27887 225.030108271142
66.29898 230.966480035575
66.3191 261
66.33921 229.995144322057
66.35933 260.064003481384
66.37944 276.958370719641
66.39955 237.069374630356
66.41967 240.963072302618
66.43978 263.99026618898
66.45989 260.003378964009
66.48001 261.004177207862
66.50012 255.961356167399
66.52023 211.999818356248
66.54035 247.031405842824
66.56046 227.01086737739
66.58058 253.969989554785
66.60069 260.008054574243
66.6208 244
66.64092 259.997506181443
66.66103 238.985417429137
66.68114 254.047301502158
66.70126 259.050264809715
66.72137 216.054845600638
66.74149 205.99346423777
66.7616 226
66.78171 233.005672423383
66.80183 244.995918966589
66.82194 230.986898344527
66.84205 235.994849760681
66.86217 236.975644106414
66.88228 261.989505472846
66.90239 251.008163936641
66.92251 244.000552519115
66.94262 250.00893188011
66.96274 257.003930094162
66.98285 253.987720932632
67.00296 250.006333239395
67.02308 254.979399880233
67.04319 273.005321726053
67.0633 252
67.08342 286.999955758999
67.10353 253.989208104635
67.12365 278.005455861507
67.14376 253.009055127353
67.16387 277.976026103027
67.18399 265.011719276464
67.2041 252
67.22421 265.011290101198
67.24433 285.011930577128
67.26444 278.974547761935
67.28456 266.027202371639
67.30467 265.957314516263
67.32478 306.978045530211
67.3449 304
67.36501 295.97802862555
67.38512 245.002338917892
67.40524 307.135489150269
67.42535 332.034821120433
67.44546 314.977123644083
67.46558 347.984398133757
67.48569 346.989125471994
67.50581 408.038217350416
67.52592 460.009720988462
67.54603 447.001402547932
67.56615 487.168543989852
67.58626 576.767568814479
67.60637 698.851134957965
67.62649 778.9549964909
67.6466 879
67.66672 944.090432548905
67.68683 1050.10622096905
67.70694 1064.97413648044
67.72706 1045.06759915258
67.74717 970.20246016259
67.76728 820.097545323458
67.7874 779
67.80751 703.966277764331
67.82763 692.083437651369
67.84774 773.102486694539
67.86785 785.95113121613
67.88797 807.042609930479
67.90808 766.962334551821
67.92819 854.989696605895
67.94831 781.962463751864
67.96842 779.053124222637
67.98853 842.062710076499
68.00865 868.112975132238
68.02876 945.826105889416
68.04888 1053.83882088533
68.06899 1227.9450623692
68.0891 1282
68.10922 1398.07712180199
68.12933 1387.89098520608
68.14944 1292.79966752306
68.16956 1197.1908058329
68.18967 1106.11251981327
68.20979 1081.9740115661
68.2299 1173
68.25001 1215.03878573955
68.27013 1327.12390781044
68.29024 1316.79159704387
68.31035 1201.10254526846
68.33047 1199.12439032313
68.35058 990.256347106293
68.3707 775
68.39081 686.990272677169
68.41092 678.948453495955
68.43104 608.985458406704
68.45115 649.98687373884
68.47126 586.080113943495
68.49138 581.040100459805
68.51149 504.022078691103
68.5316 487
68.55172 369.900047990025
68.57183 327.984236094302
68.59195 319.982108664536
68.61206 312.017010068732
68.63217 297.041003154256
68.65229 273.997750084268
68.6724 301
68.69251 300.995629439881
68.71263 290.97585131447
68.73274 277.002977040588
68.75286 278.056982237613
68.77297 239.996833464024
68.79308 280.971351694226
68.8132 271
68.83331 262.00545444777
68.85342 281.010288752239
68.87354 270.949386148196
68.89365 242.062831802824
68.91376 237.944796468133
68.93388 273.990054369728
68.95399 257.005266411549
68.97411 260.996671404565
68.99422 245.001293294861
69.01433 268.033752934401
69.03445 267.943021753391
69.05456 242.017569513103
69.07467 248.997793091734
69.09479 242.997022333768
69.1149 259
69.13502 245.984854184585
69.15513 244.017014895264
69.17524 257.005315752439
69.19536 246.031789745916
69.21547 230.029334716916
69.23558 219.983498072421
69.2557 251
69.27581 245.998392339133
69.29593 250.995200024897
69.31604 241.002025823298
69.33615 245.046632330501
69.35627 216.996863711138
69.37638 244.989942409602
69.39649 226.00766625013
69.41661 238.015185463878
69.43672 257.989322009534
69.45683 234.00044382293
69.47695 255.001760952452
69.49706 239.970678672677
69.51718 274.999708153804
69.53729 245.000369978888
69.5574 276
69.57752 244.978486539038
69.59763 253.018026886915
69.61774 254.000507389407
69.63786 259.984450506426
69.65797 259.024686763378
69.67809 236.006730533503
69.6982 243
69.71831 257.994501469743
69.73843 230.97842455329
69.75854 243.04794379357
69.77865 255.024768835607
69.79877 238.994562482328
69.81888 261.983855570009
69.839 255
69.85911 230.986432010066
69.87922 214.006565036278
69.89934 240.055710828496
69.91945 250.980813793422
69.93956 244.964728367245
69.95968 270.006180042717
69.97979 241.00235274556
69.9999 262
70.02002 242.003525657069
70.04013 265.995420698211
70.06025 232.953977200655
70.08036 247.954099587165
70.10047 249.038413757145
70.12059 223.995983137296
70.1407 258
70.16081 239.979330904351
70.18093 215.025229337892
70.20104 249.002312081082
70.22116 221.006837020257
70.24127 250.972113282889
70.26138 238.020038383754
70.2815 237
70.30161 265.010732162543
70.32172 267.98683894716
70.34184 250.978711960929
70.36195 248.009654532244
70.38207 244.987591823837
70.40218 253.014362917452
70.42229 221.011168061822
70.44241 223.007063366011
70.46252 226.983691225007
70.48263 202.987014016532
70.50275 228.135452719802
70.52286 270.016669424696
70.54297 228.03187895015
70.56309 247.986292409831
70.5832 254
70.60332 244.004106704492
70.62343 254.996207302649
70.64354 235.963977080315
70.66366 233.976204216968
70.68377 245.003966712162
70.70388 231.010160383645
70.724 231
70.74411 234.006634572979
70.76423 244.980838889678
70.78434 223.009713172078
70.80445 249.979650665009
70.82457 225.047184412988
70.84468 218.97485938848
70.86479 249.997313579044
70.88491 224.985682924884
70.90502 218.013734258477
70.92513 236.009873846119
70.94525 232.004101109164
70.96536 249.943122344868
70.98548 261.028993382102
71.00559 217.00538712952
71.0257 245
71.04582 243.994424611488
71.06593 240.979237423306
71.08604 229.032290056728
71.10616 257.006241221589
71.12627 232.987905249977
71.14639 266.001289339503
71.1665 221
71.18661 228.011605900566
71.20673 236.982545549007
71.22684 216.980781463714
71.24695 222.979333776465
71.26707 228.981453397953
71.28718 242.001042191329
71.3073 232
71.32741 232.985386050146
71.34752 201.023515698284
71.36764 263.049831512115
71.38775 232.076354365453
71.40786 234.972696234166
71.42798 235.015137281605
71.44809 218.001886307179
71.4682 230
71.48832 234.99343981654
71.50843 228.007489401944
71.52855 244.033868251807
71.54866 246.011030187898
71.56877 234.032065935199
71.58889 216.997740360804
71.609 233
71.62911 223.006185081281
71.64923 252.010496891159
71.66934 228.954555240647
71.68946 228.969559936545
71.70957 244.985509588822
71.72968 244.009015858175
71.7498 236
71.76991 239.999379168182
71.79002 233.999403557587
71.81014 237.995354619276
71.83025 226.034664130402
71.85037 219.993773592051
71.87048 226.999824648537
71.89059 225.993454864107
71.91071 250.008032536033
71.93082 249.994228637774
71.95093 239.965713511876
71.97105 220.019136574279
71.99116 246.973892998852
72.01127 239.004993532774
72.03139 251.992447097006
72.0515 253
72.07162 237.001457622004
72.09173 254.018875462383
72.11184 250.97978585248
72.13196 242.015753715273
72.15207 240.982197014205
72.17218 257.991928485175
72.1923 249
72.21241 238.006558104217
72.23253 256.987422560035
72.25264 235.022573891544
72.27275 276.943412716542
72.29287 261.036555424704
72.31298 251.999742346534
72.33309 250.004767008297
72.35321 234.993579710187
72.37332 233.010188860521
72.39344 254.057740570475
72.41355 286.081475000921
72.43366 298.055889373867
72.45378 247.037284244385
72.47389 242.993589107688
72.494 249
72.51412 233.992665747834
72.53423 235.998016428231
72.55434 232.013255723182
72.57446 250.961249115157
72.59457 258.010043788585
72.61469 247.002214727249
72.6348 253
72.65491 253.993700969709
72.67503 233.976278104477
72.69514 234.032541823695
72.71525 259.929891452442
72.73537 272.022921924437
72.75548 240.026405342982
72.7756 243
72.79571 275.99833516639
72.81582 240.972970619254
72.83594 247.050083947865
72.85605 260.041092703721
72.87616 227.038068156333
72.89628 244.952459875217
72.91639 282.003542942885
72.9365 247
72.95662 268.017674303038
72.97673 261.980542132048
72.99685 263.048404111098
73.01696 277.039313468882
73.03707 240.014199335311
73.05719 264.989292800942
73.0773 261
73.09741 259.007413596238
73.11753 282.025383173297
73.13764 288.007914542586
73.15776 284.053313513605
73.17787 249.020458856276
73.19798 272.951860635982
73.2181 299
73.23821 254.007168048777
73.25832 328.059184125045
73.27844 339.004873073023
73.29855 361.91942172973
73.31867 390.964596979014
73.33878 415.965417078158
73.35889 459.97801038656
73.37901 504.026097305136
73.39912 539.986003853137
73.41923 507.018879473711
73.43935 550.991866833047
73.45946 494.076343151423
73.47957 499.99394414053
73.49969 468.027738152655
73.5198 406
73.53992 357.977698348489
73.56003 371.071335986805
73.58014 413.998622822053
73.60026 384.011798601716
73.62037 400.025981520815
73.64048 352.02004954035
73.6606 378
73.68071 380.989985924024
73.70083 349.947292420294
73.72094 314.927128980802
73.74105 284.039358703844
73.76117 282.993663200969
73.78128 273.033991359057
73.80139 242.993780282412
73.82151 283.00695936776
73.84162 253.96455363692
73.86174 241.005177667468
73.88185 254.063057464572
73.90196 273.016116712388
73.92208 247.014031126851
73.94219 241.015690561298
73.9623 207
73.98242 268.030994025672
74.00253 248.971268314662
74.02264 250.990006224441
74.04276 228.0465377431
74.06287 219.991394305627
74.08299 235.987954073242
74.1031 256
74.12321 250.999689940392
74.14333 250.973317048614
74.16344 218.952211701742
74.18355 223.918340769496
74.20367 255.99456426511
74.22378 232.023040996216
74.2439 234
74.26401 252.997166720243
74.28412 231.993814904314
74.30424 251.049128528721
74.32435 250.095503356818
74.34446 208.000121126918
74.36458 248.965061877835
74.38469 248.010126172569
74.40481 230.996202488489
74.42492 227.990946054166
74.44503 223.029909041365
74.46515 250.995103865464
74.48526 223.024142289626
74.50537 238.978183202752
74.52549 238.000634387348
74.5456 239
74.56571 232.01059562174
74.58583 263.998964458079
74.60594 225.926628508736
74.62606 223.943971032795
74.64617 256.974122838851
74.66628 248.025207215894
74.6864 239
74.70651 274.993028688198
74.72662 219.969006998969
74.74674 238.055413727929
74.76685 248.983624267965
74.78697 254.009564736587
74.80708 240.007823658846
74.82719 249.987161535311
74.84731 266.99281963963
74.86742 233.983942717766
74.88753 245.019596374976
74.90765 248.013862379131
74.92776 259.981163140689
74.94787 255.033597938228
74.96799 230.00462396708
74.9881 236
75.00822 223.980770815831
