3.00117 20300
3.02128 19574
3.0414 19493
3.06151 18749
3.08162 18272
3.10174 17806
3.12185 17340
3.14197 17380
3.16208 16052
3.18219 16060
3.20231 15819
3.22242 15074
3.24253 14742
3.26265 14542
3.28276 13997
3.30288 13442
3.32299 12886
3.3431 12795
3.36322 12255
3.38333 11999
3.40344 11716
3.42356 10977
3.44367 11171
3.46379 10617
3.4839 10257
3.50401 9990
3.52413 9384
3.54424 9345
3.56435 8942
3.58447 8651
3.60458 8330
3.62469 7982
3.64481 8026
3.66492 7529
3.68504 7233
3.70515 6892
3.72526 6453
3.74538 6557
3.76549 6355
3.7856 5989
3.80572 5878
3.82583 5495
3.84595 5405
3.86606 5208
3.88617 4909
3.90629 4831
3.9264 4556
3.94651 4471
3.96663 4356
3.98674 4119
4.00686 3960
4.02697 3678
4.04708 3841
4.0672 3684
4.08731 3457
4.10742 3187
4.12754 3158
4.14765 3105
4.16776 3026
4.18788 2773
4.20799 2763
4.22811 2622
4.24822 2639
4.26833 2591
4.28845 2407
4.30856 2353
4.32867 2370
4.34879 2320
4.3689 2353
4.38902 2035
4.40913 2025
4.42924 2151
4.44936 2058
4.46947 1984
4.48958 1900
4.5097 1982
4.52981 1899
4.54992 1798
4.57004 1875
4.59015 1633
4.61027 1754
4.63038 1696
4.65049 1664
4.67061 1671
4.69072 1596
4.71083 1682
4.73095 1435
4.75106 1589
4.77118 1538
4.79129 1514
4.8114 1542
4.83152 1364
4.85163 1490
4.87174 1431
4.89186 1281
4.91197 1258
4.93209 1381
4.9522 1303
4.97231 1322
4.99243 1193
5.01254 1279
5.03265 1193
5.05277 1194
5.07288 1229
5.09299 1180
5.11311 1161
5.13322 1154
5.15334 1187
5.17345 1053
5.19356 1129
5.21368 1027
5.23379 1083
5.2539 1046
5.27402 1037
5.29413 945
5.31425 994
5.33436 976
5.35447 993
5.37459 971
5.3947 955
5.41481 864
5.43493 972
5.45504 956
5.47516 880
5.49527 923
5.51538 853
5.5355 891
5.55561 866
5.57572 931
5.59584 893
5.61595 824
5.63606 865
5.65618 856
5.67629 852
5.69641 830
5.71652 806
5.73663 802
5.75675 782
5.77686 816
5.79697 855
5.81709 810
5.8372 824
5.85732 791
5.87743 815
5.89754 782
5.91766 792
5.93777 745
5.95788 743
5.978 754
5.99811 793
6.01823 752
6.03834 771
6.05845 795
6.07857 751
6.09868 734
6.11879 756
6.13891 722
6.15902 703
6.17913 714
6.19925 736
6.21936 612
6.23948 693
6.25959 688
6.2797 728
6.29982 728
6.31993 636
6.34004 716
6.36016 702
6.38027 690
6.40039 709
6.4205 695
6.44061 666
6.46073 705
6.48084 688
6.50095 671
6.52107 668
6.54118 682
6.56129 649
6.58141 651
6.60152 701
6.62164 684
6.64175 722
6.66186 688
6.68198 661
6.70209 707
6.7222 688
6.74232 671
6.76243 693
6.78255 664
6.80266 649
6.82277 667
6.84289 698
6.863 716
6.88311 698
6.90323 647
6.92334 635
6.94346 675
6.96357 669
6.98368 623
7.0038 676
7.02391 607
7.04402 636
7.06414 637
7.08425 647
7.10436 613
7.12448 695
7.14459 680
7.16471 663
7.18482 647
7.20493 589
7.22505 663
7.24516 611
7.26527 670
7.28539 631
7.3055 644
7.32562 606
7.34573 596
7.36584 614
7.38596 606
7.40607 625
7.42618 647
7.4463 600
7.46641 617
7.48653 646
7.50664 615
7.52675 621
7.54687 676
7.56698 591
7.58709 606
7.60721 603
7.62732 626
7.64743 618
7.66755 646
7.68766 593
7.70778 566
7.72789 644
7.748 600
7.76812 616
7.78823 589
7.80834 601
7.82846 576
7.84857 626
7.86869 601
7.8888 613
7.90891 671
7.92903 612
7.94914 617
7.96925 586
7.98937 640
8.00948 647
8.0296 633
8.04971 614
8.06982 659
8.08994 638
8.11005 590
8.13016 599
8.15028 648
8.17039 651
8.1905 620
8.21062 595
8.23073 587
8.25085 588
8.27096 618
8.29107 622
8.31119 632
8.3313 553
8.35141 621
8.37153 564
8.39164 616
8.41176 580
8.43187 621
8.45198 636
8.4721 635
8.49221 611
8.51232 652
8.53244 631
8.55255 626
8.57266 588
8.59278 566
8.61289 620
8.63301 648
8.65312 585
8.67323 579
8.69335 648
8.71346 612
8.73357 612
8.75369 620
8.7738 639
8.79392 597
8.81403 582
8.83414 634
8.85426 628
8.87437 609
8.89448 596
8.9146 604
8.93471 578
8.95483 634
8.97494 646
8.99505 615
9.01517 591
9.03528 540
9.05539 622
9.07551 598
9.09562 605
9.11573 555
9.13585 613
9.15596 603
9.17608 605
9.19619 620
9.2163 600
9.23642 587
9.25653 615
9.27664 593
9.29676 557
9.31687 585
9.33699 677
9.3571 586
9.37721 597
9.39733 596
9.41744 646
9.43755 609
9.45767 588
9.47778 587
9.4979 651
9.51801 635
9.53812 596
9.55824 568
9.57835 630
9.59846 590
9.61858 574
9.63869 628
9.6588 584
9.67892 598
9.69903 618
9.71915 579
9.73926 603
9.75937 646
9.77949 562
9.7996 666
9.81971 623
9.83983 552
9.85994 600
9.88006 606
9.90017 613
9.92028 570
9.9404 601
9.96051 624
9.98062 557
10.00074 578
10.02085 595
10.04097 567
10.06108 634
10.08119 575
10.10131 640
10.12142 587
10.14153 607
10.16165 591
10.18176 618
10.20187 616
10.22199 597
10.2421 551
10.26222 588
10.28233 628
10.30244 571
10.32256 588
10.34267 600
10.36278 612
10.3829 647
10.40301 618
10.42313 627
10.44324 609
10.46335 644
10.48347 620
10.50358 616
10.52369 650
10.54381 551
10.56392 601
10.58403 647
10.60415 607
10.62426 624
10.64438 591
10.66449 638
10.6846 618
10.70472 571
10.72483 583
10.74494 620
10.76506 591
10.78517 581
10.80529 593
10.8254 628
10.84551 645
10.86563 610
10.88574 608
10.90585 684
10.92597 628
10.94608 621
10.9662 700
10.98631 598
11.00642 655
11.02654 691
11.04665 622
11.06676 665
11.08688 638
11.10699 616
11.1271 631
11.14722 619
11.16733 671
11.18745 604
11.20756 646
11.22767 669
11.24779 608
11.2679 664
11.28801 692
11.30813 682
11.32824 687
11.34836 672
11.36847 646
11.38858 667
11.4087 656
11.42881 700
11.44892 664
11.46904 694
11.48915 653
11.50927 698
11.52938 711
11.54949 698
11.56961 707
11.58972 721
11.60983 718
11.62995 673
11.65006 690
11.67017 740
11.69029 708
11.7104 795
11.73052 711
11.75063 702
11.77074 743
11.79086 724
11.81097 766
11.83108 777
11.8512 764
11.87131 723
11.89143 726
11.91154 761
11.93165 793
11.95177 776
11.97188 755
11.99199 774
12.01211 790
12.03222 783
12.05234 800
12.07245 762
12.09256 865
12.11268 780
12.13279 791
12.1529 732
12.17302 785
12.19313 780
12.21324 752
12.23336 756
12.25347 758
12.27359 728
12.2937 775
12.31381 754
12.33393 771
12.35404 761
12.37415 737
12.39427 787
12.41438 712
12.4345 719
12.45461 658
12.47472 653
12.49484 677
12.51495 679
12.53506 686
12.55518 633
12.57529 654
12.5954 648
12.61552 637
12.63563 607
12.65575 607
12.67586 627
12.69597 660
12.71609 622
12.7362 597
12.75631 574
12.77643 560
12.79654 627
12.81666 596
12.83677 594
12.85688 547
12.877 577
12.89711 602
12.91722 628
12.93734 533
12.95745 561
12.97757 576
12.99768 603
13.01779 517
13.03791 596
13.05802 562
13.07813 606
13.09825 568
13.11836 579
13.13847 534
13.15859 525
13.1787 616
13.19882 582
13.21893 516
13.23904 577
13.25916 583
13.27927 607
13.29938 560
13.3195 542
13.33961 590
13.35973 534
13.37984 545
13.39995 558
13.42007 570
13.44018 561
13.46029 581
13.48041 535
13.50052 538
13.52064 494
13.54075 540
13.56086 565
13.58098 581
13.60109 580
13.6212 566
13.64132 539
13.66143 556
13.68154 560
13.70166 590
13.72177 538
13.74189 568
13.762 606
13.78211 567
13.80223 576
13.82234 546
13.84245 577
13.86257 513
13.88268 522
13.9028 531
13.92291 572
13.94302 532
13.96314 548
13.98325 527
14.00336 548
14.02348 553
14.04359 581
14.06371 555
14.08382 564
14.10393 516
14.12405 509
14.14416 547
14.16427 470
14.18439 561
14.2045 555
14.22461 536
14.24473 557
14.26484 536
14.28496 507
14.30507 499
14.32518 512
14.3453 537
14.36541 534
14.38552 572
14.40564 547
14.42575 502
14.44587 513
14.46598 629
14.48609 512
14.50621 559
14.52632 535
14.54643 514
14.56655 529
14.58666 569
14.60677 553
14.62689 543
14.647 542
14.66712 522
14.68723 503
14.70734 509
14.72746 560
14.74757 538
14.76768 528
14.7878 579
14.80791 543
14.82803 554
14.84814 508
14.86825 557
14.88837 500
14.90848 544
14.92859 533
14.94871 520
14.96882 541
14.98894 538
15.00905 573
15.02916 533
15.04928 553
15.06939 539
15.0895 560
15.10962 576
15.12973 567
15.14984 538
15.16996 543
15.19007 526
15.21019 584
15.2303 525
15.25041 517
15.27053 546
15.29064 534
15.31075 527
15.33087 562
15.35098 565
15.3711 559
15.39121 530
15.41132 497
15.43144 531
15.45155 561
15.47166 497
15.49178 578
15.51189 579
15.53201 561
15.55212 542
15.57223 509
15.59235 506
15.61246 509
15.63257 550
15.65269 509
15.6728 532
15.69291 563
15.71303 536
15.73314 528
15.75326 545
15.77337 546
15.79348 481
15.8136 517
15.83371 535
15.85382 570
15.87394 575
15.89405 559
15.91417 530
15.93428 569
15.95439 513
15.97451 530
15.99462 513
16.01473 522
16.03485 527
16.05496 530
16.07508 503
16.09519 498
16.1153 540
16.13542 511
16.15553 544
16.17564 543
16.19576 558
16.21587 508
16.23598 502
16.2561 486
16.27621 523
16.29633 543
16.31644 547
16.33655 519
16.35667 513
16.37678 521
16.39689 523
16.41701 500
16.43712 537
16.45724 581
16.47735 514
16.49746 514
16.51758 531
16.53769 533
16.5578 507
16.57792 522
16.59803 551
16.61814 512
16.63826 556
16.65837 542
16.67849 567
16.6986 530
16.71871 529
16.73883 527
16.75894 523
16.77905 516
16.79917 552
16.81928 520
16.8394 529
16.85951 518
16.87962 549
16.89974 536
16.91985 520
16.93996 560
16.96008 516
16.98019 566
17.00031 545
17.02042 499
17.04053 530
17.06065 566
17.08076 540
17.10087 512
17.12099 530
17.1411 561
17.16121 541
17.18133 504
17.20144 566
17.22156 547
17.24167 560
17.26178 524
17.2819 543
17.30201 565
17.32212 508
17.34224 524
17.36235 526
17.38247 528
17.40258 525
17.42269 527
17.44281 567
17.46292 519
17.48303 524
17.50315 506
17.52326 494
17.54338 491
17.56349 519
17.5836 507
17.60372 508
17.62383 579
17.64394 565
17.66406 551
17.68417 505
17.70428 516
17.7244 565
17.74451 528
17.76463 540
17.78474 540
17.80485 503
17.82497 565
17.84508 552
17.86519 548
17.88531 552
17.90542 588
17.92554 565
17.94565 503
17.96576 536
17.98588 518
18.00599 579
18.0261 546
18.04622 593
18.06633 581
18.08645 567
18.10656 604
18.12667 623
18.14679 618
18.1669 638
18.18701 597
18.20713 654
18.22724 603
18.24735 636
18.26747 590
18.28758 631
18.3077 579
18.32781 609
18.34792 538
18.36804 569
18.38815 527
18.40826 567
18.42838 584
18.44849 558
18.46861 556
18.48872 524
18.50883 570
18.52895 564
18.54906 558
18.56917 539
18.58929 546
18.6094 525
18.62951 598
18.64963 590
18.66974 574
18.68986 548
18.70997 560
18.73008 546
18.7502 601
18.77031 538
18.79042 544
18.81054 570
18.83065 567
18.85077 584
18.87088 570
18.89099 577
18.91111 556
18.93122 517
18.95133 546
18.97145 612
18.99156 571
19.01168 582
19.03179 596
19.0519 593
19.07202 533
19.09213 570
19.11224 575
19.13236 597
19.15247 579
19.17258 612
19.1927 607
19.21281 551
19.23293 571
19.25304 602
19.27315 594
19.29327 631
19.31338 622
19.33349 634
19.35361 647
19.37372 616
19.39384 579
19.41395 634
19.43406 615
19.45418 674
19.47429 602
19.4944 673
19.51452 651
19.53463 626
19.55475 700
19.57486 690
19.59497 763
19.61509 773
19.6352 781
19.65531 780
19.67543 822
19.69554 814
19.71565 834
19.73577 834
19.75588 882
19.776 872
19.79611 925
19.81622 899
19.83634 1017
19.85645 925
19.87656 1002
19.89668 963
19.91679 979
19.93691 982
19.95702 1018
19.97713 1000
19.99725 960
20.01736 921
20.03747 963
20.05759 992
20.0777 918
20.09782 901
20.11793 960
20.13804 887
20.15816 914
20.17827 975
20.19838 898
20.2185 907
20.23861 911
20.25872 858
20.27884 836
20.29895 899
20.31907 933
20.33918 844
20.35929 860
20.37941 822
20.39952 852
20.41963 848
20.43975 822
20.45986 858
20.47998 854
20.50009 837
20.5202 840
20.54032 873
20.56043 755
20.58054 831
20.60066 787
20.62077 816
20.64088 841
20.661 867
20.68111 816
20.70123 935
20.72134 868
20.74145 992
20.76157 1099
20.78168 1135
20.80179 1157
20.82191 1231
20.84202 1211
20.86214 1096
20.88225 1026
20.90236 1022
20.92248 929
20.94259 892
20.9627 856
20.98282 882
21.00293 836
21.02305 877
21.04316 842
21.06327 754
21.08339 811
21.1035 774
21.12361 775
21.14373 796
21.16384 778
21.18395 829
21.20407 785
21.22418 766
21.2443 716
21.26441 793
21.28452 806
21.30464 748
21.32475 784
21.34486 759
21.36498 788
21.38509 731
21.40521 767
21.42532 760
21.44543 707
21.46555 760
21.48566 686
21.50577 723
21.52589 751
21.546 804
21.56612 750
21.58623 730
21.60634 700
21.62646 752
21.64657 741
21.66668 718
21.6868 729
21.70691 649
21.72702 686
21.74714 678
21.76725 725
21.78737 723
21.80748 772
21.82759 769
21.84771 709
21.86782 792
21.88793 749
21.90805 765
21.92816 802
21.94828 759
21.96839 772
21.9885 729
22.00862 751
22.02873 720
22.04884 742
22.06896 722
22.08907 695
22.10919 740
22.1293 682
22.14941 670
22.16953 674
22.18964 687
22.20975 687
22.22987 674
22.24998 653
22.27009 720
22.29021 711
22.31032 710
22.33044 684
22.35055 680
22.37066 703
22.39078 686
22.41089 738
22.431 708
22.45112 696
22.47123 668
22.49135 682
22.51146 761
22.53157 659
22.55169 681
22.5718 720
22.59191 710
22.61203 706
22.63214 657
22.65225 673
22.67237 678
22.69248 735
22.7126 665
22.73271 687
22.75282 702
22.77294 699
22.79305 696
22.81316 670
22.83328 713
22.85339 671
22.87351 678
22.89362 732
22.91373 703
22.93385 678
22.95396 704
22.97407 655
22.99419 717
23.0143 757
23.03442 664
23.05453 678
23.07464 659
23.09476 758
23.11487 702
23.13498 710
23.1551 655
23.17521 691
23.19532 669
23.21544 684
23.23555 692
23.25567 663
23.27578 671
23.29589 647
23.31601 660
23.33612 732
23.35623 684
23.37635 678
23.39646 648
23.41658 779
23.43669 724
23.4568 732
23.47692 746
23.49703 734
23.51714 739
23.53726 724
23.55737 730
23.57749 791
23.5976 778
23.61771 688
23.63783 648
23.65794 745
23.67805 730
23.69817 707
23.71828 724
23.73839 717
23.75851 755
23.77862 734
23.79874 723
23.81885 781
23.83896 690
23.85908 737
23.87919 713
23.8993 745
23.91942 749
23.93953 743
23.95965 753
23.97976 719
23.99987 800
24.01999 744
24.0401 770
24.06021 753
24.08033 759
24.10044 737
24.12056 775
24.14067 790
24.16078 710
24.1809 780
24.20101 756
24.22112 751
24.24124 801
24.26135 803
24.28146 796
24.30158 784
24.32169 795
24.34181 745
24.36192 782
24.38203 753
24.40215 770
24.42226 686
24.44237 747
24.46249 779
24.4826 802
24.50272 759
24.52283 816
24.54294 757
24.56306 757
24.58317 727
24.60328 805
24.6234 802
24.64351 770
24.66362 782
24.68374 820
24.70385 762
24.72397 778
24.74408 835
24.76419 768
24.78431 784
24.80442 796
24.82453 864
24.84465 823
24.86476 793
24.88488 814
24.90499 825
24.9251 835
24.94522 773
24.96533 791
24.98544 836
25.00556 871
25.02567 816
25.04579 759
25.0659 781
25.08601 798
25.10613 792
25.12624 727
25.14635 782
25.16647 793
25.18658 811
25.20669 752
25.22681 729
25.24692 726
25.26704 720
25.28715 758
25.30726 721
25.32738 734
25.34749 780
25.3676 695
25.38772 698
25.40783 677
25.42795 734
25.44806 711
25.46817 683
25.48829 721
25.5084 724
25.52851 781
25.54863 736
25.56874 721
25.58886 781
25.60897 797
25.62908 783
25.6492 700
25.66931 733
25.68942 669
25.70954 732
25.72965 733
25.74976 729
25.76988 674
25.78999 714
25.81011 753
25.83022 624
25.85033 683
25.87045 680
25.89056 711
25.91067 680
25.93079 682
25.9509 616
25.97102 751
25.99113 686
26.01124 678
26.03136 649
26.05147 687
26.07158 636
26.0917 668
26.11181 692
26.13193 649
26.15204 698
26.17215 708
26.19227 668
26.21238 688
26.23249 697
26.25261 738
26.27272 711
26.29283 761
26.31295 777
26.33306 764
26.35318 772
26.37329 831
26.3934 803
26.41352 808
26.43363 926
26.45374 1035
26.47386 1209
26.49397 1378
26.51409 1664
26.5342 2010
26.55431 2296
26.57443 2396
26.59454 2533
26.61465 2531
26.63477 2351
26.65488 1915
26.67499 1785
26.69511 1440
26.71522 1251
26.73534 1003
26.75545 864
26.77556 829
26.79568 828
26.81579 733
26.8359 786
26.85602 756
26.87613 767
26.89625 758
26.91636 739
26.93647 755
26.95659 712
26.9767 731
26.99681 763
27.01693 706
27.03704 689
27.05716 713
27.07727 705
27.09738 757
27.1175 720
27.13761 697
27.15772 656
27.17784 684
27.19795 627
27.21806 664
27.23818 654
27.25829 678
27.27841 690
27.29852 698
27.31863 664
27.33875 683
27.35886 722
27.37897 699
27.39909 745
27.4192 731
27.43932 754
27.45943 714
27.47954 764
27.49966 765
27.51977 715
27.53988 699
27.56 682
27.58011 727
27.60023 679
27.62034 699
27.64045 675
27.66057 739
27.68068 673
27.70079 729
27.72091 714
27.74102 751
27.76113 701
27.78125 740
27.80136 696
27.82148 722
27.84159 680
27.8617 715
27.88182 728
27.90193 738
27.92204 741
27.94216 725
27.96227 750
27.98239 713
28.0025 661
28.02261 727
28.04273 620
28.06284 627
28.08295 656
28.10307 633
28.12318 640
28.1433 661
28.16341 593
28.18352 617
28.20364 660
28.22375 597
28.24386 624
28.26398 667
28.28409 640
28.3042 664
28.32432 648
28.34443 580
28.36455 635
28.38466 653
28.40477 609
28.42489 593
28.445 596
28.46511 631
28.48523 592
28.50534 580
28.52546 604
28.54557 606
28.56568 585
28.5858 612
28.60591 580
28.62602 670
28.64614 633
28.66625 632
28.68636 620
28.70648 576
28.72659 647
28.74671 549
28.76682 596
28.78693 608
28.80705 628
28.82716 625
28.84727 595
28.86739 615
28.8875 629
28.90762 641
28.92773 603
28.94784 611
28.96796 560
28.98807 571
29.00818 587
29.0283 590
29.04841 615
29.06853 640
29.08864 607
29.10875 645
29.12887 628
29.14898 605
29.16909 602
29.18921 593
29.20932 608
29.22943 600
29.24955 555
29.26966 598
29.28978 605
29.30989 579
29.33 616
29.35012 656
29.37023 651
29.39034 579
29.41046 644
29.43057 587
29.45069 612
29.4708 597
29.49091 631
29.51103 620
29.53114 659
29.55125 677
29.57137 656
29.59148 605
29.6116 651
29.63171 591
29.65182 706
29.67194 679
29.69205 711
29.71216 684
29.73228 761
29.75239 710
29.7725 738
29.79262 771
29.81273 838
29.83285 885
29.85296 919
29.87307 914
29.89319 905
29.9133 918
29.93341 897
29.95353 871
29.97364 880
29.99376 810
30.01387 849
30.03398 765
30.0541 727
30.07421 731
30.09432 714
30.11444 689
30.13455 650
30.15467 611
30.17478 639
30.19489 678
30.21501 657
30.23512 608
30.25523 668
30.27535 683
30.29546 662
30.31557 650
30.33569 606
30.3558 640
30.37592 646
30.39603 612
30.41614 654
30.43626 642
30.45637 647
30.47648 592
30.4966 624
30.51671 623
30.53683 625
30.55694 677
30.57705 594
30.59717 587
30.61728 622
30.63739 635
30.65751 588
30.67762 598
30.69773 641
30.71785 601
30.73796 581
30.75808 596
30.77819 598
30.7983 619
30.81842 621
30.83853 605
30.85864 633
30.87876 637
30.89887 629
30.91899 583
30.9391 646
30.95921 603
30.97933 622
30.99944 593
31.01955 584
31.03967 574
31.05978 600
31.0799 605
31.10001 611
31.12012 601
31.14024 641
31.16035 631
31.18046 607
31.20058 627
31.22069 680
31.2408 651
31.26092 589
31.28103 572
31.30115 606
31.32126 605
31.34137 626
31.36149 610
31.3816 575
31.40171 580
31.42183 564
31.44194 597
31.46206 647
31.48217 613
31.50228 637
31.5224 602
31.54251 626
31.56262 632
31.58274 621
31.60285 602
31.62297 650
31.64308 612
31.66319 596
31.68331 568
31.70342 610
31.72353 593
31.74365 575
31.76376 644
31.78387 593
31.80399 613
31.8241 645
31.84422 614
31.86433 558
31.88444 582
31.90456 574
31.92467 634
31.94478 550
31.9649 635
31.98501 593
32.00513 599
32.02524 565
32.04535 636
32.06547 619
32.08558 632
32.10569 596
32.12581 606
32.14592 629
32.16604 590
32.18615 573
32.20626 661
32.22638 657
32.24649 609
32.2666 571
32.28672 618
32.30683 612
32.32694 640
32.34706 601
32.36717 588
32.38729 574
32.4074 590
32.42751 599
32.44763 580
32.46774 613
32.48785 624
32.50797 616
32.52808 619
32.5482 607
32.56831 630
32.58842 604
32.60854 616
32.62865 603
32.64876 628
32.66888 607
32.68899 636
32.7091 616
32.72922 625
32.74933 630
32.76945 609
32.78956 681
32.80967 617
32.82979 628
32.8499 621
32.87001 644
32.89013 593
32.91024 609
32.93036 636
32.95047 618
32.97058 594
32.9907 599
33.01081 599
33.03092 640
33.05104 630
33.07115 627
33.09127 604
33.11138 607
33.13149 657
33.15161 641
33.17172 580
33.19183 588
33.21195 609
33.23206 602
33.25217 606
33.27229 616
33.2924 601
33.31252 593
33.33263 625
33.35274 607
33.37286 579
33.39297 579
33.41308 619
33.4332 586
33.45331 625
33.47343 604
33.49354 601
33.51365 583
33.53377 625
33.55388 605
33.57399 601
33.59411 609
33.61422 621
33.63434 576
33.65445 645
33.67456 572
33.69468 607
33.71479 607
33.7349 602
33.75502 614
33.77513 625
33.79524 602
33.81536 640
33.83547 667
33.85559 603
33.8757 611
33.89581 643
33.91593 578
33.93604 615
33.95615 640
33.97627 619
33.99638 615
34.0165 596
34.03661 660
34.05672 641
34.07684 633
34.09695 640
34.11706 639
34.13718 618
34.15729 647
34.17741 644
34.19752 641
34.21763 651
34.23775 666
34.25786 654
34.27797 649
34.29809 627
34.3182 675
34.33831 653
34.35843 674
34.37854 672
34.39866 686
34.41877 675
34.43888 693
34.459 676
34.47911 652
34.49922 678
34.51934 641
34.53945 746
34.55957 678
34.57968 721
34.59979 722
34.61991 714
34.64002 725
34.66013 746
34.68025 735
34.70036 791
34.72047 821
34.74059 788
34.7607 769
34.78082 813
34.80093 848
34.82104 810
34.84116 811
34.86127 856
34.88138 850
34.9015 872
34.92161 886
34.94173 832
34.96184 801
34.98195 927
35.00207 966
35.02218 909
35.04229 989
35.06241 1061
35.08252 1091
35.10264 1161
35.12275 1223
35.14286 1321
35.16298 1332
35.18309 1487
35.2032 1474
35.22332 1539
35.24343 1453
35.26354 1453
35.28366 1377
35.30377 1400
35.32389 1305
35.344 1177
35.36411 1087
35.38423 1090
35.40434 1067
35.42445 1022
35.44457 1012
35.46468 968
35.4848 955
35.50491 919
35.52502 930
35.54514 882
35.56525 883
35.58536 834
35.60548 882
35.62559 843
35.64571 813
35.66582 867
35.68593 808
35.70605 799
35.72616 739
35.74627 820
35.76639 734
35.7865 821
35.80661 829
35.82673 766
35.84684 745
35.86696 810
35.88707 738
35.90718 723
35.9273 733
35.94741 705
35.96752 699
35.98764 772
36.00775 777
36.02787 764
36.04798 738
36.06809 755
36.08821 767
36.10832 755
36.12843 752
36.14855 776
36.16866 740
36.18878 721
36.20889 689
36.229 752
36.24912 751
36.26923 770
36.28934 753
36.30946 765
36.32957 756
36.34968 727
36.3698 762
36.38991 765
36.41003 774
36.43014 829
36.45025 781
36.47037 873
36.49048 854
36.51059 851
36.53071 802
36.55082 789
36.57094 753
36.59105 791
36.61116 792
36.63128 780
36.65139 707
36.6715 711
36.69162 690
36.71173 681
36.73184 722
36.75196 710
36.77207 734
36.79219 707
36.8123 712
36.83241 712
36.85253 749
36.87264 692
36.89275 730
36.91287 700
36.93298 697
36.9531 725
36.97321 683
36.99332 688
37.01344 714
37.03355 664
37.05366 721
37.07378 746
37.09389 692
37.11401 652
37.13412 685
37.15423 649
37.17435 699
37.19446 725
37.21457 664
37.23469 736
37.2548 668
37.27491 694
37.29503 676
37.31514 729
37.33526 677
37.35537 684
37.37548 683
37.3956 649
37.41571 770
37.43582 689
37.45594 724
37.47605 685
37.49617 685
37.51628 704
37.53639 698
37.55651 773
37.57662 724
37.59673 737
37.61685 724
37.63696 777
37.65708 673
37.67719 730
37.6973 689
37.71742 748
37.73753 703
37.75764 735
37.77776 709
37.79787 740
37.81798 736
37.8381 752
37.85821 703
37.87833 776
37.89844 768
37.91855 750
37.93867 691
37.95878 695
37.97889 695
37.99901 714
38.01912 689
38.03924 752
38.05935 727
38.07946 738
38.09958 732
38.11969 762
38.1398 699
38.15992 728
38.18003 673
38.20015 696
38.22026 741
38.24037 691
38.26049 732
38.2806 722
38.30071 715
38.32083 727
38.34094 672
38.36105 706
38.38117 718
38.40128 708
38.4214 677
38.44151 704
38.46162 701
38.48174 715
38.50185 655
38.52196 742
38.54208 713
38.56219 678
38.58231 640
38.60242 670
38.62253 667
38.64265 685
38.66276 730
38.68287 668
38.70299 638
38.7231 668
38.74321 684
38.76333 668
38.78344 650
38.80356 674
38.82367 691
38.84378 675
38.8639 669
38.88401 692
38.90412 686
38.92424 663
38.94435 673
38.96447 679
38.98458 668
39.00469 661
39.02481 672
39.04492 669
39.06503 646
39.08515 646
39.10526 720
39.12538 689
39.14549 710
39.1656 695
39.18572 644
39.20583 698
39.22594 690
39.24606 659
39.26617 692
39.28628 670
39.3064 723
39.32651 749
39.34663 732
39.36674 753
39.38685 767
39.40697 769
39.42708 738
39.44719 726
39.46731 762
39.48742 756
39.50754 756
39.52765 691
39.54776 698
39.56788 684
39.58799 670
39.6081 638
39.62822 659
39.64833 680
39.66845 667
39.68856 670
39.70867 668
39.72879 629
39.7489 681
39.76901 632
39.78913 656
39.80924 634
39.82935 703
39.84947 659
39.86958 642
39.8897 592
39.90981 625
39.92992 670
39.95004 620
39.97015 635
39.99026 638
40.01038 613
40.03049 640
40.05061 642
40.07072 663
40.09083 652
40.11095 639
40.13106 672
40.15117 658
40.17129 694
40.1914 673
40.21152 763
40.23163 723
40.25174 705
40.27186 613
40.29197 725
40.31208 683
40.3322 668
40.35231 685
40.37242 680
40.39254 664
40.41265 662
40.43277 646
40.45288 613
40.47299 677
40.49311 632
40.51322 670
40.53333 636
40.55345 601
40.57356 629
40.59368 592
40.61379 631
40.6339 640
40.65402 688
40.67413 576
40.69424 649
40.71436 619
40.73447 680
40.75458 643
40.7747 699
40.79481 626
40.81493 650
40.83504 632
40.85515 597
40.87527 616
40.89538 631
40.91549 650
40.93561 627
40.95572 643
40.97584 604
40.99595 596
41.01606 631
41.03618 618
41.05629 635
41.0764 656
41.09652 624
41.11663 681
41.13675 611
41.15686 659
41.17697 626
41.19709 598
41.2172 582
41.23731 623
41.25743 629
41.27754 592
41.29765 595
41.31777 603
41.33788 627
41.358 574
41.37811 650
41.39822 598
41.41834 632
41.43845 598
41.45856 614
41.47868 583
41.49879 619
41.51891 618
41.53902 606
41.55913 639
41.57925 588
41.59936 622
41.61947 685
41.63959 625
41.6597 617
41.67982 628
41.69993 637
41.72004 636
41.74016 654
41.76027 610
41.78038 670
41.8005 607
41.82061 596
41.84072 603
41.86084 608
41.88095 570
41.90107 585
41.92118 590
41.94129 634
41.96141 540
41.98152 585
42.00163 571
42.02175 595
42.04186 574
42.06198 585
42.08209 575
42.1022 642
42.12232 591
42.14243 593
42.16254 618
42.18266 631
42.20277 624
42.22289 594
42.243 635
42.26311 618
42.28323 609
42.30334 638
42.32345 690
42.34357 668
42.36368 668
42.38379 632
42.40391 679
42.42402 679
42.44414 677
42.46425 652
42.48436 666
42.50448 641
42.52459 700
42.5447 686
42.56482 626
42.58493 638
42.60505 645
42.62516 669
42.64527 642
42.66539 608
42.6855 668
42.70561 743
42.72573 719
42.74584 702
42.76595 730
42.78607 725
42.80618 732
42.8263 756
42.84641 701
42.86652 725
42.88664 754
42.90675 632
42.92686 692
42.94698 679
42.96709 747
42.98721 696
43.00732 650
43.02743 647
43.04755 620
43.06766 656
43.08777 683
43.10789 699
43.128 668
43.14812 615
43.16823 607
43.18834 604
43.20846 597
43.22857 640
43.24868 586
43.2688 612
43.28891 600
43.30902 590
43.32914 668
43.34925 588
43.36937 581
43.38948 580
43.40959 612
43.42971 597
43.44982 627
43.46993 604
43.49005 611
43.51016 612
43.53028 604
43.55039 547
43.5705 557
43.59062 615
43.61073 604
43.63084 596
43.65096 597
43.67107 571
43.69119 642
43.7113 590
43.73141 565
43.75153 582
43.77164 588
43.79175 585
43.81187 603
43.83198 530
43.85209 567
43.87221 562
43.89232 623
43.91244 572
43.93255 559
43.95266 577
43.97278 626
43.99289 567
44.013 583
44.03312 604
44.05323 555
44.07335 569
44.09346 565
44.11357 546
44.13369 588
44.1538 617
44.17391 600
44.19403 609
44.21414 586
44.23426 589
44.25437 583
44.27448 579
44.2946 642
44.31471 582
44.33482 572
44.35494 604
44.37505 588
44.39516 587
44.41528 589
44.43539 598
44.45551 545
44.47562 594
44.49573 546
44.51585 564
44.53596 605
44.55607 602
44.57619 584
44.5963 560
44.61642 594
44.63653 604
44.65664 612
44.67676 589
44.69687 577
44.71698 558
44.7371 561
44.75721 615
44.77732 592
44.79744 618
44.81755 595
44.83767 554
44.85778 576
44.87789 581
44.89801 567
44.91812 605
44.93823 579
44.95835 573
44.97846 597
44.99858 591
45.01869 575
45.0388 543
45.05892 571
45.07903 561
45.09914 556
45.11926 591
45.13937 592
45.15949 627
45.1796 615
45.19971 579
45.21983 590
45.23994 603
45.26005 639
45.28017 581
45.30028 578
45.32039 572
45.34051 585
45.36062 566
45.38074 583
45.40085 629
45.42096 610
45.44108 608
45.46119 610
45.4813 594
45.50142 586
45.52153 582
45.54165 599
45.56176 614
45.58187 601
45.60199 633
45.6221 619
45.64221 629
45.66233 620
45.68244 641
45.70256 654
45.72267 642
45.74278 602
45.7629 627
45.78301 634
45.80312 649
45.82324 600
45.84335 589
45.86346 597
45.88358 618
45.90369 561
45.92381 602
45.94392 581
45.96403 551
45.98415 612
46.00426 574
46.02437 554
46.04449 596
46.0646 563
46.08472 570
46.10483 541
46.12494 563
46.14506 562
46.16517 585
46.18528 564
46.2054 637
46.22551 559
46.24563 581
46.26574 565
46.28585 583
46.30597 591
46.32608 582
46.34619 566
46.36631 547
46.38642 568
46.40653 573
46.42665 601
46.44676 578
46.46688 562
46.48699 573
46.5071 565
46.52722 631
46.54733 551
46.56744 589
46.58756 591
46.60767 621
46.62779 557
46.6479 616
46.66801 567
46.68813 578
46.70824 581
46.72835 604
46.74847 587
46.76858 599
46.78869 541
46.80881 589
46.82892 557
46.84904 595
46.86915 585
46.88926 582
46.90938 559
46.92949 556
46.9496 554
46.96972 576
46.98983 613
47.00995 595
47.03006 566
47.05017 562
47.07029 628
47.0904 596
47.11051 549
47.13063 609
47.15074 609
47.17086 599
47.19097 562
47.21108 579
47.2312 592
47.25131 582
47.27142 589
47.29154 592
47.31165 552
47.33176 574
47.35188 531
47.37199 560
47.39211 585
47.41222 603
47.43233 602
47.45245 611
47.47256 648
47.49267 599
47.51279 588
47.5329 574
47.55302 600
47.57313 591
47.59324 601
47.61336 567
47.63347 587
47.65358 577
47.6737 549
47.69381 599
47.71393 563
47.73404 613
47.75415 582
47.77427 544
47.79438 637
47.81449 603
47.83461 559
47.85472 585
47.87483 578
47.89495 555
47.91506 551
47.93518 571
47.95529 552
47.9754 519
47.99552 572
48.01563 566
48.03574 569
48.05586 576
48.07597 600
48.09609 538
48.1162 574
48.13631 605
48.15643 566
48.17654 583
48.19665 588
48.21677 547
48.23688 534
48.257 594
48.27711 526
48.29722 565
48.31734 560
48.33745 594
48.35756 555
48.37768 593
48.39779 531
48.4179 590
48.43802 582
48.45813 544
48.47825 543
48.49836 554
48.51847 565
48.53859 547
48.5587 572
48.57881 578
48.59893 544
48.61904 614
48.63916 579
48.65927 562
48.67938 604
48.6995 566
48.71961 570
48.73972 561
48.75984 589
48.77995 524
48.80006 544
48.82018 549
48.84029 605
48.86041 546
48.88052 583
48.90063 576
48.92075 598
48.94086 548
48.96097 611
48.98109 574
49.0012 556
49.02132 547
49.04143 568
49.06154 589
49.08166 599
49.10177 588
49.12188 608
49.142 537
49.16211 587
49.18223 549
49.20234 548
49.22245 535
49.24257 568
49.26268 622
49.28279 586
49.30291 572
49.32302 625
49.34313 598
49.36325 557
49.38336 593
49.40348 524
49.42359 580
49.4437 567
49.46382 576
49.48393 571
49.50404 544
49.52416 568
49.54427 574
49.56439 579
49.5845 606
49.60461 598
49.62473 591
49.64484 584
49.66495 564
49.68507 612
49.70518 561
49.7253 583
49.74541 602
49.76552 599
49.78564 559
49.80575 603
49.82586 591
49.84598 581
49.86609 584
49.8862 611
49.90632 636
49.92643 616
49.94655 644
49.96666 658
49.98677 707
50.00689 752
50.027 751
50.04711 750
50.06723 768
50.08734 723
50.10746 726
50.12757 694
50.14768 711
50.1678 689
50.18791 672
50.20802 677
50.22814 663
50.24825 642
50.26837 615
50.28848 618
50.30859 588
50.32871 530
50.34882 569
50.36893 552
50.38905 561
50.40916 607
50.42927 561
50.44939 626
50.4695 585
50.48962 569
50.50973 623
50.52984 564
50.54996 604
50.57007 562
50.59018 585
50.6103 585
50.63041 603
50.65053 578
50.67064 575
50.69075 635
50.71087 590
50.73098 592
50.75109 575
50.77121 572
50.79132 539
50.81143 568
50.83155 613
50.85166 563
50.87178 578
50.89189 548
50.912 575
50.93212 568
50.95223 565
50.97234 558
50.99246 550
51.01257 540
51.03269 577
51.0528 560
51.07291 550
51.09303 585
51.11314 587
51.13325 535
51.15337 538
51.17348 583
51.1936 528
51.21371 544
51.23382 600
51.25394 589
51.27405 560
51.29416 579
51.31428 580
51.33439 575
51.3545 562
51.37462 571
51.39473 560
51.41485 610
51.43496 589
51.45507 560
51.47519 580
51.4953 571
51.51541 581
51.53553 529
51.55564 536
51.57576 584
51.59587 599
51.61598 547
51.6361 558
51.65621 549
51.67632 576
51.69644 557
51.71655 575
51.73667 568
51.75678 538
51.77689 574
51.79701 552
51.81712 575
51.83723 576
51.85735 584
51.87746 554
51.89757 561
51.91769 560
51.9378 580
51.95792 554
51.97803 586
51.99814 564
52.01826 620
52.03837 592
52.05848 579
52.0786 580
52.09871 580
52.11883 563
52.13894 585
52.15905 523
52.17917 568
52.19928 579
52.21939 582
52.23951 572
52.25962 569
52.27974 583
52.29985 575
52.31996 606
52.34008 584
52.36019 574
52.3803 575
52.40042 587
52.42053 554
52.44064 579
52.46076 594
52.48087 598
52.50099 626
52.5211 522
52.54121 577
52.56133 584
52.58144 538
52.60155 616
52.62167 600
52.64178 579
52.6619 577
52.68201 616
52.70212 581
52.72224 592
52.74235 597
52.76246 573
52.78258 575
52.80269 603
52.8228 583
52.84292 599
52.86303 580
52.88315 618
52.90326 644
52.92337 645
52.94349 598
52.9636 658
52.98371 592
53.00383 668
53.02394 625
53.04406 632
53.06417 664
53.08428 623
53.1044 652
53.12451 683
53.14462 659
53.16474 630
53.18485 623
53.20497 675
53.22508 629
53.24519 678
53.26531 635
53.28542 652
53.30553 666
53.32565 644
53.34576 633
53.36587 616
53.38599 573
53.4061 646
53.42622 638
53.44633 645
53.46644 635
53.48656 595
53.50667 615
53.52678 607
53.5469 616
53.56701 615
53.58713 626
53.60724 634
53.62735 600
53.64747 617
53.66758 642
53.68769 607
53.70781 708
53.72792 628
53.74804 669
53.76815 626
53.78826 627
53.80838 643
53.82849 576
53.8486 631
53.86872 626
53.88883 665
53.90894 584
53.92906 637
53.94917 651
53.96929 647
53.9894 646
54.00951 634
54.02963 618
54.04974 648
54.06985 651
54.08997 613
54.11008 662
54.1302 638
54.15031 607
54.17042 659
54.19054 645
54.21065 672
54.23076 620
54.25088 626
54.27099 628
54.29111 645
54.31122 643
54.33133 647
54.35145 654
54.37156 633
54.39167 646
54.41179 636
54.4319 639
54.45201 646
54.47213 661
54.49224 667
54.51236 652
54.53247 681
54.55258 672
54.5727 651
54.59281 641
54.61292 656
54.63304 671
54.65315 638
54.67327 689
54.69338 650
54.71349 652
54.73361 686
54.75372 702
54.77383 700
54.79395 718
54.81406 726
54.83417 703
54.85429 700
54.8744 687
54.89452 659
54.91463 653
54.93474 656
54.95486 703
54.97497 646
54.99508 641
55.0152 623
55.03531 645
55.05543 598
55.07554 609
55.09565 637
55.11577 646
55.13588 663
55.15599 665
55.17611 636
55.19622 628
55.21634 670
55.23645 675
55.25656 598
55.27668 675
55.29679 656
55.3169 662
55.33702 627
55.35713 600
55.37724 616
55.39736 607
55.41747 597
55.43759 603
55.4577 655
55.47781 629
55.49793 623
55.51804 621
55.53815 618
55.55827 610
55.57838 616
55.5985 609
55.61861 673
55.63872 622
55.65884 608
55.67895 633
55.69906 628
55.71918 592
55.73929 623
55.75941 618
55.77952 610
55.79963 586
55.81975 599
55.83986 604
55.85997 614
55.88009 591
55.9002 622
55.92031 575
55.94043 660
55.96054 624
55.98066 593
56.00077 596
56.02088 591
56.041 615
56.06111 597
56.08122 601
56.10134 659
56.12145 662
56.14157 666
56.16168 639
56.18179 663
56.20191 619
56.22202 609
56.24213 621
56.26225 612
56.28236 614
56.30248 615
56.32259 594
56.3427 632
56.36282 653
56.38293 620
56.40304 667
56.42316 653
56.44327 674
56.46338 730
56.4835 667
56.50361 774
56.52373 723
56.54384 753
56.56395 750
56.58407 799
56.60418 763
56.62429 738
56.64441 742
56.66452 750
56.68464 770
56.70475 752
56.72486 766
56.74498 704
56.76509 698
56.7852 684
56.80532 687
56.82543 673
56.84554 730
56.86566 665
56.88577 697
56.90589 645
56.926 632
56.94611 628
56.96623 682
56.98634 642
57.00645 647
57.02657 656
57.04668 668
57.0668 625
57.08691 589
57.10702 647
57.12714 636
57.14725 663
57.16736 631
57.18748 627
57.20759 606
57.22771 603
57.24782 603
57.26793 627
57.28805 568
57.30816 631
57.32827 589
57.34839 619
57.3685 561
57.38861 599
57.40873 631
57.42884 593
57.44896 590
57.46907 637
57.48918 613
57.5093 604
57.52941 626
57.54952 565
57.56964 575
57.58975 580
57.60987 554
57.62998 566
57.65009 566
57.67021 588
57.69032 637
57.71043 616
57.73055 540
57.75066 574
57.77078 568
57.79089 578
57.811 577
57.83112 609
57.85123 567
57.87134 565
57.89146 603
57.91157 564
57.93168 561
57.9518 542
57.97191 567
57.99203 577
58.01214 557
58.03225 579
58.05237 557
58.07248 594
58.09259 565
58.11271 569
58.13282 545
58.15294 552
58.17305 579
58.19316 580
58.21328 580
58.23339 581
58.2535 595
58.27362 581
58.29373 579
58.31385 590
58.33396 548
58.35407 541
58.37419 592
58.3943 601
58.41441 555
58.43453 564
58.45464 585
58.47475 594
58.49487 550
58.51498 539
58.5351 577
58.55521 593
58.57532 552
58.59544 564
58.61555 570
58.63566 610
58.65578 596
58.67589 548
58.69601 573
58.71612 569
58.73623 556
58.75635 550
58.77646 546
58.79657 590
58.81669 562
58.8368 588
58.85691 591
58.87703 557
58.89714 583
58.91726 597
58.93737 600
58.95748 547
58.9776 560
58.99771 598
59.01782 548
59.03794 614
59.05805 572
59.07817 559
59.09828 599
59.11839 577
59.13851 541
59.15862 578
59.17873 595
59.19885 555
59.21896 540
59.23908 569
59.25919 549
59.2793 602
59.29942 560
59.31953 585
59.33964 561
59.35976 620
59.37987 599
59.39998 570
59.4201 608
59.44021 543
59.46033 584
59.48044 543
59.50055 599
59.52067 606
59.54078 601
59.56089 576
59.58101 561
59.60112 595
59.62124 578
59.64135 579
59.66146 613
59.68158 594
59.70169 615
59.7218 570
59.74192 615
59.76203 614
59.78215 627
59.80226 692
59.82237 650
59.84249 697
59.8626 724
59.88271 713
59.90283 700
59.92294 689
59.94305 707
59.96317 649
59.98328 649
60.0034 642
60.02351 667
60.04362 635
60.06374 647
60.08385 618
60.10396 604
60.12408 603
60.14419 619
60.16431 552
60.18442 629
60.20453 578
60.22465 584
60.24476 575
60.26487 584
60.28499 565
60.3051 556
60.32522 607
60.34533 562
60.36544 606
60.38556 591
60.40567 570
60.42578 577
60.4459 608
60.46601 571
60.48612 587
60.50624 619
60.52635 573
60.54647 571
60.56658 564
60.58669 595
60.60681 589
60.62692 607
60.64703 566
60.66715 586
60.68726 607
60.70738 581
60.72749 587
60.7476 591
60.76772 583
60.78783 589
60.80794 598
60.82806 593
60.84817 590
60.86828 589
60.8884 620
60.90851 604
60.92863 620
60.94874 603
60.96885 578
60.98897 569
61.00908 589
61.02919 617
61.04931 584
61.06942 622
61.08954 580
61.10965 619
61.12976 586
61.14988 570
61.16999 576
61.1901 604
61.21022 602
61.23033 609
61.25045 613
61.27056 581
61.29067 613
61.31079 660
61.3309 622
61.35101 610
61.37113 597
61.39124 611
61.41135 610
61.43147 618
61.45158 675
61.4717 663
61.49181 631
61.51192 602
61.53204 590
61.55215 611
61.57226 613
61.59238 621
61.61249 634
61.63261 642
61.65272 640
61.67283 644
61.69295 597
61.71306 641
61.73317 617
61.75329 704
61.7734 691
61.79352 708
61.81363 717
61.83374 705
61.85386 748
61.87397 718
61.89408 708
61.9142 732
61.93431 711
61.95442 794
61.97454 760
61.99465 807
62.01477 798
62.03488 827
62.05499 781
62.07511 903
62.09522 855
62.11533 895
62.13545 928
62.15556 901
62.17568 860
62.19579 857
62.2159 850
62.23602 878
62.25613 919
62.27624 841
62.29636 833
62.31647 821
62.33659 845
62.3567 800
62.37681 799
62.39693 746
62.41704 798
62.43715 757
62.45727 725
62.47738 769
62.49749 717
62.51761 698
62.53772 693
62.55784 677
62.57795 660
62.59806 714
62.61818 671
62.63829 710
62.6584 700
62.67852 671
62.69863 694
62.71875 670
62.73886 700
62.75897 682
62.77909 673
62.7992 685
62.81931 628
62.83943 627
62.85954 679
62.87965 634
62.89977 622
62.91988 642
62.94 659
62.96011 658
62.98022 642
63.00034 639
63.02045 652
63.04056 643
63.06068 614
63.08079 659
63.10091 604
63.12102 663
63.14113 616
63.16125 617
63.18136 615
63.20147 643
63.22159 676
63.2417 627
63.26182 622
63.28193 620
63.30204 598
63.32216 643
63.34227 608
63.36238 688
63.3825 605
63.40261 642
63.42272 646
63.44284 603
63.46295 615
63.48307 607
63.50318 648
63.52329 600
63.54341 650
63.56352 643
63.58363 642
63.60375 601
63.62386 627
63.64398 610
63.66409 663
63.6842 623
63.70432 569
63.72443 616
63.74454 623
63.76466 576
63.78477 621
63.80489 619
63.825 617
63.84511 581
63.86523 628
63.88534 600
63.90545 646
63.92557 588
63.94568 604
63.96579 666
63.98591 640
64.00602 613
64.02614 615
64.04625 599
64.06636 645
64.08648 628
64.10659 608
64.1267 596
64.14682 611
64.16693 613
64.18705 607
64.20716 603
64.22727 617
64.24739 603
64.2675 600
64.28761 636
64.30773 590
64.32784 632
64.34796 585
64.36807 554
64.38818 577
64.4083 540
64.42841 600
64.44852 585
64.46864 572
64.48875 569
64.50886 549
64.52898 576
64.54909 600
64.56921 558
64.58932 592
64.60943 586
64.62955 564
64.64966 569
64.66977 613
64.68989 601
64.71 558
64.73012 586
64.75023 556
64.77034 588
64.79046 574
64.81057 549
64.83068 585
64.8508 554
64.87091 604
64.89102 537
64.91114 571
64.93125 550
64.95137 540
64.97148 591
64.99159 580
65.01171 571
65.03182 507
65.05193 556
65.07205 581
65.09216 543
65.11228 585
65.13239 567
65.1525 564
65.17262 574
65.19273 569
65.21284 593
65.23296 540
65.25307 574
65.27319 582
65.2933 529
65.31341 584
65.33353 542
65.35364 597
65.37375 541
65.39387 610
65.41398 584
65.43409 523
65.45421 593
65.47432 529
65.49444 558
65.51455 564
65.53466 570
65.55478 561
65.57489 576
65.595 586
65.61512 565
65.63523 579
65.65535 579
65.67546 576
65.69557 529
65.71569 549
65.7358 566
65.75591 572
65.77603 558
65.79614 531
65.81626 558
65.83637 576
65.85648 604
65.8766 579
65.89671 555
65.91682 565
65.93694 584
65.95705 569
65.97716 555
65.99728 558
66.01739 539
66.03751 551
66.05762 553
66.07773 580
66.09785 531
66.11796 542
66.13807 535
66.15819 568
66.1783 588
66.19842 548
66.21853 520
66.23864 506
66.25876 550
66.27887 578
66.29898 569
66.3191 549
66.33921 585
66.35933 567
66.37944 533
66.39955 558
66.41967 552
66.43978 560
66.45989 528
66.48001 609
66.50012 542
66.52023 582
66.54035 570
66.56046 520
66.58058 569
66.60069 531
66.6208 540
66.64092 549
66.66103 554
66.68114 567
66.70126 563
66.72137 557
66.74149 548
66.7616 572
66.78171 548
66.80183 506
66.82194 554
66.84205 519
66.86217 503
66.88228 527
66.90239 580
66.92251 555
66.94262 501
66.96274 565
66.98285 581
67.00296 542
67.02308 545
67.04319 500
67.0633 524
67.08342 558
67.10353 534
67.12365 548
67.14376 530
67.16387 583
67.18399 562
67.2041 577
67.22421 550
67.24433 547
67.26444 553
67.28456 579
67.30467 579
67.32478 588
67.3449 590
67.36501 583
67.38512 539
67.40524 542
67.42535 598
67.44546 578
67.46558 539
67.48569 577
67.50581 601
67.52592 622
67.54603 646
67.56615 637
67.58626 648
67.60637 606
67.62649 637
67.6466 633
67.66672 606
67.68683 584
67.70694 572
67.72706 616
67.74717 530
67.76728 631
67.7874 609
67.80751 615
67.82763 559
67.84774 574
67.86785 611
67.88797 631
67.90808 629
67.92819 596
67.94831 604
67.96842 629
67.98853 608
68.00865 583
68.02876 644
68.04888 663
68.06899 661
68.0891 669
68.10922 688
68.12933 608
68.14944 620
68.16956 645
68.18967 632
68.20979 676
68.2299 654
68.25001 632
68.27013 665
68.29024 612
68.31035 640
68.33047 627
68.35058 589
68.3707 572
68.39081 605
68.41092 597
68.43104 607
68.45115 594
68.47126 569
68.49138 574
68.51149 541
68.5316 546
68.55172 587
68.57183 581
68.59195 528
68.61206 587
68.63217 562
68.65229 560
68.6724 582
68.69251 525
68.71263 543
68.73274 597
68.75286 551
68.77297 523
68.79308 575
68.8132 562
68.83331 548
68.85342 556
68.87354 554
68.89365 564
68.91376 582
68.93388 565
68.95399 577
68.97411 589
68.99422 534
69.01433 564
69.03445 566
69.05456 555
69.07467 561
69.09479 535
69.1149 542
69.13502 582
69.15513 524
69.17524 549
69.19536 555
69.21547 585
69.23558 541
69.2557 560
69.27581 546
69.29593 542
69.31604 545
69.33615 532
69.35627 559
69.37638 537
69.39649 580
69.41661 563
69.43672 542
69.45683 541
69.47695 560
69.49706 520
69.51718 541
69.53729 502
69.5574 541
69.57752 539
69.59763 540
69.61774 582
69.63786 540
69.65797 557
69.67809 544
69.6982 547
69.71831 547
69.73843 538
69.75854 577
69.77865 583
69.79877 545
69.81888 530
69.839 529
69.85911 580
69.87922 565
69.89934 586
69.91945 578
69.93956 556
69.95968 556
69.97979 564
69.9999 569
70.02002 492
70.04013 601
70.06025 513
70.08036 520
70.10047 551
70.12059 488
70.1407 523
70.16081 588
70.18093 536
70.20104 551
70.22116 561
70.24127 530
70.26138 532
70.2815 518
70.30161 583
70.32172 567
70.34184 547
70.36195 552
70.38207 545
70.40218 568
70.42229 511
70.44241 541
70.46252 519
70.48263 605
70.50275 560
70.52286 527
70.54297 563
70.56309 554
70.5832 565
70.60332 603
70.62343 550
70.64354 550
70.66366 518
70.68377 533
70.70388 581
70.724 576
70.74411 555
70.76423 580
70.78434 508
70.80445 553
70.82457 530
70.84468 576
70.86479 549
70.88491 541
70.90502 542
70.92513 603
70.94525 552
70.96536 566
70.98548 604
71.00559 557
71.0257 527
71.04582 569
71.06593 527
71.08604 543
71.10616 575
71.12627 555
71.14639 611
71.1665 556
71.18661 532
71.20673 552
71.22684 565
71.24695 550
71.26707 546
71.28718 540
71.3073 548
71.32741 492
71.34752 569
71.36764 544
71.38775 548
71.40786 561
71.42798 553
71.44809 542
71.4682 548
71.48832 541
71.50843 569
71.52855 572
71.54866 542
71.56877 536
71.58889 551
71.609 528
71.62911 560
71.64923 568
71.66934 527
71.68946 568
71.70957 516
71.72968 545
71.7498 522
71.76991 532
71.79002 573
71.81014 533
71.83025 545
71.85037 546
71.87048 538
71.89059 536
71.91071 538
71.93082 526
71.95093 576
71.97105 524
71.99116 533
72.01127 566
72.03139 550
72.0515 563
72.07162 508
72.09173 526
72.11184 545
72.13196 570
72.15207 565
72.17218 548
72.1923 543
72.21241 547
72.23253 556
72.25264 553
72.27275 512
72.29287 533
72.31298 522
72.33309 525
72.35321 543
72.37332 490
72.39344 550
72.41355 515
72.43366 552
72.45378 518
72.47389 529
72.494 536
72.51412 551
72.53423 578
72.55434 520
72.57446 578
72.59457 510
72.61469 544
72.6348 540
72.65491 511
72.67503 562
72.69514 574
72.71525 563
72.73537 562
72.75548 542
72.7756 546
72.79571 582
72.81582 553
72.83594 536
72.85605 539
72.87616 536
72.89628 583
72.91639 553
72.9365 545
72.95662 557
72.97673 575
72.99685 557
73.01696 556
73.03707 555
73.05719 567
73.0773 542
73.09741 567
73.11753 578
73.13764 556
73.15776 550
73.17787 566
73.19798 551
73.2181 604
73.23821 563
73.25832 574
73.27844 615
73.29855 591
73.31867 625
73.33878 588
73.35889 596
73.37901 588
73.39912 685
73.41923 587
73.43935 614
73.45946 640
73.47957 626
73.49969 646
73.5198 575
73.53992 595
73.56003 627
73.58014 577
73.60026 622
73.62037 600
73.64048 597
73.6606 548
73.68071 644
73.70083 577
73.72094 580
73.74105 564
73.76117 589
73.78128 576
73.80139 576
73.82151 553
73.84162 532
73.86174 566
73.88185 592
73.90196 532
73.92208 631
73.94219 619
73.9623 557
73.98242 517
74.00253 548
74.02264 563
74.04276 533
74.06287 563
74.08299 573
74.1031 567
74.12321 525
74.14333 533
74.16344 561
74.18355 571
74.20367 542
74.22378 539
74.2439 550
74.26401 555
74.28412 586
74.30424 579
74.32435 540
74.34446 531
74.36458 585
74.38469 557
74.40481 576
74.42492 533
74.44503 565
74.46515 577
74.48526 548
74.50537 565
74.52549 596
74.5456 538
74.56571 547
74.58583 608
74.60594 550
74.62606 544
74.64617 597
74.66628 569
74.6864 557
74.70651 548
74.72662 551
74.74674 585
74.76685 522
74.78697 550
74.80708 512
74.82719 567
74.84731 549
74.86742 546
74.88753 543
74.90765 582
74.92776 577
74.94787 529
74.96799 577
74.9881 534
75.00822 557
